#X		#Y		#Wave		#Intensity
12363.243830	-1216.611667	1999.980469	-129.673996
12363.243830	-1216.611667	1999.016602	238.856903
12363.243830	-1216.611667	1998.052734	-44.594788
12363.243830	-1216.611667	1997.087891	-132.411011
12363.243830	-1216.611667	1996.123047	-76.729607
12363.243830	-1216.611667	1995.158203	82.742783
12363.243830	-1216.611667	1994.193359	-10.697783
12363.243830	-1216.611667	1993.228516	-10.219257
12363.243830	-1216.611667	1992.262695	-56.986824
12363.243830	-1216.611667	1991.297852	133.693237
12363.243830	-1216.611667	1990.332031	49.397446
12363.243830	-1216.611667	1989.366211	105.989349
12363.243830	-1216.611667	1988.399414	162.384384
12363.243830	-1216.611667	1987.433594	89.955872
12363.243830	-1216.611667	1986.466797	-64.219856
12363.243830	-1216.611667	1985.500977	-84.981987
12363.243830	-1216.611667	1984.534180	-46.554985
12363.243830	-1216.611667	1983.567383	46.085983
12363.243830	-1216.611667	1982.599609	37.233383
12363.243830	-1216.611667	1981.632813	129.544754
12363.243830	-1216.611667	1980.665039	-50.041119
12363.243830	-1216.611667	1979.697266	-24.686863
12363.243830	-1216.611667	1978.729492	-43.912403
12363.243830	-1216.611667	1977.761719	-21.273943
12363.243830	-1216.611667	1976.792969	90.115089
12363.243830	-1216.611667	1975.825195	164.334747
12363.243830	-1216.611667	1974.856445	38.554974
12363.243830	-1216.611667	1973.887695	213.715561
12363.243830	-1216.611667	1972.918945	18.720598
12363.243830	-1216.611667	1971.949219	1.280699
12363.243830	-1216.611667	1970.980469	79.926445
12363.243830	-1216.611667	1970.010742	160.933624
12363.243830	-1216.611667	1969.041016	207.327835
12363.243830	-1216.611667	1968.071289	184.633606
12363.243830	-1216.611667	1967.101563	68.253281
12363.243830	-1216.611667	1966.130859	70.101433
12363.243830	-1216.611667	1965.161133	17.702921
12363.243830	-1216.611667	1964.190430	179.510712
12363.243830	-1216.611667	1963.219727	181.171219
12363.243830	-1216.611667	1962.249023	-83.070999
12363.243830	-1216.611667	1961.277344	-150.366669
12363.243830	-1216.611667	1960.306641	48.075684
12363.243830	-1216.611667	1959.334961	52.047817
12363.243830	-1216.611667	1958.363281	97.798409
12363.243830	-1216.611667	1957.391602	72.177933
12363.243830	-1216.611667	1956.419922	80.960594
12363.243830	-1216.611667	1955.447266	143.797623
12363.243830	-1216.611667	1954.474609	-63.789146
12363.243830	-1216.611667	1953.501953	43.238869
12363.243830	-1216.611667	1952.529297	110.893776
12363.243830	-1216.611667	1951.556641	222.722733
12363.243830	-1216.611667	1950.583984	300.108795
12363.243830	-1216.611667	1949.610352	-3.178404
12363.243830	-1216.611667	1948.636719	-100.125191
12363.243830	-1216.611667	1947.663086	-15.394712
12363.243830	-1216.611667	1946.689453	93.839066
12363.243830	-1216.611667	1945.715820	-189.591080
12363.243830	-1216.611667	1944.741211	-53.389534
12363.243830	-1216.611667	1943.767578	6.715760
12363.243830	-1216.611667	1942.792969	238.470444
12363.243830	-1216.611667	1941.818359	48.390583
12363.243830	-1216.611667	1940.842773	-95.037132
12363.243830	-1216.611667	1939.868164	55.721775
12363.243830	-1216.611667	1938.892578	69.192917
12363.243830	-1216.611667	1937.916992	82.662582
12363.243830	-1216.611667	1936.941406	27.540016
12363.243830	-1216.611667	1935.965820	-64.294876
12363.243830	-1216.611667	1934.990234	-6.710316
12363.243830	-1216.611667	1934.013672	187.970367
12363.243830	-1216.611667	1933.037109	44.775295
12363.243830	-1216.611667	1932.060547	-147.306534
12363.243830	-1216.611667	1931.083984	-75.029327
12363.243830	-1216.611667	1930.107422	-134.882721
12363.243830	-1216.611667	1929.129883	-131.102402
12363.243830	-1216.611667	1928.153320	-139.541580
12363.243830	-1216.611667	1927.175781	-45.266026
12363.243830	-1216.611667	1926.198242	80.768494
12363.243830	-1216.611667	1925.219727	8.784128
12363.243830	-1216.611667	1924.242188	29.703709
12363.243830	-1216.611667	1923.263672	60.402763
12363.243830	-1216.611667	1922.285156	113.091270
12363.243830	-1216.611667	1921.306641	43.651180
12363.243830	-1216.611667	1920.328125	-150.290482
12363.243830	-1216.611667	1919.349609	-109.759094
12363.243830	-1216.611667	1918.370117	79.679161
12363.243830	-1216.611667	1917.391602	15.233692
12363.243830	-1216.611667	1916.412109	38.673450
12363.243830	-1216.611667	1915.431641	8.445575
12363.243830	-1216.611667	1914.452148	61.176266
12363.243830	-1216.611667	1913.472656	45.613594
12363.243830	-1216.611667	1912.492188	-162.558792
12363.243830	-1216.611667	1911.511719	-80.531960
12363.243830	-1216.611667	1910.531250	-59.458599
12363.243830	-1216.611667	1909.550781	12.794684
12363.243830	-1216.611667	1908.569336	58.231731
12363.243830	-1216.611667	1907.588867	-61.990448
12363.243830	-1216.611667	1906.607422	7.821753
12363.243830	-1216.611667	1905.625977	28.913527
12363.243830	-1216.611667	1904.644531	-18.163935
12363.243830	-1216.611667	1903.662109	134.394852
12363.243830	-1216.611667	1902.680664	-73.298279
12363.243830	-1216.611667	1901.698242	-40.004868
12363.243830	-1216.611667	1900.715820	-169.720154
12363.243830	-1216.611667	1899.733398	77.646942
12363.243830	-1216.611667	1898.750000	-137.147995
12363.243830	-1216.611667	1897.767578	-35.761921
12363.243830	-1216.611667	1896.784180	12.109007
12363.243830	-1216.611667	1895.800781	67.256485
12363.243830	-1216.611667	1894.817383	-69.597664
12363.243830	-1216.611667	1893.833984	-72.764847
12363.243830	-1216.611667	1892.850586	4.234521
12363.243830	-1216.611667	1891.866211	-47.519917
12363.243830	-1216.611667	1890.881836	5.161858
12363.243830	-1216.611667	1889.897461	-5.303131
12363.243830	-1216.611667	1888.913086	-10.911935
12363.243830	-1216.611667	1887.927734	109.680626
12363.243830	-1216.611667	1886.943359	-19.710957
12363.243830	-1216.611667	1885.958008	-132.076035
12363.243830	-1216.611667	1884.972656	-115.848724
12363.243830	-1216.611667	1883.987305	7.071501
12363.243830	-1216.611667	1883.001953	125.085938
12363.243830	-1216.611667	1882.015625	-38.165466
12363.243830	-1216.611667	1881.029297	234.916382
12363.243830	-1216.611667	1880.042969	37.754192
12363.243830	-1216.611667	1879.056641	-13.974407
12363.243830	-1216.611667	1878.070313	-152.906281
12363.243830	-1216.611667	1877.083984	83.604889
12363.243830	-1216.611667	1876.096680	106.916710
12363.243830	-1216.611667	1875.109375	-34.431320
12363.243830	-1216.611667	1874.122070	-30.508703
12363.243830	-1216.611667	1873.134766	-24.187698
12363.243830	-1216.611667	1872.146484	-75.963379
12363.243830	-1216.611667	1871.159180	-113.228035
12363.243830	-1216.611667	1870.170898	154.267609
12363.243830	-1216.611667	1869.182617	-76.543320
12363.243830	-1216.611667	1868.194336	-36.490112
12363.243830	-1216.611667	1867.205078	-30.322895
12363.243830	-1216.611667	1866.216797	38.654163
12363.243830	-1216.611667	1865.227539	213.903915
12363.243830	-1216.611667	1864.238281	-33.759529
12363.243830	-1216.611667	1863.249023	327.376495
12363.243830	-1216.611667	1862.259766	-111.080811
12363.243830	-1216.611667	1861.269531	37.370182
12363.243830	-1216.611667	1860.279297	101.229256
12363.243830	-1216.611667	1859.290039	-81.184326
12363.243830	-1216.611667	1858.298828	214.280090
12363.243830	-1216.611667	1857.308594	379.295624
12363.243830	-1216.611667	1856.318359	93.077667
12363.243830	-1216.611667	1855.327148	55.361057
12363.243830	-1216.611667	1854.335938	123.723923
12363.243830	-1216.611667	1853.344727	105.215843
12363.243830	-1216.611667	1852.353516	144.524109
12363.243830	-1216.611667	1851.362305	-199.451126
12363.243830	-1216.611667	1850.370117	37.401703
12363.243830	-1216.611667	1849.377930	134.376785
12363.243830	-1216.611667	1848.385742	-98.745819
12363.243830	-1216.611667	1847.393555	24.606945
12363.243830	-1216.611667	1846.401367	131.004227
12363.243830	-1216.611667	1845.408203	51.931339
12363.243830	-1216.611667	1844.415039	172.614410
12363.243830	-1216.611667	1843.421875	-17.252398
12363.243830	-1216.611667	1842.428711	177.872742
12363.243830	-1216.611667	1841.435547	79.372467
12363.243830	-1216.611667	1840.441406	110.730904
12363.243830	-1216.611667	1839.448242	230.991058
12363.243830	-1216.611667	1838.454102	216.502090
12363.243830	-1216.611667	1837.459961	-146.605118
12363.243830	-1216.611667	1836.464844	23.914036
12363.243830	-1216.611667	1835.470703	158.258377
12363.243830	-1216.611667	1834.475586	143.528580
12363.243830	-1216.611667	1833.480469	282.467102
12363.243830	-1216.611667	1832.485352	94.666618
12363.243830	-1216.611667	1831.490234	271.839020
12363.243830	-1216.611667	1830.495117	163.190277
12363.243830	-1216.611667	1829.499023	42.507603
12363.243830	-1216.611667	1828.502930	70.582680
12363.243830	-1216.611667	1827.506836	148.958450
12363.243830	-1216.611667	1826.510742	131.272629
12363.243830	-1216.611667	1825.513672	209.451767
12363.243830	-1216.611667	1824.517578	177.217850
12363.243830	-1216.611667	1823.520508	15.448425
12363.243830	-1216.611667	1822.523438	57.411270
12363.243830	-1216.611667	1821.526367	250.263672
12363.243830	-1216.611667	1820.529297	404.621887
12363.243830	-1216.611667	1819.531250	345.619202
12363.243830	-1216.611667	1818.533203	-36.806358
12363.243830	-1216.611667	1817.535156	114.869743
12363.243830	-1216.611667	1816.537109	129.923996
12363.243830	-1216.611667	1815.539063	87.431740
12363.243830	-1216.611667	1814.540039	90.341293
12363.243830	-1216.611667	1813.541992	42.910694
12363.243830	-1216.611667	1812.542969	45.649658
12363.243830	-1216.611667	1811.543945	-95.229630
12363.243830	-1216.611667	1810.543945	213.480621
12363.243830	-1216.611667	1809.544922	187.216965
12363.243830	-1216.611667	1808.544922	179.994324
12363.243830	-1216.611667	1807.544922	151.167847
12363.243830	-1216.611667	1806.544922	196.342331
12363.243830	-1216.611667	1805.544922	169.723129
12363.243830	-1216.611667	1804.544922	-17.041000
12363.243830	-1216.611667	1803.543945	-46.193977
12363.243830	-1216.611667	1802.542969	-116.029503
12363.243830	-1216.611667	1801.541992	198.463531
12363.243830	-1216.611667	1800.541016	80.668282
12363.243830	-1216.611667	1799.539063	-1.386007
12363.243830	-1216.611667	1798.538086	195.683731
12363.243830	-1216.611667	1797.536133	244.656189
12363.243830	-1216.611667	1796.534180	310.206085
12363.243830	-1216.611667	1795.532227	79.905205
12363.243830	-1216.611667	1794.529297	90.411224
12363.243830	-1216.611667	1793.527344	-192.414169
12363.243830	-1216.611667	1792.524414	101.571098
12363.243830	-1216.611667	1791.521484	80.775703
12363.243830	-1216.611667	1790.518555	36.057625
12363.243830	-1216.611667	1789.514648	86.534134
12363.243830	-1216.611667	1788.511719	165.470306
12363.243830	-1216.611667	1787.507813	-43.866703
12363.243830	-1216.611667	1786.503906	-86.574471
12363.243830	-1216.611667	1785.500000	94.380852
12363.243830	-1216.611667	1784.496094	-117.524513
12363.243830	-1216.611667	1783.491211	-96.276329
12363.243830	-1216.611667	1782.486328	-46.595695
12363.243830	-1216.611667	1781.481445	-220.626450
12363.243830	-1216.611667	1780.476563	-57.010452
12363.243830	-1216.611667	1779.471680	63.637798
12363.243830	-1216.611667	1778.465820	-108.271408
12363.243830	-1216.611667	1777.460938	83.423988
12363.243830	-1216.611667	1776.455078	144.233200
12363.243830	-1216.611667	1775.449219	-77.815987
12363.243830	-1216.611667	1774.442383	-119.367332
12363.243830	-1216.611667	1773.436523	121.611259
12363.243830	-1216.611667	1772.429688	56.070629
12363.243830	-1216.611667	1771.422852	-163.869156
12363.243830	-1216.611667	1770.416016	-91.884926
12363.243830	-1216.611667	1769.409180	41.661922
12363.243830	-1216.611667	1768.402344	58.785007
12363.243830	-1216.611667	1767.394531	-68.922737
12363.243830	-1216.611667	1766.386719	-66.245903
12363.243830	-1216.611667	1765.378906	66.741310
12363.243830	-1216.611667	1764.371094	52.570164
12363.243830	-1216.611667	1763.362305	-170.312271
12363.243830	-1216.611667	1762.354492	137.661835
12363.243830	-1216.611667	1761.345703	-189.635010
12363.243830	-1216.611667	1760.336914	-17.043264
12363.243830	-1216.611667	1759.328125	-76.756187
12363.243830	-1216.611667	1758.318359	225.766602
12363.243830	-1216.611667	1757.308594	16.632242
12363.243830	-1216.611667	1756.299805	-38.653236
12363.243830	-1216.611667	1755.290039	-39.600288
12363.243830	-1216.611667	1754.279297	-45.398487
12363.243830	-1216.611667	1753.269531	114.315979
12363.243830	-1216.611667	1752.258789	11.282073
12363.243830	-1216.611667	1751.249023	69.006630
12363.243830	-1216.611667	1750.238281	-31.837179
12363.243830	-1216.611667	1749.226563	-123.305054
12363.243830	-1216.611667	1748.215820	-99.020355
12363.243830	-1216.611667	1747.204102	-124.491150
12363.243830	-1216.611667	1746.193359	-34.278824
12363.243830	-1216.611667	1745.181641	-93.045151
12363.243830	-1216.611667	1744.168945	-55.070339
12363.243830	-1216.611667	1743.157227	-142.366302
12363.243830	-1216.611667	1742.144531	-33.786751
12363.243830	-1216.611667	1741.132813	-19.767975
12363.243830	-1216.611667	1740.120117	-109.715828
12363.243830	-1216.611667	1739.106445	-282.334259
12363.243830	-1216.611667	1738.093750	75.829742
12363.243830	-1216.611667	1737.080078	65.779976
12363.243830	-1216.611667	1736.067383	-43.411953
12363.243830	-1216.611667	1735.053711	163.271027
12363.243830	-1216.611667	1734.040039	77.455376
12363.243830	-1216.611667	1733.025391	5.697922
12363.243830	-1216.611667	1732.011719	112.964691
12363.243830	-1216.611667	1730.997070	85.782776
12363.243830	-1216.611667	1729.982422	1.973425
12363.243830	-1216.611667	1728.967773	40.559708
12363.243830	-1216.611667	1727.952148	57.824593
12363.243830	-1216.611667	1726.937500	-68.615440
12363.243830	-1216.611667	1725.921875	-75.077927
12363.243830	-1216.611667	1724.906250	106.627090
12363.243830	-1216.611667	1723.890625	85.814758
12363.243830	-1216.611667	1722.875000	361.314850
12363.243830	-1216.611667	1721.858398	255.580765
12363.243830	-1216.611667	1720.841797	257.957214
12363.243830	-1216.611667	1719.825195	220.267197
12363.243830	-1216.611667	1718.808594	351.738983
12363.243830	-1216.611667	1717.791992	259.797150
12363.243830	-1216.611667	1716.774414	167.782425
12363.243830	-1216.611667	1715.756836	214.315430
12363.243830	-1216.611667	1714.739258	63.435024
12363.243830	-1216.611667	1713.721680	67.510193
12363.243830	-1216.611667	1712.704102	92.621826
12363.243830	-1216.611667	1711.685547	-149.991272
12363.243830	-1216.611667	1710.667969	100.282639
12363.243830	-1216.611667	1709.649414	172.018890
12363.243830	-1216.611667	1708.630859	206.099533
12363.243830	-1216.611667	1707.611328	-50.797455
12363.243830	-1216.611667	1706.592773	-0.448317
12363.243830	-1216.611667	1705.573242	-1.802708
12363.243830	-1216.611667	1704.553711	125.693649
12363.243830	-1216.611667	1703.534180	-9.458309
12363.243830	-1216.611667	1702.513672	-132.939331
12363.243830	-1216.611667	1701.494141	-120.551201
12363.243830	-1216.611667	1700.473633	65.082870
12363.243830	-1216.611667	1699.453125	28.065454
12363.243830	-1216.611667	1698.432617	54.206131
12363.243830	-1216.611667	1697.412109	-139.814423
12363.243830	-1216.611667	1696.390625	101.520920
12363.243830	-1216.611667	1695.369141	-43.459335
12363.243830	-1216.611667	1694.347656	-12.975852
12363.243830	-1216.611667	1693.326172	-134.638931
12363.243830	-1216.611667	1692.304688	-118.334229
12363.243830	-1216.611667	1691.282227	21.814461
12363.243830	-1216.611667	1690.260742	110.414238
12363.243830	-1216.611667	1689.238281	-13.827484
12363.243830	-1216.611667	1688.214844	-35.272125
12363.243830	-1216.611667	1687.192383	1.651691
12363.243830	-1216.611667	1686.168945	230.048492
12363.243830	-1216.611667	1685.146484	44.869770
12363.243830	-1216.611667	1684.123047	170.280396
12363.243830	-1216.611667	1683.099609	45.744511
12363.243830	-1216.611667	1682.075195	175.630066
12363.243830	-1216.611667	1681.051758	179.380295
12363.243830	-1216.611667	1680.027344	141.048264
12363.243830	-1216.611667	1679.002930	142.331818
12363.243830	-1216.611667	1677.978516	176.210617
12363.243830	-1216.611667	1676.953125	363.926422
12363.243830	-1216.611667	1675.928711	283.377106
12363.243830	-1216.611667	1674.903320	237.755951
12363.243830	-1216.611667	1673.877930	310.968048
12363.243830	-1216.611667	1672.852539	307.194305
12363.243830	-1216.611667	1671.826172	165.888168
12363.243830	-1216.611667	1670.800781	299.477356
12363.243830	-1216.611667	1669.774414	400.342163
12363.243830	-1216.611667	1668.748047	396.330383
12363.243830	-1216.611667	1667.721680	352.693268
12363.243830	-1216.611667	1666.694336	434.706329
12363.243830	-1216.611667	1665.667969	239.712769
12363.243830	-1216.611667	1664.640625	424.001678
12363.243830	-1216.611667	1663.613281	380.193604
12363.243830	-1216.611667	1662.585938	336.359039
12363.243830	-1216.611667	1661.557617	513.401428
12363.243830	-1216.611667	1660.530273	488.075348
12363.243830	-1216.611667	1659.501953	337.179443
12363.243830	-1216.611667	1658.473633	616.261108
12363.243830	-1216.611667	1657.444336	595.432617
12363.243830	-1216.611667	1656.416016	504.896118
12363.243830	-1216.611667	1655.386719	391.116974
12363.243830	-1216.611667	1654.358398	621.064087
12363.243830	-1216.611667	1653.328125	753.341980
12363.243830	-1216.611667	1652.298828	746.269592
12363.243830	-1216.611667	1651.269531	927.167114
12363.243830	-1216.611667	1650.239258	889.824463
12363.243830	-1216.611667	1649.208984	880.309753
12363.243830	-1216.611667	1648.178711	801.184937
12363.243830	-1216.611667	1647.148438	935.429749
12363.243830	-1216.611667	1646.117188	1048.714844
12363.243830	-1216.611667	1645.086914	1215.270264
12363.243830	-1216.611667	1644.055664	1082.727905
12363.243830	-1216.611667	1643.024414	1260.744141
12363.243830	-1216.611667	1641.992188	1299.643677
12363.243830	-1216.611667	1640.960938	1398.754395
12363.243830	-1216.611667	1639.928711	1324.095825
12363.243830	-1216.611667	1638.896484	1349.021484
12363.243830	-1216.611667	1637.864258	1420.227173
12363.243830	-1216.611667	1636.832031	1662.678833
12363.243830	-1216.611667	1635.798828	1849.471069
12363.243830	-1216.611667	1634.766602	1406.851563
12363.243830	-1216.611667	1633.733398	1619.050781
12363.243830	-1216.611667	1632.699219	1514.282959
12363.243830	-1216.611667	1631.666016	1555.250000
12363.243830	-1216.611667	1630.632813	1543.021851
12363.243830	-1216.611667	1629.598633	1898.312988
12363.243830	-1216.611667	1628.564453	1735.784790
12363.243830	-1216.611667	1627.530273	1954.574097
12363.243830	-1216.611667	1626.495117	2073.927002
12363.243830	-1216.611667	1625.460938	2015.403320
12363.243830	-1216.611667	1624.425781	2167.035645
12363.243830	-1216.611667	1623.390625	1965.364868
12363.243830	-1216.611667	1622.355469	2121.577881
12363.243830	-1216.611667	1621.319336	2010.003784
12363.243830	-1216.611667	1620.284180	2293.078369
12363.243830	-1216.611667	1619.248047	2322.264648
12363.243830	-1216.611667	1618.211914	2379.131104
12363.243830	-1216.611667	1617.174805	2602.015625
12363.243830	-1216.611667	1616.138672	2432.877197
12363.243830	-1216.611667	1615.101563	2498.940918
12363.243830	-1216.611667	1614.065430	2878.462891
12363.243830	-1216.611667	1613.027344	2840.739258
12363.243830	-1216.611667	1611.990234	2782.332031
12363.243830	-1216.611667	1610.953125	2615.707764
12363.243830	-1216.611667	1609.915039	2852.178955
12363.243830	-1216.611667	1608.876953	3097.793457
12363.243830	-1216.611667	1607.838867	3331.827637
12363.243830	-1216.611667	1606.800781	3222.853271
12363.243830	-1216.611667	1605.761719	3249.702393
12363.243830	-1216.611667	1604.723633	3628.603271
12363.243830	-1216.611667	1603.684570	3533.508301
12363.243830	-1216.611667	1602.644531	3824.844238
12363.243830	-1216.611667	1601.605469	3598.747559
12363.243830	-1216.611667	1600.566406	3542.897705
12363.243830	-1216.611667	1599.526367	3516.971436
12363.243830	-1216.611667	1598.486328	3477.302734
12363.243830	-1216.611667	1597.446289	3414.712891
12363.243830	-1216.611667	1596.405273	3542.837402
12363.243830	-1216.611667	1595.365234	3535.462402
12363.243830	-1216.611667	1594.324219	3631.448730
12363.243830	-1216.611667	1593.283203	3493.269287
12363.243830	-1216.611667	1592.242188	3373.550293
12363.243830	-1216.611667	1591.200195	3625.686523
12363.243830	-1216.611667	1590.159180	3402.831299
12363.243830	-1216.611667	1589.117188	3554.023682
12363.243830	-1216.611667	1588.075195	3611.169434
12363.243830	-1216.611667	1587.032227	3496.345703
12363.243830	-1216.611667	1585.990234	3230.316406
12363.243830	-1216.611667	1584.947266	3542.073975
12363.243830	-1216.611667	1583.904297	3496.245117
12363.243830	-1216.611667	1582.861328	3411.538086
12363.243830	-1216.611667	1581.818359	3480.410645
12363.243830	-1216.611667	1580.775391	3421.050049
12363.243830	-1216.611667	1579.731445	3389.238281
12363.243830	-1216.611667	1578.687500	3494.871582
12363.243830	-1216.611667	1577.643555	3339.569824
12363.243830	-1216.611667	1576.598633	3097.410645
12363.243830	-1216.611667	1575.554688	2917.203369
12363.243830	-1216.611667	1574.509766	3073.420410
12363.243830	-1216.611667	1573.464844	2824.789063
12363.243830	-1216.611667	1572.419922	2901.056641
12363.243830	-1216.611667	1571.374023	2728.133057
12363.243830	-1216.611667	1570.329102	2820.530029
12363.243830	-1216.611667	1569.283203	2734.679199
12363.243830	-1216.611667	1568.237305	2555.247559
12363.243830	-1216.611667	1567.191406	2666.107178
12363.243830	-1216.611667	1566.144531	2269.898438
12363.243830	-1216.611667	1565.098633	2266.733887
12363.243830	-1216.611667	1564.051758	2094.673584
12363.243830	-1216.611667	1563.004883	2265.179932
12363.243830	-1216.611667	1561.957031	2275.921875
12363.243830	-1216.611667	1560.910156	2193.192139
12363.243830	-1216.611667	1559.862305	1864.164917
12363.243830	-1216.611667	1558.814453	2025.769287
12363.243830	-1216.611667	1557.766602	1886.357910
12363.243830	-1216.611667	1556.718750	1854.251953
12363.243830	-1216.611667	1555.669922	1904.299927
12363.243830	-1216.611667	1554.621094	1860.966064
12363.243830	-1216.611667	1553.573242	1954.475952
12363.243830	-1216.611667	1552.523438	1756.387085
12363.243830	-1216.611667	1551.474609	1437.749268
12363.243830	-1216.611667	1550.424805	1709.171021
12363.243830	-1216.611667	1549.375000	1472.810547
12363.243830	-1216.611667	1548.325195	1516.650024
12363.243830	-1216.611667	1547.275391	1571.945435
12363.243830	-1216.611667	1546.225586	1427.056763
12363.243830	-1216.611667	1545.174805	1594.010254
12363.243830	-1216.611667	1544.124023	1551.719238
12363.243830	-1216.611667	1543.073242	1345.791992
12363.243830	-1216.611667	1542.022461	1171.877808
12363.243830	-1216.611667	1540.970703	1236.827271
12363.243830	-1216.611667	1539.919922	981.375244
12363.243830	-1216.611667	1538.868164	1060.172607
12363.243830	-1216.611667	1537.815430	1193.560059
12363.243830	-1216.611667	1536.763672	968.093445
12363.243830	-1216.611667	1535.710938	1094.838867
12363.243830	-1216.611667	1534.659180	1292.041138
12363.243830	-1216.611667	1533.606445	1080.612427
12363.243830	-1216.611667	1532.552734	1146.281494
12363.243830	-1216.611667	1531.500000	1100.841064
12363.243830	-1216.611667	1530.446289	1064.593750
12363.243830	-1216.611667	1529.393555	1250.787964
12363.243830	-1216.611667	1528.338867	1094.528076
12363.243830	-1216.611667	1527.285156	1113.052002
12363.243830	-1216.611667	1526.231445	748.534485
12363.243830	-1216.611667	1525.176758	765.065979
12363.243830	-1216.611667	1524.122070	647.996094
12363.243830	-1216.611667	1523.067383	660.234741
12363.243830	-1216.611667	1522.012695	670.316650
12363.243830	-1216.611667	1520.957031	623.879517
12363.243830	-1216.611667	1519.901367	561.723694
12363.243830	-1216.611667	1518.845703	311.797028
12363.243830	-1216.611667	1517.790039	442.361908
12363.243830	-1216.611667	1516.734375	251.632767
12363.243830	-1216.611667	1515.677734	273.777924
12363.243830	-1216.611667	1514.621094	436.289581
12363.243830	-1216.611667	1513.564453	141.981781
12363.243830	-1216.611667	1512.507813	103.438095
12363.243830	-1216.611667	1511.450195	293.369232
12363.243830	-1216.611667	1510.393555	383.896454
12363.243830	-1216.611667	1509.335938	88.047203
12363.243830	-1216.611667	1508.278320	334.722168
12363.243830	-1216.611667	1507.219727	32.461571
12363.243830	-1216.611667	1506.162109	53.434521
12363.243830	-1216.611667	1505.103516	252.911575
12363.243830	-1216.611667	1504.044922	125.063354
12363.243830	-1216.611667	1502.986328	33.508484
12363.243830	-1216.611667	1501.926758	-143.650726
12363.243830	-1216.611667	1500.868164	99.079735
12363.243830	-1216.611667	1499.808594	147.825073
12363.243830	-1216.611667	1498.749023	129.012131
12363.243830	-1216.611667	1497.688477	139.645004
12363.243830	-1216.611667	1496.628906	51.205971
12363.243830	-1216.611667	1495.568359	183.829941
12363.243830	-1216.611667	1494.507813	-86.880020
12363.243830	-1216.611667	1493.447266	23.445541
12363.243830	-1216.611667	1492.386719	-163.512375
12363.243830	-1216.611667	1491.325195	41.637730
12363.243830	-1216.611667	1490.263672	-196.786774
12363.243830	-1216.611667	1489.202148	-115.279762
12363.243830	-1216.611667	1488.140625	-6.660277
12363.243830	-1216.611667	1487.079102	-240.037430
12363.243830	-1216.611667	1486.016602	3.828497
12363.243830	-1216.611667	1484.954102	-37.976276
12363.243830	-1216.611667	1483.891602	14.835583
12363.243830	-1216.611667	1482.829102	-33.433952
12363.243830	-1216.611667	1481.765625	-88.299568
12363.243830	-1216.611667	1480.702148	-212.690262
12363.243830	-1216.611667	1479.638672	-118.892967
12363.243830	-1216.611667	1478.575195	-121.624306
12363.243830	-1216.611667	1477.511719	-11.863600
12363.243830	-1216.611667	1476.447266	64.231461
12363.243830	-1216.611667	1475.382813	25.892342
12363.243830	-1216.611667	1474.318359	70.827164
12363.243830	-1216.611667	1473.253906	59.710854
12363.243830	-1216.611667	1472.189453	104.891159
12363.243830	-1216.611667	1471.124023	296.013733
12363.243830	-1216.611667	1470.058594	381.760468
12363.243830	-1216.611667	1468.993164	554.985962
12363.243830	-1216.611667	1467.927734	553.754761
12363.243830	-1216.611667	1466.861328	422.097626
12363.243830	-1216.611667	1465.794922	591.443054
12363.243830	-1216.611667	1464.728516	637.301880
12363.243830	-1216.611667	1463.662109	783.869263
12363.243830	-1216.611667	1462.594727	933.196228
12363.243830	-1216.611667	1461.528320	813.919373
12363.243830	-1216.611667	1460.460938	1036.712769
12363.243830	-1216.611667	1459.393555	987.142761
12363.243830	-1216.611667	1458.326172	1047.594971
12363.243830	-1216.611667	1457.257813	1145.599487
12363.243830	-1216.611667	1456.189453	1178.864624
12363.243830	-1216.611667	1455.121094	1120.792725
12363.243830	-1216.611667	1454.052734	1238.932373
12363.243830	-1216.611667	1452.984375	1081.379395
12363.243830	-1216.611667	1451.915039	1105.754028
12363.243830	-1216.611667	1450.845703	799.141968
12363.243830	-1216.611667	1449.776367	774.669128
12363.243830	-1216.611667	1448.707031	922.285522
12363.243830	-1216.611667	1447.636719	712.594360
12363.243830	-1216.611667	1446.567383	941.010864
12363.243830	-1216.611667	1445.497070	776.624634
12363.243830	-1216.611667	1444.425781	663.502319
12363.243830	-1216.611667	1443.355469	744.129517
12363.243830	-1216.611667	1442.285156	851.066711
12363.243830	-1216.611667	1441.213867	956.930664
12363.243830	-1216.611667	1440.142578	823.485291
12363.243830	-1216.611667	1439.070313	787.720520
12363.243830	-1216.611667	1437.999023	845.420593
12363.243830	-1216.611667	1436.926758	796.941589
12363.243830	-1216.611667	1435.854492	627.834167
12363.243830	-1216.611667	1434.782227	761.729797
12363.243830	-1216.611667	1433.709961	861.784485
12363.243830	-1216.611667	1432.636719	908.010315
12363.243830	-1216.611667	1431.563477	607.061768
12363.243830	-1216.611667	1430.490234	809.647583
12363.243830	-1216.611667	1429.416992	632.544739
12363.243830	-1216.611667	1428.343750	641.803589
12363.243830	-1216.611667	1427.269531	529.039490
12363.243830	-1216.611667	1426.195313	563.531128
12363.243830	-1216.611667	1425.121094	334.260620
12363.243830	-1216.611667	1424.046875	352.555725
12363.243830	-1216.611667	1422.971680	377.589661
12363.243830	-1216.611667	1421.896484	88.530449
12363.243830	-1216.611667	1420.821289	338.144226
12363.243830	-1216.611667	1419.746094	467.594666
12363.243830	-1216.611667	1418.669922	406.297638
12363.243830	-1216.611667	1417.594727	402.999268
12363.243830	-1216.611667	1416.518555	554.247681
12363.243830	-1216.611667	1415.442383	498.744324
12363.243830	-1216.611667	1414.365234	649.905457
12363.243830	-1216.611667	1413.289063	363.838501
12363.243830	-1216.611667	1412.211914	581.250732
12363.243830	-1216.611667	1411.134766	675.092102
12363.243830	-1216.611667	1410.057617	693.537781
12363.243830	-1216.611667	1408.979492	615.926514
12363.243830	-1216.611667	1407.902344	729.021851
12363.243830	-1216.611667	1406.824219	988.059448
12363.243830	-1216.611667	1405.746094	1133.055908
12363.243830	-1216.611667	1404.666992	1138.856323
12363.243830	-1216.611667	1403.588867	1131.904907
12363.243830	-1216.611667	1402.509766	1402.458496
12363.243830	-1216.611667	1401.430664	1663.510010
12363.243830	-1216.611667	1400.351563	1941.525757
12363.243830	-1216.611667	1399.271484	2406.543457
12363.243830	-1216.611667	1398.192383	2704.548096
12363.243830	-1216.611667	1397.112305	2736.424805
12363.243830	-1216.611667	1396.031250	2890.108887
12363.243830	-1216.611667	1394.951172	3093.555420
12363.243830	-1216.611667	1393.871094	3012.263428
12363.243830	-1216.611667	1392.790039	2762.417725
12363.243830	-1216.611667	1391.708984	2328.719238
12363.243830	-1216.611667	1390.626953	2226.169189
12363.243830	-1216.611667	1389.545898	2012.760986
12363.243830	-1216.611667	1388.463867	1833.554810
12363.243830	-1216.611667	1387.381836	1612.110596
12363.243830	-1216.611667	1386.299805	1350.384399
12363.243830	-1216.611667	1385.217773	1356.176392
12363.243830	-1216.611667	1384.134766	1220.113770
12363.243830	-1216.611667	1383.051758	1183.951050
12363.243830	-1216.611667	1381.968750	1149.138550
12363.243830	-1216.611667	1380.885742	1056.173706
12363.243830	-1216.611667	1379.802734	918.253906
12363.243830	-1216.611667	1378.718750	680.961975
12363.243830	-1216.611667	1377.634766	885.822266
12363.243830	-1216.611667	1376.550781	870.095764
12363.243830	-1216.611667	1375.465820	827.672180
12363.243830	-1216.611667	1374.381836	999.544312
12363.243830	-1216.611667	1373.296875	812.427979
12363.243830	-1216.611667	1372.211914	804.675049
12363.243830	-1216.611667	1371.126953	615.344360
12363.243830	-1216.611667	1370.041016	611.723572
12363.243830	-1216.611667	1368.955078	934.155457
12363.243830	-1216.611667	1367.869141	988.298401
12363.243830	-1216.611667	1366.783203	1023.020752
12363.243830	-1216.611667	1365.697266	924.378296
12363.243830	-1216.611667	1364.610352	824.211914
12363.243830	-1216.611667	1363.523438	987.279907
12363.243830	-1216.611667	1362.436523	1286.861694
12363.243830	-1216.611667	1361.349609	963.237732
12363.243830	-1216.611667	1360.261719	1276.123169
12363.243830	-1216.611667	1359.174805	1215.082275
12363.243830	-1216.611667	1358.086914	1063.358887
12363.243830	-1216.611667	1356.998047	1155.854614
12363.243830	-1216.611667	1355.910156	1075.758423
12363.243830	-1216.611667	1354.821289	1205.882813
12363.243830	-1216.611667	1353.732422	1179.230347
12363.243830	-1216.611667	1352.643555	1100.808105
12363.243830	-1216.611667	1351.554688	1084.736206
12363.243830	-1216.611667	1350.464844	1127.814453
12363.243830	-1216.611667	1349.375000	1108.236572
12363.243830	-1216.611667	1348.285156	1449.542725
12363.243830	-1216.611667	1347.195313	1215.125610
12363.243830	-1216.611667	1346.105469	1280.973389
12363.243830	-1216.611667	1345.014648	1416.726440
12363.243830	-1216.611667	1343.923828	1339.379517
12363.243830	-1216.611667	1342.833008	1550.890747
12363.243830	-1216.611667	1341.741211	1435.030396
12363.243830	-1216.611667	1340.650391	1656.884277
12363.243830	-1216.611667	1339.558594	1487.345215
12363.243830	-1216.611667	1338.466797	1349.540894
12363.243830	-1216.611667	1337.374023	1354.260010
12363.243830	-1216.611667	1336.282227	1291.790161
12363.243830	-1216.611667	1335.189453	1411.506226
12363.243830	-1216.611667	1334.096680	1482.217041
12363.243830	-1216.611667	1333.003906	1474.360962
12363.243830	-1216.611667	1331.910156	1511.857300
12363.243830	-1216.611667	1330.817383	1463.570923
12363.243830	-1216.611667	1329.723633	1500.251343
12363.243830	-1216.611667	1328.629883	1333.191406
12363.243830	-1216.611667	1327.535156	1622.878052
12363.243830	-1216.611667	1326.441406	1211.893188
12363.243830	-1216.611667	1325.346680	1159.457764
12363.243830	-1216.611667	1324.251953	930.590820
12363.243830	-1216.611667	1323.156250	1203.269653
12363.243830	-1216.611667	1322.061523	876.785828
12363.243830	-1216.611667	1320.965820	911.873352
12363.243830	-1216.611667	1319.870117	909.703308
12363.243830	-1216.611667	1318.774414	731.884155
12363.243830	-1216.611667	1317.678711	857.830994
12363.243830	-1216.611667	1316.582031	752.497009
12363.243830	-1216.611667	1315.485352	923.984802
12363.243830	-1216.611667	1314.388672	746.372437
12363.243830	-1216.611667	1313.291016	763.174866
12363.243830	-1216.611667	1312.194336	668.228577
12363.243830	-1216.611667	1311.096680	704.266541
12363.243830	-1216.611667	1309.999023	641.772827
12363.243830	-1216.611667	1308.901367	880.226074
12363.243830	-1216.611667	1307.802734	758.043701
12363.243830	-1216.611667	1306.705078	827.824341
12363.243830	-1216.611667	1305.606445	763.483154
12363.243830	-1216.611667	1304.506836	735.212769
12363.243830	-1216.611667	1303.408203	729.760742
12363.243830	-1216.611667	1302.308594	726.675476
12363.243830	-1216.611667	1301.208984	935.454346
12363.243830	-1216.611667	1300.109375	1018.158752
12363.243830	-1216.611667	1299.009766	985.726318
12363.243830	-1216.611667	1297.909180	1303.272217
12363.243830	-1216.611667	1296.808594	1314.927368
12363.243830	-1216.611667	1295.708008	1587.844238
12363.243830	-1216.611667	1294.607422	1480.076416
12363.243830	-1216.611667	1293.506836	1419.251831
12363.243830	-1216.611667	1292.405273	1394.849365
12363.243830	-1216.611667	1291.303711	1192.906738
12363.243830	-1216.611667	1290.202148	1098.022827
12363.243830	-1216.611667	1289.099609	1113.955688
12363.243830	-1216.611667	1287.998047	1012.711487
12363.243830	-1216.611667	1286.895508	894.313416
12363.243830	-1216.611667	1285.792969	821.070801
12363.243830	-1216.611667	1284.689453	664.894104
12363.243830	-1216.611667	1283.586914	719.450623
12363.243830	-1216.611667	1282.483398	756.490234
12363.243830	-1216.611667	1281.379883	600.525208
12363.243830	-1216.611667	1280.276367	693.449097
12363.243830	-1216.611667	1279.171875	502.792786
12363.243830	-1216.611667	1278.067383	491.429840
12363.243830	-1216.611667	1276.962891	554.387573
12363.243830	-1216.611667	1275.858398	636.870117
12363.243830	-1216.611667	1274.753906	508.804291
12363.243830	-1216.611667	1273.648438	341.866577
12363.243830	-1216.611667	1272.542969	355.497803
12363.243830	-1216.611667	1271.437500	489.303406
12363.243830	-1216.611667	1270.331055	490.710022
12363.243830	-1216.611667	1269.225586	460.552094
12363.243830	-1216.611667	1268.119141	513.067566
12363.243830	-1216.611667	1267.012695	559.955872
12363.243830	-1216.611667	1265.906250	575.228760
12363.243830	-1216.611667	1264.798828	620.743652
12363.243830	-1216.611667	1263.691406	772.845459
12363.243830	-1216.611667	1262.583984	889.264709
12363.243830	-1216.611667	1261.476563	780.089355
12363.243830	-1216.611667	1260.368164	842.000977
12363.243830	-1216.611667	1259.260742	801.455872
12363.243830	-1216.611667	1258.152344	683.668884
12363.243830	-1216.611667	1257.043945	712.429138
12363.243830	-1216.611667	1255.934570	720.162476
12363.243830	-1216.611667	1254.825195	776.135681
12363.243830	-1216.611667	1253.716797	775.190613
12363.243830	-1216.611667	1252.606445	711.181763
12363.243830	-1216.611667	1251.497070	714.624023
12363.243830	-1216.611667	1250.387695	653.994873
12363.243830	-1216.611667	1249.277344	469.974213
12363.243830	-1216.611667	1248.166992	429.724213
12363.243830	-1216.611667	1247.055664	587.220581
12363.243830	-1216.611667	1245.945313	363.177277
12363.243830	-1216.611667	1244.833984	595.761475
12363.243830	-1216.611667	1243.722656	439.613800
12363.243830	-1216.611667	1242.611328	478.281311
12363.243830	-1216.611667	1241.499023	324.022980
12363.243830	-1216.611667	1240.387695	217.649353
12363.243830	-1216.611667	1239.275391	333.572784
12363.243830	-1216.611667	1238.162109	328.763153
12363.243830	-1216.611667	1237.049805	411.354279
12363.243830	-1216.611667	1235.936523	292.207733
12363.243830	-1216.611667	1234.823242	330.358795
12363.243830	-1216.611667	1233.709961	380.176697
12363.243830	-1216.611667	1232.596680	482.321838
12363.243830	-1216.611667	1231.482422	239.391052
12363.243830	-1216.611667	1230.369141	270.038757
12363.243830	-1216.611667	1229.253906	155.209503
12363.243830	-1216.611667	1228.139648	405.417114
12363.243830	-1216.611667	1227.025391	224.920563
12363.243830	-1216.611667	1225.910156	250.888992
12363.243830	-1216.611667	1224.794922	353.527679
12363.243830	-1216.611667	1223.679688	293.031128
12363.243830	-1216.611667	1222.563477	205.292114
12363.243830	-1216.611667	1221.447266	231.835266
12363.243830	-1216.611667	1220.331055	17.470394
12363.243830	-1216.611667	1219.214844	70.304153
12363.243830	-1216.611667	1218.098633	114.083839
12363.243830	-1216.611667	1216.981445	111.254890
12363.243830	-1216.611667	1215.864258	19.166269
12363.243830	-1216.611667	1214.747070	123.882675
12363.243830	-1216.611667	1213.629883	5.135806
12363.243830	-1216.611667	1212.511719	90.644478
12363.243830	-1216.611667	1211.393555	147.529236
12363.243830	-1216.611667	1210.275391	185.085266
12363.243830	-1216.611667	1209.157227	202.863632
12363.243830	-1216.611667	1208.038086	342.114319
12363.243830	-1216.611667	1206.918945	345.547852
12363.243830	-1216.611667	1205.799805	90.428162
12363.243830	-1216.611667	1204.680664	99.914742
12363.243830	-1216.611667	1203.560547	24.728237
12363.243830	-1216.611667	1202.441406	177.126495
12363.243830	-1216.611667	1201.321289	202.822952
12363.243830	-1216.611667	1200.200195	80.468277
12363.243830	-1216.611667	1199.080078	122.646614
12363.243830	-1216.611667	1197.958984	91.003922
12363.243830	-1216.611667	1196.837891	214.298767
12363.243830	-1216.611667	1195.716797	237.973907
12363.243830	-1216.611667	1194.594727	18.649233
12363.243830	-1216.611667	1193.473633	-55.645473
12363.243830	-1216.611667	1192.351563	55.367336
12363.243830	-1216.611667	1191.229492	1.072386
12363.243830	-1216.611667	1190.106445	58.300442
12363.243830	-1216.611667	1188.984375	207.389130
12363.243830	-1216.611667	1187.861328	146.440033
12363.243830	-1216.611667	1186.738281	-11.246954
12363.243830	-1216.611667	1185.614258	43.041649
12363.243830	-1216.611667	1184.491211	102.963081
12363.243830	-1216.611667	1183.367188	13.761272
12363.243830	-1216.611667	1182.243164	73.409119
12363.243830	-1216.611667	1181.119141	16.098465
12363.243830	-1216.611667	1179.994141	-16.363583
12363.243830	-1216.611667	1178.869141	-72.830177
12363.243830	-1216.611667	1177.744141	-19.511814
12363.243830	-1216.611667	1176.619141	-138.264465
12363.243830	-1216.611667	1175.493164	-132.902222
12363.243830	-1216.611667	1174.368164	-174.465454
12363.243830	-1216.611667	1173.242188	-70.054497
12363.243830	-1216.611667	1172.115234	-271.807648
12363.243830	-1216.611667	1170.989258	-104.015045
12363.243830	-1216.611667	1169.862305	-149.460815
12363.243830	-1216.611667	1168.735352	-187.992874
12363.243830	-1216.611667	1167.608398	-141.781601
12363.243830	-1216.611667	1166.481445	-19.895790
12363.243830	-1216.611667	1165.353516	18.343336
12363.243830	-1216.611667	1164.225586	-144.044754
12363.243830	-1216.611667	1163.097656	-98.252876
12363.243830	-1216.611667	1161.968750	-170.122833
12363.243830	-1216.611667	1160.840820	-100.143219
12363.243830	-1216.611667	1159.711914	-40.330257
12363.243830	-1216.611667	1158.583008	66.068169
12363.243830	-1216.611667	1157.453125	-214.208832
12363.243830	-1216.611667	1156.324219	-46.676834
12363.243830	-1216.611667	1155.194336	-10.603342
12363.243830	-1216.611667	1154.064453	17.788363
12363.243830	-1216.611667	1152.933594	-93.468803
12363.243830	-1216.611667	1151.803711	-119.505287
12363.243830	-1216.611667	1150.672852	-83.443398
12363.243830	-1216.611667	1149.541992	-143.344101
12363.243830	-1216.611667	1148.411133	-80.294655
12363.243830	-1216.611667	1147.279297	-105.420532
12363.243830	-1216.611667	1146.147461	-85.411461
12363.243830	-1216.611667	1145.015625	15.892393
12363.243830	-1216.611667	1143.883789	-171.332520
12363.243830	-1216.611667	1142.750977	24.099707
12363.243830	-1216.611667	1141.619141	-69.752045
12363.243830	-1216.611667	1140.486328	-68.646568
12363.243830	-1216.611667	1139.352539	6.361042
12363.243830	-1216.611667	1138.219727	52.541874
12363.243830	-1216.611667	1137.085938	-61.432446
12363.243830	-1216.611667	1135.952148	141.367966
12363.243830	-1216.611667	1134.818359	230.230927
12363.243830	-1216.611667	1133.683594	72.718010
12363.243830	-1216.611667	1132.549805	-31.950943
12363.243830	-1216.611667	1131.415039	325.897217
12363.243830	-1216.611667	1130.279297	215.052109
12363.243830	-1216.611667	1129.144531	370.243713
12363.243830	-1216.611667	1128.008789	501.248383
12363.243830	-1216.611667	1126.873047	373.711273
12363.243830	-1216.611667	1125.737305	250.224976
12363.243830	-1216.611667	1124.601563	252.369354
12363.243830	-1216.611667	1123.464844	322.682159
12363.243830	-1216.611667	1122.328125	360.357635
12363.243830	-1216.611667	1121.191406	288.342804
12363.243830	-1216.611667	1120.054688	247.916870
12363.243830	-1216.611667	1118.916992	193.193527
12363.243830	-1216.611667	1117.779297	218.897507
12363.243830	-1216.611667	1116.641602	402.317688
12363.243830	-1216.611667	1115.503906	398.141479
12363.243830	-1216.611667	1114.365234	269.239288
12363.243830	-1216.611667	1113.226563	414.406311
12363.243830	-1216.611667	1112.087891	273.064331
12363.243830	-1216.611667	1110.949219	263.683929
12363.243830	-1216.611667	1109.809570	303.458557
12363.243830	-1216.611667	1108.669922	310.526520
12363.243830	-1216.611667	1107.530273	365.072235
12363.243830	-1216.611667	1106.390625	322.018524
12363.243830	-1216.611667	1105.250000	368.572266
12363.243830	-1216.611667	1104.109375	44.800728
12363.243830	-1216.611667	1102.968750	237.786804
12363.243830	-1216.611667	1101.828125	390.276520
12363.243830	-1216.611667	1100.686523	309.807739
12363.243830	-1216.611667	1099.544922	63.178341
12363.243830	-1216.611667	1098.403320	121.680252
12363.243830	-1216.611667	1097.261719	391.283173
12363.243830	-1216.611667	1096.120117	343.243896
12363.243830	-1216.611667	1094.977539	254.029739
12363.243830	-1216.611667	1093.834961	305.684937
12363.243830	-1216.611667	1092.691406	210.518524
12363.243830	-1216.611667	1091.548828	102.246353
12363.243830	-1216.611667	1090.405273	114.312599
12363.243830	-1216.611667	1089.261719	199.623077
12363.243830	-1216.611667	1088.118164	139.801819
12363.243830	-1216.611667	1086.973633	386.592163
12363.243830	-1216.611667	1085.829102	150.475327
12363.243830	-1216.611667	1084.684570	208.568466
12363.243830	-1216.611667	1083.540039	119.568924
12363.243830	-1216.611667	1082.395508	146.144684
12363.243830	-1216.611667	1081.250000	201.066193
12363.243830	-1216.611667	1080.104492	-22.488768
12363.243830	-1216.611667	1078.958984	34.834335
12363.243830	-1216.611667	1077.812500	17.915197
12363.243830	-1216.611667	1076.666016	4.198354
12363.243830	-1216.611667	1075.519531	-7.749725
12363.243830	-1216.611667	1074.373047	87.890366
12363.243830	-1216.611667	1073.226563	16.556200
12363.243830	-1216.611667	1072.079102	120.707321
12363.243830	-1216.611667	1070.931641	83.805153
12363.243830	-1216.611667	1069.784180	34.059734
12363.243830	-1216.611667	1068.635742	283.759583
12363.243830	-1216.611667	1067.487305	210.376038
12363.243830	-1216.611667	1066.338867	36.065453
12363.243830	-1216.611667	1065.190430	243.737122
12363.243830	-1216.611667	1064.041992	146.860886
12363.243830	-1216.611667	1062.892578	79.733803
12363.243830	-1216.611667	1061.743164	194.376328
12363.243830	-1216.611667	1060.593750	185.773941
12363.243830	-1216.611667	1059.443359	336.550720
12363.243830	-1216.611667	1058.292969	355.601318
12363.243830	-1216.611667	1057.142578	154.103577
12363.243830	-1216.611667	1055.992188	-55.552677
12363.243830	-1216.611667	1054.841797	141.883652
12363.243830	-1216.611667	1053.690430	-37.670605
12363.243830	-1216.611667	1052.539063	89.689224
12363.243830	-1216.611667	1051.387695	-16.167559
12363.243830	-1216.611667	1050.235352	-158.624084
12363.243830	-1216.611667	1049.083984	-172.477127
12363.243830	-1216.611667	1047.931641	209.286148
12363.243830	-1216.611667	1046.778320	-63.857666
12363.243830	-1216.611667	1045.625977	11.736353
12363.243830	-1216.611667	1044.472656	55.670609
12363.243830	-1216.611667	1043.319336	196.538681
12363.243830	-1216.611667	1042.166016	110.776306
12363.243830	-1216.611667	1041.012695	178.947144
12363.243830	-1216.611667	1039.858398	221.316101
12363.243830	-1216.611667	1038.704102	237.120529
12363.243830	-1216.611667	1037.549805	99.161407
12363.243830	-1216.611667	1036.394531	130.231812
12363.243830	-1216.611667	1035.239258	95.498940
12363.243830	-1216.611667	1034.083984	50.825298
12363.243830	-1216.611667	1032.928711	249.573410
12363.243830	-1216.611667	1031.773438	-75.644218
12363.243830	-1216.611667	1030.617188	-114.941933
12363.243830	-1216.611667	1029.460938	-56.270473
12363.243830	-1216.611667	1028.304688	174.037384
12363.243830	-1216.611667	1027.147461	69.602493
12363.243830	-1216.611667	1025.991211	-24.645344
12363.243830	-1216.611667	1024.833984	176.396667
12363.243830	-1216.611667	1023.675781	-129.444244
12363.243830	-1216.611667	1022.518555	217.341125
12363.243830	-1216.611667	1021.360352	-50.554867
12363.243830	-1216.611667	1020.202148	-33.918510
12363.243830	-1216.611667	1019.043945	323.514130
12363.243830	-1216.611667	1017.884766	235.073486
12363.243830	-1216.611667	1016.726563	179.728226
12363.243830	-1216.611667	1015.567383	308.658539
12363.243830	-1216.611667	1014.407227	194.277649
12363.243830	-1216.611667	1013.248047	214.034912
12363.243830	-1216.611667	1012.087891	-2.713970
12363.243830	-1216.611667	1010.927734	75.359383
12363.243830	-1216.611667	1009.767578	244.512039
12363.243830	-1216.611667	1008.606445	216.791931
12363.243830	-1216.611667	1007.446289	48.661549
12363.243830	-1216.611667	1006.285156	120.827766
12363.243830	-1216.611667	1005.123047	198.526047
12363.243830	-1216.611667	1003.961914	89.903755
12363.243830	-1216.611667	1002.799805	269.456543
12363.243830	-1216.611667	1001.637695	97.472099
12363.243830	-1216.611667	1000.475586	-49.889156
12363.243830	-1216.611667	999.312500	220.962357
12363.243830	-1216.611667	998.149414	70.960922
12363.243830	-1216.611667	996.986328	44.465221
12363.243830	-1216.611667	995.823242	29.627850
12363.243830	-1216.611667	994.659180	-23.090683
12363.243830	-1216.611667	993.496094	-28.296192
12363.243830	-1216.611667	992.332031	186.632233
12363.243830	-1216.611667	991.166992	-110.127541
12363.243830	-1216.611667	990.002930	-124.100014
12363.243830	-1216.611667	988.837891	-8.268048
12363.243830	-1216.611667	987.672852	-67.528023
12363.243830	-1216.611667	986.506836	47.570530
12363.243830	-1216.611667	985.341797	-102.027847
12363.243830	-1216.611667	984.175781	-191.450836
12363.243830	-1216.611667	983.009766	30.177773
12363.243830	-1216.611667	981.843750	-87.426895
12363.243830	-1216.611667	980.676758	28.649296
12363.243830	-1216.611667	979.509766	-175.712433
12363.243830	-1216.611667	978.342773	-5.833092
12363.243830	-1216.611667	977.175781	-181.165558
12363.243830	-1216.611667	976.007813	-83.700157
12363.243830	-1216.611667	974.839844	94.702332
12363.243830	-1216.611667	973.671875	100.356598
12363.243830	-1216.611667	972.503906	-90.754669
12363.243830	-1216.611667	971.334961	109.939590
12363.243830	-1216.611667	970.166016	128.767181
12363.243830	-1216.611667	968.997070	131.301605
12363.243830	-1216.611667	967.828125	16.349762
12363.243830	-1216.611667	966.658203	-83.112175
12363.243830	-1216.611667	965.488281	-13.738666
12363.243830	-1216.611667	964.318359	140.880692
12363.243830	-1216.611667	963.148438	134.883835
12363.243830	-1216.611667	961.977539	95.249741
12363.243830	-1216.611667	960.806641	-32.476707
12363.243830	-1216.611667	959.635742	22.281878
12363.243830	-1216.611667	958.463867	118.404755
12363.243830	-1216.611667	957.292969	147.242493
12363.243830	-1216.611667	956.121094	184.531830
12363.243830	-1216.611667	954.948242	98.748512
12363.243830	-1216.611667	953.776367	334.212036
12363.243830	-1216.611667	952.603516	157.965591
12363.243830	-1216.611667	951.430664	26.536732
12363.243830	-1216.611667	950.257813	-200.362396
12363.243830	-1216.611667	949.084961	-205.395615
12363.243830	-1216.611667	947.911133	-16.978933
12363.243830	-1216.611667	946.737305	172.632141
12363.243830	-1216.611667	945.563477	-72.478188
12363.243830	-1216.611667	944.388672	281.964417
12363.243830	-1216.611667	943.213867	70.639107
12363.243830	-1216.611667	942.039063	-276.617981
12363.243830	-1216.611667	940.864258	-101.231438
12363.243830	-1216.611667	939.688477	8.607121
12363.243830	-1216.611667	938.513672	297.083252
12363.243830	-1216.611667	937.337891	167.581085
12363.243830	-1216.611667	936.161133	-69.606339
12363.243830	-1216.611667	934.985352	-25.875292
12363.243830	-1216.611667	933.808594	138.944275
12363.243830	-1216.611667	932.631836	324.702637
12363.243830	-1216.611667	931.454102	273.981415
12363.243830	-1216.611667	930.277344	52.407986
12363.243830	-1216.611667	929.099609	190.539810
12363.243830	-1216.611667	927.921875	173.846466
12363.243830	-1216.611667	926.743164	57.315639
12363.243830	-1216.611667	925.565430	77.279053
12363.243830	-1216.611667	924.386719	183.791977
12363.243830	-1216.611667	923.208008	219.396332
12363.243830	-1216.611667	922.028320	257.585571
12363.243830	-1216.611667	920.849609	33.451374
12363.243830	-1216.611667	919.669922	37.068310
12363.243830	-1216.611667	919.474609	198.058456
12363.243830	-1216.611667	918.309570	-130.957413
12363.243830	-1216.611667	917.143555	281.916595
12363.243830	-1216.611667	915.977539	55.157139
12363.243830	-1216.611667	914.810547	237.193954
12363.243830	-1216.611667	913.644531	120.492111
12363.243830	-1216.611667	912.477539	166.186356
12363.243830	-1216.611667	911.310547	-78.823730
12363.243830	-1216.611667	910.143555	8.713938
12363.243830	-1216.611667	908.975586	151.152771
12363.243830	-1216.611667	907.807617	65.830925
12363.243830	-1216.611667	906.639648	-121.526886
12363.243830	-1216.611667	905.471680	67.837250
12363.243830	-1216.611667	904.303711	34.793541
12363.243830	-1216.611667	903.134766	61.872017
12363.243830	-1216.611667	901.965820	156.877747
12363.243830	-1216.611667	900.796875	118.512947
12363.243830	-1216.611667	899.626953	-8.711962
12363.243830	-1216.611667	898.457031	52.190762
12363.243830	-1216.611667	897.287109	-82.869621
12363.243830	-1216.611667	896.117188	38.025894
12363.243830	-1216.611667	894.947266	203.227966
12363.243830	-1216.611667	893.776367	60.293713
12363.243830	-1216.611667	892.605469	110.524483
12363.243830	-1216.611667	891.434570	231.156647
12363.243830	-1216.611667	890.262695	213.438660
12363.243830	-1216.611667	889.091797	33.974331
12363.243830	-1216.611667	887.919922	-80.250275
12363.243830	-1216.611667	886.748047	-131.884888
12363.243830	-1216.611667	885.575195	64.115685
12363.243830	-1216.611667	884.403320	231.334000
12363.243830	-1216.611667	883.230469	7.597650
12363.243830	-1216.611667	882.057617	-80.609192
12363.243830	-1216.611667	880.883789	-137.554932
12363.243830	-1216.611667	879.710938	84.129295
12363.243830	-1216.611667	878.537109	-238.455688
12363.243830	-1216.611667	877.362305	19.541611
12363.243830	-1216.611667	876.188477	-97.363304
12363.243830	-1216.611667	875.013672	-60.732876
12363.243830	-1216.611667	873.839844	-37.158909
12363.243830	-1216.611667	872.664063	-94.250916
12363.243830	-1216.611667	871.489258	142.489258
12363.243830	-1216.611667	870.313477	220.512619
12363.243830	-1216.611667	869.138672	30.739248
12363.243830	-1216.611667	867.962891	-101.813553
12363.243830	-1216.611667	866.786133	93.038673
12363.243830	-1216.611667	865.610352	-107.077766
12363.243830	-1216.611667	864.433594	22.699944
12363.243830	-1216.611667	863.256836	-73.516708
12363.243830	-1216.611667	862.079102	-151.551331
12363.243830	-1216.611667	860.902344	14.396419
12363.243830	-1216.611667	859.724609	104.988930
12363.243830	-1216.611667	858.546875	83.947151
12363.243830	-1216.611667	857.368164	125.138763
12363.243830	-1216.611667	856.190430	59.946342
12363.243830	-1216.611667	855.011719	-62.296085
12363.243830	-1216.611667	853.833008	136.937195
12363.243830	-1216.611667	852.654297	-68.276718
12363.243830	-1216.611667	851.474609	-37.625996
12363.243830	-1216.611667	850.294922	-17.384623
12363.243830	-1216.611667	849.115234	-100.796844
12363.243830	-1216.611667	847.935547	131.740768
12363.243830	-1216.611667	846.754883	56.034081
12363.243830	-1216.611667	845.575195	63.160465
12363.243830	-1216.611667	844.393555	10.725160
12363.243830	-1216.611667	843.212891	-103.826515
12363.243830	-1216.611667	842.032227	45.516354
12363.243830	-1216.611667	840.850586	106.822182
12363.243830	-1216.611667	839.668945	318.056427
12363.243830	-1216.611667	838.486328	237.010101
12363.243830	-1216.611667	837.304688	99.092964
12363.243830	-1216.611667	836.122070	214.471100
12363.243830	-1216.611667	834.939453	79.128647
12363.243830	-1216.611667	833.756836	-156.943344
12363.243830	-1216.611667	832.573242	87.452225
12363.243830	-1216.611667	831.389648	256.823975
12363.243830	-1216.611667	830.206055	162.750824
12363.243830	-1216.611667	829.022461	450.701416
12363.243830	-1216.611667	827.838867	144.937271
12363.243830	-1216.611667	826.654297	308.853577
12363.243830	-1216.611667	825.469727	168.268646
12363.243830	-1216.611667	824.284180	148.923279
12363.243830	-1216.611667	823.099609	291.997437
12363.243830	-1216.611667	821.914063	130.766815
12363.243830	-1216.611667	820.728516	80.398468
12363.243830	-1216.611667	819.542969	241.324829
12363.243830	-1216.611667	818.356445	72.362694
12363.243830	-1216.611667	817.169922	130.112823
12363.243830	-1216.611667	815.983398	74.483208
12363.243830	-1216.611667	814.796875	-14.635710
12363.243830	-1216.611667	813.609375	12.089346
12363.243830	-1216.611667	812.422852	-23.007809
12363.243830	-1216.611667	811.235352	-81.288795
12363.243830	-1216.611667	810.046875	7.060550
12363.243830	-1216.611667	808.859375	-20.415817
12363.243830	-1216.611667	807.670898	18.942749
12363.243830	-1216.611667	806.482422	-214.294983
12363.243830	-1216.611667	805.293945	28.083662
12363.243830	-1216.611667	804.104492	-205.141052
12363.243830	-1216.611667	802.915039	-204.482300
12363.243830	-1216.611667	801.725586	-237.261581
12363.243830	-1216.611667	800.536133	181.980850
12363.243830	-1216.611667	799.345703	95.124710
12363.243830	-1216.611667	798.155273	100.688202
12363.243830	-1216.611667	796.964844	-140.211700
12363.243830	-1216.611667	795.774414	-70.527374
12363.243830	-1216.611667	794.583008	-90.718102
12363.243830	-1216.611667	793.392578	-190.467606
12363.243830	-1216.611667	792.200195	-272.265656
12363.243830	-1216.611667	791.008789	10.045012
12363.243830	-1216.611667	789.816406	-107.740211
12363.243830	-1216.611667	788.625000	-130.683685
12363.243830	-1216.611667	787.432617	87.224632
12363.243830	-1216.611667	786.239258	-17.826130
12363.243830	-1216.611667	785.046875	-46.031902
12363.243830	-1216.611667	783.853516	-48.660194
12363.243830	-1216.611667	782.660156	-71.817368
12363.243830	-1216.611667	781.465820	-207.650620
12363.243830	-1216.611667	780.272461	68.597557
12363.243830	-1216.611667	779.078125	-205.481277
12363.243830	-1216.611667	777.883789	16.831865
12363.243830	-1216.611667	776.688477	-144.670914
12363.243830	-1216.611667	775.494141	-206.418350
12363.243830	-1216.611667	774.298828	-81.543762
12363.243830	-1216.611667	773.103516	122.475662
12363.243830	-1216.611667	771.907227	55.454357
12363.243830	-1216.611667	770.711914	-108.682594
12363.243830	-1216.611667	769.515625	33.758316
12363.243830	-1216.611667	768.318359	53.491573
12363.243830	-1216.611667	767.122070	11.881952
12363.243830	-1216.611667	765.924805	-39.972980
12363.243830	-1216.611667	764.727539	97.031914
12363.243830	-1216.611667	763.530273	93.569252
12363.243830	-1216.611667	762.333008	138.536270
12363.243830	-1216.611667	761.134766	-194.106491
12363.243830	-1216.611667	759.936523	24.226765
12363.243830	-1216.611667	758.738281	-10.018898
12363.243830	-1216.611667	757.540039	-36.654251
12363.243830	-1216.611667	756.340820	-70.978653
12363.243830	-1216.611667	755.141602	-92.597572
12363.243830	-1216.611667	753.942383	132.871567
12363.243830	-1216.611667	752.742188	-21.343353
12363.243830	-1216.611667	751.541992	-114.425812
12363.243830	-1216.611667	750.341797	49.639599
12363.243830	-1216.611667	749.141602	60.845829
12363.243830	-1216.611667	747.941406	66.904579
12363.243830	-1216.611667	746.740234	65.271049
12363.243830	-1216.611667	745.539063	73.760048
12363.243830	-1216.611667	744.337891	143.236588
12363.243830	-1216.611667	743.135742	-67.100105
12363.243830	-1216.611667	741.933594	-86.720238
12363.243830	-1216.611667	740.731445	46.127926
12363.243830	-1216.611667	739.529297	158.534042
12363.243830	-1216.611667	738.326172	4.046783
12363.243830	-1216.611667	737.124023	-170.753098
12363.243830	-1216.611667	735.919922	167.499405
12363.243830	-1216.611667	734.716797	20.557089
12363.243830	-1216.611667	733.513672	-7.059742
12363.243830	-1216.611667	732.309570	-80.411995
12363.243830	-1216.611667	731.105469	115.203392
12363.243830	-1216.611667	729.900391	69.650223
12363.243830	-1216.611667	728.696289	-158.576050
12363.243830	-1216.611667	727.491211	-31.714445
12363.243830	-1216.611667	726.286133	31.647255
12363.243830	-1216.611667	725.080078	-196.604843
12363.243830	-1216.611667	723.874023	33.923050
12363.243830	-1216.611667	722.668945	-22.038206
12363.243830	-1216.611667	721.461914	96.766449
12363.243830	-1216.611667	720.255859	30.564104
12363.243830	-1216.611667	719.048828	-96.448349
12363.243830	-1216.611667	717.841797	151.245178
12363.243830	-1216.611667	716.634766	158.301788
12363.243830	-1216.611667	715.427734	-6.797184
12363.243830	-1216.611667	714.219727	-2.361303
12363.243830	-1216.611667	713.011719	80.433342
12363.243830	-1216.611667	711.803711	-31.613543
12363.243830	-1216.611667	710.594727	53.558468
12363.243830	-1216.611667	709.385742	19.813484
12363.243830	-1216.611667	708.176758	-107.497993
12363.243830	-1216.611667	706.967773	65.904243
12363.243830	-1216.611667	705.758789	122.951752
12363.243830	-1216.611667	704.548828	225.380539
12363.243830	-1216.611667	703.338867	14.547174
12363.243830	-1216.611667	702.127930	25.933659
12363.243830	-1216.611667	700.917969	-73.816803
12363.243830	-1216.611667	699.707031	-49.918873
12363.243830	-1216.611667	698.496094	-147.213058
12363.243830	-1216.611667	697.285156	-67.928856
12363.243830	-1216.611667	696.073242	81.880379
12363.243830	-1216.611667	694.861328	90.347939
12363.243830	-1216.611667	693.649414	45.803905
12363.243830	-1216.611667	692.436523	102.042473
12363.243830	-1216.611667	691.224609	107.795532
12363.243830	-1216.611667	690.011719	73.168037
12363.243830	-1216.611667	688.798828	5.744725
12363.243830	-1216.611667	687.584961	-23.937206
12363.243830	-1216.611667	686.372070	102.456116
12363.243830	-1216.611667	685.158203	95.302719
12363.243830	-1216.611667	683.943359	57.881813
12363.243830	-1216.611667	682.729492	156.308838
12363.243830	-1216.611667	681.514648	262.177368
12363.243830	-1216.611667	680.299805	305.053986
12363.243830	-1216.611667	679.084961	169.296204
12363.243830	-1216.611667	677.869141	322.679169
12363.243830	-1216.611667	676.653320	332.649506
12363.243830	-1216.611667	675.437500	458.165344
12363.243830	-1216.611667	674.221680	184.038300
12363.243830	-1216.611667	673.004883	203.892044
12363.243830	-1216.611667	671.789063	213.634872
12363.243830	-1216.611667	670.571289	286.082672
12363.243830	-1216.611667	669.354492	360.955017
12363.243830	-1216.611667	668.136719	154.597488
12363.243830	-1216.611667	666.919922	246.911026
12363.243830	-1216.611667	665.701172	173.519562
12363.243830	-1216.611667	664.483398	140.238968
12363.243830	-1216.611667	663.264648	192.180130
12363.243830	-1216.611667	662.045898	136.218063
12363.243830	-1216.611667	660.827148	248.184982
12363.243830	-1216.611667	659.608398	367.564514
12363.243830	-1216.611667	658.388672	459.264069
12363.243830	-1216.611667	657.168945	170.052383
12363.243830	-1216.611667	655.949219	321.752960
12363.243830	-1216.611667	654.728516	290.511322
12363.243830	-1216.611667	653.507813	256.721466
12363.243830	-1216.611667	652.287109	135.274231
12363.243830	-1216.611667	651.066406	88.900398
12363.243830	-1216.611667	649.844727	370.268799
12363.243830	-1216.611667	648.623047	303.731598
12363.243830	-1216.611667	647.401367	187.142624
12363.243830	-1216.611667	646.179688	313.102753
12363.243830	-1216.611667	644.957031	361.445770
12363.243830	-1216.611667	643.734375	549.686096
12363.243830	-1216.611667	642.511719	512.878845
12363.243830	-1216.611667	641.289063	328.621948
12363.243830	-1216.611667	640.065430	549.049866
12363.243830	-1216.611667	638.841797	514.591248
12363.243830	-1216.611667	637.618164	320.291473
12363.243830	-1216.611667	636.393555	415.592438
12363.243830	-1216.611667	635.168945	465.872223
12363.243830	-1216.611667	633.944336	523.563904
12363.243830	-1216.611667	632.719727	446.458893
12363.243830	-1216.611667	631.494141	242.121017
12363.243830	-1216.611667	630.269531	352.031219
12363.243830	-1216.611667	629.042969	219.991470
12363.243830	-1216.611667	627.817383	172.712402
12363.243830	-1216.611667	626.590820	292.368011
12363.243830	-1216.611667	625.365234	416.910278
12363.243830	-1216.611667	624.137695	132.801910
12363.243830	-1216.611667	622.911133	43.031319
12363.243830	-1216.611667	621.683594	137.504700
12363.243830	-1216.611667	620.456055	219.440567
12363.243830	-1216.611667	619.228516	54.885323
12363.243830	-1216.611667	618.000977	216.336533
12363.243830	-1216.611667	616.772461	-90.061211
12363.243830	-1216.611667	615.543945	203.081665
12363.243830	-1216.611667	614.314453	-70.955551
12363.243830	-1216.611667	613.085938	107.594337
12363.243830	-1216.611667	611.856445	-109.226257
12363.243830	-1216.611667	610.626953	116.377678
12363.243830	-1216.611667	609.397461	128.152802
12363.243830	-1216.611667	608.166992	112.546234
12363.243830	-1216.611667	606.936523	228.536728
12363.243830	-1216.611667	605.706055	101.085762
12363.243830	-1216.611667	604.474609	75.427521
12363.243830	-1216.611667	603.244141	-133.931961
12363.243830	-1216.611667	602.012695	150.582458
12363.243830	-1216.611667	600.780273	50.365829
12363.243830	-1216.611667	599.548828	39.456600
12363.243830	-1216.611667	598.316406	224.423904
12363.243830	-1216.611667	597.083984	134.053391
12363.243830	-1216.611667	595.851563	100.697266
12363.243830	-1216.611667	594.618164	-19.433964
12363.243830	-1216.611667	593.384766	244.518723
12363.243830	-1216.611667	592.151367	235.813751
12363.243830	-1216.611667	590.917969	137.909760
12363.243830	-1216.611667	589.683594	-234.863663
12363.243830	-1216.611667	588.449219	-82.651314
12363.243830	-1216.611667	587.214844	178.371674
12363.243830	-1216.611667	585.979492	-13.629230
12363.243830	-1216.611667	584.745117	49.264965
12363.243830	-1216.611667	583.509766	65.093521
12363.243830	-1216.611667	582.273438	108.080643
12363.243830	-1216.611667	581.038086	47.174770
12363.243830	-1216.611667	579.801758	169.190430
12363.243830	-1216.611667	578.565430	-40.064838
12363.243830	-1216.611667	577.329102	-96.056190
12363.243830	-1216.611667	576.091797	10.992009
12363.243830	-1216.611667	574.854492	71.036804
12363.243830	-1216.611667	573.617188	222.397186
12363.243830	-1216.611667	572.378906	200.833130
12363.243830	-1216.611667	571.141602	322.426208
12363.243830	-1216.611667	569.903320	239.101913
12363.243830	-1216.611667	568.664063	96.563004
12363.243830	-1216.611667	567.425781	-80.467278
12363.243830	-1216.611667	566.186523	-3.426785
12363.243830	-1216.611667	564.947266	31.638700
12363.243830	-1216.611667	563.708008	278.676086
12363.243830	-1216.611667	562.467773	-97.991348
12363.243830	-1216.611667	561.227539	18.314291
12363.243830	-1216.611667	559.987305	114.840668
12363.243830	-1216.611667	558.747070	290.123535
12363.243830	-1216.611667	557.505859	280.610107
12363.243830	-1216.611667	556.264648	276.004700
12363.243830	-1216.611667	555.023438	293.535370
12363.243830	-1216.611667	553.781250	259.351471
12363.243830	-1216.611667	552.539063	-82.396400
12363.243830	-1216.611667	551.296875	13.856711
12363.243830	-1216.611667	550.054688	14.133799
12363.243830	-1216.611667	548.811523	164.380005
12363.243830	-1216.611667	547.569336	66.257347
12363.243830	-1216.611667	546.325195	71.374588
12363.243830	-1216.611667	545.082031	29.793833
12363.243830	-1216.611667	543.837891	174.925278
12363.243830	-1216.611667	542.593750	278.224182
12363.243830	-1216.611667	541.349609	293.057159
12363.243830	-1216.611667	540.105469	239.123856
12363.243830	-1216.611667	538.860352	482.212006
12363.243830	-1216.611667	537.615234	359.511200
12363.243830	-1216.611667	536.369141	359.524963
12363.243830	-1216.611667	535.124023	288.394745
12363.243830	-1216.611667	533.877930	268.779572
12363.243830	-1216.611667	532.631836	28.474382
12363.243830	-1216.611667	531.384766	114.309769
12363.243830	-1216.611667	530.138672	-57.252510
12363.243830	-1216.611667	528.891602	53.047939
12363.243830	-1216.611667	527.643555	13.834366
12363.243830	-1216.611667	526.396484	-152.736206
12363.243830	-1216.611667	525.148438	-47.423008
12363.243830	-1216.611667	523.900391	141.080551
12363.243830	-1216.611667	522.652344	-101.330910
12363.243830	-1216.611667	521.403320	94.417091
12363.243830	-1216.611667	520.154297	-64.716591
12363.243830	-1216.611667	518.905273	-130.832535
12363.243830	-1216.611667	517.656250	-33.063564
12363.243830	-1216.611667	516.406250	-143.199615
12363.243830	-1216.611667	515.156250	-199.514343
12363.243830	-1216.611667	513.906250	-131.161224
12363.243830	-1216.611667	512.655273	-48.193939
12363.243830	-1216.611667	511.404297	-187.598190
12363.243830	-1216.611667	510.153320	-177.953308
12363.243830	-1216.611667	508.902344	-200.071091
12363.243830	-1216.611667	507.650391	-300.327667
12363.243830	-1216.611667	506.398438	-68.572144
12363.243830	-1216.611667	505.146484	-63.895748
12363.243830	-1216.611667	503.893555	-178.800735
12363.243830	-1216.611667	502.641602	-235.114975
12363.243830	-1216.611667	501.388672	-225.574112
12363.243830	-1216.611667	500.134766	-152.661133
12363.243830	-1216.611667	498.881836	-177.300705
12363.243830	-1216.611667	497.627930	-50.837032
12363.243830	-1216.611667	496.374023	-136.448669
12363.243830	-1216.611667	495.119141	-12.525005
12363.243830	-1216.611667	493.865234	-66.477127
12363.243830	-1216.611667	492.610352	-42.504044
12363.243830	-1216.611667	491.355469	13.091498
12363.243830	-1216.611667	490.099609	46.726490
12363.243830	-1216.611667	488.843750	-87.599167
12363.243830	-1216.611667	487.587891	167.418091
12363.243830	-1216.611667	486.332031	-18.008032
12363.243830	-1216.611667	485.075195	-35.571213
12363.243830	-1216.611667	483.818359	-186.889923
12363.243830	-1216.611667	482.561523	111.576492
12363.243830	-1216.611667	481.304688	-151.570892
12363.243830	-1216.611667	480.046875	195.292328
12363.243830	-1216.611667	478.789063	196.983963
12363.243830	-1216.611667	477.531250	57.761166
12363.243830	-1216.611667	476.272461	144.400375
12363.243830	-1216.611667	475.013672	124.135269
12363.243830	-1216.611667	473.754883	448.532349
12363.243830	-1216.611667	472.496094	119.915840
12363.243830	-1216.611667	471.236328	121.374237
12363.243830	-1216.611667	469.976563	-32.467381
12363.243830	-1216.611667	468.716797	116.874146
12363.243830	-1216.611667	467.456055	-73.378273
12363.243830	-1216.611667	466.196289	-13.893245
12363.243830	-1216.611667	464.935547	-65.988510
12363.243830	-1216.611667	463.673828	22.418232
12363.243830	-1216.611667	462.413086	-15.244989
12363.243830	-1216.611667	461.151367	82.678169
12363.243830	-1216.611667	459.889648	228.926590
12363.243830	-1216.611667	458.626953	137.763260
12363.243830	-1216.611667	457.364258	0.575364
12363.243830	-1216.611667	456.101563	93.279701
12363.243830	-1216.611667	454.838867	-58.510765
12363.243830	-1216.611667	453.575195	164.624481
12363.243830	-1216.611667	452.312500	22.391809
12363.243830	-1216.611667	451.047852	97.731911
12363.243830	-1216.611667	449.784180	315.586456
12363.243830	-1216.611667	448.519531	177.949478
12363.243830	-1216.611667	447.254883	54.769272
12363.243830	-1216.611667	445.990234	23.342569
12363.243830	-1216.611667	444.725586	15.973809
12363.243830	-1216.611667	443.459961	95.419884
12363.243830	-1216.611667	442.194336	34.681629
12363.243830	-1216.611667	440.927734	169.357300
12363.243830	-1216.611667	439.662109	-21.938267
12363.243830	-1216.611667	438.395508	303.038574
12363.243830	-1216.611667	437.127930	234.532578
12363.243830	-1216.611667	435.861328	62.218319
12363.243830	-1216.611667	434.593750	106.829636
12363.243830	-1216.611667	433.326172	286.264496
12363.243830	-1216.611667	432.058594	373.877777
12363.243830	-1216.611667	430.790039	335.976593
12363.243830	-1216.611667	429.521484	247.329010
12363.243830	-1216.611667	428.252930	358.455353
12363.243830	-1216.611667	426.984375	450.085846
12363.243830	-1216.611667	425.714844	288.683746
12363.243830	-1216.611667	424.445313	440.067657
12363.243830	-1216.611667	423.174805	133.936554
12363.243830	-1216.611667	421.905273	258.409454
12363.243830	-1216.611667	420.634766	377.788788
12363.243830	-1216.611667	419.364258	376.644073
12363.243830	-1216.611667	418.092773	356.021576
12363.243830	-1216.611667	416.822266	332.775269
12363.243830	-1216.611667	415.550781	109.799263
12363.243830	-1216.611667	414.278320	86.088081
12363.243830	-1216.611667	413.006836	83.757042
12363.243830	-1216.611667	411.734375	232.455368
12363.243830	-1216.611667	410.461914	-0.997479
12363.243830	-1216.611667	409.188477	243.100174
12363.243830	-1216.611667	407.916016	150.772720
12363.243830	-1216.611667	406.642578	144.551651
12363.243830	-1216.611667	405.368164	87.619400
12363.243830	-1216.611667	404.094727	42.390743
12363.243830	-1216.611667	402.820313	131.126572
12363.243830	-1216.611667	401.545898	92.400307
12363.243830	-1216.611667	400.270508	-140.848373
12363.243830	-1216.611667	398.996094	66.623657
12363.243830	-1216.611667	397.720703	-28.294886
12363.243830	-1216.611667	396.444336	29.736870
12363.243830	-1216.611667	395.168945	-92.272316
12363.243830	-1216.611667	393.892578	53.527691
12363.243830	-1216.611667	392.616211	71.956696
12363.243830	-1216.611667	391.339844	37.282234
12363.243830	-1216.611667	390.062500	90.695457
12363.243830	-1216.611667	388.785156	-14.279532
12363.243830	-1216.611667	387.507813	69.276360
12363.243830	-1216.611667	386.229492	-144.244431
12363.243830	-1216.611667	384.951172	-85.616417
12363.243830	-1216.611667	383.672852	70.474213
12363.243830	-1216.611667	382.394531	8.491400
12363.243830	-1216.611667	381.115234	79.773140
12363.243830	-1216.611667	379.835938	131.351974
12363.243830	-1216.611667	378.556641	165.616776
12363.243830	-1216.611667	377.277344	280.460999
12363.243830	-1216.611667	375.997070	256.167969
12363.243830	-1216.611667	374.716797	236.037384
12363.243830	-1216.611667	373.435547	179.463287
12363.243830	-1216.611667	372.155273	-44.716347
12363.243830	-1216.611667	370.874023	217.081436
12363.243830	-1216.611667	369.591797	148.972321
12363.243830	-1216.611667	368.310547	220.875458
12363.243830	-1216.611667	367.028320	227.641220
12363.243830	-1216.611667	365.746094	495.801849
12363.243830	-1216.611667	364.463867	227.007462
12363.243830	-1216.611667	363.180664	107.594467
12363.243830	-1216.611667	361.897461	218.443375
12363.243830	-1216.611667	360.614258	190.328278
12363.243830	-1216.611667	359.330078	320.851196
12363.243830	-1216.611667	358.045898	14.924645
12363.243830	-1216.611667	356.761719	329.289368
12363.243830	-1216.611667	355.477539	285.777557
12363.243830	-1216.611667	354.192383	210.411957
12363.243830	-1216.611667	352.907227	88.956718
12363.243830	-1216.611667	351.622070	61.683319
12363.243830	-1216.611667	350.336914	242.598236
12363.243830	-1216.611667	349.050781	20.787115
12363.243830	-1216.611667	347.764648	14.238024
12363.243830	-1216.611667	346.477539	13.722684
12363.243830	-1216.611667	345.191406	-113.703766
12363.243830	-1216.611667	343.904297	-163.868073
12363.243830	-1216.611667	342.616211	-117.857574
12363.243830	-1216.611667	341.329102	-44.508976
12363.243830	-1216.611667	340.041016	67.918869
12363.243830	-1216.611667	338.752930	53.359070
12363.243830	-1216.611667	337.463867	37.524467
12363.243830	-1216.611667	336.175781	-60.146709
12363.243830	-1216.611667	334.886719	-66.656754
12363.243830	-1216.611667	333.596680	-22.389475
12363.243830	-1216.611667	332.307617	-133.472580
12363.243830	-1216.611667	331.017578	-165.386337
12363.243830	-1216.611667	329.727539	-196.328125
12363.243830	-1216.611667	328.436523	-86.663818
12363.243830	-1216.611667	327.146484	-23.454163
12363.243830	-1216.611667	325.855469	12.136325
12363.243830	-1216.611667	324.563477	-29.606176
12363.243830	-1216.611667	323.272461	-146.193298
12363.243830	-1216.611667	321.980469	57.320259
12363.243830	-1216.611667	320.688477	-166.584000
12363.243830	-1216.611667	319.395508	-311.727081
12363.243830	-1216.611667	318.103516	-63.676517
12363.243830	-1216.611667	316.810547	64.295967
12363.243830	-1216.611667	315.516602	-10.470997
12363.243830	-1216.611667	314.223633	-141.291824
12363.243830	-1216.611667	312.929688	85.035660
12363.243830	-1216.611667	311.635742	7.124850
12363.243830	-1216.611667	310.340820	-174.260910
12363.243830	-1216.611667	309.045898	95.648598
12363.243830	-1216.611667	307.750977	-89.647346
12363.243830	-1216.611667	306.456055	164.280609
12363.243830	-1216.611667	305.160156	215.445236
12363.243830	-1216.611667	303.865234	365.938232
12363.243830	-1216.611667	302.568359	459.820953
12363.243830	-1216.611667	301.272461	518.525208
12363.243830	-1216.611667	299.975586	640.858826
12363.243830	-1216.611667	298.678711	796.182251
