#X		#Y		#Wave		#Intensity
20469.107287	-753.494833	1999.980469	-255.620941
20469.107287	-753.494833	1999.016602	78.526352
20469.107287	-753.494833	1998.052734	-153.130814
20469.107287	-753.494833	1997.087891	11.216652
20469.107287	-753.494833	1996.123047	11.405118
20469.107287	-753.494833	1995.158203	-85.574196
20469.107287	-753.494833	1994.193359	-188.007782
20469.107287	-753.494833	1993.228516	-68.056580
20469.107287	-753.494833	1992.262695	-82.339859
20469.107287	-753.494833	1991.297852	86.066147
20469.107287	-753.494833	1990.332031	18.830013
20469.107287	-753.494833	1989.366211	62.515961
20469.107287	-753.494833	1988.399414	83.487755
20469.107287	-753.494833	1987.433594	22.396152
20469.107287	-753.494833	1986.466797	37.590267
20469.107287	-753.494833	1985.500977	-66.305496
20469.107287	-753.494833	1984.534180	91.512703
20469.107287	-753.494833	1983.567383	313.172211
20469.107287	-753.494833	1982.599609	59.924099
20469.107287	-753.494833	1981.632813	65.860313
20469.107287	-753.494833	1980.665039	14.656500
20469.107287	-753.494833	1979.697266	195.326965
20469.107287	-753.494833	1978.729492	232.405945
20469.107287	-753.494833	1977.761719	-283.860687
20469.107287	-753.494833	1976.792969	162.502960
20469.107287	-753.494833	1975.825195	137.041931
20469.107287	-753.494833	1974.856445	234.719482
20469.107287	-753.494833	1973.887695	156.954239
20469.107287	-753.494833	1972.918945	194.921310
20469.107287	-753.494833	1971.949219	106.879166
20469.107287	-753.494833	1970.980469	193.728333
20469.107287	-753.494833	1970.010742	-67.258133
20469.107287	-753.494833	1969.041016	-101.573860
20469.107287	-753.494833	1968.071289	4.413879
20469.107287	-753.494833	1967.101563	149.613922
20469.107287	-753.494833	1966.130859	-65.065544
20469.107287	-753.494833	1965.161133	-11.350279
20469.107287	-753.494833	1964.190430	-39.062653
20469.107287	-753.494833	1963.219727	117.754448
20469.107287	-753.494833	1962.249023	-8.699365
20469.107287	-753.494833	1961.277344	110.889450
20469.107287	-753.494833	1960.306641	107.287521
20469.107287	-753.494833	1959.334961	184.769638
20469.107287	-753.494833	1958.363281	92.400818
20469.107287	-753.494833	1957.391602	39.324875
20469.107287	-753.494833	1956.419922	55.034016
20469.107287	-753.494833	1955.447266	43.617268
20469.107287	-753.494833	1954.474609	69.002464
20469.107287	-753.494833	1953.501953	74.654846
20469.107287	-753.494833	1952.529297	163.786514
20469.107287	-753.494833	1951.556641	-27.217794
20469.107287	-753.494833	1950.583984	162.502060
20469.107287	-753.494833	1949.610352	192.488678
20469.107287	-753.494833	1948.636719	-113.936386
20469.107287	-753.494833	1947.663086	95.221214
20469.107287	-753.494833	1946.689453	117.748619
20469.107287	-753.494833	1945.715820	-29.070166
20469.107287	-753.494833	1944.741211	-4.115443
20469.107287	-753.494833	1943.767578	-246.550659
20469.107287	-753.494833	1942.792969	43.281540
20469.107287	-753.494833	1941.818359	-154.949692
20469.107287	-753.494833	1940.842773	-27.052103
20469.107287	-753.494833	1939.868164	-24.203419
20469.107287	-753.494833	1938.892578	164.898560
20469.107287	-753.494833	1937.916992	74.617683
20469.107287	-753.494833	1936.941406	-57.261551
20469.107287	-753.494833	1935.965820	70.550087
20469.107287	-753.494833	1934.990234	178.742081
20469.107287	-753.494833	1934.013672	37.180527
20469.107287	-753.494833	1933.037109	-57.793007
20469.107287	-753.494833	1932.060547	-69.489464
20469.107287	-753.494833	1931.083984	53.433395
20469.107287	-753.494833	1930.107422	58.908493
20469.107287	-753.494833	1929.129883	64.413727
20469.107287	-753.494833	1928.153320	-8.304119
20469.107287	-753.494833	1927.175781	161.113693
20469.107287	-753.494833	1926.198242	-60.646709
20469.107287	-753.494833	1925.219727	67.245766
20469.107287	-753.494833	1924.242188	138.927734
20469.107287	-753.494833	1923.263672	56.695271
20469.107287	-753.494833	1922.285156	-25.460438
20469.107287	-753.494833	1921.306641	-51.362438
20469.107287	-753.494833	1920.328125	96.175896
20469.107287	-753.494833	1919.349609	-159.145264
20469.107287	-753.494833	1918.370117	71.452972
20469.107287	-753.494833	1917.391602	-139.735031
20469.107287	-753.494833	1916.412109	3.030128
20469.107287	-753.494833	1915.431641	187.268692
20469.107287	-753.494833	1914.452148	-245.638687
20469.107287	-753.494833	1913.472656	-93.019913
20469.107287	-753.494833	1912.492188	-159.856125
20469.107287	-753.494833	1911.511719	92.750412
20469.107287	-753.494833	1910.531250	13.826184
20469.107287	-753.494833	1909.550781	51.960079
20469.107287	-753.494833	1908.569336	-41.439495
20469.107287	-753.494833	1907.588867	-254.116287
20469.107287	-753.494833	1906.607422	-162.209595
20469.107287	-753.494833	1905.625977	-140.901596
20469.107287	-753.494833	1904.644531	50.880592
20469.107287	-753.494833	1903.662109	-197.956696
20469.107287	-753.494833	1902.680664	-159.458893
20469.107287	-753.494833	1901.698242	-344.792480
20469.107287	-753.494833	1900.715820	-160.205658
20469.107287	-753.494833	1899.733398	-29.151293
20469.107287	-753.494833	1898.750000	-99.949684
20469.107287	-753.494833	1897.767578	-78.275032
20469.107287	-753.494833	1896.784180	-39.542637
20469.107287	-753.494833	1895.800781	86.725273
20469.107287	-753.494833	1894.817383	33.160522
20469.107287	-753.494833	1893.833984	142.451508
20469.107287	-753.494833	1892.850586	108.419380
20469.107287	-753.494833	1891.866211	106.018219
20469.107287	-753.494833	1890.881836	147.370773
20469.107287	-753.494833	1889.897461	77.064690
20469.107287	-753.494833	1888.913086	140.334000
20469.107287	-753.494833	1887.927734	60.426693
20469.107287	-753.494833	1886.943359	118.897476
20469.107287	-753.494833	1885.958008	-53.094303
20469.107287	-753.494833	1884.972656	211.623428
20469.107287	-753.494833	1883.987305	-57.261368
20469.107287	-753.494833	1883.001953	-117.489502
20469.107287	-753.494833	1882.015625	59.912552
20469.107287	-753.494833	1881.029297	9.437880
20469.107287	-753.494833	1880.042969	-82.187630
20469.107287	-753.494833	1879.056641	-166.485168
20469.107287	-753.494833	1878.070313	-325.824615
20469.107287	-753.494833	1877.083984	-68.501633
20469.107287	-753.494833	1876.096680	-159.954865
20469.107287	-753.494833	1875.109375	46.436378
20469.107287	-753.494833	1874.122070	61.536495
20469.107287	-753.494833	1873.134766	11.301661
20469.107287	-753.494833	1872.146484	-126.012459
20469.107287	-753.494833	1871.159180	41.562592
20469.107287	-753.494833	1870.170898	63.955002
20469.107287	-753.494833	1869.182617	-131.305603
20469.107287	-753.494833	1868.194336	-193.504333
20469.107287	-753.494833	1867.205078	-88.871948
20469.107287	-753.494833	1866.216797	-47.120789
20469.107287	-753.494833	1865.227539	-5.385201
20469.107287	-753.494833	1864.238281	258.611420
20469.107287	-753.494833	1863.249023	15.220556
20469.107287	-753.494833	1862.259766	199.400192
20469.107287	-753.494833	1861.269531	1.976139
20469.107287	-753.494833	1860.279297	17.070658
20469.107287	-753.494833	1859.290039	39.387104
20469.107287	-753.494833	1858.298828	13.414677
20469.107287	-753.494833	1857.308594	40.517509
20469.107287	-753.494833	1856.318359	127.902222
20469.107287	-753.494833	1855.327148	229.705032
20469.107287	-753.494833	1854.335938	128.875412
20469.107287	-753.494833	1853.344727	146.202316
20469.107287	-753.494833	1852.353516	-125.783127
20469.107287	-753.494833	1851.362305	-0.013632
20469.107287	-753.494833	1850.370117	272.671295
20469.107287	-753.494833	1849.377930	-129.381317
20469.107287	-753.494833	1848.385742	5.850899
20469.107287	-753.494833	1847.393555	-42.042320
20469.107287	-753.494833	1846.401367	208.626434
20469.107287	-753.494833	1845.408203	81.183487
20469.107287	-753.494833	1844.415039	160.748550
20469.107287	-753.494833	1843.421875	283.555878
20469.107287	-753.494833	1842.428711	285.962860
20469.107287	-753.494833	1841.435547	131.948898
20469.107287	-753.494833	1840.441406	211.246384
20469.107287	-753.494833	1839.448242	57.197956
20469.107287	-753.494833	1838.454102	11.344567
20469.107287	-753.494833	1837.459961	-123.493515
20469.107287	-753.494833	1836.464844	-56.455185
20469.107287	-753.494833	1835.470703	60.956978
20469.107287	-753.494833	1834.475586	-71.599297
20469.107287	-753.494833	1833.480469	278.637939
20469.107287	-753.494833	1832.485352	239.616943
20469.107287	-753.494833	1831.490234	166.923737
20469.107287	-753.494833	1830.495117	-112.273689
20469.107287	-753.494833	1829.499023	6.997728
20469.107287	-753.494833	1828.502930	-63.435223
20469.107287	-753.494833	1827.506836	106.013504
20469.107287	-753.494833	1826.510742	188.958298
20469.107287	-753.494833	1825.513672	202.235214
20469.107287	-753.494833	1824.517578	129.095367
20469.107287	-753.494833	1823.520508	-174.264908
20469.107287	-753.494833	1822.523438	-67.698906
20469.107287	-753.494833	1821.526367	120.221329
20469.107287	-753.494833	1820.529297	-1.125067
20469.107287	-753.494833	1819.531250	191.318283
20469.107287	-753.494833	1818.533203	187.182877
20469.107287	-753.494833	1817.535156	41.658443
20469.107287	-753.494833	1816.537109	147.499237
20469.107287	-753.494833	1815.539063	238.835464
20469.107287	-753.494833	1814.540039	109.837395
20469.107287	-753.494833	1813.541992	9.501475
20469.107287	-753.494833	1812.542969	40.688305
20469.107287	-753.494833	1811.543945	179.400299
20469.107287	-753.494833	1810.543945	-14.488493
20469.107287	-753.494833	1809.544922	-127.110603
20469.107287	-753.494833	1808.544922	63.820591
20469.107287	-753.494833	1807.544922	299.982819
20469.107287	-753.494833	1806.544922	41.244816
20469.107287	-753.494833	1805.544922	140.897186
20469.107287	-753.494833	1804.544922	-266.059448
20469.107287	-753.494833	1803.543945	182.094025
20469.107287	-753.494833	1802.542969	345.782166
20469.107287	-753.494833	1801.541992	241.878632
20469.107287	-753.494833	1800.541016	56.729885
20469.107287	-753.494833	1799.539063	157.924820
20469.107287	-753.494833	1798.538086	-172.946640
20469.107287	-753.494833	1797.536133	30.590387
20469.107287	-753.494833	1796.534180	272.088196
20469.107287	-753.494833	1795.532227	153.250717
20469.107287	-753.494833	1794.529297	151.160568
20469.107287	-753.494833	1793.527344	-106.139786
20469.107287	-753.494833	1792.524414	189.496246
20469.107287	-753.494833	1791.521484	34.487926
20469.107287	-753.494833	1790.518555	303.509125
20469.107287	-753.494833	1789.514648	276.900635
20469.107287	-753.494833	1788.511719	247.788452
20469.107287	-753.494833	1787.507813	197.113907
20469.107287	-753.494833	1786.503906	8.233559
20469.107287	-753.494833	1785.500000	159.676880
20469.107287	-753.494833	1784.496094	160.987976
20469.107287	-753.494833	1783.491211	102.666267
20469.107287	-753.494833	1782.486328	163.175430
20469.107287	-753.494833	1781.481445	261.575287
20469.107287	-753.494833	1780.476563	48.262615
20469.107287	-753.494833	1779.471680	241.465302
20469.107287	-753.494833	1778.465820	161.065994
20469.107287	-753.494833	1777.460938	368.144073
20469.107287	-753.494833	1776.455078	249.438095
20469.107287	-753.494833	1775.449219	384.846436
20469.107287	-753.494833	1774.442383	199.369507
20469.107287	-753.494833	1773.436523	196.693375
20469.107287	-753.494833	1772.429688	98.882729
20469.107287	-753.494833	1771.422852	126.783913
20469.107287	-753.494833	1770.416016	-9.252876
20469.107287	-753.494833	1769.409180	158.374557
20469.107287	-753.494833	1768.402344	268.842651
20469.107287	-753.494833	1767.394531	274.731049
20469.107287	-753.494833	1766.386719	183.222946
20469.107287	-753.494833	1765.378906	214.907928
20469.107287	-753.494833	1764.371094	33.048485
20469.107287	-753.494833	1763.362305	133.178909
20469.107287	-753.494833	1762.354492	-136.589371
20469.107287	-753.494833	1761.345703	-20.183773
20469.107287	-753.494833	1760.336914	167.098450
20469.107287	-753.494833	1759.328125	197.825607
20469.107287	-753.494833	1758.318359	72.078278
20469.107287	-753.494833	1757.308594	-58.509602
20469.107287	-753.494833	1756.299805	54.637886
20469.107287	-753.494833	1755.290039	77.639641
20469.107287	-753.494833	1754.279297	98.102745
20469.107287	-753.494833	1753.269531	118.414886
20469.107287	-753.494833	1752.258789	34.473492
20469.107287	-753.494833	1751.249023	-47.213966
20469.107287	-753.494833	1750.238281	135.799210
20469.107287	-753.494833	1749.226563	56.160286
20469.107287	-753.494833	1748.215820	26.045641
20469.107287	-753.494833	1747.204102	97.398277
20469.107287	-753.494833	1746.193359	-41.706356
20469.107287	-753.494833	1745.181641	116.731842
20469.107287	-753.494833	1744.168945	-32.097740
20469.107287	-753.494833	1743.157227	-15.711483
20469.107287	-753.494833	1742.144531	-13.660844
20469.107287	-753.494833	1741.132813	-151.021149
20469.107287	-753.494833	1740.120117	-17.084616
20469.107287	-753.494833	1739.106445	-211.348221
20469.107287	-753.494833	1738.093750	-98.985016
20469.107287	-753.494833	1737.080078	131.110489
20469.107287	-753.494833	1736.067383	85.062714
20469.107287	-753.494833	1735.053711	-281.792877
20469.107287	-753.494833	1734.040039	-54.599731
20469.107287	-753.494833	1733.025391	-108.126762
20469.107287	-753.494833	1732.011719	106.869827
20469.107287	-753.494833	1730.997070	-173.139755
20469.107287	-753.494833	1729.982422	50.902859
20469.107287	-753.494833	1728.967773	-92.684166
20469.107287	-753.494833	1727.952148	102.698807
20469.107287	-753.494833	1726.937500	5.951378
20469.107287	-753.494833	1725.921875	-293.339325
20469.107287	-753.494833	1724.906250	26.264776
20469.107287	-753.494833	1723.890625	-21.442451
20469.107287	-753.494833	1722.875000	-201.008957
20469.107287	-753.494833	1721.858398	-34.920662
20469.107287	-753.494833	1720.841797	-101.837494
20469.107287	-753.494833	1719.825195	-30.153025
20469.107287	-753.494833	1718.808594	-59.710983
20469.107287	-753.494833	1717.791992	-253.905869
20469.107287	-753.494833	1716.774414	-79.271019
20469.107287	-753.494833	1715.756836	97.509995
20469.107287	-753.494833	1714.739258	257.649170
20469.107287	-753.494833	1713.721680	241.465027
20469.107287	-753.494833	1712.704102	-44.855816
20469.107287	-753.494833	1711.685547	-108.202637
20469.107287	-753.494833	1710.667969	-2.654853
20469.107287	-753.494833	1709.649414	-38.086025
20469.107287	-753.494833	1708.630859	-97.091820
20469.107287	-753.494833	1707.611328	71.312111
20469.107287	-753.494833	1706.592773	14.400865
20469.107287	-753.494833	1705.573242	-230.210693
20469.107287	-753.494833	1704.553711	-120.859871
20469.107287	-753.494833	1703.534180	-44.485813
20469.107287	-753.494833	1702.513672	64.529160
20469.107287	-753.494833	1701.494141	175.742615
20469.107287	-753.494833	1700.473633	0.991063
20469.107287	-753.494833	1699.453125	-122.285805
20469.107287	-753.494833	1698.432617	-11.467462
20469.107287	-753.494833	1697.412109	0.864490
20469.107287	-753.494833	1696.390625	41.150459
20469.107287	-753.494833	1695.369141	-241.648865
20469.107287	-753.494833	1694.347656	58.167179
20469.107287	-753.494833	1693.326172	-68.008324
20469.107287	-753.494833	1692.304688	44.329037
20469.107287	-753.494833	1691.282227	-163.871933
20469.107287	-753.494833	1690.260742	60.454559
20469.107287	-753.494833	1689.238281	-59.049335
20469.107287	-753.494833	1688.214844	-120.197784
20469.107287	-753.494833	1687.192383	26.558048
20469.107287	-753.494833	1686.168945	208.184982
20469.107287	-753.494833	1685.146484	22.945126
20469.107287	-753.494833	1684.123047	127.244431
20469.107287	-753.494833	1683.099609	-27.762718
20469.107287	-753.494833	1682.075195	3.933353
20469.107287	-753.494833	1681.051758	159.245834
20469.107287	-753.494833	1680.027344	85.705116
20469.107287	-753.494833	1679.002930	61.098740
20469.107287	-753.494833	1677.978516	48.079765
20469.107287	-753.494833	1676.953125	135.245453
20469.107287	-753.494833	1675.928711	294.598663
20469.107287	-753.494833	1674.903320	122.746254
20469.107287	-753.494833	1673.877930	486.974274
20469.107287	-753.494833	1672.852539	417.531494
20469.107287	-753.494833	1671.826172	557.714111
20469.107287	-753.494833	1670.800781	632.561951
20469.107287	-753.494833	1669.774414	434.791443
20469.107287	-753.494833	1668.748047	465.228210
20469.107287	-753.494833	1667.721680	465.317352
20469.107287	-753.494833	1666.694336	567.738586
20469.107287	-753.494833	1665.667969	442.002991
20469.107287	-753.494833	1664.640625	425.593262
20469.107287	-753.494833	1663.613281	837.173096
20469.107287	-753.494833	1662.585938	727.534302
20469.107287	-753.494833	1661.557617	703.900391
20469.107287	-753.494833	1660.530273	796.488159
20469.107287	-753.494833	1659.501953	791.334351
20469.107287	-753.494833	1658.473633	783.805176
20469.107287	-753.494833	1657.444336	910.978455
20469.107287	-753.494833	1656.416016	789.491150
20469.107287	-753.494833	1655.386719	886.321350
20469.107287	-753.494833	1654.358398	1141.003540
20469.107287	-753.494833	1653.328125	1191.180420
20469.107287	-753.494833	1652.298828	1115.961060
20469.107287	-753.494833	1651.269531	1335.489868
20469.107287	-753.494833	1650.239258	1413.324707
20469.107287	-753.494833	1649.208984	1317.088989
20469.107287	-753.494833	1648.178711	1137.349243
20469.107287	-753.494833	1647.148438	1551.351318
20469.107287	-753.494833	1646.117188	1605.741211
20469.107287	-753.494833	1645.086914	1504.777710
20469.107287	-753.494833	1644.055664	1489.563354
20469.107287	-753.494833	1643.024414	1421.031982
20469.107287	-753.494833	1641.992188	1778.794434
20469.107287	-753.494833	1640.960938	1812.111572
20469.107287	-753.494833	1639.928711	1757.366943
20469.107287	-753.494833	1638.896484	1848.506470
20469.107287	-753.494833	1637.864258	1659.467529
20469.107287	-753.494833	1636.832031	2019.060791
20469.107287	-753.494833	1635.798828	2001.265991
20469.107287	-753.494833	1634.766602	2059.843994
20469.107287	-753.494833	1633.733398	1981.883545
20469.107287	-753.494833	1632.699219	2241.605225
20469.107287	-753.494833	1631.666016	2205.252441
20469.107287	-753.494833	1630.632813	2222.086426
20469.107287	-753.494833	1629.598633	2194.973389
20469.107287	-753.494833	1628.564453	2193.295166
20469.107287	-753.494833	1627.530273	2108.438232
20469.107287	-753.494833	1626.495117	2049.011230
20469.107287	-753.494833	1625.460938	2202.128906
20469.107287	-753.494833	1624.425781	2496.041748
20469.107287	-753.494833	1623.390625	2212.643066
20469.107287	-753.494833	1622.355469	2222.532227
20469.107287	-753.494833	1621.319336	2153.943115
20469.107287	-753.494833	1620.284180	2542.298828
20469.107287	-753.494833	1619.248047	2337.593994
20469.107287	-753.494833	1618.211914	2354.421143
20469.107287	-753.494833	1617.174805	2362.020264
20469.107287	-753.494833	1616.138672	2314.325195
20469.107287	-753.494833	1615.101563	2490.261230
20469.107287	-753.494833	1614.065430	2426.479248
20469.107287	-753.494833	1613.027344	2344.277100
20469.107287	-753.494833	1611.990234	2771.319824
20469.107287	-753.494833	1610.953125	2910.298096
20469.107287	-753.494833	1609.915039	2786.698486
20469.107287	-753.494833	1608.876953	2640.157471
20469.107287	-753.494833	1607.838867	2624.932617
20469.107287	-753.494833	1606.800781	3007.940430
20469.107287	-753.494833	1605.761719	3008.824707
20469.107287	-753.494833	1604.723633	3313.470459
20469.107287	-753.494833	1603.684570	3197.069092
20469.107287	-753.494833	1602.644531	3425.721924
20469.107287	-753.494833	1601.605469	3458.905273
20469.107287	-753.494833	1600.566406	3657.652100
20469.107287	-753.494833	1599.526367	3552.954834
20469.107287	-753.494833	1598.486328	3384.006836
20469.107287	-753.494833	1597.446289	3295.600342
20469.107287	-753.494833	1596.405273	3368.069824
20469.107287	-753.494833	1595.365234	3456.668213
20469.107287	-753.494833	1594.324219	3529.202637
20469.107287	-753.494833	1593.283203	3590.293945
20469.107287	-753.494833	1592.242188	3314.010010
20469.107287	-753.494833	1591.200195	3377.531494
20469.107287	-753.494833	1590.159180	3408.994385
20469.107287	-753.494833	1589.117188	3394.617676
20469.107287	-753.494833	1588.075195	3426.193115
20469.107287	-753.494833	1587.032227	3166.584961
20469.107287	-753.494833	1585.990234	3379.466064
20469.107287	-753.494833	1584.947266	3413.530273
20469.107287	-753.494833	1583.904297	3003.057373
20469.107287	-753.494833	1582.861328	2876.951172
20469.107287	-753.494833	1581.818359	2794.506104
20469.107287	-753.494833	1580.775391	2968.708496
20469.107287	-753.494833	1579.731445	2936.813965
20469.107287	-753.494833	1578.687500	2724.145996
20469.107287	-753.494833	1577.643555	2479.604980
20469.107287	-753.494833	1576.598633	2635.747559
20469.107287	-753.494833	1575.554688	2634.054932
20469.107287	-753.494833	1574.509766	2847.490479
20469.107287	-753.494833	1573.464844	2436.506592
20469.107287	-753.494833	1572.419922	2590.634033
20469.107287	-753.494833	1571.374023	2488.708984
20469.107287	-753.494833	1570.329102	2407.515137
20469.107287	-753.494833	1569.283203	2365.293213
20469.107287	-753.494833	1568.237305	2300.343506
20469.107287	-753.494833	1567.191406	2354.324951
20469.107287	-753.494833	1566.144531	2303.307129
20469.107287	-753.494833	1565.098633	2295.823975
20469.107287	-753.494833	1564.051758	2217.658936
20469.107287	-753.494833	1563.004883	2272.040771
20469.107287	-753.494833	1561.957031	2141.626709
20469.107287	-753.494833	1560.910156	2146.030029
20469.107287	-753.494833	1559.862305	2129.998047
20469.107287	-753.494833	1558.814453	2248.672607
20469.107287	-753.494833	1557.766602	1895.342407
20469.107287	-753.494833	1556.718750	1900.250854
20469.107287	-753.494833	1555.669922	1891.587402
20469.107287	-753.494833	1554.621094	1750.856812
20469.107287	-753.494833	1553.573242	2027.336914
20469.107287	-753.494833	1552.523438	1870.923950
20469.107287	-753.494833	1551.474609	1874.167603
20469.107287	-753.494833	1550.424805	1929.906982
20469.107287	-753.494833	1549.375000	2013.077881
20469.107287	-753.494833	1548.325195	1898.288940
20469.107287	-753.494833	1547.275391	1856.514038
20469.107287	-753.494833	1546.225586	1432.582397
20469.107287	-753.494833	1545.174805	1504.932617
20469.107287	-753.494833	1544.124023	1477.302490
20469.107287	-753.494833	1543.073242	1765.948975
20469.107287	-753.494833	1542.022461	1793.129028
20469.107287	-753.494833	1540.970703	1470.322754
20469.107287	-753.494833	1539.919922	1484.196411
20469.107287	-753.494833	1538.868164	1661.812744
20469.107287	-753.494833	1537.815430	1430.522583
20469.107287	-753.494833	1536.763672	1426.641968
20469.107287	-753.494833	1535.710938	1402.457031
20469.107287	-753.494833	1534.659180	1226.304321
20469.107287	-753.494833	1533.606445	1225.167725
20469.107287	-753.494833	1532.552734	1353.548706
20469.107287	-753.494833	1531.500000	1148.443359
20469.107287	-753.494833	1530.446289	1281.630981
20469.107287	-753.494833	1529.393555	1176.740112
20469.107287	-753.494833	1528.338867	1371.400269
20469.107287	-753.494833	1527.285156	1341.661499
20469.107287	-753.494833	1526.231445	1169.260620
20469.107287	-753.494833	1525.176758	1158.007935
20469.107287	-753.494833	1524.122070	893.099060
20469.107287	-753.494833	1523.067383	1043.093628
20469.107287	-753.494833	1522.012695	751.447266
20469.107287	-753.494833	1520.957031	838.302673
20469.107287	-753.494833	1519.901367	864.146118
20469.107287	-753.494833	1518.845703	887.876648
20469.107287	-753.494833	1517.790039	633.346558
20469.107287	-753.494833	1516.734375	675.546753
20469.107287	-753.494833	1515.677734	726.935120
20469.107287	-753.494833	1514.621094	592.969482
20469.107287	-753.494833	1513.564453	364.228668
20469.107287	-753.494833	1512.507813	524.691833
20469.107287	-753.494833	1511.450195	409.424683
20469.107287	-753.494833	1510.393555	631.182434
20469.107287	-753.494833	1509.335938	518.537598
20469.107287	-753.494833	1508.278320	525.863098
20469.107287	-753.494833	1507.219727	508.496613
20469.107287	-753.494833	1506.162109	321.922577
20469.107287	-753.494833	1505.103516	352.370911
20469.107287	-753.494833	1504.044922	389.750854
20469.107287	-753.494833	1502.986328	526.611755
20469.107287	-753.494833	1501.926758	381.479645
20469.107287	-753.494833	1500.868164	428.380096
20469.107287	-753.494833	1499.808594	466.405914
20469.107287	-753.494833	1498.749023	3.875628
20469.107287	-753.494833	1497.688477	85.161598
20469.107287	-753.494833	1496.628906	-131.006912
20469.107287	-753.494833	1495.568359	54.317642
20469.107287	-753.494833	1494.507813	219.462860
20469.107287	-753.494833	1493.447266	26.456402
20469.107287	-753.494833	1492.386719	-98.713173
20469.107287	-753.494833	1491.325195	-36.713627
20469.107287	-753.494833	1490.263672	-66.888046
20469.107287	-753.494833	1489.202148	-6.812348
20469.107287	-753.494833	1488.140625	136.707031
20469.107287	-753.494833	1487.079102	260.096100
20469.107287	-753.494833	1486.016602	142.847992
20469.107287	-753.494833	1484.954102	86.567917
20469.107287	-753.494833	1483.891602	334.136871
20469.107287	-753.494833	1482.829102	485.094086
20469.107287	-753.494833	1481.765625	334.888397
20469.107287	-753.494833	1480.702148	468.169128
20469.107287	-753.494833	1479.638672	459.998932
20469.107287	-753.494833	1478.575195	755.282166
20469.107287	-753.494833	1477.511719	859.710205
20469.107287	-753.494833	1476.447266	548.875366
20469.107287	-753.494833	1475.382813	601.972839
20469.107287	-753.494833	1474.318359	691.244873
20469.107287	-753.494833	1473.253906	623.539124
20469.107287	-753.494833	1472.189453	771.500061
20469.107287	-753.494833	1471.124023	820.835876
20469.107287	-753.494833	1470.058594	951.057312
20469.107287	-753.494833	1468.993164	1166.515869
20469.107287	-753.494833	1467.927734	987.645142
20469.107287	-753.494833	1466.861328	607.815918
20469.107287	-753.494833	1465.794922	870.524597
20469.107287	-753.494833	1464.728516	956.817871
20469.107287	-753.494833	1463.662109	1029.785522
20469.107287	-753.494833	1462.594727	1227.974731
20469.107287	-753.494833	1461.528320	977.431152
20469.107287	-753.494833	1460.460938	1137.312256
20469.107287	-753.494833	1459.393555	1123.689453
20469.107287	-753.494833	1458.326172	1045.875000
20469.107287	-753.494833	1457.257813	1391.225464
20469.107287	-753.494833	1456.189453	1002.200500
20469.107287	-753.494833	1455.121094	1100.686523
20469.107287	-753.494833	1454.052734	1079.993652
20469.107287	-753.494833	1452.984375	1343.641235
20469.107287	-753.494833	1451.915039	1309.937744
20469.107287	-753.494833	1450.845703	1418.654419
20469.107287	-753.494833	1449.776367	1484.281006
20469.107287	-753.494833	1448.707031	1348.366089
20469.107287	-753.494833	1447.636719	1373.035034
20469.107287	-753.494833	1446.567383	1578.305298
20469.107287	-753.494833	1445.497070	1252.321167
20469.107287	-753.494833	1444.425781	1378.946045
20469.107287	-753.494833	1443.355469	1606.877563
20469.107287	-753.494833	1442.285156	1591.737915
20469.107287	-753.494833	1441.213867	1554.479614
20469.107287	-753.494833	1440.142578	1516.260742
20469.107287	-753.494833	1439.070313	1640.169067
20469.107287	-753.494833	1437.999023	1755.894775
20469.107287	-753.494833	1436.926758	1769.201904
20469.107287	-753.494833	1435.854492	2023.497681
20469.107287	-753.494833	1434.782227	1782.740601
20469.107287	-753.494833	1433.709961	1774.695679
20469.107287	-753.494833	1432.636719	1673.914429
20469.107287	-753.494833	1431.563477	1424.475342
20469.107287	-753.494833	1430.490234	1823.920654
20469.107287	-753.494833	1429.416992	1485.952759
20469.107287	-753.494833	1428.343750	1235.871948
20469.107287	-753.494833	1427.269531	1456.652344
20469.107287	-753.494833	1426.195313	1491.377319
20469.107287	-753.494833	1425.121094	1269.747192
20469.107287	-753.494833	1424.046875	1031.958740
20469.107287	-753.494833	1422.971680	1161.994385
20469.107287	-753.494833	1421.896484	1217.307983
20469.107287	-753.494833	1420.821289	709.429993
20469.107287	-753.494833	1419.746094	962.845947
20469.107287	-753.494833	1418.669922	1010.562439
20469.107287	-753.494833	1417.594727	1074.320068
20469.107287	-753.494833	1416.518555	1125.841797
20469.107287	-753.494833	1415.442383	927.525696
20469.107287	-753.494833	1414.365234	806.664001
20469.107287	-753.494833	1413.289063	1030.736328
20469.107287	-753.494833	1412.211914	875.304749
20469.107287	-753.494833	1411.134766	969.772461
20469.107287	-753.494833	1410.057617	835.173889
20469.107287	-753.494833	1408.979492	754.465881
20469.107287	-753.494833	1407.902344	1043.435181
20469.107287	-753.494833	1406.824219	951.027893
20469.107287	-753.494833	1405.746094	841.533447
20469.107287	-753.494833	1404.666992	933.938538
20469.107287	-753.494833	1403.588867	855.284485
20469.107287	-753.494833	1402.509766	1033.813599
20469.107287	-753.494833	1401.430664	705.343689
20469.107287	-753.494833	1400.351563	852.125916
20469.107287	-753.494833	1399.271484	751.327332
20469.107287	-753.494833	1398.192383	645.817871
20469.107287	-753.494833	1397.112305	877.245422
20469.107287	-753.494833	1396.031250	1109.265625
20469.107287	-753.494833	1394.951172	1086.220215
20469.107287	-753.494833	1393.871094	741.493469
20469.107287	-753.494833	1392.790039	675.889832
20469.107287	-753.494833	1391.708984	699.438965
20469.107287	-753.494833	1390.626953	793.793274
20469.107287	-753.494833	1389.545898	805.773682
20469.107287	-753.494833	1388.463867	1028.094482
20469.107287	-753.494833	1387.381836	914.802307
20469.107287	-753.494833	1386.299805	966.356934
20469.107287	-753.494833	1385.217773	1067.946777
20469.107287	-753.494833	1384.134766	822.437927
20469.107287	-753.494833	1383.051758	977.597046
20469.107287	-753.494833	1381.968750	933.555847
20469.107287	-753.494833	1380.885742	1040.088623
20469.107287	-753.494833	1379.802734	1007.170715
20469.107287	-753.494833	1378.718750	910.073181
20469.107287	-753.494833	1377.634766	968.362793
20469.107287	-753.494833	1376.550781	906.313843
20469.107287	-753.494833	1375.465820	1051.836304
20469.107287	-753.494833	1374.381836	846.126282
20469.107287	-753.494833	1373.296875	1062.407471
20469.107287	-753.494833	1372.211914	1072.306519
20469.107287	-753.494833	1371.126953	927.915955
20469.107287	-753.494833	1370.041016	1043.890503
20469.107287	-753.494833	1368.955078	897.034363
20469.107287	-753.494833	1367.869141	1027.021973
20469.107287	-753.494833	1366.783203	1069.514160
20469.107287	-753.494833	1365.697266	1057.750122
20469.107287	-753.494833	1364.610352	995.754089
20469.107287	-753.494833	1363.523438	1057.153809
20469.107287	-753.494833	1362.436523	1012.850342
20469.107287	-753.494833	1361.349609	1100.614014
20469.107287	-753.494833	1360.261719	838.606262
20469.107287	-753.494833	1359.174805	552.357910
20469.107287	-753.494833	1358.086914	764.007751
20469.107287	-753.494833	1356.998047	709.951172
20469.107287	-753.494833	1355.910156	466.003723
20469.107287	-753.494833	1354.821289	666.505798
20469.107287	-753.494833	1353.732422	418.386871
20469.107287	-753.494833	1352.643555	545.202332
20469.107287	-753.494833	1351.554688	448.046600
20469.107287	-753.494833	1350.464844	636.234314
20469.107287	-753.494833	1349.375000	655.243347
20469.107287	-753.494833	1348.285156	704.207275
20469.107287	-753.494833	1347.195313	828.278992
20469.107287	-753.494833	1346.105469	585.394714
20469.107287	-753.494833	1345.014648	780.537537
20469.107287	-753.494833	1343.923828	853.139954
20469.107287	-753.494833	1342.833008	1001.167419
20469.107287	-753.494833	1341.741211	1070.236084
20469.107287	-753.494833	1340.650391	1188.369751
20469.107287	-753.494833	1339.558594	1193.678711
20469.107287	-753.494833	1338.466797	1184.316040
20469.107287	-753.494833	1337.374023	958.563965
20469.107287	-753.494833	1336.282227	901.273743
20469.107287	-753.494833	1335.189453	807.027283
20469.107287	-753.494833	1334.096680	936.902710
20469.107287	-753.494833	1333.003906	811.775818
20469.107287	-753.494833	1331.910156	864.659729
20469.107287	-753.494833	1330.817383	823.135376
20469.107287	-753.494833	1329.723633	781.390930
20469.107287	-753.494833	1328.629883	694.920166
20469.107287	-753.494833	1327.535156	712.529602
20469.107287	-753.494833	1326.441406	766.641479
20469.107287	-753.494833	1325.346680	751.471619
20469.107287	-753.494833	1324.251953	840.283264
20469.107287	-753.494833	1323.156250	836.455383
20469.107287	-753.494833	1322.061523	719.866638
20469.107287	-753.494833	1320.965820	974.012817
20469.107287	-753.494833	1319.870117	761.697815
20469.107287	-753.494833	1318.774414	819.740601
20469.107287	-753.494833	1317.678711	982.989441
20469.107287	-753.494833	1316.582031	981.255432
20469.107287	-753.494833	1315.485352	1175.691772
20469.107287	-753.494833	1314.388672	1312.010010
20469.107287	-753.494833	1313.291016	1360.138672
20469.107287	-753.494833	1312.194336	1367.824341
20469.107287	-753.494833	1311.096680	1347.394043
20469.107287	-753.494833	1309.999023	1322.514282
20469.107287	-753.494833	1308.901367	1350.820679
20469.107287	-753.494833	1307.802734	1419.475952
20469.107287	-753.494833	1306.705078	1305.793091
20469.107287	-753.494833	1305.606445	1105.427490
20469.107287	-753.494833	1304.506836	1224.307617
20469.107287	-753.494833	1303.408203	1171.152222
20469.107287	-753.494833	1302.308594	1123.605347
20469.107287	-753.494833	1301.208984	1407.233643
20469.107287	-753.494833	1300.109375	1120.651001
20469.107287	-753.494833	1299.009766	1126.799561
20469.107287	-753.494833	1297.909180	1327.956177
20469.107287	-753.494833	1296.808594	1429.208496
20469.107287	-753.494833	1295.708008	1168.381714
20469.107287	-753.494833	1294.607422	1000.869019
20469.107287	-753.494833	1293.506836	1193.338989
20469.107287	-753.494833	1292.405273	1332.010010
20469.107287	-753.494833	1291.303711	1108.712158
20469.107287	-753.494833	1290.202148	1012.270142
20469.107287	-753.494833	1289.099609	1061.113403
20469.107287	-753.494833	1287.998047	965.791748
20469.107287	-753.494833	1286.895508	827.504883
20469.107287	-753.494833	1285.792969	811.738953
20469.107287	-753.494833	1284.689453	843.915649
20469.107287	-753.494833	1283.586914	878.543457
20469.107287	-753.494833	1282.483398	725.451294
20469.107287	-753.494833	1281.379883	990.703369
20469.107287	-753.494833	1280.276367	961.038635
20469.107287	-753.494833	1279.171875	841.955139
20469.107287	-753.494833	1278.067383	1045.618530
20469.107287	-753.494833	1276.962891	1086.089966
20469.107287	-753.494833	1275.858398	889.044312
20469.107287	-753.494833	1274.753906	727.271240
20469.107287	-753.494833	1273.648438	878.696533
20469.107287	-753.494833	1272.542969	758.388184
20469.107287	-753.494833	1271.437500	704.721924
20469.107287	-753.494833	1270.331055	680.156921
20469.107287	-753.494833	1269.225586	783.998047
20469.107287	-753.494833	1268.119141	369.316986
20469.107287	-753.494833	1267.012695	525.837891
20469.107287	-753.494833	1265.906250	530.253052
20469.107287	-753.494833	1264.798828	488.591827
20469.107287	-753.494833	1263.691406	568.094055
20469.107287	-753.494833	1262.583984	339.867950
20469.107287	-753.494833	1261.476563	561.928040
20469.107287	-753.494833	1260.368164	342.701294
20469.107287	-753.494833	1259.260742	361.780701
20469.107287	-753.494833	1258.152344	438.608154
20469.107287	-753.494833	1257.043945	404.522125
20469.107287	-753.494833	1255.934570	252.710266
20469.107287	-753.494833	1254.825195	451.632202
20469.107287	-753.494833	1253.716797	283.939880
20469.107287	-753.494833	1252.606445	272.987518
20469.107287	-753.494833	1251.497070	238.959854
20469.107287	-753.494833	1250.387695	239.774048
20469.107287	-753.494833	1249.277344	253.615829
20469.107287	-753.494833	1248.166992	294.228058
20469.107287	-753.494833	1247.055664	33.961468
20469.107287	-753.494833	1245.945313	83.498238
20469.107287	-753.494833	1244.833984	126.585815
20469.107287	-753.494833	1243.722656	142.499359
20469.107287	-753.494833	1242.611328	66.123611
20469.107287	-753.494833	1241.499023	159.664780
20469.107287	-753.494833	1240.387695	94.657722
20469.107287	-753.494833	1239.275391	18.109560
20469.107287	-753.494833	1238.162109	61.966560
20469.107287	-753.494833	1237.049805	0.995126
20469.107287	-753.494833	1235.936523	30.868340
20469.107287	-753.494833	1234.823242	163.313675
20469.107287	-753.494833	1233.709961	49.813622
20469.107287	-753.494833	1232.596680	86.271545
20469.107287	-753.494833	1231.482422	35.420918
20469.107287	-753.494833	1230.369141	155.496201
20469.107287	-753.494833	1229.253906	100.394814
20469.107287	-753.494833	1228.139648	230.172653
20469.107287	-753.494833	1227.025391	146.294617
20469.107287	-753.494833	1225.910156	57.828083
20469.107287	-753.494833	1224.794922	-20.394718
20469.107287	-753.494833	1223.679688	67.833382
20469.107287	-753.494833	1222.563477	-64.698631
20469.107287	-753.494833	1221.447266	17.214636
20469.107287	-753.494833	1220.331055	82.419044
20469.107287	-753.494833	1219.214844	-4.659458
20469.107287	-753.494833	1218.098633	-52.402523
20469.107287	-753.494833	1216.981445	-143.882599
20469.107287	-753.494833	1215.864258	-141.987854
20469.107287	-753.494833	1214.747070	72.194031
20469.107287	-753.494833	1213.629883	-85.657051
20469.107287	-753.494833	1212.511719	-126.488632
20469.107287	-753.494833	1211.393555	-75.289299
20469.107287	-753.494833	1210.275391	-209.033432
20469.107287	-753.494833	1209.157227	-186.838928
20469.107287	-753.494833	1208.038086	-265.232544
20469.107287	-753.494833	1206.918945	-249.807190
20469.107287	-753.494833	1205.799805	-192.232498
20469.107287	-753.494833	1204.680664	-166.274780
20469.107287	-753.494833	1203.560547	-65.223602
20469.107287	-753.494833	1202.441406	-156.132751
20469.107287	-753.494833	1201.321289	-86.972305
20469.107287	-753.494833	1200.200195	-67.210793
20469.107287	-753.494833	1199.080078	-29.133205
20469.107287	-753.494833	1197.958984	-251.281097
20469.107287	-753.494833	1196.837891	-51.634644
20469.107287	-753.494833	1195.716797	14.648320
20469.107287	-753.494833	1194.594727	-194.151703
20469.107287	-753.494833	1193.473633	-37.590725
20469.107287	-753.494833	1192.351563	138.093048
20469.107287	-753.494833	1191.229492	132.947021
20469.107287	-753.494833	1190.106445	-66.096077
20469.107287	-753.494833	1188.984375	3.854425
20469.107287	-753.494833	1187.861328	56.904709
20469.107287	-753.494833	1186.738281	97.868042
20469.107287	-753.494833	1185.614258	106.514877
20469.107287	-753.494833	1184.491211	198.712875
20469.107287	-753.494833	1183.367188	149.985825
20469.107287	-753.494833	1182.243164	201.100388
20469.107287	-753.494833	1181.119141	164.849976
20469.107287	-753.494833	1179.994141	95.531250
20469.107287	-753.494833	1178.869141	38.734230
20469.107287	-753.494833	1177.744141	12.641079
20469.107287	-753.494833	1176.619141	104.639046
20469.107287	-753.494833	1175.493164	-7.521307
20469.107287	-753.494833	1174.368164	-8.235024
20469.107287	-753.494833	1173.242188	16.295309
20469.107287	-753.494833	1172.115234	-62.847862
20469.107287	-753.494833	1170.989258	31.158533
20469.107287	-753.494833	1169.862305	135.846008
20469.107287	-753.494833	1168.735352	-5.064016
20469.107287	-753.494833	1167.608398	-83.540642
20469.107287	-753.494833	1166.481445	55.336666
20469.107287	-753.494833	1165.353516	-131.009079
20469.107287	-753.494833	1164.225586	-86.292702
20469.107287	-753.494833	1163.097656	-60.987202
20469.107287	-753.494833	1161.968750	-165.301529
20469.107287	-753.494833	1160.840820	102.919495
20469.107287	-753.494833	1159.711914	-30.185120
20469.107287	-753.494833	1158.583008	-93.491989
20469.107287	-753.494833	1157.453125	-133.608704
20469.107287	-753.494833	1156.324219	46.273739
20469.107287	-753.494833	1155.194336	-200.136749
20469.107287	-753.494833	1154.064453	-250.482132
20469.107287	-753.494833	1152.933594	-66.064529
20469.107287	-753.494833	1151.803711	64.049553
20469.107287	-753.494833	1150.672852	-164.960678
20469.107287	-753.494833	1149.541992	16.824562
20469.107287	-753.494833	1148.411133	-139.958206
20469.107287	-753.494833	1147.279297	-47.413105
20469.107287	-753.494833	1146.147461	89.734360
20469.107287	-753.494833	1145.015625	-47.495487
20469.107287	-753.494833	1143.883789	-65.677048
20469.107287	-753.494833	1142.750977	148.562912
20469.107287	-753.494833	1141.619141	-68.693542
20469.107287	-753.494833	1140.486328	-40.709572
20469.107287	-753.494833	1139.352539	-28.513826
20469.107287	-753.494833	1138.219727	-254.071701
20469.107287	-753.494833	1137.085938	-75.988495
20469.107287	-753.494833	1135.952148	37.118313
20469.107287	-753.494833	1134.818359	97.769104
20469.107287	-753.494833	1133.683594	3.586709
20469.107287	-753.494833	1132.549805	40.741135
20469.107287	-753.494833	1131.415039	216.140198
20469.107287	-753.494833	1130.279297	498.258240
20469.107287	-753.494833	1129.144531	553.543030
20469.107287	-753.494833	1128.008789	595.440063
20469.107287	-753.494833	1126.873047	478.283600
20469.107287	-753.494833	1125.737305	334.453522
20469.107287	-753.494833	1124.601563	324.349121
20469.107287	-753.494833	1123.464844	250.489304
20469.107287	-753.494833	1122.328125	450.526886
20469.107287	-753.494833	1121.191406	375.483368
20469.107287	-753.494833	1120.054688	434.249329
20469.107287	-753.494833	1118.916992	203.102188
20469.107287	-753.494833	1117.779297	302.891388
20469.107287	-753.494833	1116.641602	77.650124
20469.107287	-753.494833	1115.503906	121.483879
20469.107287	-753.494833	1114.365234	274.599548
20469.107287	-753.494833	1113.226563	356.749176
20469.107287	-753.494833	1112.087891	251.042145
20469.107287	-753.494833	1110.949219	124.690437
20469.107287	-753.494833	1109.809570	100.920250
20469.107287	-753.494833	1108.669922	88.139160
20469.107287	-753.494833	1107.530273	65.155830
20469.107287	-753.494833	1106.390625	230.036728
20469.107287	-753.494833	1105.250000	203.705124
20469.107287	-753.494833	1104.109375	159.773911
20469.107287	-753.494833	1102.968750	388.674866
20469.107287	-753.494833	1101.828125	147.186356
20469.107287	-753.494833	1100.686523	310.533203
20469.107287	-753.494833	1099.544922	289.699677
20469.107287	-753.494833	1098.403320	364.069672
20469.107287	-753.494833	1097.261719	311.595520
20469.107287	-753.494833	1096.120117	535.284119
20469.107287	-753.494833	1094.977539	226.953720
20469.107287	-753.494833	1093.834961	310.796021
20469.107287	-753.494833	1092.691406	367.040314
20469.107287	-753.494833	1091.548828	235.659027
20469.107287	-753.494833	1090.405273	264.805878
20469.107287	-753.494833	1089.261719	211.723557
20469.107287	-753.494833	1088.118164	197.405365
20469.107287	-753.494833	1086.973633	269.755188
20469.107287	-753.494833	1085.829102	161.899628
20469.107287	-753.494833	1084.684570	191.270554
20469.107287	-753.494833	1083.540039	47.343700
20469.107287	-753.494833	1082.395508	-12.129748
20469.107287	-753.494833	1081.250000	323.613129
20469.107287	-753.494833	1080.104492	123.713028
20469.107287	-753.494833	1078.958984	71.756035
20469.107287	-753.494833	1077.812500	101.578201
20469.107287	-753.494833	1076.666016	123.738327
20469.107287	-753.494833	1075.519531	392.153625
20469.107287	-753.494833	1074.373047	5.368228
20469.107287	-753.494833	1073.226563	243.957581
20469.107287	-753.494833	1072.079102	214.069946
20469.107287	-753.494833	1070.931641	-1.785381
20469.107287	-753.494833	1069.784180	251.718002
20469.107287	-753.494833	1068.635742	232.251633
20469.107287	-753.494833	1067.487305	314.122864
20469.107287	-753.494833	1066.338867	383.573151
20469.107287	-753.494833	1065.190430	163.756012
20469.107287	-753.494833	1064.041992	402.006714
20469.107287	-753.494833	1062.892578	621.353943
20469.107287	-753.494833	1061.743164	493.545746
20469.107287	-753.494833	1060.593750	417.813812
20469.107287	-753.494833	1059.443359	390.178925
20469.107287	-753.494833	1058.292969	264.637299
20469.107287	-753.494833	1057.142578	60.903137
20469.107287	-753.494833	1055.992188	290.218842
20469.107287	-753.494833	1054.841797	152.589600
20469.107287	-753.494833	1053.690430	62.302460
20469.107287	-753.494833	1052.539063	0.575678
20469.107287	-753.494833	1051.387695	170.975937
20469.107287	-753.494833	1050.235352	90.847778
20469.107287	-753.494833	1049.083984	83.410126
20469.107287	-753.494833	1047.931641	-158.226379
20469.107287	-753.494833	1046.778320	-22.359484
20469.107287	-753.494833	1045.625977	127.095306
20469.107287	-753.494833	1044.472656	245.779572
20469.107287	-753.494833	1043.319336	149.570175
20469.107287	-753.494833	1042.166016	216.866837
20469.107287	-753.494833	1041.012695	169.899323
20469.107287	-753.494833	1039.858398	269.377960
20469.107287	-753.494833	1038.704102	217.075302
20469.107287	-753.494833	1037.549805	106.571770
20469.107287	-753.494833	1036.394531	220.909531
20469.107287	-753.494833	1035.239258	118.506836
20469.107287	-753.494833	1034.083984	94.847389
20469.107287	-753.494833	1032.928711	106.249840
20469.107287	-753.494833	1031.773438	235.846313
20469.107287	-753.494833	1030.617188	102.691467
20469.107287	-753.494833	1029.460938	71.114929
20469.107287	-753.494833	1028.304688	27.570116
20469.107287	-753.494833	1027.147461	260.167206
20469.107287	-753.494833	1025.991211	260.501129
20469.107287	-753.494833	1024.833984	87.821213
20469.107287	-753.494833	1023.675781	-156.677109
20469.107287	-753.494833	1022.518555	51.856308
20469.107287	-753.494833	1021.360352	298.600128
20469.107287	-753.494833	1020.202148	274.577759
20469.107287	-753.494833	1019.043945	191.344162
20469.107287	-753.494833	1017.884766	16.911476
20469.107287	-753.494833	1016.726563	113.056068
20469.107287	-753.494833	1015.567383	106.212013
20469.107287	-753.494833	1014.407227	53.100170
20469.107287	-753.494833	1013.248047	201.030380
20469.107287	-753.494833	1012.087891	218.340759
20469.107287	-753.494833	1010.927734	256.287445
20469.107287	-753.494833	1009.767578	241.998672
20469.107287	-753.494833	1008.606445	174.557480
20469.107287	-753.494833	1007.446289	53.611069
20469.107287	-753.494833	1006.285156	-45.406231
20469.107287	-753.494833	1005.123047	-48.311665
20469.107287	-753.494833	1003.961914	158.871338
20469.107287	-753.494833	1002.799805	-3.076484
20469.107287	-753.494833	1001.637695	-9.484572
20469.107287	-753.494833	1000.475586	26.670786
20469.107287	-753.494833	999.312500	-108.786514
20469.107287	-753.494833	998.149414	-278.294189
20469.107287	-753.494833	996.986328	209.059189
20469.107287	-753.494833	995.823242	42.963303
20469.107287	-753.494833	994.659180	-65.759094
20469.107287	-753.494833	993.496094	-57.984200
20469.107287	-753.494833	992.332031	231.117737
20469.107287	-753.494833	991.166992	12.437462
20469.107287	-753.494833	990.002930	-386.088470
20469.107287	-753.494833	988.837891	-264.738983
20469.107287	-753.494833	987.672852	-78.858635
20469.107287	-753.494833	986.506836	-4.784179
20469.107287	-753.494833	985.341797	-120.438133
20469.107287	-753.494833	984.175781	-154.128052
20469.107287	-753.494833	983.009766	-112.081177
20469.107287	-753.494833	981.843750	89.379471
20469.107287	-753.494833	980.676758	133.771439
20469.107287	-753.494833	979.509766	-163.384369
20469.107287	-753.494833	978.342773	-51.910004
20469.107287	-753.494833	977.175781	70.718201
20469.107287	-753.494833	976.007813	19.112328
20469.107287	-753.494833	974.839844	-21.727066
20469.107287	-753.494833	973.671875	-88.603493
20469.107287	-753.494833	972.503906	-29.281395
20469.107287	-753.494833	971.334961	137.701736
20469.107287	-753.494833	970.166016	-162.343842
20469.107287	-753.494833	968.997070	-4.306612
20469.107287	-753.494833	967.828125	-98.099472
20469.107287	-753.494833	966.658203	262.580750
20469.107287	-753.494833	965.488281	-165.562988
20469.107287	-753.494833	964.318359	-323.338104
20469.107287	-753.494833	963.148438	-78.153648
20469.107287	-753.494833	961.977539	-28.719276
20469.107287	-753.494833	960.806641	-52.078968
20469.107287	-753.494833	959.635742	-40.542133
20469.107287	-753.494833	958.463867	-62.465069
20469.107287	-753.494833	957.292969	100.021477
20469.107287	-753.494833	956.121094	17.490856
20469.107287	-753.494833	954.948242	-117.867455
20469.107287	-753.494833	953.776367	-120.192772
20469.107287	-753.494833	952.603516	-17.932505
20469.107287	-753.494833	951.430664	-47.740704
20469.107287	-753.494833	950.257813	-144.155334
20469.107287	-753.494833	949.084961	-49.440926
20469.107287	-753.494833	947.911133	235.600540
20469.107287	-753.494833	946.737305	13.007529
20469.107287	-753.494833	945.563477	-244.902481
20469.107287	-753.494833	944.388672	70.213913
20469.107287	-753.494833	943.213867	-6.345937
20469.107287	-753.494833	942.039063	47.579182
20469.107287	-753.494833	940.864258	203.730560
20469.107287	-753.494833	939.688477	127.186821
20469.107287	-753.494833	938.513672	4.361246
20469.107287	-753.494833	937.337891	191.462692
20469.107287	-753.494833	936.161133	322.000885
20469.107287	-753.494833	934.985352	171.043610
20469.107287	-753.494833	933.808594	273.307312
20469.107287	-753.494833	932.631836	490.712646
20469.107287	-753.494833	931.454102	324.213928
20469.107287	-753.494833	930.277344	249.691681
20469.107287	-753.494833	929.099609	280.181396
20469.107287	-753.494833	927.921875	241.461258
20469.107287	-753.494833	926.743164	496.901459
20469.107287	-753.494833	925.565430	202.421844
20469.107287	-753.494833	924.386719	334.967743
20469.107287	-753.494833	923.208008	344.729614
20469.107287	-753.494833	922.028320	137.185852
20469.107287	-753.494833	920.849609	190.355209
20469.107287	-753.494833	919.669922	194.867294
20469.107287	-753.494833	919.474609	-1.079171
20469.107287	-753.494833	918.309570	-152.407440
20469.107287	-753.494833	917.143555	58.966305
20469.107287	-753.494833	915.977539	-3.016363
20469.107287	-753.494833	914.810547	243.906906
20469.107287	-753.494833	913.644531	36.339268
20469.107287	-753.494833	912.477539	124.849319
20469.107287	-753.494833	911.310547	27.026234
20469.107287	-753.494833	910.143555	-55.491352
20469.107287	-753.494833	908.975586	280.257935
20469.107287	-753.494833	907.807617	95.647522
20469.107287	-753.494833	906.639648	135.418579
20469.107287	-753.494833	905.471680	269.441162
20469.107287	-753.494833	904.303711	-119.045502
20469.107287	-753.494833	903.134766	55.660942
20469.107287	-753.494833	901.965820	-146.747543
20469.107287	-753.494833	900.796875	-46.046413
20469.107287	-753.494833	899.626953	-11.627155
20469.107287	-753.494833	898.457031	-86.731323
20469.107287	-753.494833	897.287109	21.411520
20469.107287	-753.494833	896.117188	-122.459465
20469.107287	-753.494833	894.947266	105.140991
20469.107287	-753.494833	893.776367	205.425705
20469.107287	-753.494833	892.605469	-42.787151
20469.107287	-753.494833	891.434570	14.177125
20469.107287	-753.494833	890.262695	4.983384
20469.107287	-753.494833	889.091797	313.449036
20469.107287	-753.494833	887.919922	-54.180134
20469.107287	-753.494833	886.748047	68.628067
20469.107287	-753.494833	885.575195	23.701405
20469.107287	-753.494833	884.403320	105.725746
20469.107287	-753.494833	883.230469	48.029556
20469.107287	-753.494833	882.057617	36.006504
20469.107287	-753.494833	880.883789	-82.647636
20469.107287	-753.494833	879.710938	-46.514305
20469.107287	-753.494833	878.537109	37.764938
20469.107287	-753.494833	877.362305	43.338284
20469.107287	-753.494833	876.188477	-50.036636
20469.107287	-753.494833	875.013672	21.384132
20469.107287	-753.494833	873.839844	9.079071
20469.107287	-753.494833	872.664063	-8.330724
20469.107287	-753.494833	871.489258	35.031391
20469.107287	-753.494833	870.313477	242.998917
20469.107287	-753.494833	869.138672	-68.388855
20469.107287	-753.494833	867.962891	-20.110086
20469.107287	-753.494833	866.786133	-247.855499
20469.107287	-753.494833	865.610352	81.315826
20469.107287	-753.494833	864.433594	126.867828
20469.107287	-753.494833	863.256836	15.482820
20469.107287	-753.494833	862.079102	265.843231
20469.107287	-753.494833	860.902344	192.319962
20469.107287	-753.494833	859.724609	90.966499
20469.107287	-753.494833	858.546875	25.000437
20469.107287	-753.494833	857.368164	50.010307
20469.107287	-753.494833	856.190430	11.783317
20469.107287	-753.494833	855.011719	34.163654
20469.107287	-753.494833	853.833008	-34.451244
20469.107287	-753.494833	852.654297	91.379845
20469.107287	-753.494833	851.474609	186.811646
20469.107287	-753.494833	850.294922	130.687027
20469.107287	-753.494833	849.115234	72.011673
20469.107287	-753.494833	847.935547	53.686745
20469.107287	-753.494833	846.754883	161.468384
20469.107287	-753.494833	845.575195	228.795853
20469.107287	-753.494833	844.393555	89.252266
20469.107287	-753.494833	843.212891	73.262939
20469.107287	-753.494833	842.032227	47.145470
20469.107287	-753.494833	840.850586	20.990747
20469.107287	-753.494833	839.668945	47.711330
20469.107287	-753.494833	838.486328	-13.804132
20469.107287	-753.494833	837.304688	-2.302300
20469.107287	-753.494833	836.122070	-94.104362
20469.107287	-753.494833	834.939453	12.981712
20469.107287	-753.494833	833.756836	135.075851
20469.107287	-753.494833	832.573242	116.131912
20469.107287	-753.494833	831.389648	99.660423
20469.107287	-753.494833	830.206055	57.985405
20469.107287	-753.494833	829.022461	129.457275
20469.107287	-753.494833	827.838867	-209.041367
20469.107287	-753.494833	826.654297	131.362106
20469.107287	-753.494833	825.469727	-28.636997
20469.107287	-753.494833	824.284180	205.932449
20469.107287	-753.494833	823.099609	111.203758
20469.107287	-753.494833	821.914063	56.652557
20469.107287	-753.494833	820.728516	77.416725
20469.107287	-753.494833	819.542969	-4.834976
20469.107287	-753.494833	818.356445	61.011955
20469.107287	-753.494833	817.169922	144.347473
20469.107287	-753.494833	815.983398	26.835493
20469.107287	-753.494833	814.796875	110.032471
20469.107287	-753.494833	813.609375	-40.144524
20469.107287	-753.494833	812.422852	88.063614
20469.107287	-753.494833	811.235352	100.821205
20469.107287	-753.494833	810.046875	58.367207
20469.107287	-753.494833	808.859375	-14.202061
20469.107287	-753.494833	807.670898	-74.269432
20469.107287	-753.494833	806.482422	53.530109
20469.107287	-753.494833	805.293945	-34.193237
20469.107287	-753.494833	804.104492	48.354206
20469.107287	-753.494833	802.915039	263.509277
20469.107287	-753.494833	801.725586	168.115585
20469.107287	-753.494833	800.536133	85.216957
20469.107287	-753.494833	799.345703	177.448700
20469.107287	-753.494833	798.155273	324.621460
20469.107287	-753.494833	796.964844	-83.585144
20469.107287	-753.494833	795.774414	58.462543
20469.107287	-753.494833	794.583008	-39.619881
20469.107287	-753.494833	793.392578	-25.237768
20469.107287	-753.494833	792.200195	24.066084
20469.107287	-753.494833	791.008789	-36.646172
20469.107287	-753.494833	789.816406	27.509865
20469.107287	-753.494833	788.625000	-55.774090
20469.107287	-753.494833	787.432617	188.026810
20469.107287	-753.494833	786.239258	94.637939
20469.107287	-753.494833	785.046875	160.972031
20469.107287	-753.494833	783.853516	-4.860406
20469.107287	-753.494833	782.660156	-90.845871
20469.107287	-753.494833	781.465820	-47.145588
20469.107287	-753.494833	780.272461	-108.266357
20469.107287	-753.494833	779.078125	-164.436874
20469.107287	-753.494833	777.883789	-63.590706
20469.107287	-753.494833	776.688477	-251.964432
20469.107287	-753.494833	775.494141	40.610374
20469.107287	-753.494833	774.298828	34.041363
20469.107287	-753.494833	773.103516	216.717468
20469.107287	-753.494833	771.907227	175.128510
20469.107287	-753.494833	770.711914	275.415985
20469.107287	-753.494833	769.515625	338.260590
20469.107287	-753.494833	768.318359	32.681816
20469.107287	-753.494833	767.122070	160.125153
20469.107287	-753.494833	765.924805	242.673401
20469.107287	-753.494833	764.727539	240.563568
20469.107287	-753.494833	763.530273	-174.395676
20469.107287	-753.494833	762.333008	39.757652
20469.107287	-753.494833	761.134766	-27.118820
20469.107287	-753.494833	759.936523	82.417191
20469.107287	-753.494833	758.738281	94.947830
20469.107287	-753.494833	757.540039	65.183174
20469.107287	-753.494833	756.340820	147.130096
20469.107287	-753.494833	755.141602	22.889328
20469.107287	-753.494833	753.942383	64.970772
20469.107287	-753.494833	752.742188	-59.321938
20469.107287	-753.494833	751.541992	-181.141815
20469.107287	-753.494833	750.341797	-44.946682
20469.107287	-753.494833	749.141602	36.561485
20469.107287	-753.494833	747.941406	-25.860279
20469.107287	-753.494833	746.740234	-157.741531
20469.107287	-753.494833	745.539063	344.977905
20469.107287	-753.494833	744.337891	210.477905
20469.107287	-753.494833	743.135742	-117.301422
20469.107287	-753.494833	741.933594	139.657257
20469.107287	-753.494833	740.731445	-136.072571
20469.107287	-753.494833	739.529297	118.191032
20469.107287	-753.494833	738.326172	-4.036822
20469.107287	-753.494833	737.124023	-143.595154
20469.107287	-753.494833	735.919922	174.677917
20469.107287	-753.494833	734.716797	275.028351
20469.107287	-753.494833	733.513672	137.800385
20469.107287	-753.494833	732.309570	-81.045723
20469.107287	-753.494833	731.105469	-3.130796
20469.107287	-753.494833	729.900391	210.664566
20469.107287	-753.494833	728.696289	56.036213
20469.107287	-753.494833	727.491211	84.282112
20469.107287	-753.494833	726.286133	65.518982
20469.107287	-753.494833	725.080078	115.869987
20469.107287	-753.494833	723.874023	-48.710155
20469.107287	-753.494833	722.668945	-30.558567
20469.107287	-753.494833	721.461914	-47.035248
20469.107287	-753.494833	720.255859	-206.701187
20469.107287	-753.494833	719.048828	149.362198
20469.107287	-753.494833	717.841797	-0.517078
20469.107287	-753.494833	716.634766	103.665367
20469.107287	-753.494833	715.427734	40.065315
20469.107287	-753.494833	714.219727	6.024427
20469.107287	-753.494833	713.011719	-30.516762
20469.107287	-753.494833	711.803711	-370.220795
20469.107287	-753.494833	710.594727	-143.128922
20469.107287	-753.494833	709.385742	-108.327774
20469.107287	-753.494833	708.176758	-371.600983
20469.107287	-753.494833	706.967773	-16.751646
20469.107287	-753.494833	705.758789	-48.611233
20469.107287	-753.494833	704.548828	-218.343140
20469.107287	-753.494833	703.338867	-235.478119
20469.107287	-753.494833	702.127930	-75.511650
20469.107287	-753.494833	700.917969	-141.954819
20469.107287	-753.494833	699.707031	-237.930069
20469.107287	-753.494833	698.496094	-311.778534
20469.107287	-753.494833	697.285156	-61.148933
20469.107287	-753.494833	696.073242	-103.141350
20469.107287	-753.494833	694.861328	-19.838943
20469.107287	-753.494833	693.649414	-425.496857
20469.107287	-753.494833	692.436523	-145.751358
20469.107287	-753.494833	691.224609	-92.080704
20469.107287	-753.494833	690.011719	-87.577454
20469.107287	-753.494833	688.798828	-24.203489
20469.107287	-753.494833	687.584961	-110.598053
20469.107287	-753.494833	686.372070	-44.865105
20469.107287	-753.494833	685.158203	89.486580
20469.107287	-753.494833	683.943359	42.252666
20469.107287	-753.494833	682.729492	210.790314
20469.107287	-753.494833	681.514648	185.547684
20469.107287	-753.494833	680.299805	157.832703
20469.107287	-753.494833	679.084961	130.097397
20469.107287	-753.494833	677.869141	1.888935
20469.107287	-753.494833	676.653320	103.956779
20469.107287	-753.494833	675.437500	134.931686
20469.107287	-753.494833	674.221680	268.700317
20469.107287	-753.494833	673.004883	44.983616
20469.107287	-753.494833	671.789063	129.713486
20469.107287	-753.494833	670.571289	70.006027
20469.107287	-753.494833	669.354492	-36.176823
20469.107287	-753.494833	668.136719	-171.693893
20469.107287	-753.494833	666.919922	-140.887543
20469.107287	-753.494833	665.701172	65.904114
20469.107287	-753.494833	664.483398	172.374664
20469.107287	-753.494833	663.264648	-58.469574
20469.107287	-753.494833	662.045898	77.258896
20469.107287	-753.494833	660.827148	171.385300
20469.107287	-753.494833	659.608398	9.019069
20469.107287	-753.494833	658.388672	132.384033
20469.107287	-753.494833	657.168945	104.326744
20469.107287	-753.494833	655.949219	112.877556
20469.107287	-753.494833	654.728516	104.326714
20469.107287	-753.494833	653.507813	83.569664
20469.107287	-753.494833	652.287109	167.695358
20469.107287	-753.494833	651.066406	-6.720903
20469.107287	-753.494833	649.844727	43.231258
20469.107287	-753.494833	648.623047	63.904369
20469.107287	-753.494833	647.401367	91.874718
20469.107287	-753.494833	646.179688	312.317230
20469.107287	-753.494833	644.957031	245.202881
20469.107287	-753.494833	643.734375	246.308029
20469.107287	-753.494833	642.511719	442.215851
20469.107287	-753.494833	641.289063	216.866913
20469.107287	-753.494833	640.065430	32.987068
20469.107287	-753.494833	638.841797	362.654510
20469.107287	-753.494833	637.618164	300.474823
20469.107287	-753.494833	636.393555	311.296021
20469.107287	-753.494833	635.168945	224.838837
20469.107287	-753.494833	633.944336	259.996979
20469.107287	-753.494833	632.719727	292.715973
20469.107287	-753.494833	631.494141	172.310577
20469.107287	-753.494833	630.269531	243.932022
20469.107287	-753.494833	629.042969	208.631851
20469.107287	-753.494833	627.817383	90.781731
20469.107287	-753.494833	626.590820	157.545364
20469.107287	-753.494833	625.365234	47.067986
20469.107287	-753.494833	624.137695	14.317319
20469.107287	-753.494833	622.911133	248.551605
20469.107287	-753.494833	621.683594	465.715912
20469.107287	-753.494833	620.456055	187.948807
20469.107287	-753.494833	619.228516	-41.174309
20469.107287	-753.494833	618.000977	86.257874
20469.107287	-753.494833	616.772461	165.170700
20469.107287	-753.494833	615.543945	185.904861
20469.107287	-753.494833	614.314453	-1.745149
20469.107287	-753.494833	613.085938	336.438812
20469.107287	-753.494833	611.856445	180.378616
20469.107287	-753.494833	610.626953	99.485184
20469.107287	-753.494833	609.397461	248.664902
20469.107287	-753.494833	608.166992	235.624512
20469.107287	-753.494833	606.936523	31.433962
20469.107287	-753.494833	605.706055	-41.978867
20469.107287	-753.494833	604.474609	145.930725
20469.107287	-753.494833	603.244141	-106.380379
20469.107287	-753.494833	602.012695	33.174187
20469.107287	-753.494833	600.780273	-30.370232
20469.107287	-753.494833	599.548828	109.185219
20469.107287	-753.494833	598.316406	43.312817
20469.107287	-753.494833	597.083984	91.061691
20469.107287	-753.494833	595.851563	240.283463
20469.107287	-753.494833	594.618164	17.573795
20469.107287	-753.494833	593.384766	65.423096
20469.107287	-753.494833	592.151367	132.608719
20469.107287	-753.494833	590.917969	-116.347862
20469.107287	-753.494833	589.683594	177.751663
20469.107287	-753.494833	588.449219	56.840855
20469.107287	-753.494833	587.214844	213.397186
20469.107287	-753.494833	585.979492	121.561417
20469.107287	-753.494833	584.745117	343.231537
20469.107287	-753.494833	583.509766	229.817047
20469.107287	-753.494833	582.273438	46.615822
20469.107287	-753.494833	581.038086	123.754997
20469.107287	-753.494833	579.801758	-42.376194
20469.107287	-753.494833	578.565430	148.045929
20469.107287	-753.494833	577.329102	121.742813
20469.107287	-753.494833	576.091797	1.621058
20469.107287	-753.494833	574.854492	314.823456
20469.107287	-753.494833	573.617188	96.171997
20469.107287	-753.494833	572.378906	195.225662
20469.107287	-753.494833	571.141602	34.536430
20469.107287	-753.494833	569.903320	-77.931702
20469.107287	-753.494833	568.664063	-34.022732
20469.107287	-753.494833	567.425781	190.207504
20469.107287	-753.494833	566.186523	111.604065
20469.107287	-753.494833	564.947266	83.551346
20469.107287	-753.494833	563.708008	-21.292992
20469.107287	-753.494833	562.467773	102.121422
20469.107287	-753.494833	561.227539	-64.986343
20469.107287	-753.494833	559.987305	209.750275
20469.107287	-753.494833	558.747070	-79.583473
20469.107287	-753.494833	557.505859	-66.385376
20469.107287	-753.494833	556.264648	21.241972
20469.107287	-753.494833	555.023438	363.143494
20469.107287	-753.494833	553.781250	-91.182083
20469.107287	-753.494833	552.539063	30.156511
20469.107287	-753.494833	551.296875	79.598793
20469.107287	-753.494833	550.054688	38.018806
20469.107287	-753.494833	548.811523	68.401634
20469.107287	-753.494833	547.569336	259.334625
20469.107287	-753.494833	546.325195	119.745857
20469.107287	-753.494833	545.082031	11.412032
20469.107287	-753.494833	543.837891	-39.356712
20469.107287	-753.494833	542.593750	-145.086899
20469.107287	-753.494833	541.349609	17.298309
20469.107287	-753.494833	540.105469	146.186218
20469.107287	-753.494833	538.860352	258.338287
20469.107287	-753.494833	537.615234	157.675858
20469.107287	-753.494833	536.369141	334.457428
20469.107287	-753.494833	535.124023	207.655518
20469.107287	-753.494833	533.877930	-71.979935
20469.107287	-753.494833	532.631836	49.970005
20469.107287	-753.494833	531.384766	54.878078
20469.107287	-753.494833	530.138672	-50.016296
20469.107287	-753.494833	528.891602	14.724511
20469.107287	-753.494833	527.643555	58.009811
20469.107287	-753.494833	526.396484	-75.283760
20469.107287	-753.494833	525.148438	87.428963
20469.107287	-753.494833	523.900391	-31.389011
20469.107287	-753.494833	522.652344	-338.532867
20469.107287	-753.494833	521.403320	-120.858566
20469.107287	-753.494833	520.154297	-113.034286
20469.107287	-753.494833	518.905273	-143.302719
20469.107287	-753.494833	517.656250	-51.968163
20469.107287	-753.494833	516.406250	-134.559555
20469.107287	-753.494833	515.156250	-329.031677
20469.107287	-753.494833	513.906250	-125.643188
20469.107287	-753.494833	512.655273	-86.598938
20469.107287	-753.494833	511.404297	-97.523026
20469.107287	-753.494833	510.153320	-41.763214
20469.107287	-753.494833	508.902344	-78.794281
20469.107287	-753.494833	507.650391	-49.163120
20469.107287	-753.494833	506.398438	99.414864
20469.107287	-753.494833	505.146484	64.848404
20469.107287	-753.494833	503.893555	82.628494
20469.107287	-753.494833	502.641602	212.145462
20469.107287	-753.494833	501.388672	61.199059
20469.107287	-753.494833	500.134766	5.375412
20469.107287	-753.494833	498.881836	286.912109
20469.107287	-753.494833	497.627930	238.217102
20469.107287	-753.494833	496.374023	372.387482
20469.107287	-753.494833	495.119141	283.353119
20469.107287	-753.494833	493.865234	365.249542
20469.107287	-753.494833	492.610352	461.347565
20469.107287	-753.494833	491.355469	308.294708
20469.107287	-753.494833	490.099609	506.344543
20469.107287	-753.494833	488.843750	275.072998
20469.107287	-753.494833	487.587891	399.520172
20469.107287	-753.494833	486.332031	301.078583
20469.107287	-753.494833	485.075195	389.876343
20469.107287	-753.494833	483.818359	644.463562
20469.107287	-753.494833	482.561523	451.196259
20469.107287	-753.494833	481.304688	392.971344
20469.107287	-753.494833	480.046875	405.765961
20469.107287	-753.494833	478.789063	541.609314
20469.107287	-753.494833	477.531250	637.108826
20469.107287	-753.494833	476.272461	704.115173
20469.107287	-753.494833	475.013672	321.532257
20469.107287	-753.494833	473.754883	201.594086
20469.107287	-753.494833	472.496094	478.918396
20469.107287	-753.494833	471.236328	462.877502
20469.107287	-753.494833	469.976563	633.497009
20469.107287	-753.494833	468.716797	652.706787
20469.107287	-753.494833	467.456055	534.775879
20469.107287	-753.494833	466.196289	664.828735
20469.107287	-753.494833	464.935547	601.057678
20469.107287	-753.494833	463.673828	641.092896
20469.107287	-753.494833	462.413086	817.913147
20469.107287	-753.494833	461.151367	817.514648
20469.107287	-753.494833	459.889648	824.062927
20469.107287	-753.494833	458.626953	795.078430
20469.107287	-753.494833	457.364258	650.384827
20469.107287	-753.494833	456.101563	606.998352
20469.107287	-753.494833	454.838867	674.277710
20469.107287	-753.494833	453.575195	670.640747
20469.107287	-753.494833	452.312500	567.852844
20469.107287	-753.494833	451.047852	594.503967
20469.107287	-753.494833	449.784180	736.374878
20469.107287	-753.494833	448.519531	795.551392
20469.107287	-753.494833	447.254883	1024.020020
20469.107287	-753.494833	445.990234	1026.179321
20469.107287	-753.494833	444.725586	717.439453
20469.107287	-753.494833	443.459961	895.671570
20469.107287	-753.494833	442.194336	847.735107
20469.107287	-753.494833	440.927734	663.141113
20469.107287	-753.494833	439.662109	981.588196
20469.107287	-753.494833	438.395508	704.811279
20469.107287	-753.494833	437.127930	921.467712
20469.107287	-753.494833	435.861328	688.888794
20469.107287	-753.494833	434.593750	648.755676
20469.107287	-753.494833	433.326172	836.173035
20469.107287	-753.494833	432.058594	774.240540
20469.107287	-753.494833	430.790039	688.509766
20469.107287	-753.494833	429.521484	719.836487
20469.107287	-753.494833	428.252930	854.051147
20469.107287	-753.494833	426.984375	945.597473
20469.107287	-753.494833	425.714844	945.218384
20469.107287	-753.494833	424.445313	963.203552
20469.107287	-753.494833	423.174805	849.447083
20469.107287	-753.494833	421.905273	1108.081787
20469.107287	-753.494833	420.634766	1117.707397
20469.107287	-753.494833	419.364258	925.346252
20469.107287	-753.494833	418.092773	1098.085571
20469.107287	-753.494833	416.822266	958.746704
20469.107287	-753.494833	415.550781	961.820984
20469.107287	-753.494833	414.278320	1060.373779
20469.107287	-753.494833	413.006836	1041.333252
20469.107287	-753.494833	411.734375	806.445862
20469.107287	-753.494833	410.461914	929.104919
20469.107287	-753.494833	409.188477	1079.207886
20469.107287	-753.494833	407.916016	891.889343
20469.107287	-753.494833	406.642578	1008.026184
20469.107287	-753.494833	405.368164	782.171204
20469.107287	-753.494833	404.094727	885.358398
20469.107287	-753.494833	402.820313	1111.695435
20469.107287	-753.494833	401.545898	708.817566
20469.107287	-753.494833	400.270508	716.520264
20469.107287	-753.494833	398.996094	858.986267
20469.107287	-753.494833	397.720703	732.169800
20469.107287	-753.494833	396.444336	852.095215
20469.107287	-753.494833	395.168945	910.562866
20469.107287	-753.494833	393.892578	1056.887207
20469.107287	-753.494833	392.616211	908.444336
20469.107287	-753.494833	391.339844	976.162781
20469.107287	-753.494833	390.062500	833.159668
20469.107287	-753.494833	388.785156	1139.303467
20469.107287	-753.494833	387.507813	982.978760
20469.107287	-753.494833	386.229492	795.531494
20469.107287	-753.494833	384.951172	900.808655
20469.107287	-753.494833	383.672852	972.514404
20469.107287	-753.494833	382.394531	898.874146
20469.107287	-753.494833	381.115234	647.343201
20469.107287	-753.494833	379.835938	716.158875
20469.107287	-753.494833	378.556641	814.197144
20469.107287	-753.494833	377.277344	818.105103
20469.107287	-753.494833	375.997070	802.330994
20469.107287	-753.494833	374.716797	615.724365
20469.107287	-753.494833	373.435547	562.939270
20469.107287	-753.494833	372.155273	550.936523
20469.107287	-753.494833	370.874023	784.131348
20469.107287	-753.494833	369.591797	546.663696
20469.107287	-753.494833	368.310547	703.076782
20469.107287	-753.494833	367.028320	551.598145
20469.107287	-753.494833	365.746094	640.453125
20469.107287	-753.494833	364.463867	656.044006
20469.107287	-753.494833	363.180664	609.964417
20469.107287	-753.494833	361.897461	430.324463
20469.107287	-753.494833	360.614258	407.196350
20469.107287	-753.494833	359.330078	401.237335
20469.107287	-753.494833	358.045898	593.335815
20469.107287	-753.494833	356.761719	498.757507
20469.107287	-753.494833	355.477539	622.998169
20469.107287	-753.494833	354.192383	551.003479
20469.107287	-753.494833	352.907227	125.356323
20469.107287	-753.494833	351.622070	377.119965
20469.107287	-753.494833	350.336914	527.637634
20469.107287	-753.494833	349.050781	688.042664
20469.107287	-753.494833	347.764648	698.610535
20469.107287	-753.494833	346.477539	57.109234
20469.107287	-753.494833	345.191406	-2.594649
20469.107287	-753.494833	343.904297	435.699280
20469.107287	-753.494833	342.616211	298.397980
20469.107287	-753.494833	341.329102	263.519287
20469.107287	-753.494833	340.041016	145.894592
20469.107287	-753.494833	338.752930	183.684860
20469.107287	-753.494833	337.463867	124.800919
20469.107287	-753.494833	336.175781	110.331657
20469.107287	-753.494833	334.886719	75.416656
20469.107287	-753.494833	333.596680	-51.562210
20469.107287	-753.494833	332.307617	50.498360
20469.107287	-753.494833	331.017578	-31.930815
20469.107287	-753.494833	329.727539	93.655693
20469.107287	-753.494833	328.436523	78.591751
20469.107287	-753.494833	327.146484	-141.518265
20469.107287	-753.494833	325.855469	224.394333
20469.107287	-753.494833	324.563477	135.925522
20469.107287	-753.494833	323.272461	17.687334
20469.107287	-753.494833	321.980469	21.640156
20469.107287	-753.494833	320.688477	-6.656923
20469.107287	-753.494833	319.395508	52.507832
20469.107287	-753.494833	318.103516	-192.379990
20469.107287	-753.494833	316.810547	73.908318
20469.107287	-753.494833	315.516602	-159.761459
20469.107287	-753.494833	314.223633	-331.263153
20469.107287	-753.494833	312.929688	-180.787994
20469.107287	-753.494833	311.635742	13.090565
20469.107287	-753.494833	310.340820	-97.149521
20469.107287	-753.494833	309.045898	-290.467316
20469.107287	-753.494833	307.750977	28.701801
20469.107287	-753.494833	306.456055	-80.269249
20469.107287	-753.494833	305.160156	125.139130
20469.107287	-753.494833	303.865234	-189.248535
20469.107287	-753.494833	302.568359	279.175140
20469.107287	-753.494833	301.272461	459.818054
20469.107287	-753.494833	299.975586	481.213959
20469.107287	-753.494833	298.678711	580.005310
