#X		#Y		#Wave		#Intensity
20395.221915	-1223.198333	1999.980469	125.423431
20395.221915	-1223.198333	1999.016602	114.955444
20395.221915	-1223.198333	1998.052734	124.519600
20395.221915	-1223.198333	1997.087891	-148.580322
20395.221915	-1223.198333	1996.123047	4.431642
20395.221915	-1223.198333	1995.158203	125.041618
20395.221915	-1223.198333	1994.193359	25.039299
20395.221915	-1223.198333	1993.228516	187.430084
20395.221915	-1223.198333	1992.262695	30.249842
20395.221915	-1223.198333	1991.297852	73.513672
20395.221915	-1223.198333	1990.332031	12.697833
20395.221915	-1223.198333	1989.366211	132.427994
20395.221915	-1223.198333	1988.399414	101.090675
20395.221915	-1223.198333	1987.433594	252.707245
20395.221915	-1223.198333	1986.466797	-142.382111
20395.221915	-1223.198333	1985.500977	60.956448
20395.221915	-1223.198333	1984.534180	-133.887711
20395.221915	-1223.198333	1983.567383	32.122158
20395.221915	-1223.198333	1982.599609	-39.250729
20395.221915	-1223.198333	1981.632813	32.632633
20395.221915	-1223.198333	1980.665039	-51.215473
20395.221915	-1223.198333	1979.697266	-152.392166
20395.221915	-1223.198333	1978.729492	-209.146713
20395.221915	-1223.198333	1977.761719	8.110417
20395.221915	-1223.198333	1976.792969	10.466622
20395.221915	-1223.198333	1975.825195	-248.841263
20395.221915	-1223.198333	1974.856445	-76.283745
20395.221915	-1223.198333	1973.887695	-61.733570
20395.221915	-1223.198333	1972.918945	105.697121
20395.221915	-1223.198333	1971.949219	218.763000
20395.221915	-1223.198333	1970.980469	72.847389
20395.221915	-1223.198333	1970.010742	37.883144
20395.221915	-1223.198333	1969.041016	-21.750725
20395.221915	-1223.198333	1968.071289	-88.787910
20395.221915	-1223.198333	1967.101563	-229.747345
20395.221915	-1223.198333	1966.130859	158.957932
20395.221915	-1223.198333	1965.161133	-53.473461
20395.221915	-1223.198333	1964.190430	-19.597815
20395.221915	-1223.198333	1963.219727	38.865898
20395.221915	-1223.198333	1962.249023	35.748917
20395.221915	-1223.198333	1961.277344	118.754890
20395.221915	-1223.198333	1960.306641	-24.665812
20395.221915	-1223.198333	1959.334961	188.686798
20395.221915	-1223.198333	1958.363281	-102.306931
20395.221915	-1223.198333	1957.391602	184.742447
20395.221915	-1223.198333	1956.419922	238.084671
20395.221915	-1223.198333	1955.447266	-92.115189
20395.221915	-1223.198333	1954.474609	-11.716291
20395.221915	-1223.198333	1953.501953	-196.760132
20395.221915	-1223.198333	1952.529297	-64.776535
20395.221915	-1223.198333	1951.556641	-131.824692
20395.221915	-1223.198333	1950.583984	36.942360
20395.221915	-1223.198333	1949.610352	-0.630981
20395.221915	-1223.198333	1948.636719	141.044937
20395.221915	-1223.198333	1947.663086	-112.543442
20395.221915	-1223.198333	1946.689453	-66.606010
20395.221915	-1223.198333	1945.715820	-106.562698
20395.221915	-1223.198333	1944.741211	57.131790
20395.221915	-1223.198333	1943.767578	41.713802
20395.221915	-1223.198333	1942.792969	-0.669478
20395.221915	-1223.198333	1941.818359	-62.641754
20395.221915	-1223.198333	1940.842773	37.219051
20395.221915	-1223.198333	1939.868164	100.292519
20395.221915	-1223.198333	1938.892578	92.282372
20395.221915	-1223.198333	1937.916992	111.241402
20395.221915	-1223.198333	1936.941406	132.656433
20395.221915	-1223.198333	1935.965820	9.568914
20395.221915	-1223.198333	1934.990234	-98.763908
20395.221915	-1223.198333	1934.013672	-140.939728
20395.221915	-1223.198333	1933.037109	59.259945
20395.221915	-1223.198333	1932.060547	-102.823807
20395.221915	-1223.198333	1931.083984	116.901031
20395.221915	-1223.198333	1930.107422	67.439507
20395.221915	-1223.198333	1929.129883	-50.480999
20395.221915	-1223.198333	1928.153320	120.247635
20395.221915	-1223.198333	1927.175781	261.582886
20395.221915	-1223.198333	1926.198242	-10.277678
20395.221915	-1223.198333	1925.219727	-52.261063
20395.221915	-1223.198333	1924.242188	279.692719
20395.221915	-1223.198333	1923.263672	110.648514
20395.221915	-1223.198333	1922.285156	127.342789
20395.221915	-1223.198333	1921.306641	170.914017
20395.221915	-1223.198333	1920.328125	180.297531
20395.221915	-1223.198333	1919.349609	99.355423
20395.221915	-1223.198333	1918.370117	-110.922478
20395.221915	-1223.198333	1917.391602	198.749893
20395.221915	-1223.198333	1916.412109	-67.561592
20395.221915	-1223.198333	1915.431641	-99.550613
20395.221915	-1223.198333	1914.452148	-29.061171
20395.221915	-1223.198333	1913.472656	-61.014671
20395.221915	-1223.198333	1912.492188	97.243690
20395.221915	-1223.198333	1911.511719	-46.842171
20395.221915	-1223.198333	1910.531250	201.565125
20395.221915	-1223.198333	1909.550781	20.981634
20395.221915	-1223.198333	1908.569336	115.801392
20395.221915	-1223.198333	1907.588867	13.277654
20395.221915	-1223.198333	1906.607422	103.211662
20395.221915	-1223.198333	1905.625977	-47.958759
20395.221915	-1223.198333	1904.644531	149.097763
20395.221915	-1223.198333	1903.662109	-14.182818
20395.221915	-1223.198333	1902.680664	170.640045
20395.221915	-1223.198333	1901.698242	75.563873
20395.221915	-1223.198333	1900.715820	-41.368198
20395.221915	-1223.198333	1899.733398	7.154610
20395.221915	-1223.198333	1898.750000	-82.962097
20395.221915	-1223.198333	1897.767578	-53.894138
20395.221915	-1223.198333	1896.784180	-73.459442
20395.221915	-1223.198333	1895.800781	133.032455
20395.221915	-1223.198333	1894.817383	35.677402
20395.221915	-1223.198333	1893.833984	103.579056
20395.221915	-1223.198333	1892.850586	-144.347412
20395.221915	-1223.198333	1891.866211	-103.159401
20395.221915	-1223.198333	1890.881836	25.431158
20395.221915	-1223.198333	1889.897461	71.421402
20395.221915	-1223.198333	1888.913086	37.286015
20395.221915	-1223.198333	1887.927734	-62.373257
20395.221915	-1223.198333	1886.943359	-183.837875
20395.221915	-1223.198333	1885.958008	-45.676876
20395.221915	-1223.198333	1884.972656	148.213150
20395.221915	-1223.198333	1883.987305	46.152519
20395.221915	-1223.198333	1883.001953	-4.961273
20395.221915	-1223.198333	1882.015625	-53.645721
20395.221915	-1223.198333	1881.029297	-34.457581
20395.221915	-1223.198333	1880.042969	16.214470
20395.221915	-1223.198333	1879.056641	-32.485058
20395.221915	-1223.198333	1878.070313	-204.726105
20395.221915	-1223.198333	1877.083984	-105.656166
20395.221915	-1223.198333	1876.096680	61.160286
20395.221915	-1223.198333	1875.109375	-52.948700
20395.221915	-1223.198333	1874.122070	19.352770
20395.221915	-1223.198333	1873.134766	86.767776
20395.221915	-1223.198333	1872.146484	115.417297
20395.221915	-1223.198333	1871.159180	-160.789429
20395.221915	-1223.198333	1870.170898	-231.320374
20395.221915	-1223.198333	1869.182617	-142.238037
20395.221915	-1223.198333	1868.194336	120.875511
20395.221915	-1223.198333	1867.205078	45.417477
20395.221915	-1223.198333	1866.216797	20.720173
20395.221915	-1223.198333	1865.227539	235.238235
20395.221915	-1223.198333	1864.238281	63.072376
20395.221915	-1223.198333	1863.249023	-19.680788
20395.221915	-1223.198333	1862.259766	40.060719
20395.221915	-1223.198333	1861.269531	-66.872452
20395.221915	-1223.198333	1860.279297	-82.056236
20395.221915	-1223.198333	1859.290039	66.873009
20395.221915	-1223.198333	1858.298828	63.663017
20395.221915	-1223.198333	1857.308594	171.413620
20395.221915	-1223.198333	1856.318359	153.638016
20395.221915	-1223.198333	1855.327148	345.671570
20395.221915	-1223.198333	1854.335938	108.336029
20395.221915	-1223.198333	1853.344727	-114.483894
20395.221915	-1223.198333	1852.353516	-45.574356
20395.221915	-1223.198333	1851.362305	78.700371
20395.221915	-1223.198333	1850.370117	46.246738
20395.221915	-1223.198333	1849.377930	37.854477
20395.221915	-1223.198333	1848.385742	77.594864
20395.221915	-1223.198333	1847.393555	-85.031120
20395.221915	-1223.198333	1846.401367	214.679657
20395.221915	-1223.198333	1845.408203	56.802410
20395.221915	-1223.198333	1844.415039	279.245270
20395.221915	-1223.198333	1843.421875	75.589302
20395.221915	-1223.198333	1842.428711	-82.325592
20395.221915	-1223.198333	1841.435547	82.125626
20395.221915	-1223.198333	1840.441406	133.410538
20395.221915	-1223.198333	1839.448242	11.483733
20395.221915	-1223.198333	1838.454102	139.589859
20395.221915	-1223.198333	1837.459961	99.321053
20395.221915	-1223.198333	1836.464844	-46.744957
20395.221915	-1223.198333	1835.470703	9.038312
20395.221915	-1223.198333	1834.475586	-153.891541
20395.221915	-1223.198333	1833.480469	-54.996838
20395.221915	-1223.198333	1832.485352	-47.462990
20395.221915	-1223.198333	1831.490234	-47.196121
20395.221915	-1223.198333	1830.495117	58.636929
20395.221915	-1223.198333	1829.499023	73.151649
20395.221915	-1223.198333	1828.502930	-123.584633
20395.221915	-1223.198333	1827.506836	27.590359
20395.221915	-1223.198333	1826.510742	94.681702
20395.221915	-1223.198333	1825.513672	202.447266
20395.221915	-1223.198333	1824.517578	151.843536
20395.221915	-1223.198333	1823.520508	-229.674530
20395.221915	-1223.198333	1822.523438	-33.423965
20395.221915	-1223.198333	1821.526367	160.284958
20395.221915	-1223.198333	1820.529297	-41.517242
20395.221915	-1223.198333	1819.531250	82.495331
20395.221915	-1223.198333	1818.533203	-76.252800
20395.221915	-1223.198333	1817.535156	205.630264
20395.221915	-1223.198333	1816.537109	37.192673
20395.221915	-1223.198333	1815.539063	122.498230
20395.221915	-1223.198333	1814.540039	104.770981
20395.221915	-1223.198333	1813.541992	197.057907
20395.221915	-1223.198333	1812.542969	124.140717
20395.221915	-1223.198333	1811.543945	101.408371
20395.221915	-1223.198333	1810.543945	202.964554
20395.221915	-1223.198333	1809.544922	24.639122
20395.221915	-1223.198333	1808.544922	126.013039
20395.221915	-1223.198333	1807.544922	74.288124
20395.221915	-1223.198333	1806.544922	10.553673
20395.221915	-1223.198333	1805.544922	345.789642
20395.221915	-1223.198333	1804.544922	69.248451
20395.221915	-1223.198333	1803.543945	-6.645364
20395.221915	-1223.198333	1802.542969	120.390541
20395.221915	-1223.198333	1801.541992	-72.642349
20395.221915	-1223.198333	1800.541016	137.738907
20395.221915	-1223.198333	1799.539063	-95.974014
20395.221915	-1223.198333	1798.538086	75.982231
20395.221915	-1223.198333	1797.536133	71.232941
20395.221915	-1223.198333	1796.534180	-241.307129
20395.221915	-1223.198333	1795.532227	228.422165
20395.221915	-1223.198333	1794.529297	-117.592712
20395.221915	-1223.198333	1793.527344	-101.193008
20395.221915	-1223.198333	1792.524414	-268.426025
20395.221915	-1223.198333	1791.521484	-40.095284
20395.221915	-1223.198333	1790.518555	-112.149353
20395.221915	-1223.198333	1789.514648	113.498474
20395.221915	-1223.198333	1788.511719	-32.568317
20395.221915	-1223.198333	1787.507813	-159.627274
20395.221915	-1223.198333	1786.503906	-43.885750
20395.221915	-1223.198333	1785.500000	-47.296112
20395.221915	-1223.198333	1784.496094	-160.271667
20395.221915	-1223.198333	1783.491211	-23.459528
20395.221915	-1223.198333	1782.486328	-108.039299
20395.221915	-1223.198333	1781.481445	-28.557060
20395.221915	-1223.198333	1780.476563	-87.127213
20395.221915	-1223.198333	1779.471680	11.158306
20395.221915	-1223.198333	1778.465820	-173.581375
20395.221915	-1223.198333	1777.460938	-113.528313
20395.221915	-1223.198333	1776.455078	-34.589684
20395.221915	-1223.198333	1775.449219	139.261658
20395.221915	-1223.198333	1774.442383	6.518588
20395.221915	-1223.198333	1773.436523	-95.384003
20395.221915	-1223.198333	1772.429688	-92.871490
20395.221915	-1223.198333	1771.422852	-69.086250
20395.221915	-1223.198333	1770.416016	-147.468704
20395.221915	-1223.198333	1769.409180	89.714554
20395.221915	-1223.198333	1768.402344	189.098312
20395.221915	-1223.198333	1767.394531	169.729660
20395.221915	-1223.198333	1766.386719	-233.954208
20395.221915	-1223.198333	1765.378906	-94.542046
20395.221915	-1223.198333	1764.371094	75.546295
20395.221915	-1223.198333	1763.362305	-254.695129
20395.221915	-1223.198333	1762.354492	33.671585
20395.221915	-1223.198333	1761.345703	291.022095
20395.221915	-1223.198333	1760.336914	38.828396
20395.221915	-1223.198333	1759.328125	32.976414
20395.221915	-1223.198333	1758.318359	256.737183
20395.221915	-1223.198333	1757.308594	177.250000
20395.221915	-1223.198333	1756.299805	211.341080
20395.221915	-1223.198333	1755.290039	10.999375
20395.221915	-1223.198333	1754.279297	-30.820061
20395.221915	-1223.198333	1753.269531	-23.021397
20395.221915	-1223.198333	1752.258789	-169.083908
20395.221915	-1223.198333	1751.249023	188.579819
20395.221915	-1223.198333	1750.238281	89.640587
20395.221915	-1223.198333	1749.226563	-87.378113
20395.221915	-1223.198333	1748.215820	132.687836
20395.221915	-1223.198333	1747.204102	21.716812
20395.221915	-1223.198333	1746.193359	2.856673
20395.221915	-1223.198333	1745.181641	40.598766
20395.221915	-1223.198333	1744.168945	-51.677868
20395.221915	-1223.198333	1743.157227	290.505249
20395.221915	-1223.198333	1742.144531	108.320656
20395.221915	-1223.198333	1741.132813	84.284302
20395.221915	-1223.198333	1740.120117	86.117249
20395.221915	-1223.198333	1739.106445	71.332405
20395.221915	-1223.198333	1738.093750	-49.685616
20395.221915	-1223.198333	1737.080078	50.963520
20395.221915	-1223.198333	1736.067383	-60.744404
20395.221915	-1223.198333	1735.053711	93.925606
20395.221915	-1223.198333	1734.040039	-46.220867
20395.221915	-1223.198333	1733.025391	72.850182
20395.221915	-1223.198333	1732.011719	45.701157
20395.221915	-1223.198333	1730.997070	-125.250908
20395.221915	-1223.198333	1729.982422	-22.975447
20395.221915	-1223.198333	1728.967773	135.699982
20395.221915	-1223.198333	1727.952148	112.909653
20395.221915	-1223.198333	1726.937500	47.682602
20395.221915	-1223.198333	1725.921875	-41.151726
20395.221915	-1223.198333	1724.906250	-108.854324
20395.221915	-1223.198333	1723.890625	-106.024185
20395.221915	-1223.198333	1722.875000	202.538559
20395.221915	-1223.198333	1721.858398	64.015694
20395.221915	-1223.198333	1720.841797	40.692436
20395.221915	-1223.198333	1719.825195	-184.892441
20395.221915	-1223.198333	1718.808594	66.707047
20395.221915	-1223.198333	1717.791992	-60.244701
20395.221915	-1223.198333	1716.774414	-29.805473
20395.221915	-1223.198333	1715.756836	118.009590
20395.221915	-1223.198333	1714.739258	150.600647
20395.221915	-1223.198333	1713.721680	-112.790367
20395.221915	-1223.198333	1712.704102	81.690842
20395.221915	-1223.198333	1711.685547	78.824112
20395.221915	-1223.198333	1710.667969	296.519745
20395.221915	-1223.198333	1709.649414	0.147229
20395.221915	-1223.198333	1708.630859	-7.609853
20395.221915	-1223.198333	1707.611328	64.305496
20395.221915	-1223.198333	1706.592773	23.566843
20395.221915	-1223.198333	1705.573242	-17.238089
20395.221915	-1223.198333	1704.553711	-262.051361
20395.221915	-1223.198333	1703.534180	-185.726593
20395.221915	-1223.198333	1702.513672	59.214790
20395.221915	-1223.198333	1701.494141	137.659897
20395.221915	-1223.198333	1700.473633	2.826793
20395.221915	-1223.198333	1699.453125	-148.412781
20395.221915	-1223.198333	1698.432617	98.418640
20395.221915	-1223.198333	1697.412109	118.000656
20395.221915	-1223.198333	1696.390625	67.276466
20395.221915	-1223.198333	1695.369141	2.470626
20395.221915	-1223.198333	1694.347656	-130.224548
20395.221915	-1223.198333	1693.326172	155.821777
20395.221915	-1223.198333	1692.304688	296.686707
20395.221915	-1223.198333	1691.282227	215.270264
20395.221915	-1223.198333	1690.260742	56.690262
20395.221915	-1223.198333	1689.238281	199.649078
20395.221915	-1223.198333	1688.214844	309.763763
20395.221915	-1223.198333	1687.192383	125.377014
20395.221915	-1223.198333	1686.168945	6.408773
20395.221915	-1223.198333	1685.146484	223.803482
20395.221915	-1223.198333	1684.123047	361.646912
20395.221915	-1223.198333	1683.099609	616.133057
20395.221915	-1223.198333	1682.075195	284.515076
20395.221915	-1223.198333	1681.051758	375.444855
20395.221915	-1223.198333	1680.027344	417.273468
20395.221915	-1223.198333	1679.002930	351.718536
20395.221915	-1223.198333	1677.978516	346.793793
20395.221915	-1223.198333	1676.953125	451.425140
20395.221915	-1223.198333	1675.928711	604.956238
20395.221915	-1223.198333	1674.903320	555.549377
20395.221915	-1223.198333	1673.877930	645.972107
20395.221915	-1223.198333	1672.852539	582.515686
20395.221915	-1223.198333	1671.826172	553.978821
20395.221915	-1223.198333	1670.800781	544.067810
20395.221915	-1223.198333	1669.774414	569.045349
20395.221915	-1223.198333	1668.748047	661.507324
20395.221915	-1223.198333	1667.721680	698.024109
20395.221915	-1223.198333	1666.694336	750.772400
20395.221915	-1223.198333	1665.667969	461.380615
20395.221915	-1223.198333	1664.640625	565.283081
20395.221915	-1223.198333	1663.613281	717.968445
20395.221915	-1223.198333	1662.585938	840.329285
20395.221915	-1223.198333	1661.557617	662.618530
20395.221915	-1223.198333	1660.530273	898.815308
20395.221915	-1223.198333	1659.501953	551.419250
20395.221915	-1223.198333	1658.473633	966.436584
20395.221915	-1223.198333	1657.444336	914.203125
20395.221915	-1223.198333	1656.416016	1036.222656
20395.221915	-1223.198333	1655.386719	1072.218140
20395.221915	-1223.198333	1654.358398	1050.137817
20395.221915	-1223.198333	1653.328125	1002.475891
20395.221915	-1223.198333	1652.298828	1126.615479
20395.221915	-1223.198333	1651.269531	1044.126587
20395.221915	-1223.198333	1650.239258	1110.150757
20395.221915	-1223.198333	1649.208984	995.171875
20395.221915	-1223.198333	1648.178711	1184.092407
20395.221915	-1223.198333	1647.148438	1377.566895
20395.221915	-1223.198333	1646.117188	1366.894897
20395.221915	-1223.198333	1645.086914	1233.366577
20395.221915	-1223.198333	1644.055664	1398.863037
20395.221915	-1223.198333	1643.024414	1677.838867
20395.221915	-1223.198333	1641.992188	1328.802856
20395.221915	-1223.198333	1640.960938	1681.800903
20395.221915	-1223.198333	1639.928711	1464.904541
20395.221915	-1223.198333	1638.896484	1637.104614
20395.221915	-1223.198333	1637.864258	1837.018677
20395.221915	-1223.198333	1636.832031	1805.388916
20395.221915	-1223.198333	1635.798828	1662.674194
20395.221915	-1223.198333	1634.766602	1786.116699
20395.221915	-1223.198333	1633.733398	1877.113403
20395.221915	-1223.198333	1632.699219	1852.419189
20395.221915	-1223.198333	1631.666016	1980.378052
20395.221915	-1223.198333	1630.632813	1884.032593
20395.221915	-1223.198333	1629.598633	2134.445313
20395.221915	-1223.198333	1628.564453	2093.574463
20395.221915	-1223.198333	1627.530273	2276.863037
20395.221915	-1223.198333	1626.495117	2716.505127
20395.221915	-1223.198333	1625.460938	2456.156494
20395.221915	-1223.198333	1624.425781	2729.353271
20395.221915	-1223.198333	1623.390625	3067.104736
20395.221915	-1223.198333	1622.355469	2954.609131
20395.221915	-1223.198333	1621.319336	3486.070557
20395.221915	-1223.198333	1620.284180	3735.848145
20395.221915	-1223.198333	1619.248047	3987.841064
20395.221915	-1223.198333	1618.211914	4133.654297
20395.221915	-1223.198333	1617.174805	4219.456543
20395.221915	-1223.198333	1616.138672	4106.975586
20395.221915	-1223.198333	1615.101563	4006.074707
20395.221915	-1223.198333	1614.065430	4119.600098
20395.221915	-1223.198333	1613.027344	4518.814453
20395.221915	-1223.198333	1611.990234	4588.461914
20395.221915	-1223.198333	1610.953125	4840.083984
20395.221915	-1223.198333	1609.915039	5439.375488
20395.221915	-1223.198333	1608.876953	5778.276855
20395.221915	-1223.198333	1607.838867	5921.402344
20395.221915	-1223.198333	1606.800781	6011.565918
20395.221915	-1223.198333	1605.761719	6092.511230
20395.221915	-1223.198333	1604.723633	6000.918457
20395.221915	-1223.198333	1603.684570	5819.671875
20395.221915	-1223.198333	1602.644531	5882.306152
20395.221915	-1223.198333	1601.605469	5565.565430
20395.221915	-1223.198333	1600.566406	4784.602539
20395.221915	-1223.198333	1599.526367	4617.671875
20395.221915	-1223.198333	1598.486328	4271.603027
20395.221915	-1223.198333	1597.446289	3934.902344
20395.221915	-1223.198333	1596.405273	4066.986084
20395.221915	-1223.198333	1595.365234	3489.393066
20395.221915	-1223.198333	1594.324219	3555.014160
20395.221915	-1223.198333	1593.283203	3179.861816
20395.221915	-1223.198333	1592.242188	3061.987549
20395.221915	-1223.198333	1591.200195	2893.708008
20395.221915	-1223.198333	1590.159180	2904.530273
20395.221915	-1223.198333	1589.117188	2773.156494
20395.221915	-1223.198333	1588.075195	2692.348633
20395.221915	-1223.198333	1587.032227	2515.302002
20395.221915	-1223.198333	1585.990234	2436.980469
20395.221915	-1223.198333	1584.947266	2516.896973
20395.221915	-1223.198333	1583.904297	2484.543945
20395.221915	-1223.198333	1582.861328	2456.845703
20395.221915	-1223.198333	1581.818359	2392.565430
20395.221915	-1223.198333	1580.775391	2578.030029
20395.221915	-1223.198333	1579.731445	2440.582031
20395.221915	-1223.198333	1578.687500	2614.629395
20395.221915	-1223.198333	1577.643555	2344.590820
20395.221915	-1223.198333	1576.598633	2546.172363
20395.221915	-1223.198333	1575.554688	2461.730713
20395.221915	-1223.198333	1574.509766	2400.252930
20395.221915	-1223.198333	1573.464844	2503.554688
20395.221915	-1223.198333	1572.419922	2492.545166
20395.221915	-1223.198333	1571.374023	2497.600586
20395.221915	-1223.198333	1570.329102	2612.467285
20395.221915	-1223.198333	1569.283203	2119.404785
20395.221915	-1223.198333	1568.237305	2392.101318
20395.221915	-1223.198333	1567.191406	2495.708252
20395.221915	-1223.198333	1566.144531	2126.516113
20395.221915	-1223.198333	1565.098633	2070.426758
20395.221915	-1223.198333	1564.051758	1911.678955
20395.221915	-1223.198333	1563.004883	2022.442993
20395.221915	-1223.198333	1561.957031	2217.679443
20395.221915	-1223.198333	1560.910156	2180.178711
20395.221915	-1223.198333	1559.862305	1967.087891
20395.221915	-1223.198333	1558.814453	2009.639404
20395.221915	-1223.198333	1557.766602	1842.443481
20395.221915	-1223.198333	1556.718750	1914.811523
20395.221915	-1223.198333	1555.669922	1715.945068
20395.221915	-1223.198333	1554.621094	1779.353394
20395.221915	-1223.198333	1553.573242	1699.273926
20395.221915	-1223.198333	1552.523438	1762.823853
20395.221915	-1223.198333	1551.474609	1637.385742
20395.221915	-1223.198333	1550.424805	1327.604492
20395.221915	-1223.198333	1549.375000	1311.768311
20395.221915	-1223.198333	1548.325195	1498.639526
20395.221915	-1223.198333	1547.275391	1171.135132
20395.221915	-1223.198333	1546.225586	925.777222
20395.221915	-1223.198333	1545.174805	835.311218
20395.221915	-1223.198333	1544.124023	1036.143921
20395.221915	-1223.198333	1543.073242	1134.648926
20395.221915	-1223.198333	1542.022461	958.077087
20395.221915	-1223.198333	1540.970703	974.902649
20395.221915	-1223.198333	1539.919922	678.160767
20395.221915	-1223.198333	1538.868164	706.594238
20395.221915	-1223.198333	1537.815430	703.295837
20395.221915	-1223.198333	1536.763672	693.296204
20395.221915	-1223.198333	1535.710938	731.085815
20395.221915	-1223.198333	1534.659180	759.890198
20395.221915	-1223.198333	1533.606445	675.263672
20395.221915	-1223.198333	1532.552734	726.952209
20395.221915	-1223.198333	1531.500000	862.701294
20395.221915	-1223.198333	1530.446289	689.920349
20395.221915	-1223.198333	1529.393555	669.310364
20395.221915	-1223.198333	1528.338867	551.270386
20395.221915	-1223.198333	1527.285156	734.980774
20395.221915	-1223.198333	1526.231445	789.502625
20395.221915	-1223.198333	1525.176758	671.832092
20395.221915	-1223.198333	1524.122070	715.221375
20395.221915	-1223.198333	1523.067383	618.223877
20395.221915	-1223.198333	1522.012695	861.176086
20395.221915	-1223.198333	1520.957031	723.633972
20395.221915	-1223.198333	1519.901367	552.289917
20395.221915	-1223.198333	1518.845703	718.461731
20395.221915	-1223.198333	1517.790039	549.676392
20395.221915	-1223.198333	1516.734375	559.856140
20395.221915	-1223.198333	1515.677734	375.548920
20395.221915	-1223.198333	1514.621094	460.632813
20395.221915	-1223.198333	1513.564453	299.266510
20395.221915	-1223.198333	1512.507813	303.154633
20395.221915	-1223.198333	1511.450195	406.628510
20395.221915	-1223.198333	1510.393555	666.153748
20395.221915	-1223.198333	1509.335938	480.473877
20395.221915	-1223.198333	1508.278320	615.836487
20395.221915	-1223.198333	1507.219727	688.002991
20395.221915	-1223.198333	1506.162109	636.042664
20395.221915	-1223.198333	1505.103516	810.030823
20395.221915	-1223.198333	1504.044922	920.856201
20395.221915	-1223.198333	1502.986328	957.267212
20395.221915	-1223.198333	1501.926758	1178.835449
20395.221915	-1223.198333	1500.868164	1050.707886
20395.221915	-1223.198333	1499.808594	1105.474854
20395.221915	-1223.198333	1498.749023	835.551697
20395.221915	-1223.198333	1497.688477	926.658813
20395.221915	-1223.198333	1496.628906	722.508728
20395.221915	-1223.198333	1495.568359	766.510864
20395.221915	-1223.198333	1494.507813	434.253998
20395.221915	-1223.198333	1493.447266	284.764740
20395.221915	-1223.198333	1492.386719	281.890991
20395.221915	-1223.198333	1491.325195	306.166351
20395.221915	-1223.198333	1490.263672	87.351891
20395.221915	-1223.198333	1489.202148	-165.022858
20395.221915	-1223.198333	1488.140625	-90.775047
20395.221915	-1223.198333	1487.079102	51.086712
20395.221915	-1223.198333	1486.016602	-56.750111
20395.221915	-1223.198333	1484.954102	-78.929382
20395.221915	-1223.198333	1483.891602	49.724846
20395.221915	-1223.198333	1482.829102	-35.177887
20395.221915	-1223.198333	1481.765625	-88.443825
20395.221915	-1223.198333	1480.702148	155.149826
20395.221915	-1223.198333	1479.638672	140.322937
20395.221915	-1223.198333	1478.575195	11.041427
20395.221915	-1223.198333	1477.511719	131.294678
20395.221915	-1223.198333	1476.447266	4.591448
20395.221915	-1223.198333	1475.382813	275.424377
20395.221915	-1223.198333	1474.318359	229.820908
20395.221915	-1223.198333	1473.253906	269.609222
20395.221915	-1223.198333	1472.189453	287.179962
20395.221915	-1223.198333	1471.124023	271.034698
20395.221915	-1223.198333	1470.058594	452.605804
20395.221915	-1223.198333	1468.993164	396.177521
20395.221915	-1223.198333	1467.927734	620.469543
20395.221915	-1223.198333	1466.861328	578.187988
20395.221915	-1223.198333	1465.794922	630.007813
20395.221915	-1223.198333	1464.728516	444.563812
20395.221915	-1223.198333	1463.662109	753.973206
20395.221915	-1223.198333	1462.594727	425.821320
20395.221915	-1223.198333	1461.528320	769.035034
20395.221915	-1223.198333	1460.460938	809.972778
20395.221915	-1223.198333	1459.393555	784.402588
20395.221915	-1223.198333	1458.326172	501.927887
20395.221915	-1223.198333	1457.257813	588.027222
20395.221915	-1223.198333	1456.189453	654.141968
20395.221915	-1223.198333	1455.121094	546.113892
20395.221915	-1223.198333	1454.052734	745.966309
20395.221915	-1223.198333	1452.984375	641.242065
20395.221915	-1223.198333	1451.915039	462.611603
20395.221915	-1223.198333	1450.845703	776.283325
20395.221915	-1223.198333	1449.776367	869.805847
20395.221915	-1223.198333	1448.707031	977.598999
20395.221915	-1223.198333	1447.636719	1209.626709
20395.221915	-1223.198333	1446.567383	1210.107056
20395.221915	-1223.198333	1445.497070	1439.507446
20395.221915	-1223.198333	1444.425781	1762.692993
20395.221915	-1223.198333	1443.355469	2018.027832
20395.221915	-1223.198333	1442.285156	1736.235840
20395.221915	-1223.198333	1441.213867	1400.883057
20395.221915	-1223.198333	1440.142578	1321.077026
20395.221915	-1223.198333	1439.070313	1332.091064
20395.221915	-1223.198333	1437.999023	1224.498901
20395.221915	-1223.198333	1436.926758	1339.117188
20395.221915	-1223.198333	1435.854492	1444.945313
20395.221915	-1223.198333	1434.782227	1407.781982
20395.221915	-1223.198333	1433.709961	1320.796631
20395.221915	-1223.198333	1432.636719	1428.767334
20395.221915	-1223.198333	1431.563477	1792.159912
20395.221915	-1223.198333	1430.490234	1948.546143
20395.221915	-1223.198333	1429.416992	1923.097656
20395.221915	-1223.198333	1428.343750	2087.105225
20395.221915	-1223.198333	1427.269531	2412.907471
20395.221915	-1223.198333	1426.195313	2269.218262
20395.221915	-1223.198333	1425.121094	2356.145996
20395.221915	-1223.198333	1424.046875	2246.932617
20395.221915	-1223.198333	1422.971680	1879.324097
20395.221915	-1223.198333	1421.896484	1628.521240
20395.221915	-1223.198333	1420.821289	1680.261841
20395.221915	-1223.198333	1419.746094	1442.940063
20395.221915	-1223.198333	1418.669922	1223.264893
20395.221915	-1223.198333	1417.594727	1177.108276
20395.221915	-1223.198333	1416.518555	1451.533203
20395.221915	-1223.198333	1415.442383	1294.042603
20395.221915	-1223.198333	1414.365234	1089.580322
20395.221915	-1223.198333	1413.289063	1025.548462
20395.221915	-1223.198333	1412.211914	869.739563
20395.221915	-1223.198333	1411.134766	1002.984131
20395.221915	-1223.198333	1410.057617	1110.660645
20395.221915	-1223.198333	1408.979492	731.086487
20395.221915	-1223.198333	1407.902344	811.873535
20395.221915	-1223.198333	1406.824219	1090.864136
20395.221915	-1223.198333	1405.746094	548.429260
20395.221915	-1223.198333	1404.666992	574.802856
20395.221915	-1223.198333	1403.588867	699.291138
20395.221915	-1223.198333	1402.509766	375.081024
20395.221915	-1223.198333	1401.430664	574.261902
20395.221915	-1223.198333	1400.351563	448.083160
20395.221915	-1223.198333	1399.271484	477.415833
20395.221915	-1223.198333	1398.192383	551.682312
20395.221915	-1223.198333	1397.112305	666.886902
20395.221915	-1223.198333	1396.031250	739.062561
20395.221915	-1223.198333	1394.951172	419.179901
20395.221915	-1223.198333	1393.871094	406.924530
20395.221915	-1223.198333	1392.790039	546.810547
20395.221915	-1223.198333	1391.708984	530.506348
20395.221915	-1223.198333	1390.626953	473.885651
20395.221915	-1223.198333	1389.545898	756.121155
20395.221915	-1223.198333	1388.463867	634.933594
20395.221915	-1223.198333	1387.381836	848.041748
20395.221915	-1223.198333	1386.299805	698.265259
20395.221915	-1223.198333	1385.217773	719.720642
20395.221915	-1223.198333	1384.134766	1022.504822
20395.221915	-1223.198333	1383.051758	972.839966
20395.221915	-1223.198333	1381.968750	1155.119995
20395.221915	-1223.198333	1380.885742	1507.812988
20395.221915	-1223.198333	1379.802734	1544.531372
20395.221915	-1223.198333	1378.718750	1836.507446
20395.221915	-1223.198333	1377.634766	1755.857422
20395.221915	-1223.198333	1376.550781	2042.338257
20395.221915	-1223.198333	1375.465820	2274.850342
20395.221915	-1223.198333	1374.381836	2530.036377
20395.221915	-1223.198333	1373.296875	2424.932129
20395.221915	-1223.198333	1372.211914	2637.647461
20395.221915	-1223.198333	1371.126953	2663.990479
20395.221915	-1223.198333	1370.041016	2718.175781
20395.221915	-1223.198333	1368.955078	2990.282471
20395.221915	-1223.198333	1367.869141	2662.992676
20395.221915	-1223.198333	1366.783203	2816.114746
20395.221915	-1223.198333	1365.697266	2235.887939
20395.221915	-1223.198333	1364.610352	2353.768311
20395.221915	-1223.198333	1363.523438	1951.141968
20395.221915	-1223.198333	1362.436523	2055.731201
20395.221915	-1223.198333	1361.349609	2195.640381
20395.221915	-1223.198333	1360.261719	2002.558105
20395.221915	-1223.198333	1359.174805	1504.476074
20395.221915	-1223.198333	1358.086914	1696.073120
20395.221915	-1223.198333	1356.998047	1452.723755
20395.221915	-1223.198333	1355.910156	1496.418945
20395.221915	-1223.198333	1354.821289	1500.804688
20395.221915	-1223.198333	1353.732422	1447.905640
20395.221915	-1223.198333	1352.643555	1545.607422
20395.221915	-1223.198333	1351.554688	1107.634033
20395.221915	-1223.198333	1350.464844	1231.199951
20395.221915	-1223.198333	1349.375000	1108.169189
20395.221915	-1223.198333	1348.285156	1066.495850
20395.221915	-1223.198333	1347.195313	1109.460449
20395.221915	-1223.198333	1346.105469	1210.058228
20395.221915	-1223.198333	1345.014648	1014.427979
20395.221915	-1223.198333	1343.923828	745.923401
20395.221915	-1223.198333	1342.833008	847.037842
20395.221915	-1223.198333	1341.741211	706.647583
20395.221915	-1223.198333	1340.650391	665.296265
20395.221915	-1223.198333	1339.558594	928.549988
20395.221915	-1223.198333	1338.466797	919.123474
20395.221915	-1223.198333	1337.374023	577.918701
20395.221915	-1223.198333	1336.282227	750.739441
20395.221915	-1223.198333	1335.189453	702.256836
20395.221915	-1223.198333	1334.096680	668.987976
20395.221915	-1223.198333	1333.003906	727.092224
20395.221915	-1223.198333	1331.910156	658.541199
20395.221915	-1223.198333	1330.817383	499.167236
20395.221915	-1223.198333	1329.723633	430.816986
20395.221915	-1223.198333	1328.629883	519.345154
20395.221915	-1223.198333	1327.535156	552.872009
20395.221915	-1223.198333	1326.441406	329.704102
20395.221915	-1223.198333	1325.346680	444.612305
20395.221915	-1223.198333	1324.251953	536.991089
20395.221915	-1223.198333	1323.156250	753.414185
20395.221915	-1223.198333	1322.061523	838.277344
20395.221915	-1223.198333	1320.965820	821.065918
20395.221915	-1223.198333	1319.870117	928.486633
20395.221915	-1223.198333	1318.774414	1118.607788
20395.221915	-1223.198333	1317.678711	897.994995
20395.221915	-1223.198333	1316.582031	987.528809
20395.221915	-1223.198333	1315.485352	946.045654
20395.221915	-1223.198333	1314.388672	890.897156
20395.221915	-1223.198333	1313.291016	1147.244385
20395.221915	-1223.198333	1312.194336	1088.012451
20395.221915	-1223.198333	1311.096680	969.924866
20395.221915	-1223.198333	1309.999023	794.663452
20395.221915	-1223.198333	1308.901367	682.094482
20395.221915	-1223.198333	1307.802734	898.985657
20395.221915	-1223.198333	1306.705078	820.317383
20395.221915	-1223.198333	1305.606445	569.657349
20395.221915	-1223.198333	1304.506836	628.244019
20395.221915	-1223.198333	1303.408203	650.122864
20395.221915	-1223.198333	1302.308594	637.660645
20395.221915	-1223.198333	1301.208984	615.151245
20395.221915	-1223.198333	1300.109375	763.453979
20395.221915	-1223.198333	1299.009766	514.588501
20395.221915	-1223.198333	1297.909180	757.425354
20395.221915	-1223.198333	1296.808594	402.047363
20395.221915	-1223.198333	1295.708008	392.751312
20395.221915	-1223.198333	1294.607422	469.745331
20395.221915	-1223.198333	1293.506836	365.817535
20395.221915	-1223.198333	1292.405273	447.093658
20395.221915	-1223.198333	1291.303711	437.785065
20395.221915	-1223.198333	1290.202148	188.210175
20395.221915	-1223.198333	1289.099609	364.533875
20395.221915	-1223.198333	1287.998047	198.469604
20395.221915	-1223.198333	1286.895508	91.176178
20395.221915	-1223.198333	1285.792969	243.571838
20395.221915	-1223.198333	1284.689453	64.941711
20395.221915	-1223.198333	1283.586914	35.995079
20395.221915	-1223.198333	1282.483398	-67.304298
20395.221915	-1223.198333	1281.379883	-53.710155
20395.221915	-1223.198333	1280.276367	85.626205
20395.221915	-1223.198333	1279.171875	131.238098
20395.221915	-1223.198333	1278.067383	218.840454
20395.221915	-1223.198333	1276.962891	164.686279
20395.221915	-1223.198333	1275.858398	22.881121
20395.221915	-1223.198333	1274.753906	59.632092
20395.221915	-1223.198333	1273.648438	70.550743
20395.221915	-1223.198333	1272.542969	182.009140
20395.221915	-1223.198333	1271.437500	-39.312962
20395.221915	-1223.198333	1270.331055	144.419708
20395.221915	-1223.198333	1269.225586	114.846497
20395.221915	-1223.198333	1268.119141	182.603653
20395.221915	-1223.198333	1267.012695	240.915710
20395.221915	-1223.198333	1265.906250	93.110870
20395.221915	-1223.198333	1264.798828	139.732483
20395.221915	-1223.198333	1263.691406	-94.363129
20395.221915	-1223.198333	1262.583984	359.029205
20395.221915	-1223.198333	1261.476563	307.425232
20395.221915	-1223.198333	1260.368164	296.562683
20395.221915	-1223.198333	1259.260742	204.453751
20395.221915	-1223.198333	1258.152344	336.360931
20395.221915	-1223.198333	1257.043945	125.999847
20395.221915	-1223.198333	1255.934570	353.399323
20395.221915	-1223.198333	1254.825195	84.964378
20395.221915	-1223.198333	1253.716797	128.243622
20395.221915	-1223.198333	1252.606445	183.442459
20395.221915	-1223.198333	1251.497070	2.108684
20395.221915	-1223.198333	1250.387695	25.282879
20395.221915	-1223.198333	1249.277344	236.312286
20395.221915	-1223.198333	1248.166992	35.115593
20395.221915	-1223.198333	1247.055664	124.993187
20395.221915	-1223.198333	1245.945313	132.964920
20395.221915	-1223.198333	1244.833984	58.481007
20395.221915	-1223.198333	1243.722656	130.907410
20395.221915	-1223.198333	1242.611328	114.900558
20395.221915	-1223.198333	1241.499023	41.573357
20395.221915	-1223.198333	1240.387695	39.924175
20395.221915	-1223.198333	1239.275391	107.361267
20395.221915	-1223.198333	1238.162109	50.344776
20395.221915	-1223.198333	1237.049805	-122.572212
20395.221915	-1223.198333	1235.936523	-150.487305
20395.221915	-1223.198333	1234.823242	-147.785461
20395.221915	-1223.198333	1233.709961	-46.167667
20395.221915	-1223.198333	1232.596680	-29.174696
20395.221915	-1223.198333	1231.482422	-134.305954
20395.221915	-1223.198333	1230.369141	-160.379364
20395.221915	-1223.198333	1229.253906	-119.899429
20395.221915	-1223.198333	1228.139648	-27.751795
20395.221915	-1223.198333	1227.025391	-100.193657
20395.221915	-1223.198333	1225.910156	-14.230294
20395.221915	-1223.198333	1224.794922	-62.141102
20395.221915	-1223.198333	1223.679688	-66.743202
20395.221915	-1223.198333	1222.563477	-246.202042
20395.221915	-1223.198333	1221.447266	-214.421005
20395.221915	-1223.198333	1220.331055	-148.867584
20395.221915	-1223.198333	1219.214844	-285.922363
20395.221915	-1223.198333	1218.098633	-357.153381
20395.221915	-1223.198333	1216.981445	-376.283783
20395.221915	-1223.198333	1215.864258	-199.557678
20395.221915	-1223.198333	1214.747070	-373.047974
20395.221915	-1223.198333	1213.629883	-214.500473
20395.221915	-1223.198333	1212.511719	-43.908836
20395.221915	-1223.198333	1211.393555	6.303246
20395.221915	-1223.198333	1210.275391	112.657578
20395.221915	-1223.198333	1209.157227	72.774605
20395.221915	-1223.198333	1208.038086	-42.847183
20395.221915	-1223.198333	1206.918945	-116.898987
20395.221915	-1223.198333	1205.799805	-75.880447
20395.221915	-1223.198333	1204.680664	-6.708207
20395.221915	-1223.198333	1203.560547	70.230423
20395.221915	-1223.198333	1202.441406	-224.157990
20395.221915	-1223.198333	1201.321289	-12.280273
20395.221915	-1223.198333	1200.200195	5.057221
20395.221915	-1223.198333	1199.080078	-117.796371
20395.221915	-1223.198333	1197.958984	190.332031
20395.221915	-1223.198333	1196.837891	152.982971
20395.221915	-1223.198333	1195.716797	149.146072
20395.221915	-1223.198333	1194.594727	279.036438
20395.221915	-1223.198333	1193.473633	228.659698
20395.221915	-1223.198333	1192.351563	302.079376
20395.221915	-1223.198333	1191.229492	176.972855
20395.221915	-1223.198333	1190.106445	341.679138
20395.221915	-1223.198333	1188.984375	283.213898
20395.221915	-1223.198333	1187.861328	382.047668
20395.221915	-1223.198333	1186.738281	333.664581
20395.221915	-1223.198333	1185.614258	225.879196
20395.221915	-1223.198333	1184.491211	335.932983
20395.221915	-1223.198333	1183.367188	532.233826
20395.221915	-1223.198333	1182.243164	273.637024
20395.221915	-1223.198333	1181.119141	394.763245
20395.221915	-1223.198333	1179.994141	418.876129
20395.221915	-1223.198333	1178.869141	315.662201
20395.221915	-1223.198333	1177.744141	206.474503
20395.221915	-1223.198333	1176.619141	322.596802
20395.221915	-1223.198333	1175.493164	61.894157
20395.221915	-1223.198333	1174.368164	186.212204
20395.221915	-1223.198333	1173.242188	223.779556
20395.221915	-1223.198333	1172.115234	227.363281
20395.221915	-1223.198333	1170.989258	220.713547
20395.221915	-1223.198333	1169.862305	81.226723
20395.221915	-1223.198333	1168.735352	-65.243248
20395.221915	-1223.198333	1167.608398	-14.587401
20395.221915	-1223.198333	1166.481445	62.421417
20395.221915	-1223.198333	1165.353516	101.867760
20395.221915	-1223.198333	1164.225586	-37.373798
20395.221915	-1223.198333	1163.097656	65.519630
20395.221915	-1223.198333	1161.968750	65.825859
20395.221915	-1223.198333	1160.840820	10.217642
20395.221915	-1223.198333	1159.711914	63.856411
20395.221915	-1223.198333	1158.583008	-55.171112
20395.221915	-1223.198333	1157.453125	-16.606760
20395.221915	-1223.198333	1156.324219	-225.332138
20395.221915	-1223.198333	1155.194336	112.338326
20395.221915	-1223.198333	1154.064453	-25.920574
20395.221915	-1223.198333	1152.933594	-255.666229
20395.221915	-1223.198333	1151.803711	-204.284790
20395.221915	-1223.198333	1150.672852	-252.798004
20395.221915	-1223.198333	1149.541992	-230.389282
20395.221915	-1223.198333	1148.411133	-276.361633
20395.221915	-1223.198333	1147.279297	-200.660294
20395.221915	-1223.198333	1146.147461	-47.013504
20395.221915	-1223.198333	1145.015625	-1.443946
20395.221915	-1223.198333	1143.883789	9.210238
20395.221915	-1223.198333	1142.750977	-15.452403
20395.221915	-1223.198333	1141.619141	157.703308
20395.221915	-1223.198333	1140.486328	15.884419
20395.221915	-1223.198333	1139.352539	-20.190639
20395.221915	-1223.198333	1138.219727	-35.049519
20395.221915	-1223.198333	1137.085938	-67.683617
20395.221915	-1223.198333	1135.952148	-14.218164
20395.221915	-1223.198333	1134.818359	-163.128922
20395.221915	-1223.198333	1133.683594	28.228270
20395.221915	-1223.198333	1132.549805	-83.409119
20395.221915	-1223.198333	1131.415039	70.459297
20395.221915	-1223.198333	1130.279297	61.216049
20395.221915	-1223.198333	1129.144531	202.957291
20395.221915	-1223.198333	1128.008789	210.787643
20395.221915	-1223.198333	1126.873047	368.304962
20395.221915	-1223.198333	1125.737305	166.100906
20395.221915	-1223.198333	1124.601563	120.151932
20395.221915	-1223.198333	1123.464844	166.875290
20395.221915	-1223.198333	1122.328125	96.041893
20395.221915	-1223.198333	1121.191406	71.677017
20395.221915	-1223.198333	1120.054688	119.592094
20395.221915	-1223.198333	1118.916992	120.694473
20395.221915	-1223.198333	1117.779297	8.800187
20395.221915	-1223.198333	1116.641602	139.071259
20395.221915	-1223.198333	1115.503906	72.953926
20395.221915	-1223.198333	1114.365234	258.516510
20395.221915	-1223.198333	1113.226563	196.403366
20395.221915	-1223.198333	1112.087891	88.656433
20395.221915	-1223.198333	1110.949219	21.911430
20395.221915	-1223.198333	1109.809570	-3.956839
20395.221915	-1223.198333	1108.669922	90.996971
20395.221915	-1223.198333	1107.530273	38.912498
20395.221915	-1223.198333	1106.390625	54.388351
20395.221915	-1223.198333	1105.250000	48.596073
20395.221915	-1223.198333	1104.109375	168.662842
20395.221915	-1223.198333	1102.968750	126.163887
20395.221915	-1223.198333	1101.828125	308.423401
20395.221915	-1223.198333	1100.686523	180.056168
20395.221915	-1223.198333	1099.544922	251.277451
20395.221915	-1223.198333	1098.403320	306.144897
20395.221915	-1223.198333	1097.261719	302.746429
20395.221915	-1223.198333	1096.120117	216.937592
20395.221915	-1223.198333	1094.977539	157.973511
20395.221915	-1223.198333	1093.834961	219.341248
20395.221915	-1223.198333	1092.691406	208.933578
20395.221915	-1223.198333	1091.548828	134.615479
20395.221915	-1223.198333	1090.405273	199.003464
20395.221915	-1223.198333	1089.261719	46.063297
20395.221915	-1223.198333	1088.118164	125.669083
20395.221915	-1223.198333	1086.973633	216.429230
20395.221915	-1223.198333	1085.829102	36.691494
20395.221915	-1223.198333	1084.684570	161.694244
20395.221915	-1223.198333	1083.540039	224.495209
20395.221915	-1223.198333	1082.395508	64.197044
20395.221915	-1223.198333	1081.250000	141.297607
20395.221915	-1223.198333	1080.104492	227.447647
20395.221915	-1223.198333	1078.958984	101.329887
20395.221915	-1223.198333	1077.812500	63.602238
20395.221915	-1223.198333	1076.666016	94.773003
20395.221915	-1223.198333	1075.519531	81.289597
20395.221915	-1223.198333	1074.373047	161.190247
20395.221915	-1223.198333	1073.226563	110.376488
20395.221915	-1223.198333	1072.079102	55.854664
20395.221915	-1223.198333	1070.931641	171.111832
20395.221915	-1223.198333	1069.784180	213.725296
20395.221915	-1223.198333	1068.635742	161.212067
20395.221915	-1223.198333	1067.487305	232.171616
20395.221915	-1223.198333	1066.338867	283.569977
20395.221915	-1223.198333	1065.190430	422.057709
20395.221915	-1223.198333	1064.041992	401.313751
20395.221915	-1223.198333	1062.892578	453.462250
20395.221915	-1223.198333	1061.743164	455.171387
20395.221915	-1223.198333	1060.593750	522.041931
20395.221915	-1223.198333	1059.443359	410.645203
20395.221915	-1223.198333	1058.292969	287.758850
20395.221915	-1223.198333	1057.142578	521.286438
20395.221915	-1223.198333	1055.992188	269.447876
20395.221915	-1223.198333	1054.841797	176.353790
20395.221915	-1223.198333	1053.690430	396.869263
20395.221915	-1223.198333	1052.539063	123.417679
20395.221915	-1223.198333	1051.387695	352.770752
20395.221915	-1223.198333	1050.235352	222.804245
20395.221915	-1223.198333	1049.083984	152.414810
20395.221915	-1223.198333	1047.931641	258.400543
20395.221915	-1223.198333	1046.778320	104.494003
20395.221915	-1223.198333	1045.625977	72.876289
20395.221915	-1223.198333	1044.472656	87.773003
20395.221915	-1223.198333	1043.319336	124.383240
20395.221915	-1223.198333	1042.166016	169.165298
20395.221915	-1223.198333	1041.012695	219.741501
20395.221915	-1223.198333	1039.858398	98.085922
20395.221915	-1223.198333	1038.704102	10.828496
20395.221915	-1223.198333	1037.549805	58.763451
20395.221915	-1223.198333	1036.394531	240.757309
20395.221915	-1223.198333	1035.239258	227.830780
20395.221915	-1223.198333	1034.083984	266.923584
20395.221915	-1223.198333	1032.928711	317.456940
20395.221915	-1223.198333	1031.773438	324.312012
20395.221915	-1223.198333	1030.617188	142.359024
20395.221915	-1223.198333	1029.460938	291.197998
20395.221915	-1223.198333	1028.304688	174.751114
20395.221915	-1223.198333	1027.147461	104.704926
20395.221915	-1223.198333	1025.991211	85.434265
20395.221915	-1223.198333	1024.833984	12.188890
20395.221915	-1223.198333	1023.675781	153.270767
20395.221915	-1223.198333	1022.518555	74.166237
20395.221915	-1223.198333	1021.360352	120.237190
20395.221915	-1223.198333	1020.202148	-77.065514
20395.221915	-1223.198333	1019.043945	204.071930
20395.221915	-1223.198333	1017.884766	124.977440
20395.221915	-1223.198333	1016.726563	94.353539
20395.221915	-1223.198333	1015.567383	-155.506592
20395.221915	-1223.198333	1014.407227	126.706825
20395.221915	-1223.198333	1013.248047	-10.678454
20395.221915	-1223.198333	1012.087891	-82.170242
20395.221915	-1223.198333	1010.927734	154.705078
20395.221915	-1223.198333	1009.767578	41.128517
20395.221915	-1223.198333	1008.606445	58.839836
20395.221915	-1223.198333	1007.446289	-137.645401
20395.221915	-1223.198333	1006.285156	25.298485
20395.221915	-1223.198333	1005.123047	93.993011
20395.221915	-1223.198333	1003.961914	176.031097
20395.221915	-1223.198333	1002.799805	-63.848511
20395.221915	-1223.198333	1001.637695	-16.076218
20395.221915	-1223.198333	1000.475586	29.148121
20395.221915	-1223.198333	999.312500	56.389236
20395.221915	-1223.198333	998.149414	221.718750
20395.221915	-1223.198333	996.986328	171.949509
20395.221915	-1223.198333	995.823242	-167.391769
20395.221915	-1223.198333	994.659180	-50.297138
20395.221915	-1223.198333	993.496094	127.075874
20395.221915	-1223.198333	992.332031	-77.831352
20395.221915	-1223.198333	991.166992	-112.197289
20395.221915	-1223.198333	990.002930	-58.265247
20395.221915	-1223.198333	988.837891	-202.974884
20395.221915	-1223.198333	987.672852	-49.844154
20395.221915	-1223.198333	986.506836	-231.756882
20395.221915	-1223.198333	985.341797	-68.587029
20395.221915	-1223.198333	984.175781	-71.865288
20395.221915	-1223.198333	983.009766	-127.556778
20395.221915	-1223.198333	981.843750	70.987267
20395.221915	-1223.198333	980.676758	81.238373
20395.221915	-1223.198333	979.509766	-49.968704
20395.221915	-1223.198333	978.342773	4.267725
20395.221915	-1223.198333	977.175781	-3.853766
20395.221915	-1223.198333	976.007813	-179.379333
20395.221915	-1223.198333	974.839844	181.037582
20395.221915	-1223.198333	973.671875	13.004743
20395.221915	-1223.198333	972.503906	-150.862305
20395.221915	-1223.198333	971.334961	-20.241667
20395.221915	-1223.198333	970.166016	-3.299365
20395.221915	-1223.198333	968.997070	-215.327087
20395.221915	-1223.198333	967.828125	-31.077435
20395.221915	-1223.198333	966.658203	-126.819427
20395.221915	-1223.198333	965.488281	-170.439728
20395.221915	-1223.198333	964.318359	-140.443878
20395.221915	-1223.198333	963.148438	-135.460495
20395.221915	-1223.198333	961.977539	-140.705933
20395.221915	-1223.198333	960.806641	-133.345093
20395.221915	-1223.198333	959.635742	109.460190
20395.221915	-1223.198333	958.463867	-1.115871
20395.221915	-1223.198333	957.292969	-36.630760
20395.221915	-1223.198333	956.121094	-3.242281
20395.221915	-1223.198333	954.948242	-203.171875
20395.221915	-1223.198333	953.776367	-21.021851
20395.221915	-1223.198333	952.603516	-33.193279
20395.221915	-1223.198333	951.430664	-99.764999
20395.221915	-1223.198333	950.257813	-1.949620
20395.221915	-1223.198333	949.084961	-18.592581
20395.221915	-1223.198333	947.911133	34.389294
20395.221915	-1223.198333	946.737305	-58.831791
20395.221915	-1223.198333	945.563477	-79.826859
20395.221915	-1223.198333	944.388672	-9.626083
20395.221915	-1223.198333	943.213867	-243.253510
20395.221915	-1223.198333	942.039063	-84.885628
20395.221915	-1223.198333	940.864258	-26.968494
20395.221915	-1223.198333	939.688477	-110.559700
20395.221915	-1223.198333	938.513672	-260.469147
20395.221915	-1223.198333	937.337891	-147.228271
20395.221915	-1223.198333	936.161133	62.277351
20395.221915	-1223.198333	934.985352	-87.646858
20395.221915	-1223.198333	933.808594	162.462662
20395.221915	-1223.198333	932.631836	72.330978
20395.221915	-1223.198333	931.454102	249.723618
20395.221915	-1223.198333	930.277344	140.196136
20395.221915	-1223.198333	929.099609	43.705063
20395.221915	-1223.198333	927.921875	210.154266
20395.221915	-1223.198333	926.743164	83.660751
20395.221915	-1223.198333	925.565430	29.839708
20395.221915	-1223.198333	924.386719	-8.985236
20395.221915	-1223.198333	923.208008	-56.349648
20395.221915	-1223.198333	922.028320	-169.970596
20395.221915	-1223.198333	920.849609	6.983056
20395.221915	-1223.198333	919.669922	11.138493
20395.221915	-1223.198333	919.474609	84.154976
20395.221915	-1223.198333	918.309570	-123.487442
20395.221915	-1223.198333	917.143555	27.639999
20395.221915	-1223.198333	915.977539	37.803539
20395.221915	-1223.198333	914.810547	-105.713028
20395.221915	-1223.198333	913.644531	58.076832
20395.221915	-1223.198333	912.477539	-57.681343
20395.221915	-1223.198333	911.310547	-152.076736
20395.221915	-1223.198333	910.143555	-48.126808
20395.221915	-1223.198333	908.975586	-159.568359
20395.221915	-1223.198333	907.807617	-224.083344
20395.221915	-1223.198333	906.639648	67.323471
20395.221915	-1223.198333	905.471680	-27.069489
20395.221915	-1223.198333	904.303711	23.424383
20395.221915	-1223.198333	903.134766	95.186363
20395.221915	-1223.198333	901.965820	-173.809204
20395.221915	-1223.198333	900.796875	-114.837639
20395.221915	-1223.198333	899.626953	-58.029430
20395.221915	-1223.198333	898.457031	-82.128967
20395.221915	-1223.198333	897.287109	-116.869591
20395.221915	-1223.198333	896.117188	-40.990498
20395.221915	-1223.198333	894.947266	53.984921
20395.221915	-1223.198333	893.776367	136.153610
20395.221915	-1223.198333	892.605469	-7.079351
20395.221915	-1223.198333	891.434570	0.647381
20395.221915	-1223.198333	890.262695	-27.766554
20395.221915	-1223.198333	889.091797	162.657959
20395.221915	-1223.198333	887.919922	59.847088
20395.221915	-1223.198333	886.748047	235.285034
20395.221915	-1223.198333	885.575195	353.309814
20395.221915	-1223.198333	884.403320	367.245361
20395.221915	-1223.198333	883.230469	207.119308
20395.221915	-1223.198333	882.057617	252.886536
20395.221915	-1223.198333	880.883789	171.325455
20395.221915	-1223.198333	879.710938	45.235641
20395.221915	-1223.198333	878.537109	4.019588
20395.221915	-1223.198333	877.362305	-3.266135
20395.221915	-1223.198333	876.188477	-10.565077
20395.221915	-1223.198333	875.013672	11.801544
20395.221915	-1223.198333	873.839844	34.142166
20395.221915	-1223.198333	872.664063	11.975376
20395.221915	-1223.198333	871.489258	44.872299
20395.221915	-1223.198333	870.313477	39.625858
20395.221915	-1223.198333	869.138672	59.773079
20395.221915	-1223.198333	867.962891	33.328495
20395.221915	-1223.198333	866.786133	66.144524
20395.221915	-1223.198333	865.610352	-121.135315
20395.221915	-1223.198333	864.433594	152.845230
20395.221915	-1223.198333	863.256836	86.161278
20395.221915	-1223.198333	862.079102	203.472778
20395.221915	-1223.198333	860.902344	223.461426
20395.221915	-1223.198333	859.724609	258.226471
20395.221915	-1223.198333	858.546875	117.549171
20395.221915	-1223.198333	857.368164	124.824715
20395.221915	-1223.198333	856.190430	79.266121
20395.221915	-1223.198333	855.011719	-67.668076
20395.221915	-1223.198333	853.833008	-43.511089
20395.221915	-1223.198333	852.654297	149.518158
20395.221915	-1223.198333	851.474609	-126.144203
20395.221915	-1223.198333	850.294922	-171.679794
20395.221915	-1223.198333	849.115234	82.400452
20395.221915	-1223.198333	847.935547	36.807285
20395.221915	-1223.198333	846.754883	-120.561317
20395.221915	-1223.198333	845.575195	13.107453
20395.221915	-1223.198333	844.393555	167.791061
20395.221915	-1223.198333	843.212891	-69.655357
20395.221915	-1223.198333	842.032227	17.508890
20395.221915	-1223.198333	840.850586	-59.717731
20395.221915	-1223.198333	839.668945	6.310365
20395.221915	-1223.198333	838.486328	-3.522667
20395.221915	-1223.198333	837.304688	-95.492706
20395.221915	-1223.198333	836.122070	193.596497
20395.221915	-1223.198333	834.939453	55.284142
20395.221915	-1223.198333	833.756836	28.537722
20395.221915	-1223.198333	832.573242	81.731529
20395.221915	-1223.198333	831.389648	227.435043
20395.221915	-1223.198333	830.206055	28.163607
20395.221915	-1223.198333	829.022461	428.189423
20395.221915	-1223.198333	827.838867	-2.318887
20395.221915	-1223.198333	826.654297	-20.733221
20395.221915	-1223.198333	825.469727	156.257172
20395.221915	-1223.198333	824.284180	36.936550
20395.221915	-1223.198333	823.099609	123.479591
20395.221915	-1223.198333	821.914063	104.967796
20395.221915	-1223.198333	820.728516	-134.011642
20395.221915	-1223.198333	819.542969	-108.427811
20395.221915	-1223.198333	818.356445	-19.915501
20395.221915	-1223.198333	817.169922	-6.999799
20395.221915	-1223.198333	815.983398	79.308212
20395.221915	-1223.198333	814.796875	-63.058208
20395.221915	-1223.198333	813.609375	-54.408772
20395.221915	-1223.198333	812.422852	-12.246234
20395.221915	-1223.198333	811.235352	117.909927
20395.221915	-1223.198333	810.046875	27.946011
20395.221915	-1223.198333	808.859375	-59.915051
20395.221915	-1223.198333	807.670898	-49.310059
20395.221915	-1223.198333	806.482422	19.904987
20395.221915	-1223.198333	805.293945	-11.444118
20395.221915	-1223.198333	804.104492	164.447937
20395.221915	-1223.198333	802.915039	-15.580431
20395.221915	-1223.198333	801.725586	132.978180
20395.221915	-1223.198333	800.536133	-122.346352
20395.221915	-1223.198333	799.345703	-107.757599
20395.221915	-1223.198333	798.155273	-30.464945
20395.221915	-1223.198333	796.964844	-176.960983
20395.221915	-1223.198333	795.774414	-141.557648
20395.221915	-1223.198333	794.583008	-114.558235
20395.221915	-1223.198333	793.392578	-47.903313
20395.221915	-1223.198333	792.200195	-98.296005
20395.221915	-1223.198333	791.008789	-58.888512
20395.221915	-1223.198333	789.816406	99.502846
20395.221915	-1223.198333	788.625000	-92.966560
20395.221915	-1223.198333	787.432617	-105.870010
20395.221915	-1223.198333	786.239258	-85.410164
20395.221915	-1223.198333	785.046875	-152.630722
20395.221915	-1223.198333	783.853516	136.869461
20395.221915	-1223.198333	782.660156	9.074705
20395.221915	-1223.198333	781.465820	135.699890
20395.221915	-1223.198333	780.272461	-196.428329
20395.221915	-1223.198333	779.078125	-7.357292
20395.221915	-1223.198333	777.883789	71.148384
20395.221915	-1223.198333	776.688477	-31.683832
20395.221915	-1223.198333	775.494141	-63.688198
20395.221915	-1223.198333	774.298828	143.788879
20395.221915	-1223.198333	773.103516	55.462372
20395.221915	-1223.198333	771.907227	112.859421
20395.221915	-1223.198333	770.711914	120.236855
20395.221915	-1223.198333	769.515625	165.028259
20395.221915	-1223.198333	768.318359	-71.107742
20395.221915	-1223.198333	767.122070	106.744064
20395.221915	-1223.198333	765.924805	-135.605972
20395.221915	-1223.198333	764.727539	-49.386013
20395.221915	-1223.198333	763.530273	-56.789875
20395.221915	-1223.198333	762.333008	72.934898
20395.221915	-1223.198333	761.134766	-165.226868
20395.221915	-1223.198333	759.936523	182.510483
20395.221915	-1223.198333	758.738281	-20.357430
20395.221915	-1223.198333	757.540039	-119.357430
20395.221915	-1223.198333	756.340820	20.397490
20395.221915	-1223.198333	755.141602	-12.240455
20395.221915	-1223.198333	753.942383	-73.967041
20395.221915	-1223.198333	752.742188	-17.448118
20395.221915	-1223.198333	751.541992	76.338577
20395.221915	-1223.198333	750.341797	-58.105465
20395.221915	-1223.198333	749.141602	70.801315
20395.221915	-1223.198333	747.941406	195.456894
20395.221915	-1223.198333	746.740234	89.939392
20395.221915	-1223.198333	745.539063	46.581795
20395.221915	-1223.198333	744.337891	150.291855
20395.221915	-1223.198333	743.135742	168.977631
20395.221915	-1223.198333	741.933594	88.195900
20395.221915	-1223.198333	740.731445	226.871979
20395.221915	-1223.198333	739.529297	-54.798279
20395.221915	-1223.198333	738.326172	25.790272
20395.221915	-1223.198333	737.124023	-42.696133
20395.221915	-1223.198333	735.919922	85.328285
20395.221915	-1223.198333	734.716797	118.097176
20395.221915	-1223.198333	733.513672	307.960785
20395.221915	-1223.198333	732.309570	154.478165
20395.221915	-1223.198333	731.105469	54.746548
20395.221915	-1223.198333	729.900391	143.064148
20395.221915	-1223.198333	728.696289	208.558777
20395.221915	-1223.198333	727.491211	224.387817
20395.221915	-1223.198333	726.286133	8.829359
20395.221915	-1223.198333	725.080078	-24.984564
20395.221915	-1223.198333	723.874023	-36.136116
20395.221915	-1223.198333	722.668945	-90.687744
20395.221915	-1223.198333	721.461914	1.238653
20395.221915	-1223.198333	720.255859	196.226105
20395.221915	-1223.198333	719.048828	73.402046
20395.221915	-1223.198333	717.841797	-57.682610
20395.221915	-1223.198333	716.634766	-36.194252
20395.221915	-1223.198333	715.427734	-181.757278
20395.221915	-1223.198333	714.219727	-108.854317
20395.221915	-1223.198333	713.011719	-229.742828
20395.221915	-1223.198333	711.803711	88.173515
20395.221915	-1223.198333	710.594727	80.450027
20395.221915	-1223.198333	709.385742	109.730789
20395.221915	-1223.198333	708.176758	21.577961
20395.221915	-1223.198333	706.967773	48.668941
20395.221915	-1223.198333	705.758789	90.088371
20395.221915	-1223.198333	704.548828	108.788803
20395.221915	-1223.198333	703.338867	-61.845161
20395.221915	-1223.198333	702.127930	182.983658
20395.221915	-1223.198333	700.917969	86.296150
20395.221915	-1223.198333	699.707031	197.223083
20395.221915	-1223.198333	698.496094	-12.614381
20395.221915	-1223.198333	697.285156	118.698532
20395.221915	-1223.198333	696.073242	299.195099
20395.221915	-1223.198333	694.861328	206.345291
20395.221915	-1223.198333	693.649414	82.658661
20395.221915	-1223.198333	692.436523	455.845062
20395.221915	-1223.198333	691.224609	321.752533
20395.221915	-1223.198333	690.011719	509.873291
20395.221915	-1223.198333	688.798828	414.669830
20395.221915	-1223.198333	687.584961	401.494446
20395.221915	-1223.198333	686.372070	222.114563
20395.221915	-1223.198333	685.158203	688.702698
20395.221915	-1223.198333	683.943359	363.621735
20395.221915	-1223.198333	682.729492	587.959778
20395.221915	-1223.198333	681.514648	572.349060
20395.221915	-1223.198333	680.299805	530.036621
20395.221915	-1223.198333	679.084961	715.054626
20395.221915	-1223.198333	677.869141	607.041016
20395.221915	-1223.198333	676.653320	517.428772
20395.221915	-1223.198333	675.437500	585.416931
20395.221915	-1223.198333	674.221680	563.243652
20395.221915	-1223.198333	673.004883	827.496094
20395.221915	-1223.198333	671.789063	694.652039
20395.221915	-1223.198333	670.571289	475.872162
20395.221915	-1223.198333	669.354492	555.694946
20395.221915	-1223.198333	668.136719	545.442749
20395.221915	-1223.198333	666.919922	371.585236
20395.221915	-1223.198333	665.701172	395.967865
20395.221915	-1223.198333	664.483398	481.569336
20395.221915	-1223.198333	663.264648	409.750671
20395.221915	-1223.198333	662.045898	566.647766
20395.221915	-1223.198333	660.827148	398.714661
20395.221915	-1223.198333	659.608398	326.734619
20395.221915	-1223.198333	658.388672	571.093018
20395.221915	-1223.198333	657.168945	480.587036
20395.221915	-1223.198333	655.949219	457.375000
20395.221915	-1223.198333	654.728516	470.812775
20395.221915	-1223.198333	653.507813	573.906860
20395.221915	-1223.198333	652.287109	460.743195
20395.221915	-1223.198333	651.066406	606.456726
20395.221915	-1223.198333	649.844727	935.466675
20395.221915	-1223.198333	648.623047	589.765991
20395.221915	-1223.198333	647.401367	555.847107
20395.221915	-1223.198333	646.179688	580.937744
20395.221915	-1223.198333	644.957031	701.654053
20395.221915	-1223.198333	643.734375	622.713074
20395.221915	-1223.198333	642.511719	376.811310
20395.221915	-1223.198333	641.289063	360.914764
20395.221915	-1223.198333	640.065430	328.668854
20395.221915	-1223.198333	638.841797	489.621857
20395.221915	-1223.198333	637.618164	412.469330
20395.221915	-1223.198333	636.393555	499.980591
20395.221915	-1223.198333	635.168945	595.514709
20395.221915	-1223.198333	633.944336	402.307251
20395.221915	-1223.198333	632.719727	314.781403
20395.221915	-1223.198333	631.494141	462.895752
20395.221915	-1223.198333	630.269531	464.625610
20395.221915	-1223.198333	629.042969	324.114532
20395.221915	-1223.198333	627.817383	498.312408
20395.221915	-1223.198333	626.590820	402.369263
20395.221915	-1223.198333	625.365234	247.544144
20395.221915	-1223.198333	624.137695	429.541504
20395.221915	-1223.198333	622.911133	369.978912
20395.221915	-1223.198333	621.683594	574.044128
20395.221915	-1223.198333	620.456055	362.242523
20395.221915	-1223.198333	619.228516	213.312805
20395.221915	-1223.198333	618.000977	279.237823
20395.221915	-1223.198333	616.772461	300.476685
20395.221915	-1223.198333	615.543945	147.391403
20395.221915	-1223.198333	614.314453	267.767181
20395.221915	-1223.198333	613.085938	205.755768
20395.221915	-1223.198333	611.856445	212.544189
20395.221915	-1223.198333	610.626953	164.603165
20395.221915	-1223.198333	609.397461	262.343353
20395.221915	-1223.198333	608.166992	50.369087
20395.221915	-1223.198333	606.936523	139.864136
20395.221915	-1223.198333	605.706055	271.732391
20395.221915	-1223.198333	604.474609	223.495041
20395.221915	-1223.198333	603.244141	318.770569
20395.221915	-1223.198333	602.012695	134.983551
20395.221915	-1223.198333	600.780273	302.855164
20395.221915	-1223.198333	599.548828	209.950455
20395.221915	-1223.198333	598.316406	232.163544
20395.221915	-1223.198333	597.083984	151.303665
20395.221915	-1223.198333	595.851563	114.842140
20395.221915	-1223.198333	594.618164	82.368263
20395.221915	-1223.198333	593.384766	-4.647432
20395.221915	-1223.198333	592.151367	184.777176
20395.221915	-1223.198333	590.917969	218.713058
20395.221915	-1223.198333	589.683594	208.195648
20395.221915	-1223.198333	588.449219	131.075577
20395.221915	-1223.198333	587.214844	314.029327
20395.221915	-1223.198333	585.979492	47.316833
20395.221915	-1223.198333	584.745117	0.347068
20395.221915	-1223.198333	583.509766	-48.677246
20395.221915	-1223.198333	582.273438	188.321655
20395.221915	-1223.198333	581.038086	60.624084
20395.221915	-1223.198333	579.801758	67.837837
20395.221915	-1223.198333	578.565430	-41.770061
20395.221915	-1223.198333	577.329102	-10.485001
20395.221915	-1223.198333	576.091797	-3.417425
20395.221915	-1223.198333	574.854492	-88.951553
20395.221915	-1223.198333	573.617188	22.632130
20395.221915	-1223.198333	572.378906	109.981873
20395.221915	-1223.198333	571.141602	44.444038
20395.221915	-1223.198333	569.903320	147.740128
20395.221915	-1223.198333	568.664063	-82.685814
20395.221915	-1223.198333	567.425781	16.486399
20395.221915	-1223.198333	566.186523	149.717331
20395.221915	-1223.198333	564.947266	61.912132
20395.221915	-1223.198333	563.708008	172.902603
20395.221915	-1223.198333	562.467773	-69.549942
20395.221915	-1223.198333	561.227539	35.311260
20395.221915	-1223.198333	559.987305	132.060226
20395.221915	-1223.198333	558.747070	40.129341
20395.221915	-1223.198333	557.505859	-330.632324
20395.221915	-1223.198333	556.264648	-181.846771
20395.221915	-1223.198333	555.023438	-91.308197
20395.221915	-1223.198333	553.781250	-60.991844
20395.221915	-1223.198333	552.539063	1.343609
20395.221915	-1223.198333	551.296875	-82.659508
20395.221915	-1223.198333	550.054688	177.918472
20395.221915	-1223.198333	548.811523	59.788708
20395.221915	-1223.198333	547.569336	-6.251246
20395.221915	-1223.198333	546.325195	-42.278389
20395.221915	-1223.198333	545.082031	171.893066
20395.221915	-1223.198333	543.837891	-142.389603
20395.221915	-1223.198333	542.593750	-64.410400
20395.221915	-1223.198333	541.349609	-160.528030
20395.221915	-1223.198333	540.105469	91.357735
20395.221915	-1223.198333	538.860352	-264.752167
20395.221915	-1223.198333	537.615234	76.942345
20395.221915	-1223.198333	536.369141	-123.179962
20395.221915	-1223.198333	535.124023	-163.376938
20395.221915	-1223.198333	533.877930	-239.550781
20395.221915	-1223.198333	532.631836	-245.809647
20395.221915	-1223.198333	531.384766	-96.337364
20395.221915	-1223.198333	530.138672	-6.840979
20395.221915	-1223.198333	528.891602	54.639416
20395.221915	-1223.198333	527.643555	-101.465126
20395.221915	-1223.198333	526.396484	-147.779587
20395.221915	-1223.198333	525.148438	55.244648
20395.221915	-1223.198333	523.900391	42.765934
20395.221915	-1223.198333	522.652344	-314.681213
20395.221915	-1223.198333	521.403320	-38.067062
20395.221915	-1223.198333	520.154297	-190.107330
20395.221915	-1223.198333	518.905273	-114.940445
20395.221915	-1223.198333	517.656250	-219.128708
20395.221915	-1223.198333	516.406250	-203.791977
20395.221915	-1223.198333	515.156250	-126.751534
20395.221915	-1223.198333	513.906250	-119.447701
20395.221915	-1223.198333	512.655273	-157.957535
20395.221915	-1223.198333	511.404297	16.466965
20395.221915	-1223.198333	510.153320	19.685148
20395.221915	-1223.198333	508.902344	-32.818676
20395.221915	-1223.198333	507.650391	-196.701874
20395.221915	-1223.198333	506.398438	-4.615975
20395.221915	-1223.198333	505.146484	-71.068024
20395.221915	-1223.198333	503.893555	110.919197
20395.221915	-1223.198333	502.641602	-74.800018
20395.221915	-1223.198333	501.388672	1.770902
20395.221915	-1223.198333	500.134766	-98.497398
20395.221915	-1223.198333	498.881836	176.581314
20395.221915	-1223.198333	497.627930	90.167427
20395.221915	-1223.198333	496.374023	104.999710
20395.221915	-1223.198333	495.119141	221.004105
20395.221915	-1223.198333	493.865234	172.258347
20395.221915	-1223.198333	492.610352	232.602112
20395.221915	-1223.198333	491.355469	388.087463
20395.221915	-1223.198333	490.099609	319.409576
20395.221915	-1223.198333	488.843750	296.326385
20395.221915	-1223.198333	487.587891	201.872055
20395.221915	-1223.198333	486.332031	279.819824
20395.221915	-1223.198333	485.075195	137.789276
20395.221915	-1223.198333	483.818359	118.587982
20395.221915	-1223.198333	482.561523	91.438210
20395.221915	-1223.198333	481.304688	256.306305
20395.221915	-1223.198333	480.046875	104.350426
20395.221915	-1223.198333	478.789063	207.709000
20395.221915	-1223.198333	477.531250	152.695724
20395.221915	-1223.198333	476.272461	263.817078
20395.221915	-1223.198333	475.013672	159.272781
20395.221915	-1223.198333	473.754883	21.112600
20395.221915	-1223.198333	472.496094	-140.760300
20395.221915	-1223.198333	471.236328	-108.934700
20395.221915	-1223.198333	469.976563	59.165806
20395.221915	-1223.198333	468.716797	154.040756
20395.221915	-1223.198333	467.456055	-126.472328
20395.221915	-1223.198333	466.196289	201.296326
20395.221915	-1223.198333	464.935547	228.756470
20395.221915	-1223.198333	463.673828	-99.169144
20395.221915	-1223.198333	462.413086	190.672577
20395.221915	-1223.198333	461.151367	-80.031929
20395.221915	-1223.198333	459.889648	-68.616051
20395.221915	-1223.198333	458.626953	102.449905
20395.221915	-1223.198333	457.364258	-20.433214
20395.221915	-1223.198333	456.101563	67.580566
20395.221915	-1223.198333	454.838867	104.219902
20395.221915	-1223.198333	453.575195	-202.123047
20395.221915	-1223.198333	452.312500	-37.585327
20395.221915	-1223.198333	451.047852	-13.084740
20395.221915	-1223.198333	449.784180	196.409058
20395.221915	-1223.198333	448.519531	13.905970
20395.221915	-1223.198333	447.254883	-9.201606
20395.221915	-1223.198333	445.990234	-14.712427
20395.221915	-1223.198333	444.725586	89.830444
20395.221915	-1223.198333	443.459961	42.721546
20395.221915	-1223.198333	442.194336	58.425220
20395.221915	-1223.198333	440.927734	245.027435
20395.221915	-1223.198333	439.662109	209.275070
20395.221915	-1223.198333	438.395508	259.847992
20395.221915	-1223.198333	437.127930	237.522034
20395.221915	-1223.198333	435.861328	138.432907
20395.221915	-1223.198333	434.593750	39.199600
20395.221915	-1223.198333	433.326172	197.065231
20395.221915	-1223.198333	432.058594	225.100159
20395.221915	-1223.198333	430.790039	313.762756
20395.221915	-1223.198333	429.521484	186.321335
20395.221915	-1223.198333	428.252930	9.674721
20395.221915	-1223.198333	426.984375	295.805481
20395.221915	-1223.198333	425.714844	93.259399
20395.221915	-1223.198333	424.445313	223.879684
20395.221915	-1223.198333	423.174805	7.222999
20395.221915	-1223.198333	421.905273	170.626236
20395.221915	-1223.198333	420.634766	8.423255
20395.221915	-1223.198333	419.364258	214.306641
20395.221915	-1223.198333	418.092773	278.792236
20395.221915	-1223.198333	416.822266	62.958748
20395.221915	-1223.198333	415.550781	242.362015
20395.221915	-1223.198333	414.278320	229.549881
20395.221915	-1223.198333	413.006836	181.212006
20395.221915	-1223.198333	411.734375	242.109039
20395.221915	-1223.198333	410.461914	294.812134
20395.221915	-1223.198333	409.188477	126.143150
20395.221915	-1223.198333	407.916016	477.266235
20395.221915	-1223.198333	406.642578	399.757233
20395.221915	-1223.198333	405.368164	327.737976
20395.221915	-1223.198333	404.094727	112.728973
20395.221915	-1223.198333	402.820313	213.840454
20395.221915	-1223.198333	401.545898	132.846527
20395.221915	-1223.198333	400.270508	264.262024
20395.221915	-1223.198333	398.996094	443.984680
20395.221915	-1223.198333	397.720703	509.938232
20395.221915	-1223.198333	396.444336	372.419830
20395.221915	-1223.198333	395.168945	248.134003
20395.221915	-1223.198333	393.892578	271.603821
20395.221915	-1223.198333	392.616211	198.978394
20395.221915	-1223.198333	391.339844	209.670822
20395.221915	-1223.198333	390.062500	233.417633
20395.221915	-1223.198333	388.785156	59.745003
20395.221915	-1223.198333	387.507813	90.127396
20395.221915	-1223.198333	386.229492	137.389664
20395.221915	-1223.198333	384.951172	318.376465
20395.221915	-1223.198333	383.672852	247.454666
20395.221915	-1223.198333	382.394531	236.239746
20395.221915	-1223.198333	381.115234	91.968956
20395.221915	-1223.198333	379.835938	122.174759
20395.221915	-1223.198333	378.556641	159.418655
20395.221915	-1223.198333	377.277344	116.149414
20395.221915	-1223.198333	375.997070	159.607208
20395.221915	-1223.198333	374.716797	196.418610
20395.221915	-1223.198333	373.435547	315.950592
20395.221915	-1223.198333	372.155273	30.413038
20395.221915	-1223.198333	370.874023	128.799820
20395.221915	-1223.198333	369.591797	-86.504562
20395.221915	-1223.198333	368.310547	46.969105
20395.221915	-1223.198333	367.028320	-74.929436
20395.221915	-1223.198333	365.746094	54.619835
20395.221915	-1223.198333	364.463867	154.018036
20395.221915	-1223.198333	363.180664	25.311121
20395.221915	-1223.198333	361.897461	151.691772
20395.221915	-1223.198333	360.614258	158.644485
20395.221915	-1223.198333	359.330078	-54.646183
20395.221915	-1223.198333	358.045898	52.850994
20395.221915	-1223.198333	356.761719	73.869881
20395.221915	-1223.198333	355.477539	-136.896271
20395.221915	-1223.198333	354.192383	-189.951233
20395.221915	-1223.198333	352.907227	-300.393555
20395.221915	-1223.198333	351.622070	-20.878393
20395.221915	-1223.198333	350.336914	-66.116127
20395.221915	-1223.198333	349.050781	-66.253532
20395.221915	-1223.198333	347.764648	42.551636
20395.221915	-1223.198333	346.477539	-130.687637
20395.221915	-1223.198333	345.191406	114.527306
20395.221915	-1223.198333	343.904297	-82.832314
20395.221915	-1223.198333	342.616211	-148.242813
20395.221915	-1223.198333	341.329102	-209.320999
20395.221915	-1223.198333	340.041016	-101.920822
20395.221915	-1223.198333	338.752930	-48.357330
20395.221915	-1223.198333	337.463867	202.458557
20395.221915	-1223.198333	336.175781	148.281082
20395.221915	-1223.198333	334.886719	82.683243
20395.221915	-1223.198333	333.596680	102.158920
20395.221915	-1223.198333	332.307617	87.049965
20395.221915	-1223.198333	331.017578	6.347955
20395.221915	-1223.198333	329.727539	89.701500
20395.221915	-1223.198333	328.436523	-110.615776
20395.221915	-1223.198333	327.146484	-181.636658
20395.221915	-1223.198333	325.855469	26.776089
20395.221915	-1223.198333	324.563477	-250.902359
20395.221915	-1223.198333	323.272461	-125.798653
20395.221915	-1223.198333	321.980469	-340.195496
20395.221915	-1223.198333	320.688477	-194.561676
20395.221915	-1223.198333	319.395508	-80.230247
20395.221915	-1223.198333	318.103516	-314.811279
20395.221915	-1223.198333	316.810547	-103.182320
20395.221915	-1223.198333	315.516602	-200.190262
20395.221915	-1223.198333	314.223633	-28.237047
20395.221915	-1223.198333	312.929688	-136.022308
20395.221915	-1223.198333	311.635742	-71.319519
20395.221915	-1223.198333	310.340820	96.381279
20395.221915	-1223.198333	309.045898	94.029175
20395.221915	-1223.198333	307.750977	240.761444
20395.221915	-1223.198333	306.456055	225.093384
20395.221915	-1223.198333	305.160156	400.507111
20395.221915	-1223.198333	303.865234	334.793030
20395.221915	-1223.198333	302.568359	480.998962
20395.221915	-1223.198333	301.272461	689.446350
20395.221915	-1223.198333	299.975586	558.612915
20395.221915	-1223.198333	298.678711	1077.182983
