#X		#Y		#Wave		#Intensity
-7169.704787	6544.486667	1999.946289	86.071663
-7169.704787	6544.486667	1998.981445	-17.524504
-7169.704787	6544.486667	1998.017578	-97.856071
-7169.704787	6544.486667	1997.052734	54.674225
-7169.704787	6544.486667	1996.088867	-45.674561
-7169.704787	6544.486667	1995.124023	-106.452774
-7169.704787	6544.486667	1994.159180	-90.525787
-7169.704787	6544.486667	1993.193359	103.593956
-7169.704787	6544.486667	1992.228516	72.258156
-7169.704787	6544.486667	1991.262695	-30.936731
-7169.704787	6544.486667	1990.296875	-82.199844
-7169.704787	6544.486667	1989.331055	94.129990
-7169.704787	6544.486667	1988.365234	-29.028822
-7169.704787	6544.486667	1987.398438	70.404953
-7169.704787	6544.486667	1986.432617	41.141758
-7169.704787	6544.486667	1985.465820	11.825916
-7169.704787	6544.486667	1984.499023	-29.896849
-7169.704787	6544.486667	1983.532227	148.322556
-7169.704787	6544.486667	1982.565430	-4.718625
-7169.704787	6544.486667	1981.597656	-115.750557
-7169.704787	6544.486667	1980.629883	151.171677
-7169.704787	6544.486667	1979.662109	121.572128
-7169.704787	6544.486667	1978.694336	35.149555
-7169.704787	6544.486667	1977.726563	131.424896
-7169.704787	6544.486667	1976.758789	-66.116608
-7169.704787	6544.486667	1975.790039	-58.772243
-7169.704787	6544.486667	1974.821289	-41.588066
-7169.704787	6544.486667	1973.852539	79.183617
-7169.704787	6544.486667	1972.883789	64.223511
-7169.704787	6544.486667	1971.915039	179.956406
-7169.704787	6544.486667	1970.945313	2.204164
-7169.704787	6544.486667	1969.975586	115.404388
-7169.704787	6544.486667	1969.005859	-30.255184
-7169.704787	6544.486667	1968.036133	60.706585
-7169.704787	6544.486667	1967.066406	-30.702875
-7169.704787	6544.486667	1966.096680	200.625366
-7169.704787	6544.486667	1965.125977	15.615747
-7169.704787	6544.486667	1964.155273	116.324173
-7169.704787	6544.486667	1963.184570	-75.991707
-7169.704787	6544.486667	1962.213867	128.083420
-7169.704787	6544.486667	1961.242188	9.670535
-7169.704787	6544.486667	1960.271484	181.670807
-7169.704787	6544.486667	1959.299805	82.983124
-7169.704787	6544.486667	1958.328125	134.385147
-7169.704787	6544.486667	1957.356445	-42.939533
-7169.704787	6544.486667	1956.384766	10.943546
-7169.704787	6544.486667	1955.412109	141.025192
-7169.704787	6544.486667	1954.439453	99.014008
-7169.704787	6544.486667	1953.467773	-46.178448
-7169.704787	6544.486667	1952.495117	37.197563
-7169.704787	6544.486667	1951.521484	93.532837
-7169.704787	6544.486667	1950.548828	-14.692170
-7169.704787	6544.486667	1949.575195	12.198481
-7169.704787	6544.486667	1948.601563	115.209839
-7169.704787	6544.486667	1947.627930	-39.546349
-7169.704787	6544.486667	1946.654297	-137.775269
-7169.704787	6544.486667	1945.680664	73.236755
-7169.704787	6544.486667	1944.706055	-118.164795
-7169.704787	6544.486667	1943.732422	48.657608
-7169.704787	6544.486667	1942.757813	36.408691
-7169.704787	6544.486667	1941.783203	90.392838
-7169.704787	6544.486667	1940.807617	-103.228149
-7169.704787	6544.486667	1939.833008	-5.068103
-7169.704787	6544.486667	1938.857422	-88.268921
-7169.704787	6544.486667	1937.881836	73.605843
-7169.704787	6544.486667	1936.906250	149.707001
-7169.704787	6544.486667	1935.930664	159.677032
-7169.704787	6544.486667	1934.955078	-43.375294
-7169.704787	6544.486667	1933.978516	-62.700871
-7169.704787	6544.486667	1933.001953	30.612986
-7169.704787	6544.486667	1932.025391	-5.793835
-7169.704787	6544.486667	1931.048828	-49.498753
-7169.704787	6544.486667	1930.072266	21.828491
-7169.704787	6544.486667	1929.094727	-14.472178
-7169.704787	6544.486667	1928.118164	142.477448
-7169.704787	6544.486667	1927.140625	196.698349
-7169.704787	6544.486667	1926.163086	82.243874
-7169.704787	6544.486667	1925.184570	48.518879
-7169.704787	6544.486667	1924.207031	-90.244293
-7169.704787	6544.486667	1923.228516	-33.461063
-7169.704787	6544.486667	1922.250000	47.759079
-7169.704787	6544.486667	1921.271484	-22.452118
-7169.704787	6544.486667	1920.292969	-53.535690
-7169.704787	6544.486667	1919.314453	44.822193
-7169.704787	6544.486667	1918.334961	-37.469185
-7169.704787	6544.486667	1917.355469	-0.110420
-7169.704787	6544.486667	1916.375977	129.988602
-7169.704787	6544.486667	1915.396484	-144.921844
-7169.704787	6544.486667	1914.416992	-53.814713
-7169.704787	6544.486667	1913.436523	-52.951550
-7169.704787	6544.486667	1912.457031	106.433601
-7169.704787	6544.486667	1911.476563	24.434568
-7169.704787	6544.486667	1910.496094	122.862587
-7169.704787	6544.486667	1909.515625	55.566902
-7169.704787	6544.486667	1908.534180	-160.306305
-7169.704787	6544.486667	1907.552734	-3.356565
-7169.704787	6544.486667	1906.572266	119.464386
-7169.704787	6544.486667	1905.590820	195.995224
-7169.704787	6544.486667	1904.608398	-82.945580
-7169.704787	6544.486667	1903.626953	-72.080994
-7169.704787	6544.486667	1902.644531	-39.294426
-7169.704787	6544.486667	1901.663086	56.772083
-7169.704787	6544.486667	1900.680664	128.494492
-7169.704787	6544.486667	1899.698242	-142.757858
-7169.704787	6544.486667	1898.714844	-75.846008
-7169.704787	6544.486667	1897.732422	-1.641264
-7169.704787	6544.486667	1896.749023	60.399456
-7169.704787	6544.486667	1895.765625	25.213232
-7169.704787	6544.486667	1894.782227	53.243320
-7169.704787	6544.486667	1893.798828	3.532580
-7169.704787	6544.486667	1892.814453	7.300091
-7169.704787	6544.486667	1891.831055	130.096588
-7169.704787	6544.486667	1890.846680	58.596199
-7169.704787	6544.486667	1889.862305	84.254364
-7169.704787	6544.486667	1888.877930	-28.444204
-7169.704787	6544.486667	1887.892578	-39.153927
-7169.704787	6544.486667	1886.908203	3.539967
-7169.704787	6544.486667	1885.922852	-11.995396
-7169.704787	6544.486667	1884.937500	108.322258
-7169.704787	6544.486667	1883.952148	5.494683
-7169.704787	6544.486667	1882.965820	-19.694513
-7169.704787	6544.486667	1881.980469	37.563309
-7169.704787	6544.486667	1880.994141	7.552365
-7169.704787	6544.486667	1880.007813	-63.633934
-7169.704787	6544.486667	1879.021484	-25.755100
-7169.704787	6544.486667	1878.035156	-65.398758
-7169.704787	6544.486667	1877.047852	-10.564968
-7169.704787	6544.486667	1876.061523	-93.769463
-7169.704787	6544.486667	1875.074219	106.326767
-7169.704787	6544.486667	1874.086914	11.038713
-7169.704787	6544.486667	1873.098633	-197.956909
-7169.704787	6544.486667	1872.111328	40.775776
-7169.704787	6544.486667	1871.123047	-18.145891
-7169.704787	6544.486667	1870.135742	-74.622498
-7169.704787	6544.486667	1869.147461	86.572716
-7169.704787	6544.486667	1868.158203	49.440475
-7169.704787	6544.486667	1867.169922	-31.189371
-7169.704787	6544.486667	1866.180664	166.161896
-7169.704787	6544.486667	1865.192383	73.456444
-7169.704787	6544.486667	1864.203125	-24.049652
-7169.704787	6544.486667	1863.213867	-0.740191
-7169.704787	6544.486667	1862.223633	39.460972
-7169.704787	6544.486667	1861.234375	171.404205
-7169.704787	6544.486667	1860.244141	114.979340
-7169.704787	6544.486667	1859.253906	73.053093
-7169.704787	6544.486667	1858.263672	-31.610622
-7169.704787	6544.486667	1857.273438	13.357569
-7169.704787	6544.486667	1856.282227	-103.334373
-7169.704787	6544.486667	1855.291992	-109.037193
-7169.704787	6544.486667	1854.300781	-61.695072
-7169.704787	6544.486667	1853.309570	127.873184
-7169.704787	6544.486667	1852.317383	-0.845180
-7169.704787	6544.486667	1851.326172	116.312836
-7169.704787	6544.486667	1850.333984	115.337555
-7169.704787	6544.486667	1849.342773	215.539993
-7169.704787	6544.486667	1848.350586	349.413849
-7169.704787	6544.486667	1847.357422	129.190781
-7169.704787	6544.486667	1846.365234	135.381638
-7169.704787	6544.486667	1845.372070	71.735878
-7169.704787	6544.486667	1844.379883	53.832748
-7169.704787	6544.486667	1843.386719	242.881653
-7169.704787	6544.486667	1842.393555	133.485367
-7169.704787	6544.486667	1841.399414	158.825836
-7169.704787	6544.486667	1840.406250	-51.569820
-7169.704787	6544.486667	1839.412109	-16.624117
-7169.704787	6544.486667	1838.417969	-29.797197
-7169.704787	6544.486667	1837.423828	-6.929555
-7169.704787	6544.486667	1836.429688	-80.227394
-7169.704787	6544.486667	1835.434570	45.921822
-7169.704787	6544.486667	1834.440430	145.574783
-7169.704787	6544.486667	1833.445313	28.982605
-7169.704787	6544.486667	1832.450195	-80.386002
-7169.704787	6544.486667	1831.454102	95.994057
-7169.704787	6544.486667	1830.458984	8.209447
-7169.704787	6544.486667	1829.462891	105.247452
-7169.704787	6544.486667	1828.466797	70.234146
-7169.704787	6544.486667	1827.470703	107.186043
-7169.704787	6544.486667	1826.474609	-129.373505
-7169.704787	6544.486667	1825.478516	51.450954
-7169.704787	6544.486667	1824.481445	-77.161346
-7169.704787	6544.486667	1823.484375	55.574043
-7169.704787	6544.486667	1822.487305	42.008152
-7169.704787	6544.486667	1821.490234	-0.341974
-7169.704787	6544.486667	1820.493164	153.777054
-7169.704787	6544.486667	1819.495117	80.211868
-7169.704787	6544.486667	1818.498047	109.639740
-7169.704787	6544.486667	1817.500000	45.624519
-7169.704787	6544.486667	1816.500977	10.329703
-7169.704787	6544.486667	1815.502930	221.588043
-7169.704787	6544.486667	1814.504883	23.453186
-7169.704787	6544.486667	1813.505859	100.549934
-7169.704787	6544.486667	1812.506836	-87.989189
-7169.704787	6544.486667	1811.507813	-20.540106
-7169.704787	6544.486667	1810.508789	192.737091
-7169.704787	6544.486667	1809.508789	-110.601257
-7169.704787	6544.486667	1808.508789	-88.722740
-7169.704787	6544.486667	1807.508789	-102.744453
-7169.704787	6544.486667	1806.508789	81.557327
-7169.704787	6544.486667	1805.508789	62.653900
-7169.704787	6544.486667	1804.508789	-63.782730
-7169.704787	6544.486667	1803.507813	96.402252
-7169.704787	6544.486667	1802.506836	-75.446754
-7169.704787	6544.486667	1801.505859	132.352524
-7169.704787	6544.486667	1800.504883	96.546829
-7169.704787	6544.486667	1799.502930	-56.235497
-7169.704787	6544.486667	1798.501953	148.934387
-7169.704787	6544.486667	1797.500000	-51.597641
-7169.704787	6544.486667	1796.498047	-66.041603
-7169.704787	6544.486667	1795.496094	19.642250
-7169.704787	6544.486667	1794.493164	83.789169
-7169.704787	6544.486667	1793.491211	-38.076847
-7169.704787	6544.486667	1792.488281	107.009842
-7169.704787	6544.486667	1791.485352	116.164665
-7169.704787	6544.486667	1790.482422	32.351269
-7169.704787	6544.486667	1789.478516	8.075626
-7169.704787	6544.486667	1788.475586	-78.154404
-7169.704787	6544.486667	1787.471680	28.480967
-7169.704787	6544.486667	1786.467773	-24.480713
-7169.704787	6544.486667	1785.463867	77.254326
-7169.704787	6544.486667	1784.459961	14.694713
-7169.704787	6544.486667	1783.455078	-104.997513
-7169.704787	6544.486667	1782.450195	-43.885170
-7169.704787	6544.486667	1781.445313	-32.791641
-7169.704787	6544.486667	1780.440430	97.157951
-7169.704787	6544.486667	1779.435547	46.311150
-7169.704787	6544.486667	1778.429688	83.390388
-7169.704787	6544.486667	1777.424805	1.577400
-7169.704787	6544.486667	1776.418945	128.858154
-7169.704787	6544.486667	1775.413086	-19.552456
-7169.704787	6544.486667	1774.406250	24.448729
-7169.704787	6544.486667	1773.400391	-36.104614
-7169.704787	6544.486667	1772.393555	-32.575443
-7169.704787	6544.486667	1771.386719	23.135120
-7169.704787	6544.486667	1770.379883	-80.252235
-7169.704787	6544.486667	1769.373047	13.323018
-7169.704787	6544.486667	1768.365234	-59.275406
-7169.704787	6544.486667	1767.358398	8.072681
-7169.704787	6544.486667	1766.350586	-12.411174
-7169.704787	6544.486667	1765.342773	-61.389488
-7169.704787	6544.486667	1764.334961	22.373127
-7169.704787	6544.486667	1763.326172	42.050766
-7169.704787	6544.486667	1762.318359	-23.640202
-7169.704787	6544.486667	1761.309570	-167.550873
-7169.704787	6544.486667	1760.300781	-36.641354
-7169.704787	6544.486667	1759.291016	20.740833
-7169.704787	6544.486667	1758.282227	85.163033
-7169.704787	6544.486667	1757.272461	85.581444
-7169.704787	6544.486667	1756.262695	-22.940372
-7169.704787	6544.486667	1755.252930	185.685593
-7169.704787	6544.486667	1754.243164	55.796375
-7169.704787	6544.486667	1753.233398	39.474167
-7169.704787	6544.486667	1752.222656	53.859486
-7169.704787	6544.486667	1751.211914	4.337430
-7169.704787	6544.486667	1750.201172	23.360315
-7169.704787	6544.486667	1749.190430	-184.623428
-7169.704787	6544.486667	1748.179688	195.979141
-7169.704787	6544.486667	1747.167969	13.941227
-7169.704787	6544.486667	1746.156250	-59.384060
-7169.704787	6544.486667	1745.144531	-24.060959
-7169.704787	6544.486667	1744.132813	51.356071
-7169.704787	6544.486667	1743.121094	-62.212814
-7169.704787	6544.486667	1742.108398	-182.870575
-7169.704787	6544.486667	1741.095703	-79.277496
-7169.704787	6544.486667	1740.083008	36.031502
-7169.704787	6544.486667	1739.070313	-35.155216
-7169.704787	6544.486667	1738.057617	-11.990693
-7169.704787	6544.486667	1737.043945	100.746185
-7169.704787	6544.486667	1736.030273	-41.294102
-7169.704787	6544.486667	1735.016602	189.210037
-7169.704787	6544.486667	1734.002930	23.548950
-7169.704787	6544.486667	1732.989258	39.390926
-7169.704787	6544.486667	1731.974609	107.021385
-7169.704787	6544.486667	1730.959961	132.176971
-7169.704787	6544.486667	1729.945313	-139.517944
-7169.704787	6544.486667	1728.930664	-43.753441
-7169.704787	6544.486667	1727.916016	18.968880
-7169.704787	6544.486667	1726.900391	-24.317652
-7169.704787	6544.486667	1725.885742	-91.158119
-7169.704787	6544.486667	1724.870117	4.358482
-7169.704787	6544.486667	1723.853516	-154.314453
-7169.704787	6544.486667	1722.837891	-89.480553
-7169.704787	6544.486667	1721.822266	-5.893632
-7169.704787	6544.486667	1720.805664	65.859352
-7169.704787	6544.486667	1719.789063	-48.185650
-7169.704787	6544.486667	1718.772461	112.796982
-7169.704787	6544.486667	1717.754883	-99.999504
-7169.704787	6544.486667	1716.738281	161.895126
-7169.704787	6544.486667	1715.720703	-1.566672
-7169.704787	6544.486667	1714.703125	123.901245
-7169.704787	6544.486667	1713.685547	33.237820
-7169.704787	6544.486667	1712.667969	83.448387
-7169.704787	6544.486667	1711.649414	-30.722195
-7169.704787	6544.486667	1710.630859	148.492844
-7169.704787	6544.486667	1709.612305	55.405514
-7169.704787	6544.486667	1708.593750	63.203796
-7169.704787	6544.486667	1707.575195	-93.229004
-7169.704787	6544.486667	1706.555664	83.379196
-7169.704787	6544.486667	1705.536133	-68.378471
-7169.704787	6544.486667	1704.516602	37.766071
-7169.704787	6544.486667	1703.497070	115.713730
-7169.704787	6544.486667	1702.477539	60.026546
-7169.704787	6544.486667	1701.457031	102.729446
-7169.704787	6544.486667	1700.437500	-53.719997
-7169.704787	6544.486667	1699.416992	164.585922
-7169.704787	6544.486667	1698.395508	183.736526
-7169.704787	6544.486667	1697.375000	216.905396
-7169.704787	6544.486667	1696.354492	259.398651
-7169.704787	6544.486667	1695.333008	88.878815
-7169.704787	6544.486667	1694.311523	68.146362
-7169.704787	6544.486667	1693.290039	103.541710
-7169.704787	6544.486667	1692.267578	68.725357
-7169.704787	6544.486667	1691.246094	199.934616
-7169.704787	6544.486667	1690.223633	94.925491
-7169.704787	6544.486667	1689.201172	221.351105
-7169.704787	6544.486667	1688.178711	221.503067
-7169.704787	6544.486667	1687.155273	387.528137
-7169.704787	6544.486667	1686.132813	284.811310
-7169.704787	6544.486667	1685.109375	312.909210
-7169.704787	6544.486667	1684.085938	399.358826
-7169.704787	6544.486667	1683.062500	383.022125
-7169.704787	6544.486667	1682.039063	205.598938
-7169.704787	6544.486667	1681.014648	81.899040
-7169.704787	6544.486667	1679.990234	289.588470
-7169.704787	6544.486667	1678.965820	107.559418
-7169.704787	6544.486667	1677.941406	98.197296
-7169.704787	6544.486667	1676.916992	200.767380
-7169.704787	6544.486667	1675.891602	-51.146194
-7169.704787	6544.486667	1674.866211	9.413706
-7169.704787	6544.486667	1673.840820	-83.897987
-7169.704787	6544.486667	1672.815430	88.475014
-7169.704787	6544.486667	1671.790039	-14.160976
-7169.704787	6544.486667	1670.763672	-175.013840
-7169.704787	6544.486667	1669.737305	-133.190826
-7169.704787	6544.486667	1668.710938	-61.123924
-7169.704787	6544.486667	1667.684570	-5.390608
-7169.704787	6544.486667	1666.658203	61.949223
-7169.704787	6544.486667	1665.630859	-8.058409
-7169.704787	6544.486667	1664.603516	-133.890854
-7169.704787	6544.486667	1663.576172	89.267014
-7169.704787	6544.486667	1662.548828	-73.762878
-7169.704787	6544.486667	1661.520508	21.378965
-7169.704787	6544.486667	1660.493164	-32.313526
-7169.704787	6544.486667	1659.464844	4.660196
-7169.704787	6544.486667	1658.436523	90.420479
-7169.704787	6544.486667	1657.408203	-30.658968
-7169.704787	6544.486667	1656.378906	57.384865
-7169.704787	6544.486667	1655.350586	-82.228493
-7169.704787	6544.486667	1654.321289	-45.303185
-7169.704787	6544.486667	1653.291992	0.894437
-7169.704787	6544.486667	1652.261719	-6.324956
-7169.704787	6544.486667	1651.232422	-76.199860
-7169.704787	6544.486667	1650.202148	-16.105667
-7169.704787	6544.486667	1649.171875	106.607262
-7169.704787	6544.486667	1648.141602	46.028458
-7169.704787	6544.486667	1647.111328	-100.332611
-7169.704787	6544.486667	1646.080078	22.327923
-7169.704787	6544.486667	1645.049805	-198.146469
-7169.704787	6544.486667	1644.018555	-47.691635
-7169.704787	6544.486667	1642.987305	-75.724403
-7169.704787	6544.486667	1641.955078	-143.134201
-7169.704787	6544.486667	1640.923828	-69.199699
-7169.704787	6544.486667	1639.891602	85.765373
-7169.704787	6544.486667	1638.859375	-78.865784
-7169.704787	6544.486667	1637.827148	203.389923
-7169.704787	6544.486667	1636.794922	233.248978
-7169.704787	6544.486667	1635.761719	57.136452
-7169.704787	6544.486667	1634.729492	253.624115
-7169.704787	6544.486667	1633.696289	204.831024
-7169.704787	6544.486667	1632.662109	237.010788
-7169.704787	6544.486667	1631.628906	262.262451
-7169.704787	6544.486667	1630.594727	366.117249
-7169.704787	6544.486667	1629.561523	520.805969
-7169.704787	6544.486667	1628.527344	483.625488
-7169.704787	6544.486667	1627.493164	520.414734
-7169.704787	6544.486667	1626.458008	575.679993
-7169.704787	6544.486667	1625.423828	642.497498
-7169.704787	6544.486667	1624.388672	681.588257
-7169.704787	6544.486667	1623.353516	697.593750
-7169.704787	6544.486667	1622.318359	614.352478
-7169.704787	6544.486667	1621.282227	549.620850
-7169.704787	6544.486667	1620.247070	584.161499
-7169.704787	6544.486667	1619.210938	701.757080
-7169.704787	6544.486667	1618.174805	477.955170
-7169.704787	6544.486667	1617.137695	401.848236
-7169.704787	6544.486667	1616.101563	496.421326
-7169.704787	6544.486667	1615.064453	484.932892
-7169.704787	6544.486667	1614.027344	517.265381
-7169.704787	6544.486667	1612.990234	690.173401
-7169.704787	6544.486667	1611.953125	522.066650
-7169.704787	6544.486667	1610.916016	874.626526
-7169.704787	6544.486667	1609.877930	775.684753
-7169.704787	6544.486667	1608.839844	808.053467
-7169.704787	6544.486667	1607.801758	861.156982
-7169.704787	6544.486667	1606.763672	849.822205
-7169.704787	6544.486667	1605.724609	912.153503
-7169.704787	6544.486667	1604.685547	933.076965
-7169.704787	6544.486667	1603.646484	947.122559
-7169.704787	6544.486667	1602.607422	841.601440
-7169.704787	6544.486667	1601.568359	839.626465
-7169.704787	6544.486667	1600.528320	954.925232
-7169.704787	6544.486667	1599.489258	1113.889038
-7169.704787	6544.486667	1598.449219	838.488281
-7169.704787	6544.486667	1597.408203	1133.027222
-7169.704787	6544.486667	1596.368164	800.370605
-7169.704787	6544.486667	1595.327148	922.620789
-7169.704787	6544.486667	1594.287109	934.644287
-7169.704787	6544.486667	1593.246094	845.679260
-7169.704787	6544.486667	1592.204102	811.867981
-7169.704787	6544.486667	1591.163086	764.345398
-7169.704787	6544.486667	1590.121094	765.056763
-7169.704787	6544.486667	1589.079102	797.923950
-7169.704787	6544.486667	1588.037109	963.843872
-7169.704787	6544.486667	1586.995117	902.722351
-7169.704787	6544.486667	1585.953125	981.516968
-7169.704787	6544.486667	1584.910156	881.523193
-7169.704787	6544.486667	1583.867188	1198.712280
-7169.704787	6544.486667	1582.824219	933.826111
-7169.704787	6544.486667	1581.781250	840.900208
-7169.704787	6544.486667	1580.737305	981.672607
-7169.704787	6544.486667	1579.693359	778.938660
-7169.704787	6544.486667	1578.649414	807.569885
-7169.704787	6544.486667	1577.605469	891.173340
-7169.704787	6544.486667	1576.561523	1091.509277
-7169.704787	6544.486667	1575.516602	1010.361694
-7169.704787	6544.486667	1574.472656	828.638489
-7169.704787	6544.486667	1573.427734	811.712280
-7169.704787	6544.486667	1572.381836	819.990784
-7169.704787	6544.486667	1571.336914	940.352295
-7169.704787	6544.486667	1570.291016	571.520203
-7169.704787	6544.486667	1569.246094	408.580475
-7169.704787	6544.486667	1568.200195	485.678650
-7169.704787	6544.486667	1567.153320	409.725372
-7169.704787	6544.486667	1566.107422	356.698059
-7169.704787	6544.486667	1565.060547	536.674988
-7169.704787	6544.486667	1564.013672	232.585480
-7169.704787	6544.486667	1562.966797	465.124268
-7169.704787	6544.486667	1561.919922	457.978333
-7169.704787	6544.486667	1560.872070	425.782959
-7169.704787	6544.486667	1559.825195	290.992432
-7169.704787	6544.486667	1558.777344	286.321411
-7169.704787	6544.486667	1557.729492	400.296448
-7169.704787	6544.486667	1556.680664	352.389038
-7169.704787	6544.486667	1555.632813	252.128189
-7169.704787	6544.486667	1554.583984	300.106842
-7169.704787	6544.486667	1553.535156	193.166840
-7169.704787	6544.486667	1552.486328	316.435486
-7169.704787	6544.486667	1551.436523	305.315125
-7169.704787	6544.486667	1550.387695	187.220963
-7169.704787	6544.486667	1549.337891	269.600922
-7169.704787	6544.486667	1548.288086	290.540680
-7169.704787	6544.486667	1547.238281	254.628464
-7169.704787	6544.486667	1546.187500	287.054993
-7169.704787	6544.486667	1545.136719	417.359772
-7169.704787	6544.486667	1544.086914	279.259918
-7169.704787	6544.486667	1543.035156	350.500092
-7169.704787	6544.486667	1541.984375	94.344009
-7169.704787	6544.486667	1540.933594	395.330170
-7169.704787	6544.486667	1539.881836	459.869354
-7169.704787	6544.486667	1538.830078	267.653015
-7169.704787	6544.486667	1537.778320	270.970551
-7169.704787	6544.486667	1536.725586	349.308075
-7169.704787	6544.486667	1535.673828	316.394440
-7169.704787	6544.486667	1534.621094	183.642044
-7169.704787	6544.486667	1533.568359	327.975494
-7169.704787	6544.486667	1532.515625	606.234924
-7169.704787	6544.486667	1531.461914	498.653717
-7169.704787	6544.486667	1530.409180	211.938660
-7169.704787	6544.486667	1529.355469	238.446121
-7169.704787	6544.486667	1528.301758	237.790756
-7169.704787	6544.486667	1527.247070	246.268768
-7169.704787	6544.486667	1526.193359	123.318771
-7169.704787	6544.486667	1525.138672	93.412857
-7169.704787	6544.486667	1524.083984	229.017960
-7169.704787	6544.486667	1523.029297	27.036631
-7169.704787	6544.486667	1521.974609	298.653625
-7169.704787	6544.486667	1520.918945	110.457458
-7169.704787	6544.486667	1519.863281	173.752701
-7169.704787	6544.486667	1518.807617	10.692818
-7169.704787	6544.486667	1517.751953	-156.762039
-7169.704787	6544.486667	1516.696289	-41.198627
-7169.704787	6544.486667	1515.639648	47.233574
-7169.704787	6544.486667	1514.583008	147.008682
-7169.704787	6544.486667	1513.526367	97.537994
-7169.704787	6544.486667	1512.469727	86.596046
-7169.704787	6544.486667	1511.412109	157.116592
-7169.704787	6544.486667	1510.355469	-115.902191
-7169.704787	6544.486667	1509.297852	-4.553810
-7169.704787	6544.486667	1508.240234	-153.022751
-7169.704787	6544.486667	1507.181641	-57.388714
-7169.704787	6544.486667	1506.124023	115.070549
-7169.704787	6544.486667	1505.065430	100.102852
-7169.704787	6544.486667	1504.006836	21.994110
-7169.704787	6544.486667	1502.948242	81.678978
-7169.704787	6544.486667	1501.888672	159.463821
-7169.704787	6544.486667	1500.830078	300.465668
-7169.704787	6544.486667	1499.770508	425.689819
-7169.704787	6544.486667	1498.710938	546.422791
-7169.704787	6544.486667	1497.650391	374.024902
-7169.704787	6544.486667	1496.590820	456.532593
-7169.704787	6544.486667	1495.530273	525.553162
-7169.704787	6544.486667	1494.469727	466.156097
-7169.704787	6544.486667	1493.409180	267.152924
-7169.704787	6544.486667	1492.348633	489.570068
-7169.704787	6544.486667	1491.287109	466.464417
-7169.704787	6544.486667	1490.225586	443.437408
-7169.704787	6544.486667	1489.164063	449.760498
-7169.704787	6544.486667	1488.102539	555.194397
-7169.704787	6544.486667	1487.041016	419.849548
-7169.704787	6544.486667	1485.978516	329.630737
-7169.704787	6544.486667	1484.916016	473.544342
-7169.704787	6544.486667	1483.853516	383.434052
-7169.704787	6544.486667	1482.791016	291.248047
-7169.704787	6544.486667	1481.727539	363.308502
-7169.704787	6544.486667	1480.664063	370.226898
-7169.704787	6544.486667	1479.600586	356.985596
-7169.704787	6544.486667	1478.537109	316.886292
-7169.704787	6544.486667	1477.473633	436.367371
-7169.704787	6544.486667	1476.409180	376.141907
-7169.704787	6544.486667	1475.344727	589.908936
-7169.704787	6544.486667	1474.280273	251.568726
-7169.704787	6544.486667	1473.215820	279.133881
-7169.704787	6544.486667	1472.151367	358.403168
-7169.704787	6544.486667	1471.085938	217.938538
-7169.704787	6544.486667	1470.020508	431.855682
-7169.704787	6544.486667	1468.955078	125.724739
-7169.704787	6544.486667	1467.888672	281.404785
-7169.704787	6544.486667	1466.823242	278.039734
-7169.704787	6544.486667	1465.756836	135.926941
-7169.704787	6544.486667	1464.690430	25.471748
-7169.704787	6544.486667	1463.624023	255.027512
-7169.704787	6544.486667	1462.556641	471.525848
-7169.704787	6544.486667	1461.490234	247.520126
-7169.704787	6544.486667	1460.422852	473.274170
-7169.704787	6544.486667	1459.355469	651.197815
-7169.704787	6544.486667	1458.287109	776.385071
-7169.704787	6544.486667	1457.219727	626.525452
-7169.704787	6544.486667	1456.151367	767.131287
-7169.704787	6544.486667	1455.083008	747.205933
-7169.704787	6544.486667	1454.014648	740.635010
-7169.704787	6544.486667	1452.945313	1032.815308
-7169.704787	6544.486667	1451.876953	752.446716
-7169.704787	6544.486667	1450.807617	736.477539
-7169.704787	6544.486667	1449.738281	824.335632
-7169.704787	6544.486667	1448.668945	669.771790
-7169.704787	6544.486667	1447.598633	385.250580
-7169.704787	6544.486667	1446.528320	579.855896
-7169.704787	6544.486667	1445.458008	331.031830
-7169.704787	6544.486667	1444.387695	451.921692
-7169.704787	6544.486667	1443.317383	325.763489
-7169.704787	6544.486667	1442.246094	187.188187
-7169.704787	6544.486667	1441.174805	128.635727
-7169.704787	6544.486667	1440.103516	1.594129
-7169.704787	6544.486667	1439.032227	223.074844
-7169.704787	6544.486667	1437.960938	-16.332561
-7169.704787	6544.486667	1436.888672	49.751179
-7169.704787	6544.486667	1435.816406	-2.893494
-7169.704787	6544.486667	1434.744141	-59.748310
-7169.704787	6544.486667	1433.670898	-32.696537
-7169.704787	6544.486667	1432.598633	-76.662903
-7169.704787	6544.486667	1431.525391	89.852036
-7169.704787	6544.486667	1430.452148	4.559054
-7169.704787	6544.486667	1429.378906	-48.386879
-7169.704787	6544.486667	1428.304688	15.307023
-7169.704787	6544.486667	1427.231445	40.150967
-7169.704787	6544.486667	1426.157227	149.340271
-7169.704787	6544.486667	1425.083008	22.458435
-7169.704787	6544.486667	1424.007813	85.315079
-7169.704787	6544.486667	1422.933594	-70.166992
-7169.704787	6544.486667	1421.858398	142.208969
-7169.704787	6544.486667	1420.783203	49.820152
-7169.704787	6544.486667	1419.708008	47.453335
-7169.704787	6544.486667	1418.631836	-70.412689
-7169.704787	6544.486667	1417.555664	-84.660637
-7169.704787	6544.486667	1416.479492	-14.408076
-7169.704787	6544.486667	1415.403320	28.229401
-7169.704787	6544.486667	1414.327148	-87.469284
-7169.704787	6544.486667	1413.250000	-114.786797
-7169.704787	6544.486667	1412.173828	-145.864929
-7169.704787	6544.486667	1411.096680	10.206973
-7169.704787	6544.486667	1410.018555	8.703109
-7169.704787	6544.486667	1408.941406	113.932526
-7169.704787	6544.486667	1407.863281	79.364784
-7169.704787	6544.486667	1406.785156	36.267956
-7169.704787	6544.486667	1405.707031	3.002967
-7169.704787	6544.486667	1404.628906	266.608459
-7169.704787	6544.486667	1403.549805	75.591293
-7169.704787	6544.486667	1402.470703	203.739792
-7169.704787	6544.486667	1401.391602	253.824051
-7169.704787	6544.486667	1400.312500	192.259689
-7169.704787	6544.486667	1399.233398	190.354843
-7169.704787	6544.486667	1398.153320	103.028717
-7169.704787	6544.486667	1397.073242	306.350616
-7169.704787	6544.486667	1395.993164	140.641418
-7169.704787	6544.486667	1394.913086	64.009079
-7169.704787	6544.486667	1393.832031	189.499893
-7169.704787	6544.486667	1392.750977	249.637115
-7169.704787	6544.486667	1391.669922	480.702484
-7169.704787	6544.486667	1390.588867	276.231750
-7169.704787	6544.486667	1389.506836	329.393402
-7169.704787	6544.486667	1388.425781	283.080536
-7169.704787	6544.486667	1387.343750	470.539856
-7169.704787	6544.486667	1386.261719	402.292389
-7169.704787	6544.486667	1385.178711	457.004883
-7169.704787	6544.486667	1384.096680	547.445984
-7169.704787	6544.486667	1383.013672	414.621613
-7169.704787	6544.486667	1381.930664	653.173645
-7169.704787	6544.486667	1380.846680	417.442810
-7169.704787	6544.486667	1379.763672	451.605652
-7169.704787	6544.486667	1378.679688	329.063873
-7169.704787	6544.486667	1377.595703	526.401550
-7169.704787	6544.486667	1376.511719	216.049911
-7169.704787	6544.486667	1375.427734	292.865845
-7169.704787	6544.486667	1374.342773	341.843689
-7169.704787	6544.486667	1373.257813	272.015533
-7169.704787	6544.486667	1372.172852	244.858521
-7169.704787	6544.486667	1371.087891	226.245148
-7169.704787	6544.486667	1370.001953	281.090790
-7169.704787	6544.486667	1368.916992	290.046722
-7169.704787	6544.486667	1367.831055	239.861160
-7169.704787	6544.486667	1366.744141	278.048340
-7169.704787	6544.486667	1365.658203	278.254486
-7169.704787	6544.486667	1364.571289	322.496490
-7169.704787	6544.486667	1363.484375	531.139221
-7169.704787	6544.486667	1362.397461	377.189026
-7169.704787	6544.486667	1361.310547	425.954956
-7169.704787	6544.486667	1360.222656	456.612396
-7169.704787	6544.486667	1359.135742	313.527863
-7169.704787	6544.486667	1358.047852	385.541901
-7169.704787	6544.486667	1356.958984	222.676605
-7169.704787	6544.486667	1355.871094	183.975983
-7169.704787	6544.486667	1354.782227	162.267120
-7169.704787	6544.486667	1353.693359	243.593262
-7169.704787	6544.486667	1352.604492	200.044708
-7169.704787	6544.486667	1351.515625	64.146347
-7169.704787	6544.486667	1350.425781	225.396118
-7169.704787	6544.486667	1349.335938	147.064636
-7169.704787	6544.486667	1348.246094	-23.254835
-7169.704787	6544.486667	1347.156250	159.986984
-7169.704787	6544.486667	1346.066406	130.086441
-7169.704787	6544.486667	1344.975586	188.331696
-7169.704787	6544.486667	1343.884766	305.685577
-7169.704787	6544.486667	1342.793945	101.528458
-7169.704787	6544.486667	1341.702148	187.349686
-7169.704787	6544.486667	1340.611328	328.502014
-7169.704787	6544.486667	1339.519531	225.670807
-7169.704787	6544.486667	1338.427734	182.428131
-7169.704787	6544.486667	1337.334961	374.243927
-7169.704787	6544.486667	1336.243164	242.848709
-7169.704787	6544.486667	1335.150391	314.711182
-7169.704787	6544.486667	1334.057617	214.821304
-7169.704787	6544.486667	1332.964844	294.221558
-7169.704787	6544.486667	1331.871094	357.552917
-7169.704787	6544.486667	1330.778320	146.845367
-7169.704787	6544.486667	1329.684570	296.417542
-7169.704787	6544.486667	1328.590820	383.277802
-7169.704787	6544.486667	1327.496094	432.382690
-7169.704787	6544.486667	1326.402344	475.633087
-7169.704787	6544.486667	1325.307617	485.480621
-7169.704787	6544.486667	1324.212891	449.349609
-7169.704787	6544.486667	1323.117188	531.045227
-7169.704787	6544.486667	1322.022461	516.828674
-7169.704787	6544.486667	1320.926758	450.192688
-7169.704787	6544.486667	1319.831055	341.206970
-7169.704787	6544.486667	1318.735352	254.521469
-7169.704787	6544.486667	1317.638672	357.968781
-7169.704787	6544.486667	1316.542969	163.381180
-7169.704787	6544.486667	1315.446289	357.591461
-7169.704787	6544.486667	1314.349609	125.985664
-7169.704787	6544.486667	1313.251953	210.156281
-7169.704787	6544.486667	1312.155273	166.398346
-7169.704787	6544.486667	1311.057617	254.747879
-7169.704787	6544.486667	1309.959961	76.863365
-7169.704787	6544.486667	1308.862305	-36.734203
-7169.704787	6544.486667	1307.763672	61.986179
-7169.704787	6544.486667	1306.665039	66.939804
-7169.704787	6544.486667	1305.566406	80.089066
-7169.704787	6544.486667	1304.467773	95.220589
-7169.704787	6544.486667	1303.369141	10.487202
-7169.704787	6544.486667	1302.269531	39.797890
-7169.704787	6544.486667	1301.169922	117.588417
-7169.704787	6544.486667	1300.070313	83.962776
-7169.704787	6544.486667	1298.970703	42.683197
-7169.704787	6544.486667	1297.870117	65.037605
-7169.704787	6544.486667	1296.769531	78.523247
-7169.704787	6544.486667	1295.668945	218.548828
-7169.704787	6544.486667	1294.568359	160.057236
-7169.704787	6544.486667	1293.466797	-13.133295
-7169.704787	6544.486667	1292.366211	100.651833
-7169.704787	6544.486667	1291.264648	24.487097
-7169.704787	6544.486667	1290.162109	174.432602
-7169.704787	6544.486667	1289.060547	93.731239
-7169.704787	6544.486667	1287.958008	-35.549278
-7169.704787	6544.486667	1286.855469	108.040382
-7169.704787	6544.486667	1285.752930	22.252703
-7169.704787	6544.486667	1284.650391	110.671196
-7169.704787	6544.486667	1283.546875	151.636642
-7169.704787	6544.486667	1282.444336	146.845047
-7169.704787	6544.486667	1281.339844	150.451462
-7169.704787	6544.486667	1280.236328	147.307755
-7169.704787	6544.486667	1279.132813	113.537888
-7169.704787	6544.486667	1278.028320	157.637939
-7169.704787	6544.486667	1276.923828	60.079716
-7169.704787	6544.486667	1275.819336	4.381319
-7169.704787	6544.486667	1274.713867	11.392345
-7169.704787	6544.486667	1273.608398	-60.586296
-7169.704787	6544.486667	1272.503906	-41.378696
-7169.704787	6544.486667	1271.397461	-21.247711
-7169.704787	6544.486667	1270.291992	24.315733
-7169.704787	6544.486667	1269.185547	92.596214
-7169.704787	6544.486667	1268.080078	-136.980743
-7169.704787	6544.486667	1266.972656	-7.427032
-7169.704787	6544.486667	1265.866211	-147.684723
-7169.704787	6544.486667	1264.759766	-0.369047
-7169.704787	6544.486667	1263.652344	-69.072800
-7169.704787	6544.486667	1262.544922	-61.005760
-7169.704787	6544.486667	1261.436523	-88.353508
-7169.704787	6544.486667	1260.329102	-68.199234
-7169.704787	6544.486667	1259.220703	14.756254
-7169.704787	6544.486667	1258.112305	30.775848
-7169.704787	6544.486667	1257.003906	-143.861542
-7169.704787	6544.486667	1255.895508	-154.723694
-7169.704787	6544.486667	1254.786133	-119.058670
-7169.704787	6544.486667	1253.676758	-140.305710
-7169.704787	6544.486667	1252.567383	-222.433914
-7169.704787	6544.486667	1251.458008	-73.104820
-7169.704787	6544.486667	1250.347656	-222.922958
-7169.704787	6544.486667	1249.237305	-66.305031
-7169.704787	6544.486667	1248.126953	-205.201614
-7169.704787	6544.486667	1247.016602	-8.288843
-7169.704787	6544.486667	1245.905273	-241.882217
-7169.704787	6544.486667	1244.793945	-90.494118
-7169.704787	6544.486667	1243.682617	-200.223526
-7169.704787	6544.486667	1242.571289	-165.556137
-7169.704787	6544.486667	1241.459961	-63.906349
-7169.704787	6544.486667	1240.347656	-70.785995
-7169.704787	6544.486667	1239.235352	-62.138039
-7169.704787	6544.486667	1238.123047	-75.478447
-7169.704787	6544.486667	1237.009766	-34.958710
-7169.704787	6544.486667	1235.897461	10.398953
-7169.704787	6544.486667	1234.784180	-32.729610
-7169.704787	6544.486667	1233.670898	3.206841
-7169.704787	6544.486667	1232.556641	-106.983261
-7169.704787	6544.486667	1231.443359	-18.602299
-7169.704787	6544.486667	1230.329102	-106.017479
-7169.704787	6544.486667	1229.214844	6.385990
-7169.704787	6544.486667	1228.099609	-17.814957
-7169.704787	6544.486667	1226.985352	-7.523156
-7169.704787	6544.486667	1225.870117	-39.365677
-7169.704787	6544.486667	1224.754883	-67.836067
-7169.704787	6544.486667	1223.639648	-138.126984
-7169.704787	6544.486667	1222.523438	-6.817794
-7169.704787	6544.486667	1221.408203	-99.604141
-7169.704787	6544.486667	1220.291992	8.533267
-7169.704787	6544.486667	1219.174805	14.857785
-7169.704787	6544.486667	1218.058594	-77.434525
-7169.704787	6544.486667	1216.941406	60.000736
-7169.704787	6544.486667	1215.824219	82.282478
-7169.704787	6544.486667	1214.707031	90.857719
-7169.704787	6544.486667	1213.589844	-4.841168
-7169.704787	6544.486667	1212.471680	73.194229
-7169.704787	6544.486667	1211.353516	166.645416
-7169.704787	6544.486667	1210.235352	164.625427
-7169.704787	6544.486667	1209.117188	20.506096
-7169.704787	6544.486667	1207.998047	160.719635
-7169.704787	6544.486667	1206.878906	85.150734
-7169.704787	6544.486667	1205.759766	84.274773
-7169.704787	6544.486667	1204.640625	-27.221956
-7169.704787	6544.486667	1203.520508	30.158127
-7169.704787	6544.486667	1202.401367	162.076462
-7169.704787	6544.486667	1201.281250	124.663147
-7169.704787	6544.486667	1200.160156	21.506804
-7169.704787	6544.486667	1199.040039	146.680130
-7169.704787	6544.486667	1197.918945	124.530891
-7169.704787	6544.486667	1196.797852	195.892242
-7169.704787	6544.486667	1195.676758	223.539383
-7169.704787	6544.486667	1194.555664	249.847153
-7169.704787	6544.486667	1193.433594	168.223129
-7169.704787	6544.486667	1192.311523	150.328674
-7169.704787	6544.486667	1191.189453	187.511276
-7169.704787	6544.486667	1190.066406	33.126717
-7169.704787	6544.486667	1188.944336	161.820358
-7169.704787	6544.486667	1187.821289	200.394745
-7169.704787	6544.486667	1186.698242	5.813100
-7169.704787	6544.486667	1185.574219	86.113762
-7169.704787	6544.486667	1184.451172	-46.695419
-7169.704787	6544.486667	1183.327148	20.727972
-7169.704787	6544.486667	1182.203125	120.603142
-7169.704787	6544.486667	1181.078125	136.139252
-7169.704787	6544.486667	1179.954102	59.661709
-7169.704787	6544.486667	1178.829102	-1.716706
-7169.704787	6544.486667	1177.704102	-65.253250
-7169.704787	6544.486667	1176.579102	123.471886
-7169.704787	6544.486667	1175.453125	50.402142
-7169.704787	6544.486667	1174.327148	-64.391533
-7169.704787	6544.486667	1173.201172	56.975533
-7169.704787	6544.486667	1172.075195	69.428040
-7169.704787	6544.486667	1170.949219	105.904381
-7169.704787	6544.486667	1169.822266	72.705322
-7169.704787	6544.486667	1168.695313	156.245697
-7169.704787	6544.486667	1167.568359	220.425812
-7169.704787	6544.486667	1166.440430	184.879395
-7169.704787	6544.486667	1165.313477	107.274307
-7169.704787	6544.486667	1164.185547	232.884872
-7169.704787	6544.486667	1163.057617	101.284279
-7169.704787	6544.486667	1161.928711	91.580772
-7169.704787	6544.486667	1160.800781	5.746114
-7169.704787	6544.486667	1159.671875	52.739056
-7169.704787	6544.486667	1158.541992	125.384674
-7169.704787	6544.486667	1157.413086	56.190521
-7169.704787	6544.486667	1156.283203	-50.434578
-7169.704787	6544.486667	1155.154297	-31.393129
-7169.704787	6544.486667	1154.023438	172.726776
-7169.704787	6544.486667	1152.893555	140.031235
-7169.704787	6544.486667	1151.763672	-15.397486
-7169.704787	6544.486667	1150.632813	130.897324
-7169.704787	6544.486667	1149.501953	108.339241
-7169.704787	6544.486667	1148.370117	182.351242
-7169.704787	6544.486667	1147.239258	121.409103
-7169.704787	6544.486667	1146.107422	26.068722
-7169.704787	6544.486667	1144.975586	55.328979
-7169.704787	6544.486667	1143.843750	79.855415
-7169.704787	6544.486667	1142.710938	-57.405674
-7169.704787	6544.486667	1141.578125	60.513924
-7169.704787	6544.486667	1140.445313	92.522423
-7169.704787	6544.486667	1139.312500	-26.050560
-7169.704787	6544.486667	1138.178711	4.818820
-7169.704787	6544.486667	1137.045898	13.861697
-7169.704787	6544.486667	1135.912109	53.397236
-7169.704787	6544.486667	1134.777344	166.688095
-7169.704787	6544.486667	1133.643555	35.830772
-7169.704787	6544.486667	1132.508789	112.955360
-7169.704787	6544.486667	1131.374023	36.351589
-7169.704787	6544.486667	1130.239258	114.628883
-7169.704787	6544.486667	1129.104492	202.657898
-7169.704787	6544.486667	1127.968750	200.169342
-7169.704787	6544.486667	1126.833008	16.119558
-7169.704787	6544.486667	1125.697266	301.255707
-7169.704787	6544.486667	1124.560547	295.134064
-7169.704787	6544.486667	1123.424805	276.235443
-7169.704787	6544.486667	1122.288086	368.831573
-7169.704787	6544.486667	1121.151367	340.534760
-7169.704787	6544.486667	1120.013672	425.350891
-7169.704787	6544.486667	1118.876953	358.130585
-7169.704787	6544.486667	1117.739258	636.217712
-7169.704787	6544.486667	1116.601563	528.937500
-7169.704787	6544.486667	1115.462891	583.265564
-7169.704787	6544.486667	1114.324219	609.740112
-7169.704787	6544.486667	1113.186523	557.457031
-7169.704787	6544.486667	1112.046875	762.200256
-7169.704787	6544.486667	1110.908203	828.240723
-7169.704787	6544.486667	1109.769531	790.760071
-7169.704787	6544.486667	1108.629883	861.629272
-7169.704787	6544.486667	1107.490234	854.082031
-7169.704787	6544.486667	1106.349609	927.538147
-7169.704787	6544.486667	1105.209961	1061.236328
-7169.704787	6544.486667	1104.069336	1053.380493
-7169.704787	6544.486667	1102.928711	1061.345825
-7169.704787	6544.486667	1101.787109	866.157593
-7169.704787	6544.486667	1100.646484	848.147583
-7169.704787	6544.486667	1099.504883	863.003723
-7169.704787	6544.486667	1098.363281	586.873901
-7169.704787	6544.486667	1097.221680	405.718231
-7169.704787	6544.486667	1096.079102	456.897736
-7169.704787	6544.486667	1094.936523	427.435394
-7169.704787	6544.486667	1093.793945	510.659485
-7169.704787	6544.486667	1092.651367	506.668732
-7169.704787	6544.486667	1091.507813	384.880280
-7169.704787	6544.486667	1090.364258	531.837219
-7169.704787	6544.486667	1089.220703	406.265747
-7169.704787	6544.486667	1088.077148	509.052246
-7169.704787	6544.486667	1086.933594	424.629486
-7169.704787	6544.486667	1085.789063	475.631775
-7169.704787	6544.486667	1084.644531	639.373291
-7169.704787	6544.486667	1083.499023	634.073303
-7169.704787	6544.486667	1082.354492	466.682404
-7169.704787	6544.486667	1081.208984	486.599884
-7169.704787	6544.486667	1080.063477	541.272827
-7169.704787	6544.486667	1078.917969	306.236023
-7169.704787	6544.486667	1077.771484	330.367859
-7169.704787	6544.486667	1076.625977	350.004395
-7169.704787	6544.486667	1075.479492	252.371338
-7169.704787	6544.486667	1074.332031	339.032776
-7169.704787	6544.486667	1073.185547	300.651611
-7169.704787	6544.486667	1072.038086	357.059387
-7169.704787	6544.486667	1070.890625	675.197510
-7169.704787	6544.486667	1069.743164	644.679871
-7169.704787	6544.486667	1068.594727	544.592285
-7169.704787	6544.486667	1067.447266	878.552795
-7169.704787	6544.486667	1066.298828	612.052063
-7169.704787	6544.486667	1065.149414	691.136047
-7169.704787	6544.486667	1064.000977	703.817566
-7169.704787	6544.486667	1062.851563	754.358582
-7169.704787	6544.486667	1061.702148	715.131287
-7169.704787	6544.486667	1060.552734	504.436157
-7169.704787	6544.486667	1059.402344	333.628784
-7169.704787	6544.486667	1058.252930	250.311066
-7169.704787	6544.486667	1057.102539	386.903900
-7169.704787	6544.486667	1055.951172	146.352737
-7169.704787	6544.486667	1054.800781	381.007141
-7169.704787	6544.486667	1053.649414	206.917801
-7169.704787	6544.486667	1052.498047	337.109436
-7169.704787	6544.486667	1051.346680	98.291725
-7169.704787	6544.486667	1050.194336	70.044739
-7169.704787	6544.486667	1049.042969	65.393448
-7169.704787	6544.486667	1047.890625	184.462662
-7169.704787	6544.486667	1046.738281	261.231750
-7169.704787	6544.486667	1045.584961	80.686005
-7169.704787	6544.486667	1044.431641	-7.697093
-7169.704787	6544.486667	1043.278320	81.025520
-7169.704787	6544.486667	1042.125000	147.719269
-7169.704787	6544.486667	1040.971680	153.781830
-7169.704787	6544.486667	1039.817383	113.816063
-7169.704787	6544.486667	1038.663086	2.702860
-7169.704787	6544.486667	1037.508789	63.360867
-7169.704787	6544.486667	1036.353516	-46.497196
-7169.704787	6544.486667	1035.198242	33.704403
-7169.704787	6544.486667	1034.042969	287.328644
-7169.704787	6544.486667	1032.887695	49.726826
-7169.704787	6544.486667	1031.732422	375.220886
-7169.704787	6544.486667	1030.576172	76.579170
-7169.704787	6544.486667	1029.419922	37.407249
-7169.704787	6544.486667	1028.263672	232.903564
-7169.704787	6544.486667	1027.106445	167.085907
-7169.704787	6544.486667	1025.949219	104.113121
-7169.704787	6544.486667	1024.792969	-68.146423
-7169.704787	6544.486667	1023.634766	94.849915
-7169.704787	6544.486667	1022.477539	74.539383
-7169.704787	6544.486667	1021.319336	35.662838
-7169.704787	6544.486667	1020.161133	112.049103
-7169.704787	6544.486667	1019.002930	28.802380
-7169.704787	6544.486667	1017.843750	205.677170
-7169.704787	6544.486667	1016.684570	-128.293549
-7169.704787	6544.486667	1015.525391	10.591093
-7169.704787	6544.486667	1014.366211	-95.867943
-7169.704787	6544.486667	1013.207031	-145.211472
-7169.704787	6544.486667	1012.046875	-21.806635
-7169.704787	6544.486667	1010.886719	58.019241
-7169.704787	6544.486667	1009.726563	-68.472435
-7169.704787	6544.486667	1008.565430	-17.020397
-7169.704787	6544.486667	1007.404297	-101.983215
-7169.704787	6544.486667	1006.243164	-167.178574
-7169.704787	6544.486667	1005.082031	-155.061859
-7169.704787	6544.486667	1003.920898	-174.049866
-7169.704787	6544.486667	1002.758789	19.545345
-7169.704787	6544.486667	1001.596680	114.586464
-7169.704787	6544.486667	1000.433594	11.291206
-7169.704787	6544.486667	999.271484	-6.734823
-7169.704787	6544.486667	998.108398	17.516882
-7169.704787	6544.486667	996.945313	80.390472
-7169.704787	6544.486667	995.782227	-47.533321
-7169.704787	6544.486667	994.618164	39.171684
-7169.704787	6544.486667	993.454102	-134.709915
-7169.704787	6544.486667	992.290039	39.446568
-7169.704787	6544.486667	991.125977	26.444023
-7169.704787	6544.486667	989.960938	45.007427
-7169.704787	6544.486667	988.796875	-127.823418
-7169.704787	6544.486667	987.630859	-47.263607
-7169.704787	6544.486667	986.465820	-74.998604
-7169.704787	6544.486667	985.300781	75.559837
-7169.704787	6544.486667	984.134766	43.036045
-7169.704787	6544.486667	982.968750	29.776688
-7169.704787	6544.486667	981.801758	-96.569504
-7169.704787	6544.486667	980.635742	-32.417709
-7169.704787	6544.486667	979.468750	-81.035568
-7169.704787	6544.486667	978.301758	-75.749733
-7169.704787	6544.486667	977.133789	-141.484756
-7169.704787	6544.486667	975.966797	-2.147943
-7169.704787	6544.486667	974.798828	-8.280443
-7169.704787	6544.486667	973.630859	32.861908
-7169.704787	6544.486667	972.461914	110.685104
-7169.704787	6544.486667	971.293945	43.840942
-7169.704787	6544.486667	970.125000	113.549950
-7169.704787	6544.486667	968.956055	45.277496
-7169.704787	6544.486667	967.786133	85.672218
-7169.704787	6544.486667	966.617188	-2.732706
-7169.704787	6544.486667	965.447266	15.214842
-7169.704787	6544.486667	964.276367	82.587234
-7169.704787	6544.486667	963.106445	-70.169739
-7169.704787	6544.486667	961.935547	93.617012
-7169.704787	6544.486667	960.764648	70.102814
-7169.704787	6544.486667	959.593750	69.371750
-7169.704787	6544.486667	958.422852	81.337021
-7169.704787	6544.486667	957.250977	-64.052010
-7169.704787	6544.486667	956.079102	-38.304081
-7169.704787	6544.486667	954.907227	39.092632
-7169.704787	6544.486667	953.734375	34.076233
-7169.704787	6544.486667	952.562500	17.294718
-7169.704787	6544.486667	951.389648	-35.298164
-7169.704787	6544.486667	950.215820	18.600389
-7169.704787	6544.486667	949.042969	-241.714630
-7169.704787	6544.486667	947.869141	35.646042
-7169.704787	6544.486667	946.695313	-19.490387
-7169.704787	6544.486667	945.521484	21.573433
-7169.704787	6544.486667	944.346680	-10.137042
-7169.704787	6544.486667	943.172852	4.900734
-7169.704787	6544.486667	941.998047	100.688278
-7169.704787	6544.486667	940.822266	47.806198
-7169.704787	6544.486667	939.647461	-90.799103
-7169.704787	6544.486667	938.471680	-138.128586
-7169.704787	6544.486667	937.295898	-76.478081
-7169.704787	6544.486667	936.119141	74.067482
-7169.704787	6544.486667	934.943359	94.301659
-7169.704787	6544.486667	933.766602	158.653152
-7169.704787	6544.486667	932.589844	22.734837
-7169.704787	6544.486667	931.413086	40.361195
-7169.704787	6544.486667	930.235352	57.920406
-7169.704787	6544.486667	929.057617	85.880318
-7169.704787	6544.486667	927.879883	80.060310
-7169.704787	6544.486667	926.702148	180.816833
-7169.704787	6544.486667	925.523438	-9.581564
-7169.704787	6544.486667	924.344727	109.341736
-7169.704787	6544.486667	923.166016	20.379248
-7169.704787	6544.486667	921.987305	79.509003
-7169.704787	6544.486667	920.807617	55.508781
-7169.704787	6544.486667	919.627930	58.958248
-7169.704787	6544.486667	919.497070	50.076733
-7169.704787	6544.486667	918.331055	-90.775360
-7169.704787	6544.486667	917.165039	-65.454536
-7169.704787	6544.486667	915.999023	-21.980806
-7169.704787	6544.486667	914.833008	29.256655
-7169.704787	6544.486667	913.666016	18.216743
-7169.704787	6544.486667	912.499023	56.455193
-7169.704787	6544.486667	911.332031	151.721024
-7169.704787	6544.486667	910.165039	-82.294395
-7169.704787	6544.486667	908.997070	-155.515976
-7169.704787	6544.486667	907.830078	-42.133476
-7169.704787	6544.486667	906.661133	-11.701443
-7169.704787	6544.486667	905.493164	-51.226429
-7169.704787	6544.486667	904.325195	7.674734
-7169.704787	6544.486667	903.156250	-86.215881
-7169.704787	6544.486667	901.987305	71.038322
-7169.704787	6544.486667	900.818359	18.578901
-7169.704787	6544.486667	899.648438	95.525803
-7169.704787	6544.486667	898.478516	56.016312
-7169.704787	6544.486667	897.308594	-76.599533
-7169.704787	6544.486667	896.138672	20.999500
-7169.704787	6544.486667	894.968750	-129.660278
-7169.704787	6544.486667	893.797852	11.852586
-7169.704787	6544.486667	892.626953	-136.163025
-7169.704787	6544.486667	891.456055	-12.801416
-7169.704787	6544.486667	890.284180	-5.746886
-7169.704787	6544.486667	889.113281	153.692200
-7169.704787	6544.486667	887.941406	8.339663
-7169.704787	6544.486667	886.768555	-25.932503
-7169.704787	6544.486667	885.596680	32.731403
-7169.704787	6544.486667	884.423828	73.305092
-7169.704787	6544.486667	883.250977	44.189507
-7169.704787	6544.486667	882.078125	89.895302
-7169.704787	6544.486667	880.905273	-78.499489
-7169.704787	6544.486667	879.731445	-104.996620
-7169.704787	6544.486667	878.557617	-82.501778
-7169.704787	6544.486667	877.383789	-152.816818
-7169.704787	6544.486667	876.209961	52.647003
-7169.704787	6544.486667	875.035156	-123.314720
-7169.704787	6544.486667	873.860352	-39.023678
-7169.704787	6544.486667	872.685547	1.442854
-7169.704787	6544.486667	871.510742	-14.762408
-7169.704787	6544.486667	870.334961	-92.751625
-7169.704787	6544.486667	869.159180	-93.494934
-7169.704787	6544.486667	867.983398	-179.167740
-7169.704787	6544.486667	866.807617	-15.236504
-7169.704787	6544.486667	865.630859	17.432201
-7169.704787	6544.486667	864.454102	19.218838
-7169.704787	6544.486667	863.277344	8.142304
-7169.704787	6544.486667	862.100586	-121.193047
-7169.704787	6544.486667	860.922852	-6.301789
-7169.704787	6544.486667	859.745117	-158.719467
-7169.704787	6544.486667	858.567383	25.488844
-7169.704787	6544.486667	857.389648	81.179413
-7169.704787	6544.486667	856.210938	188.206787
-7169.704787	6544.486667	855.032227	164.232697
-7169.704787	6544.486667	853.853516	91.485504
-7169.704787	6544.486667	852.674805	-76.203415
-7169.704787	6544.486667	851.495117	82.062904
-7169.704787	6544.486667	850.315430	65.799744
-7169.704787	6544.486667	849.135742	-158.231842
-7169.704787	6544.486667	847.956055	-10.327450
-7169.704787	6544.486667	846.775391	-52.223427
-7169.704787	6544.486667	845.595703	-12.083339
-7169.704787	6544.486667	844.415039	-123.177109
-7169.704787	6544.486667	843.233398	45.068291
-7169.704787	6544.486667	842.052734	-117.246986
-7169.704787	6544.486667	840.871094	-79.718590
-7169.704787	6544.486667	839.689453	-72.944023
-7169.704787	6544.486667	838.506836	128.401337
-7169.704787	6544.486667	837.325195	19.921583
-7169.704787	6544.486667	836.142578	-29.659185
-7169.704787	6544.486667	834.959961	225.255905
-7169.704787	6544.486667	833.777344	-59.719082
-7169.704787	6544.486667	832.593750	-6.975925
-7169.704787	6544.486667	831.410156	96.877205
-7169.704787	6544.486667	830.226563	16.601820
-7169.704787	6544.486667	829.042969	145.945755
-7169.704787	6544.486667	827.858398	-13.549220
-7169.704787	6544.486667	826.673828	46.741180
-7169.704787	6544.486667	825.489258	-46.274574
-7169.704787	6544.486667	824.304688	-19.228046
-7169.704787	6544.486667	823.120117	-12.632642
-7169.704787	6544.486667	821.934570	80.748177
-7169.704787	6544.486667	820.749023	-162.835785
-7169.704787	6544.486667	819.562500	-43.967823
-7169.704787	6544.486667	818.376953	28.912022
-7169.704787	6544.486667	817.190430	40.530895
-7169.704787	6544.486667	816.003906	-44.779316
-7169.704787	6544.486667	814.817383	-20.429010
-7169.704787	6544.486667	813.629883	-11.396581
-7169.704787	6544.486667	812.442383	40.945782
-7169.704787	6544.486667	811.254883	-34.157047
-7169.704787	6544.486667	810.067383	66.543236
-7169.704787	6544.486667	808.878906	1.626284
-7169.704787	6544.486667	807.690430	112.435272
-7169.704787	6544.486667	806.501953	22.043215
-7169.704787	6544.486667	805.313477	30.948885
-7169.704787	6544.486667	804.124023	-97.594299
-7169.704787	6544.486667	802.934570	-177.755310
-7169.704787	6544.486667	801.745117	57.550091
-7169.704787	6544.486667	800.555664	71.462273
-7169.704787	6544.486667	799.365234	44.667702
-7169.704787	6544.486667	798.175781	50.914768
-7169.704787	6544.486667	796.985352	24.099575
-7169.704787	6544.486667	795.793945	-28.134127
-7169.704787	6544.486667	794.603516	166.090561
-7169.704787	6544.486667	793.412109	7.120820
-7169.704787	6544.486667	792.220703	-134.024216
-7169.704787	6544.486667	791.028320	32.117702
-7169.704787	6544.486667	789.836914	25.537836
-7169.704787	6544.486667	788.644531	26.557364
-7169.704787	6544.486667	787.452148	-86.637032
-7169.704787	6544.486667	786.258789	41.222481
-7169.704787	6544.486667	785.066406	62.469593
-7169.704787	6544.486667	783.873047	174.987350
-7169.704787	6544.486667	782.679688	0.921994
-7169.704787	6544.486667	781.485352	-10.850342
-7169.704787	6544.486667	780.291992	43.255165
-7169.704787	6544.486667	779.097656	132.793777
-7169.704787	6544.486667	777.903320	27.198919
-7169.704787	6544.486667	776.708008	10.278293
-7169.704787	6544.486667	775.512695	6.004406
-7169.704787	6544.486667	774.318359	32.089100
-7169.704787	6544.486667	773.122070	20.173687
-7169.704787	6544.486667	771.926758	119.592918
-7169.704787	6544.486667	770.730469	-64.441948
-7169.704787	6544.486667	769.534180	27.318054
-7169.704787	6544.486667	768.337891	-55.500362
-7169.704787	6544.486667	767.141602	112.031258
-7169.704787	6544.486667	765.944336	150.533463
-7169.704787	6544.486667	764.747070	221.853912
-7169.704787	6544.486667	763.549805	73.259972
-7169.704787	6544.486667	762.351563	111.671410
-7169.704787	6544.486667	761.154297	-206.135391
-7169.704787	6544.486667	759.956055	-89.442207
-7169.704787	6544.486667	758.757813	54.950790
-7169.704787	6544.486667	757.558594	123.524361
-7169.704787	6544.486667	756.359375	10.316767
-7169.704787	6544.486667	755.160156	93.957169
-7169.704787	6544.486667	753.960938	152.305695
-7169.704787	6544.486667	752.761719	-39.113495
-7169.704787	6544.486667	751.561523	39.359455
-7169.704787	6544.486667	750.361328	112.728264
-7169.704787	6544.486667	749.160156	178.476929
-7169.704787	6544.486667	747.959961	72.789085
-7169.704787	6544.486667	746.758789	72.947411
-7169.704787	6544.486667	745.557617	17.653475
-7169.704787	6544.486667	744.356445	173.923660
-7169.704787	6544.486667	743.154297	128.646179
-7169.704787	6544.486667	741.952148	78.322472
-7169.704787	6544.486667	740.750000	126.156914
-7169.704787	6544.486667	739.547852	58.177631
-7169.704787	6544.486667	738.344727	45.551037
-7169.704787	6544.486667	737.142578	20.319611
-7169.704787	6544.486667	735.939453	2.613755
-7169.704787	6544.486667	734.735352	153.356537
-7169.704787	6544.486667	733.532227	278.863525
-7169.704787	6544.486667	732.328125	-48.133438
-7169.704787	6544.486667	731.124023	-173.991547
-7169.704787	6544.486667	729.918945	-10.902940
-7169.704787	6544.486667	728.714844	144.548782
-7169.704787	6544.486667	727.509766	61.325207
-7169.704787	6544.486667	726.303711	83.558899
-7169.704787	6544.486667	725.098633	-27.295994
-7169.704787	6544.486667	723.892578	-10.138861
-7169.704787	6544.486667	722.686523	27.051250
-7169.704787	6544.486667	721.480469	162.032471
-7169.704787	6544.486667	720.274414	41.087345
-7169.704787	6544.486667	719.067383	-9.625887
-7169.704787	6544.486667	717.860352	67.511986
-7169.704787	6544.486667	716.653320	4.212724
-7169.704787	6544.486667	715.445313	71.222862
-7169.704787	6544.486667	714.238281	-107.376938
-7169.704787	6544.486667	713.030273	94.831329
-7169.704787	6544.486667	711.821289	-46.199924
-7169.704787	6544.486667	710.613281	85.727814
-7169.704787	6544.486667	709.404297	4.770676
-7169.704787	6544.486667	708.195313	114.034950
-7169.704787	6544.486667	706.986328	123.121094
-7169.704787	6544.486667	705.776367	-25.451607
-7169.704787	6544.486667	704.566406	33.615128
-7169.704787	6544.486667	703.356445	-19.916615
-7169.704787	6544.486667	702.146484	59.054127
-7169.704787	6544.486667	700.935547	-104.524750
-7169.704787	6544.486667	699.724609	26.842432
-7169.704787	6544.486667	698.513672	73.160454
-7169.704787	6544.486667	697.302734	56.966316
-7169.704787	6544.486667	696.090820	-24.198418
-7169.704787	6544.486667	694.878906	-35.445370
-7169.704787	6544.486667	693.666992	-46.724823
-7169.704787	6544.486667	692.455078	91.730240
-7169.704787	6544.486667	691.242188	22.955395
-7169.704787	6544.486667	690.029297	-48.323917
-7169.704787	6544.486667	688.816406	112.382469
-7169.704787	6544.486667	687.602539	65.979202
-7169.704787	6544.486667	686.389648	-127.559052
-7169.704787	6544.486667	685.175781	-119.123146
-7169.704787	6544.486667	683.960938	3.923497
-7169.704787	6544.486667	682.747070	121.897041
-7169.704787	6544.486667	681.532227	-1.884062
-7169.704787	6544.486667	680.317383	31.274164
-7169.704787	6544.486667	679.102539	7.101665
-7169.704787	6544.486667	677.886719	-19.588909
-7169.704787	6544.486667	676.670898	-66.221161
-7169.704787	6544.486667	675.455078	-15.810240
-7169.704787	6544.486667	674.239258	54.446571
-7169.704787	6544.486667	673.022461	-56.969234
-7169.704787	6544.486667	671.805664	43.035969
-7169.704787	6544.486667	670.588867	-98.248260
-7169.704787	6544.486667	669.372070	91.147316
-7169.704787	6544.486667	668.154297	151.170883
-7169.704787	6544.486667	666.936523	163.913300
-7169.704787	6544.486667	665.718750	-39.547806
-7169.704787	6544.486667	664.500977	-29.332506
-7169.704787	6544.486667	663.282227	229.193314
-7169.704787	6544.486667	662.063477	204.507339
-7169.704787	6544.486667	660.844727	-3.911358
-7169.704787	6544.486667	659.625000	105.409622
-7169.704787	6544.486667	658.405273	112.907074
-7169.704787	6544.486667	657.185547	16.164061
-7169.704787	6544.486667	655.965820	-18.567402
-7169.704787	6544.486667	654.745117	-21.085022
-7169.704787	6544.486667	653.525391	127.600327
-7169.704787	6544.486667	652.303711	-16.318241
-7169.704787	6544.486667	651.083008	112.398926
-7169.704787	6544.486667	649.861328	-43.921894
-7169.704787	6544.486667	648.640625	27.693054
-7169.704787	6544.486667	647.417969	190.876007
-7169.704787	6544.486667	646.196289	170.713654
-7169.704787	6544.486667	644.973633	1.979828
-7169.704787	6544.486667	643.750977	83.269936
-7169.704787	6544.486667	642.528320	-26.059467
-7169.704787	6544.486667	641.305664	154.089874
-7169.704787	6544.486667	640.082031	222.813034
-7169.704787	6544.486667	638.858398	130.720215
-7169.704787	6544.486667	637.634766	147.419922
-7169.704787	6544.486667	636.410156	134.409515
-7169.704787	6544.486667	635.185547	39.807579
-7169.704787	6544.486667	633.960938	204.660156
-7169.704787	6544.486667	632.736328	129.772583
-7169.704787	6544.486667	631.510742	37.588364
-7169.704787	6544.486667	630.285156	-195.348953
-7169.704787	6544.486667	629.059570	-87.520638
-7169.704787	6544.486667	627.833984	12.820521
-7169.704787	6544.486667	626.607422	-64.602737
-7169.704787	6544.486667	625.380859	-11.262868
-7169.704787	6544.486667	624.154297	187.558090
-7169.704787	6544.486667	622.927734	122.369102
-7169.704787	6544.486667	621.700195	91.690643
-7169.704787	6544.486667	620.472656	112.758415
-7169.704787	6544.486667	619.245117	190.469086
-7169.704787	6544.486667	618.016602	88.225403
-7169.704787	6544.486667	616.788086	67.289993
-7169.704787	6544.486667	615.559570	-12.786645
-7169.704787	6544.486667	614.331055	-83.014069
-7169.704787	6544.486667	613.101563	43.717396
-7169.704787	6544.486667	611.872070	91.590431
-7169.704787	6544.486667	610.642578	139.408966
-7169.704787	6544.486667	609.413086	162.567734
-7169.704787	6544.486667	608.182617	-92.297775
-7169.704787	6544.486667	606.952148	16.911228
-7169.704787	6544.486667	605.721680	148.170563
-7169.704787	6544.486667	604.491211	48.249516
-7169.704787	6544.486667	603.259766	17.156975
-7169.704787	6544.486667	602.028320	45.020683
-7169.704787	6544.486667	600.796875	97.408257
-7169.704787	6544.486667	599.564453	24.466236
-7169.704787	6544.486667	598.332031	10.461596
-7169.704787	6544.486667	597.099609	-3.568801
-7169.704787	6544.486667	595.867188	65.835739
-7169.704787	6544.486667	594.633789	7.557012
-7169.704787	6544.486667	593.400391	103.854774
-7169.704787	6544.486667	592.166992	155.922638
-7169.704787	6544.486667	590.933594	58.324821
-7169.704787	6544.486667	589.699219	34.299465
-7169.704787	6544.486667	588.464844	-131.939957
-7169.704787	6544.486667	587.230469	253.357300
-7169.704787	6544.486667	585.995117	121.386360
-7169.704787	6544.486667	584.760742	-5.655863
-7169.704787	6544.486667	583.525391	-181.667007
-7169.704787	6544.486667	582.289063	-27.018459
-7169.704787	6544.486667	581.053711	58.979019
-7169.704787	6544.486667	579.817383	-4.417557
-7169.704787	6544.486667	578.581055	30.081644
-7169.704787	6544.486667	577.343750	32.725296
-7169.704787	6544.486667	576.107422	45.127129
-7169.704787	6544.486667	574.870117	113.747604
-7169.704787	6544.486667	573.631836	64.931618
-7169.704787	6544.486667	572.394531	6.331618
-7169.704787	6544.486667	571.156250	11.279012
-7169.704787	6544.486667	569.917969	30.859179
-7169.704787	6544.486667	568.679688	-22.893950
-7169.704787	6544.486667	567.440430	38.154846
-7169.704787	6544.486667	566.202148	-93.781754
-7169.704787	6544.486667	564.961914	-20.591124
-7169.704787	6544.486667	563.722656	-32.896660
-7169.704787	6544.486667	562.482422	-120.886284
-7169.704787	6544.486667	561.243164	35.152340
-7169.704787	6544.486667	560.001953	88.628967
-7169.704787	6544.486667	558.761719	-111.605476
-7169.704787	6544.486667	557.520508	14.986028
-7169.704787	6544.486667	556.279297	26.909935
-7169.704787	6544.486667	555.038086	-56.259827
-7169.704787	6544.486667	553.795898	-22.445412
-7169.704787	6544.486667	552.554688	81.991028
-7169.704787	6544.486667	551.311523	28.014498
-7169.704787	6544.486667	550.069336	-4.040814
-7169.704787	6544.486667	548.826172	5.283695
-7169.704787	6544.486667	547.583984	-19.498037
-7169.704787	6544.486667	546.339844	-124.617523
-7169.704787	6544.486667	545.096680	3.889977
-7169.704787	6544.486667	543.852539	-69.609383
-7169.704787	6544.486667	542.608398	-43.376125
-7169.704787	6544.486667	541.364258	-116.880806
-7169.704787	6544.486667	540.119141	-44.503860
-7169.704787	6544.486667	538.875000	-3.778044
-7169.704787	6544.486667	537.628906	175.424591
-7169.704787	6544.486667	536.383789	82.402573
-7169.704787	6544.486667	535.137695	37.978306
-7169.704787	6544.486667	533.892578	39.697735
-7169.704787	6544.486667	532.645508	-72.735741
-7169.704787	6544.486667	531.399414	-199.706055
-7169.704787	6544.486667	530.152344	88.387817
-7169.704787	6544.486667	528.905273	114.263977
-7169.704787	6544.486667	527.658203	-158.300720
-7169.704787	6544.486667	526.410156	-81.495560
-7169.704787	6544.486667	525.163086	-145.394104
-7169.704787	6544.486667	523.914063	-148.682022
-7169.704787	6544.486667	522.666016	-79.268410
-7169.704787	6544.486667	521.416992	40.981655
-7169.704787	6544.486667	520.167969	107.852669
-7169.704787	6544.486667	518.918945	-84.528000
-7169.704787	6544.486667	517.669922	-37.080349
-7169.704787	6544.486667	516.419922	97.489944
-7169.704787	6544.486667	515.169922	-65.787483
-7169.704787	6544.486667	513.919922	-42.652027
-7169.704787	6544.486667	512.668945	4.644648
-7169.704787	6544.486667	511.417969	-32.778473
-7169.704787	6544.486667	510.166992	-302.413269
-7169.704787	6544.486667	508.916016	-85.884956
-7169.704787	6544.486667	507.664063	4.799297
-7169.704787	6544.486667	506.412109	37.405933
-7169.704787	6544.486667	505.160156	24.056274
-7169.704787	6544.486667	503.907227	1.018423
-7169.704787	6544.486667	502.655273	-96.917564
-7169.704787	6544.486667	501.402344	-37.856369
-7169.704787	6544.486667	500.148438	13.905720
-7169.704787	6544.486667	498.895508	0.440533
-7169.704787	6544.486667	497.641602	-92.697601
-7169.704787	6544.486667	496.387695	-86.887779
-7169.704787	6544.486667	495.132813	8.151987
-7169.704787	6544.486667	493.878906	-111.544983
-7169.704787	6544.486667	492.624023	75.038765
-7169.704787	6544.486667	491.368164	-95.318039
-7169.704787	6544.486667	490.113281	-94.484848
-7169.704787	6544.486667	488.857422	38.861244
-7169.704787	6544.486667	487.601563	27.552542
-7169.704787	6544.486667	486.344727	-87.371002
-7169.704787	6544.486667	485.088867	-72.220673
-7169.704787	6544.486667	483.832031	82.543442
-7169.704787	6544.486667	482.575195	-1.122352
-7169.704787	6544.486667	481.317383	187.182037
-7169.704787	6544.486667	480.059570	79.391884
-7169.704787	6544.486667	478.801758	159.264236
-7169.704787	6544.486667	477.543945	231.849060
-7169.704787	6544.486667	476.285156	210.574036
-7169.704787	6544.486667	475.027344	198.890747
-7169.704787	6544.486667	473.767578	115.052101
-7169.704787	6544.486667	472.508789	21.599722
-7169.704787	6544.486667	471.249023	50.678631
-7169.704787	6544.486667	469.989258	2.831986
-7169.704787	6544.486667	468.729492	29.413719
-7169.704787	6544.486667	467.469727	43.932514
-7169.704787	6544.486667	466.208984	-42.431534
-7169.704787	6544.486667	464.948242	159.205536
-7169.704787	6544.486667	463.686523	55.955811
-7169.704787	6544.486667	462.425781	123.038231
-7169.704787	6544.486667	461.164063	206.825500
-7169.704787	6544.486667	459.901367	204.190231
-7169.704787	6544.486667	458.639648	187.121475
-7169.704787	6544.486667	457.376953	196.366592
-7169.704787	6544.486667	456.114258	212.739700
-7169.704787	6544.486667	454.851563	238.630905
-7169.704787	6544.486667	453.587891	410.567169
-7169.704787	6544.486667	452.324219	256.658508
-7169.704787	6544.486667	451.060547	169.795868
-7169.704787	6544.486667	449.796875	37.421917
-7169.704787	6544.486667	448.532227	31.881620
-7169.704787	6544.486667	447.267578	267.952454
-7169.704787	6544.486667	446.002930	51.699497
-7169.704787	6544.486667	444.737305	148.790649
-7169.704787	6544.486667	443.471680	360.546844
-7169.704787	6544.486667	442.206055	184.828949
-7169.704787	6544.486667	440.940430	76.035332
-7169.704787	6544.486667	439.673828	242.023392
-7169.704787	6544.486667	438.407227	333.790833
-7169.704787	6544.486667	437.140625	74.293060
-7169.704787	6544.486667	435.873047	44.080925
-7169.704787	6544.486667	434.605469	92.585770
-7169.704787	6544.486667	433.337891	231.689072
-7169.704787	6544.486667	432.070313	268.011505
-7169.704787	6544.486667	430.801758	277.968658
-7169.704787	6544.486667	429.533203	185.240479
-7169.704787	6544.486667	428.264648	121.070999
-7169.704787	6544.486667	426.996094	352.511292
-7169.704787	6544.486667	425.726563	142.687424
-7169.704787	6544.486667	424.457031	152.129410
-7169.704787	6544.486667	423.186523	354.472260
-7169.704787	6544.486667	421.916992	192.093735
-7169.704787	6544.486667	420.646484	360.756622
-7169.704787	6544.486667	419.375977	229.158066
-7169.704787	6544.486667	418.104492	378.437317
-7169.704787	6544.486667	416.833008	253.771500
-7169.704787	6544.486667	415.561523	167.107193
-7169.704787	6544.486667	414.290039	242.144272
-7169.704787	6544.486667	413.017578	43.430477
-7169.704787	6544.486667	411.746094	1.639979
-7169.704787	6544.486667	410.472656	92.868034
-7169.704787	6544.486667	409.200195	-15.783487
-7169.704787	6544.486667	407.926758	208.207748
-7169.704787	6544.486667	406.653320	265.602631
-7169.704787	6544.486667	405.379883	282.422821
-7169.704787	6544.486667	404.105469	265.809479
-7169.704787	6544.486667	402.831055	239.534409
-7169.704787	6544.486667	401.556641	-10.081196
-7169.704787	6544.486667	400.282227	174.627106
-7169.704787	6544.486667	399.006836	302.108246
-7169.704787	6544.486667	397.731445	313.085815
-7169.704787	6544.486667	396.456055	148.326080
-7169.704787	6544.486667	395.179688	253.804642
-7169.704787	6544.486667	393.903320	34.189625
-7169.704787	6544.486667	392.626953	18.340746
-7169.704787	6544.486667	391.350586	87.614243
-7169.704787	6544.486667	390.073242	154.265045
-7169.704787	6544.486667	388.795898	125.903931
-7169.704787	6544.486667	387.518555	109.173958
-7169.704787	6544.486667	386.240234	73.268280
-7169.704787	6544.486667	384.961914	98.699715
-7169.704787	6544.486667	383.683594	254.067627
-7169.704787	6544.486667	382.405273	250.566010
-7169.704787	6544.486667	381.125977	114.308311
-7169.704787	6544.486667	379.846680	81.935127
-7169.704787	6544.486667	378.567383	91.883835
-7169.704787	6544.486667	377.287109	-33.225201
-7169.704787	6544.486667	376.006836	35.290428
-7169.704787	6544.486667	374.726563	101.132935
-7169.704787	6544.486667	373.446289	-5.831976
-7169.704787	6544.486667	372.165039	26.327333
-7169.704787	6544.486667	370.883789	-19.767838
-7169.704787	6544.486667	369.602539	28.306993
-7169.704787	6544.486667	368.320313	179.914612
-7169.704787	6544.486667	367.039063	168.287827
-7169.704787	6544.486667	365.755859	130.356186
-7169.704787	6544.486667	364.473633	44.936359
-7169.704787	6544.486667	363.190430	145.547592
-7169.704787	6544.486667	361.907227	57.105530
-7169.704787	6544.486667	360.624023	185.265381
-7169.704787	6544.486667	359.340820	164.500580
-7169.704787	6544.486667	358.056641	84.444489
-7169.704787	6544.486667	356.772461	176.053360
-7169.704787	6544.486667	355.487305	281.358154
-7169.704787	6544.486667	354.202148	186.033249
-7169.704787	6544.486667	352.916992	224.569107
-7169.704787	6544.486667	351.631836	60.221741
-7169.704787	6544.486667	350.346680	147.373962
-7169.704787	6544.486667	349.060547	-5.972671
-7169.704787	6544.486667	347.774414	-51.463219
-7169.704787	6544.486667	346.487305	-15.065784
-7169.704787	6544.486667	345.200195	27.921650
-7169.704787	6544.486667	343.913086	25.761202
-7169.704787	6544.486667	342.625977	-16.824184
-7169.704787	6544.486667	341.338867	-111.567734
-7169.704787	6544.486667	340.050781	-131.587357
-7169.704787	6544.486667	338.762695	38.182362
-7169.704787	6544.486667	337.473633	-140.230042
-7169.704787	6544.486667	336.184570	-46.705948
-7169.704787	6544.486667	334.895508	-10.085678
-7169.704787	6544.486667	333.606445	-30.341492
-7169.704787	6544.486667	332.317383	84.966339
-7169.704787	6544.486667	331.027344	-41.986824
-7169.704787	6544.486667	329.736328	-211.686584
-7169.704787	6544.486667	328.446289	-224.751633
-7169.704787	6544.486667	327.155273	-264.206116
-7169.704787	6544.486667	325.864258	19.225969
-7169.704787	6544.486667	324.573242	-283.926605
-7169.704787	6544.486667	323.281250	-271.292725
-7169.704787	6544.486667	321.989258	80.355705
-7169.704787	6544.486667	320.697266	-236.226379
-7169.704787	6544.486667	319.405273	69.488251
-7169.704787	6544.486667	318.112305	-14.202972
-7169.704787	6544.486667	316.819336	215.078720
-7169.704787	6544.486667	315.526367	80.899216
-7169.704787	6544.486667	314.232422	34.948524
-7169.704787	6544.486667	312.938477	93.556648
-7169.704787	6544.486667	311.644531	179.477554
-7169.704787	6544.486667	310.349609	241.220474
-7169.704787	6544.486667	309.054688	-6.331691
-7169.704787	6544.486667	307.759766	60.930046
-7169.704787	6544.486667	306.464844	262.894806
-7169.704787	6544.486667	305.168945	361.181274
-7169.704787	6544.486667	303.873047	510.002136
-7169.704787	6544.486667	302.577148	436.147369
-7169.704787	6544.486667	301.281250	522.562195
-7169.704787	6544.486667	299.984375	552.057617
