#X		#Y		#Wave		#Intensity
-7046.789362	6595.901667	1999.946289	-85.413788
-7046.789362	6595.901667	1998.981445	31.903620
-7046.789362	6595.901667	1998.017578	-25.224268
-7046.789362	6595.901667	1997.052734	-15.518103
-7046.789362	6595.901667	1996.088867	-10.871881
-7046.789362	6595.901667	1995.124023	-36.047241
-7046.789362	6595.901667	1994.159180	52.622551
-7046.789362	6595.901667	1993.193359	9.926654
-7046.789362	6595.901667	1992.228516	-8.088807
-7046.789362	6595.901667	1991.262695	48.076359
-7046.789362	6595.901667	1990.296875	49.685356
-7046.789362	6595.901667	1989.331055	-3.229832
-7046.789362	6595.901667	1988.365234	-46.313530
-7046.789362	6595.901667	1987.398438	9.478597
-7046.789362	6595.901667	1986.432617	25.597883
-7046.789362	6595.901667	1985.465820	-89.414688
-7046.789362	6595.901667	1984.499023	40.280159
-7046.789362	6595.901667	1983.532227	-50.130482
-7046.789362	6595.901667	1982.565430	-61.502995
-7046.789362	6595.901667	1981.597656	-13.645216
-7046.789362	6595.901667	1980.629883	48.944450
-7046.789362	6595.901667	1979.662109	-140.484482
-7046.789362	6595.901667	1978.694336	-43.463306
-7046.789362	6595.901667	1977.726563	33.701786
-7046.789362	6595.901667	1976.758789	-59.552761
-7046.789362	6595.901667	1975.790039	32.264462
-7046.789362	6595.901667	1974.821289	69.696365
-7046.789362	6595.901667	1973.852539	-60.710808
-7046.789362	6595.901667	1972.883789	11.133119
-7046.789362	6595.901667	1971.915039	80.424248
-7046.789362	6595.901667	1970.945313	21.413330
-7046.789362	6595.901667	1969.975586	36.324162
-7046.789362	6595.901667	1969.005859	-57.278564
-7046.789362	6595.901667	1968.036133	-59.721771
-7046.789362	6595.901667	1967.066406	53.584579
-7046.789362	6595.901667	1966.096680	63.331589
-7046.789362	6595.901667	1965.125977	4.059594
-7046.789362	6595.901667	1964.155273	6.321226
-7046.789362	6595.901667	1963.184570	55.310940
-7046.789362	6595.901667	1962.213867	82.078644
-7046.789362	6595.901667	1961.242188	39.877293
-7046.789362	6595.901667	1960.271484	56.700180
-7046.789362	6595.901667	1959.299805	46.408028
-7046.789362	6595.901667	1958.328125	85.270454
-7046.789362	6595.901667	1957.356445	-52.996223
-7046.789362	6595.901667	1956.384766	22.665602
-7046.789362	6595.901667	1955.412109	-19.746376
-7046.789362	6595.901667	1954.439453	45.965790
-7046.789362	6595.901667	1953.467773	40.345413
-7046.789362	6595.901667	1952.495117	42.058640
-7046.789362	6595.901667	1951.521484	-22.594946
-7046.789362	6595.901667	1950.548828	23.262423
-7046.789362	6595.901667	1949.575195	-132.298615
-7046.789362	6595.901667	1948.601563	63.255989
-7046.789362	6595.901667	1947.627930	-3.955782
-7046.789362	6595.901667	1946.654297	95.714333
-7046.789362	6595.901667	1945.680664	-42.708469
-7046.789362	6595.901667	1944.706055	-4.470736
-7046.789362	6595.901667	1943.732422	-44.772442
-7046.789362	6595.901667	1942.757813	-75.281822
-7046.789362	6595.901667	1941.783203	65.829239
-7046.789362	6595.901667	1940.807617	-28.491659
-7046.789362	6595.901667	1939.833008	217.895050
-7046.789362	6595.901667	1938.857422	5.891153
-7046.789362	6595.901667	1937.881836	9.553329
-7046.789362	6595.901667	1936.906250	25.434963
-7046.789362	6595.901667	1935.930664	6.993229
-7046.789362	6595.901667	1934.955078	-84.932388
-7046.789362	6595.901667	1933.978516	82.674767
-7046.789362	6595.901667	1933.001953	7.852409
-7046.789362	6595.901667	1932.025391	-106.126915
-7046.789362	6595.901667	1931.048828	19.716856
-7046.789362	6595.901667	1930.072266	18.270014
-7046.789362	6595.901667	1929.094727	143.995804
-7046.789362	6595.901667	1928.118164	83.785233
-7046.789362	6595.901667	1927.140625	38.244877
-7046.789362	6595.901667	1926.163086	-39.081619
-7046.789362	6595.901667	1925.184570	22.920713
-7046.789362	6595.901667	1924.207031	55.554142
-7046.789362	6595.901667	1923.228516	-21.796661
-7046.789362	6595.901667	1922.250000	-28.294548
-7046.789362	6595.901667	1921.271484	123.948135
-7046.789362	6595.901667	1920.292969	-12.038405
-7046.789362	6595.901667	1919.314453	71.743332
-7046.789362	6595.901667	1918.334961	4.128792
-7046.789362	6595.901667	1917.355469	9.739841
-7046.789362	6595.901667	1916.375977	-11.511027
-7046.789362	6595.901667	1915.396484	142.886826
-7046.789362	6595.901667	1914.416992	-63.797699
-7046.789362	6595.901667	1913.436523	73.446518
-7046.789362	6595.901667	1912.457031	-67.346031
-7046.789362	6595.901667	1911.476563	47.874310
-7046.789362	6595.901667	1910.496094	-36.833065
-7046.789362	6595.901667	1909.515625	24.693783
-7046.789362	6595.901667	1908.534180	30.142105
-7046.789362	6595.901667	1907.552734	67.242218
-7046.789362	6595.901667	1906.572266	53.167366
-7046.789362	6595.901667	1905.590820	136.487946
-7046.789362	6595.901667	1904.608398	-55.357807
-7046.789362	6595.901667	1903.626953	18.187725
-7046.789362	6595.901667	1902.644531	-10.528302
-7046.789362	6595.901667	1901.663086	9.420920
-7046.789362	6595.901667	1900.680664	56.110504
-7046.789362	6595.901667	1899.698242	37.094059
-7046.789362	6595.901667	1898.714844	74.006363
-7046.789362	6595.901667	1897.732422	52.536980
-7046.789362	6595.901667	1896.749023	-44.300133
-7046.789362	6595.901667	1895.765625	99.515930
-7046.789362	6595.901667	1894.782227	-36.199707
-7046.789362	6595.901667	1893.798828	139.123459
-7046.789362	6595.901667	1892.814453	129.746552
-7046.789362	6595.901667	1891.831055	86.359726
-7046.789362	6595.901667	1890.846680	-95.437302
-7046.789362	6595.901667	1889.862305	-58.669514
-7046.789362	6595.901667	1888.877930	87.307770
-7046.789362	6595.901667	1887.892578	-16.759039
-7046.789362	6595.901667	1886.908203	-118.369675
-7046.789362	6595.901667	1885.922852	-33.148193
-7046.789362	6595.901667	1884.937500	42.328697
-7046.789362	6595.901667	1883.952148	-66.543869
-7046.789362	6595.901667	1882.965820	-168.113815
-7046.789362	6595.901667	1881.980469	72.163651
-7046.789362	6595.901667	1880.994141	-46.380589
-7046.789362	6595.901667	1880.007813	-31.607405
-7046.789362	6595.901667	1879.021484	-79.844345
-7046.789362	6595.901667	1878.035156	-2.106959
-7046.789362	6595.901667	1877.047852	48.948650
-7046.789362	6595.901667	1876.061523	-57.422222
-7046.789362	6595.901667	1875.074219	-37.868805
-7046.789362	6595.901667	1874.086914	-28.014633
-7046.789362	6595.901667	1873.098633	-39.956306
-7046.789362	6595.901667	1872.111328	-5.927731
-7046.789362	6595.901667	1871.123047	139.362701
-7046.789362	6595.901667	1870.135742	66.899345
-7046.789362	6595.901667	1869.147461	-36.986172
-7046.789362	6595.901667	1868.158203	-46.546295
-7046.789362	6595.901667	1867.169922	-7.761459
-7046.789362	6595.901667	1866.180664	122.842453
-7046.789362	6595.901667	1865.192383	-39.009388
-7046.789362	6595.901667	1864.203125	-46.183254
-7046.789362	6595.901667	1863.213867	40.845806
-7046.789362	6595.901667	1862.223633	-70.212303
-7046.789362	6595.901667	1861.234375	-38.768600
-7046.789362	6595.901667	1860.244141	-89.432594
-7046.789362	6595.901667	1859.253906	-38.706654
-7046.789362	6595.901667	1858.263672	127.831566
-7046.789362	6595.901667	1857.273438	-21.792067
-7046.789362	6595.901667	1856.282227	-16.973669
-7046.789362	6595.901667	1855.291992	98.786469
-7046.789362	6595.901667	1854.300781	-31.484560
-7046.789362	6595.901667	1853.309570	-9.817916
-7046.789362	6595.901667	1852.317383	-24.329981
-7046.789362	6595.901667	1851.326172	-53.305656
-7046.789362	6595.901667	1850.333984	14.107753
-7046.789362	6595.901667	1849.342773	115.217178
-7046.789362	6595.901667	1848.350586	-12.560280
-7046.789362	6595.901667	1847.357422	136.661072
-7046.789362	6595.901667	1846.365234	35.394726
-7046.789362	6595.901667	1845.372070	-5.658069
-7046.789362	6595.901667	1844.379883	-87.622940
-7046.789362	6595.901667	1843.386719	83.120262
-7046.789362	6595.901667	1842.393555	-119.157318
-7046.789362	6595.901667	1841.399414	0.986898
-7046.789362	6595.901667	1840.406250	41.706169
-7046.789362	6595.901667	1839.412109	5.446236
-7046.789362	6595.901667	1838.417969	-33.214588
-7046.789362	6595.901667	1837.423828	12.263675
-7046.789362	6595.901667	1836.429688	110.588486
-7046.789362	6595.901667	1835.434570	35.853249
-7046.789362	6595.901667	1834.440430	35.613651
-7046.789362	6595.901667	1833.445313	97.815315
-7046.789362	6595.901667	1832.450195	-51.355968
-7046.789362	6595.901667	1831.454102	3.611600
-7046.789362	6595.901667	1830.458984	-15.870740
-7046.789362	6595.901667	1829.462891	171.060028
-7046.789362	6595.901667	1828.466797	165.928604
-7046.789362	6595.901667	1827.470703	28.825237
-7046.789362	6595.901667	1826.474609	100.463722
-7046.789362	6595.901667	1825.478516	8.971931
-7046.789362	6595.901667	1824.481445	51.787365
-7046.789362	6595.901667	1823.484375	46.625675
-7046.789362	6595.901667	1822.487305	-23.266632
-7046.789362	6595.901667	1821.490234	-157.852036
-7046.789362	6595.901667	1820.493164	19.101343
-7046.789362	6595.901667	1819.495117	-125.049133
-7046.789362	6595.901667	1818.498047	111.689072
-7046.789362	6595.901667	1817.500000	173.504410
-7046.789362	6595.901667	1816.500977	72.467087
-7046.789362	6595.901667	1815.502930	-30.935677
-7046.789362	6595.901667	1814.504883	47.589516
-7046.789362	6595.901667	1813.505859	20.779863
-7046.789362	6595.901667	1812.506836	-6.032181
-7046.789362	6595.901667	1811.507813	-37.630383
-7046.789362	6595.901667	1810.508789	24.044754
-7046.789362	6595.901667	1809.508789	23.511148
-7046.789362	6595.901667	1808.508789	58.826397
-7046.789362	6595.901667	1807.508789	-27.788874
-7046.789362	6595.901667	1806.508789	29.005598
-7046.789362	6595.901667	1805.508789	28.420679
-7046.789362	6595.901667	1804.508789	111.435791
-7046.789362	6595.901667	1803.507813	46.319263
-7046.789362	6595.901667	1802.506836	-30.726206
-7046.789362	6595.901667	1801.505859	104.738274
-7046.789362	6595.901667	1800.504883	106.459702
-7046.789362	6595.901667	1799.502930	50.885086
-7046.789362	6595.901667	1798.501953	157.582596
-7046.789362	6595.901667	1797.500000	51.891617
-7046.789362	6595.901667	1796.498047	153.748795
-7046.789362	6595.901667	1795.496094	76.689713
-7046.789362	6595.901667	1794.493164	42.563175
-7046.789362	6595.901667	1793.491211	-22.553249
-7046.789362	6595.901667	1792.488281	143.538605
-7046.789362	6595.901667	1791.485352	-16.924280
-7046.789362	6595.901667	1790.482422	84.746048
-7046.789362	6595.901667	1789.478516	141.099991
-7046.789362	6595.901667	1788.475586	199.803131
-7046.789362	6595.901667	1787.471680	234.654587
-7046.789362	6595.901667	1786.467773	129.012039
-7046.789362	6595.901667	1785.463867	30.536074
-7046.789362	6595.901667	1784.459961	153.413162
-7046.789362	6595.901667	1783.455078	9.729777
-7046.789362	6595.901667	1782.450195	120.638084
-7046.789362	6595.901667	1781.445313	-15.878564
-7046.789362	6595.901667	1780.440430	130.634857
-7046.789362	6595.901667	1779.435547	151.063080
-7046.789362	6595.901667	1778.429688	180.975403
-7046.789362	6595.901667	1777.424805	201.357086
-7046.789362	6595.901667	1776.418945	22.105576
-7046.789362	6595.901667	1775.413086	123.255966
-7046.789362	6595.901667	1774.406250	69.950287
-7046.789362	6595.901667	1773.400391	11.902884
-7046.789362	6595.901667	1772.393555	127.196678
-7046.789362	6595.901667	1771.386719	190.203232
-7046.789362	6595.901667	1770.379883	58.537254
-7046.789362	6595.901667	1769.373047	147.606934
-7046.789362	6595.901667	1768.365234	11.221204
-7046.789362	6595.901667	1767.358398	154.796738
-7046.789362	6595.901667	1766.350586	49.263973
-7046.789362	6595.901667	1765.342773	135.832932
-7046.789362	6595.901667	1764.334961	27.942070
-7046.789362	6595.901667	1763.326172	26.743546
-7046.789362	6595.901667	1762.318359	94.261589
-7046.789362	6595.901667	1761.309570	104.867424
-7046.789362	6595.901667	1760.300781	49.119785
-7046.789362	6595.901667	1759.291016	171.021866
-7046.789362	6595.901667	1758.282227	186.297226
-7046.789362	6595.901667	1757.272461	21.601648
-7046.789362	6595.901667	1756.262695	53.436817
-7046.789362	6595.901667	1755.252930	16.606441
-7046.789362	6595.901667	1754.243164	1.071939
-7046.789362	6595.901667	1753.233398	103.823547
-7046.789362	6595.901667	1752.222656	10.183704
-7046.789362	6595.901667	1751.211914	108.130730
-7046.789362	6595.901667	1750.201172	83.066978
-7046.789362	6595.901667	1749.190430	69.818130
-7046.789362	6595.901667	1748.179688	44.740166
-7046.789362	6595.901667	1747.167969	85.823425
-7046.789362	6595.901667	1746.156250	67.806572
-7046.789362	6595.901667	1745.144531	2.534339
-7046.789362	6595.901667	1744.132813	24.660559
-7046.789362	6595.901667	1743.121094	-57.139454
-7046.789362	6595.901667	1742.108398	-51.570724
-7046.789362	6595.901667	1741.095703	8.271500
-7046.789362	6595.901667	1740.083008	82.235878
-7046.789362	6595.901667	1739.070313	-1.936836
-7046.789362	6595.901667	1738.057617	31.864227
-7046.789362	6595.901667	1737.043945	98.656647
-7046.789362	6595.901667	1736.030273	94.659706
-7046.789362	6595.901667	1735.016602	19.914940
-7046.789362	6595.901667	1734.002930	-52.458950
-7046.789362	6595.901667	1732.989258	68.445305
-7046.789362	6595.901667	1731.974609	14.907426
-7046.789362	6595.901667	1730.959961	8.494925
-7046.789362	6595.901667	1729.945313	-42.686192
-7046.789362	6595.901667	1728.930664	12.117055
-7046.789362	6595.901667	1727.916016	31.564388
-7046.789362	6595.901667	1726.900391	53.340267
-7046.789362	6595.901667	1725.885742	79.802979
-7046.789362	6595.901667	1724.870117	-13.780665
-7046.789362	6595.901667	1723.853516	15.001948
-7046.789362	6595.901667	1722.837891	22.589764
-7046.789362	6595.901667	1721.822266	206.556381
-7046.789362	6595.901667	1720.805664	-56.351292
-7046.789362	6595.901667	1719.789063	-8.833659
-7046.789362	6595.901667	1718.772461	59.806622
-7046.789362	6595.901667	1717.754883	60.248058
-7046.789362	6595.901667	1716.738281	98.273506
-7046.789362	6595.901667	1715.720703	108.075829
-7046.789362	6595.901667	1714.703125	228.253540
-7046.789362	6595.901667	1713.685547	75.961494
-7046.789362	6595.901667	1712.667969	-17.588772
-7046.789362	6595.901667	1711.649414	17.989670
-7046.789362	6595.901667	1710.630859	20.682106
-7046.789362	6595.901667	1709.612305	-0.105603
-7046.789362	6595.901667	1708.593750	124.558769
-7046.789362	6595.901667	1707.575195	94.348160
-7046.789362	6595.901667	1706.555664	-3.878350
-7046.789362	6595.901667	1705.536133	-85.668129
-7046.789362	6595.901667	1704.516602	-22.092852
-7046.789362	6595.901667	1703.497070	67.226990
-7046.789362	6595.901667	1702.477539	-40.347172
-7046.789362	6595.901667	1701.457031	-23.719498
-7046.789362	6595.901667	1700.437500	-84.410919
-7046.789362	6595.901667	1699.416992	-51.413490
-7046.789362	6595.901667	1698.395508	-93.376045
-7046.789362	6595.901667	1697.375000	23.866598
-7046.789362	6595.901667	1696.354492	258.087006
-7046.789362	6595.901667	1695.333008	26.489868
-7046.789362	6595.901667	1694.311523	17.251097
-7046.789362	6595.901667	1693.290039	-13.051048
-7046.789362	6595.901667	1692.267578	-87.795906
-7046.789362	6595.901667	1691.246094	-57.290329
-7046.789362	6595.901667	1690.223633	12.933912
-7046.789362	6595.901667	1689.201172	-85.184486
-7046.789362	6595.901667	1688.178711	-68.758675
-7046.789362	6595.901667	1687.155273	13.072206
-7046.789362	6595.901667	1686.132813	-49.981499
-7046.789362	6595.901667	1685.109375	-70.982407
-7046.789362	6595.901667	1684.085938	-28.932680
-7046.789362	6595.901667	1683.062500	-7.923486
-7046.789362	6595.901667	1682.039063	-3.274986
-7046.789362	6595.901667	1681.014648	-61.659081
-7046.789362	6595.901667	1679.990234	-87.362564
-7046.789362	6595.901667	1678.965820	-124.731468
-7046.789362	6595.901667	1677.941406	38.508289
-7046.789362	6595.901667	1676.916992	1.108818
-7046.789362	6595.901667	1675.891602	105.945061
-7046.789362	6595.901667	1674.866211	-29.389833
-7046.789362	6595.901667	1673.840820	-22.502155
-7046.789362	6595.901667	1672.815430	96.230827
-7046.789362	6595.901667	1671.790039	-108.950005
-7046.789362	6595.901667	1670.763672	-1.915815
-7046.789362	6595.901667	1669.737305	-13.711608
-7046.789362	6595.901667	1668.710938	72.287788
-7046.789362	6595.901667	1667.684570	-58.269981
-7046.789362	6595.901667	1666.658203	172.003922
-7046.789362	6595.901667	1665.630859	125.236839
-7046.789362	6595.901667	1664.603516	22.637232
-7046.789362	6595.901667	1663.576172	94.543167
-7046.789362	6595.901667	1662.548828	103.614998
-7046.789362	6595.901667	1661.520508	-17.551712
-7046.789362	6595.901667	1660.493164	31.047754
-7046.789362	6595.901667	1659.464844	-50.555794
-7046.789362	6595.901667	1658.436523	121.189415
-7046.789362	6595.901667	1657.408203	-27.799921
-7046.789362	6595.901667	1656.378906	132.241684
-7046.789362	6595.901667	1655.350586	-12.059929
-7046.789362	6595.901667	1654.321289	10.888532
-7046.789362	6595.901667	1653.291992	-72.982231
-7046.789362	6595.901667	1652.261719	82.272453
-7046.789362	6595.901667	1651.232422	100.529945
-7046.789362	6595.901667	1650.202148	-76.150200
-7046.789362	6595.901667	1649.171875	20.997227
-7046.789362	6595.901667	1648.141602	60.112072
-7046.789362	6595.901667	1647.111328	-0.515906
-7046.789362	6595.901667	1646.080078	-146.920563
-7046.789362	6595.901667	1645.049805	96.194946
-7046.789362	6595.901667	1644.018555	95.840340
-7046.789362	6595.901667	1642.987305	153.415131
-7046.789362	6595.901667	1641.955078	48.777050
-7046.789362	6595.901667	1640.923828	131.811844
-7046.789362	6595.901667	1639.891602	207.859283
-7046.789362	6595.901667	1638.859375	19.901430
-7046.789362	6595.901667	1637.827148	65.837898
-7046.789362	6595.901667	1636.794922	137.215286
-7046.789362	6595.901667	1635.761719	178.473877
-7046.789362	6595.901667	1634.729492	108.657616
-7046.789362	6595.901667	1633.696289	18.042315
-7046.789362	6595.901667	1632.662109	174.932404
-7046.789362	6595.901667	1631.628906	218.455322
-7046.789362	6595.901667	1630.594727	132.486526
-7046.789362	6595.901667	1629.561523	90.472313
-7046.789362	6595.901667	1628.527344	298.063965
-7046.789362	6595.901667	1627.493164	193.641541
-7046.789362	6595.901667	1626.458008	160.869888
-7046.789362	6595.901667	1625.423828	338.298340
-7046.789362	6595.901667	1624.388672	173.882904
-7046.789362	6595.901667	1623.353516	254.265808
-7046.789362	6595.901667	1622.318359	177.648926
-7046.789362	6595.901667	1621.282227	156.448151
-7046.789362	6595.901667	1620.247070	278.323120
-7046.789362	6595.901667	1619.210938	455.516510
-7046.789362	6595.901667	1618.174805	284.350220
-7046.789362	6595.901667	1617.137695	353.084351
-7046.789362	6595.901667	1616.101563	507.107117
-7046.789362	6595.901667	1615.064453	414.409180
-7046.789362	6595.901667	1614.027344	660.551208
-7046.789362	6595.901667	1612.990234	634.689270
-7046.789362	6595.901667	1611.953125	631.878662
-7046.789362	6595.901667	1610.916016	820.256897
-7046.789362	6595.901667	1609.877930	617.053894
-7046.789362	6595.901667	1608.839844	791.548950
-7046.789362	6595.901667	1607.801758	618.364441
-7046.789362	6595.901667	1606.763672	645.493713
-7046.789362	6595.901667	1605.724609	766.961121
-7046.789362	6595.901667	1604.685547	886.084656
-7046.789362	6595.901667	1603.646484	867.149170
-7046.789362	6595.901667	1602.607422	931.019714
-7046.789362	6595.901667	1601.568359	861.505554
-7046.789362	6595.901667	1600.528320	1139.160767
-7046.789362	6595.901667	1599.489258	1134.001465
-7046.789362	6595.901667	1598.449219	1016.242126
-7046.789362	6595.901667	1597.408203	1181.135376
-7046.789362	6595.901667	1596.368164	1196.659058
-7046.789362	6595.901667	1595.327148	1253.520508
-7046.789362	6595.901667	1594.287109	1324.147095
-7046.789362	6595.901667	1593.246094	1383.270630
-7046.789362	6595.901667	1592.204102	1274.813599
-7046.789362	6595.901667	1591.163086	1301.808960
-7046.789362	6595.901667	1590.121094	1328.798218
-7046.789362	6595.901667	1589.079102	1041.505127
-7046.789362	6595.901667	1588.037109	928.643616
-7046.789362	6595.901667	1586.995117	1035.973022
-7046.789362	6595.901667	1585.953125	1024.050293
-7046.789362	6595.901667	1584.910156	810.422791
-7046.789362	6595.901667	1583.867188	1027.740479
-7046.789362	6595.901667	1582.824219	832.544495
-7046.789362	6595.901667	1581.781250	841.322449
-7046.789362	6595.901667	1580.737305	946.300476
-7046.789362	6595.901667	1579.693359	714.621643
-7046.789362	6595.901667	1578.649414	734.891968
-7046.789362	6595.901667	1577.605469	867.329163
-7046.789362	6595.901667	1576.561523	711.358582
-7046.789362	6595.901667	1575.516602	795.714905
-7046.789362	6595.901667	1574.472656	719.912598
-7046.789362	6595.901667	1573.427734	699.042175
-7046.789362	6595.901667	1572.381836	666.754700
-7046.789362	6595.901667	1571.336914	517.889404
-7046.789362	6595.901667	1570.291016	522.248657
-7046.789362	6595.901667	1569.246094	476.342072
-7046.789362	6595.901667	1568.200195	592.700623
-7046.789362	6595.901667	1567.153320	512.548157
-7046.789362	6595.901667	1566.107422	521.525574
-7046.789362	6595.901667	1565.060547	507.672638
-7046.789362	6595.901667	1564.013672	452.740082
-7046.789362	6595.901667	1562.966797	521.114380
-7046.789362	6595.901667	1561.919922	495.899689
-7046.789362	6595.901667	1560.872070	630.439697
-7046.789362	6595.901667	1559.825195	520.828613
-7046.789362	6595.901667	1558.777344	534.446838
-7046.789362	6595.901667	1557.729492	627.894470
-7046.789362	6595.901667	1556.680664	632.393250
-7046.789362	6595.901667	1555.632813	687.061584
-7046.789362	6595.901667	1554.583984	787.305420
-7046.789362	6595.901667	1553.535156	828.278076
-7046.789362	6595.901667	1552.486328	910.260559
-7046.789362	6595.901667	1551.436523	898.831482
-7046.789362	6595.901667	1550.387695	969.413818
-7046.789362	6595.901667	1549.337891	1281.341919
-7046.789362	6595.901667	1548.288086	1358.682129
-7046.789362	6595.901667	1547.238281	1513.395996
-7046.789362	6595.901667	1546.187500	1731.780640
-7046.789362	6595.901667	1545.136719	1984.225464
-7046.789362	6595.901667	1544.086914	2150.152100
-7046.789362	6595.901667	1543.035156	2322.848389
-7046.789362	6595.901667	1541.984375	2434.104492
-7046.789362	6595.901667	1540.933594	2638.544189
-7046.789362	6595.901667	1539.881836	2676.994873
-7046.789362	6595.901667	1538.830078	2969.968506
-7046.789362	6595.901667	1537.778320	2931.127441
-7046.789362	6595.901667	1536.725586	3012.713135
-7046.789362	6595.901667	1535.673828	2928.495850
-7046.789362	6595.901667	1534.621094	2689.921387
-7046.789362	6595.901667	1533.568359	2710.269287
-7046.789362	6595.901667	1532.515625	2514.998535
-7046.789362	6595.901667	1531.461914	2494.563721
-7046.789362	6595.901667	1530.409180	2462.815186
-7046.789362	6595.901667	1529.355469	2478.735596
-7046.789362	6595.901667	1528.301758	2406.218262
-7046.789362	6595.901667	1527.247070	2091.119385
-7046.789362	6595.901667	1526.193359	1953.004150
-7046.789362	6595.901667	1525.138672	1751.496826
-7046.789362	6595.901667	1524.083984	1529.694458
-7046.789362	6595.901667	1523.029297	1199.245605
-7046.789362	6595.901667	1521.974609	1052.441162
-7046.789362	6595.901667	1520.918945	1016.693665
-7046.789362	6595.901667	1519.863281	795.300354
-7046.789362	6595.901667	1518.807617	598.921570
-7046.789362	6595.901667	1517.751953	785.181030
-7046.789362	6595.901667	1516.696289	717.924561
-7046.789362	6595.901667	1515.639648	854.353577
-7046.789362	6595.901667	1514.583008	723.813965
-7046.789362	6595.901667	1513.526367	523.237061
-7046.789362	6595.901667	1512.469727	338.592743
-7046.789362	6595.901667	1511.412109	461.518005
-7046.789362	6595.901667	1510.355469	356.122162
-7046.789362	6595.901667	1509.297852	390.907593
-7046.789362	6595.901667	1508.240234	206.532593
-7046.789362	6595.901667	1507.181641	132.947174
-7046.789362	6595.901667	1506.124023	222.038345
-7046.789362	6595.901667	1505.065430	132.723679
-7046.789362	6595.901667	1504.006836	61.531433
-7046.789362	6595.901667	1502.948242	110.028175
-7046.789362	6595.901667	1501.888672	-8.474086
-7046.789362	6595.901667	1500.830078	-41.158962
-7046.789362	6595.901667	1499.770508	-60.271214
-7046.789362	6595.901667	1498.710938	40.190914
-7046.789362	6595.901667	1497.650391	14.356917
-7046.789362	6595.901667	1496.590820	-70.057129
-7046.789362	6595.901667	1495.530273	-95.804581
-7046.789362	6595.901667	1494.469727	-24.606928
-7046.789362	6595.901667	1493.409180	46.590160
-7046.789362	6595.901667	1492.348633	38.939156
-7046.789362	6595.901667	1491.287109	200.242538
-7046.789362	6595.901667	1490.225586	55.252834
-7046.789362	6595.901667	1489.164063	27.423765
-7046.789362	6595.901667	1488.102539	-25.126865
-7046.789362	6595.901667	1487.041016	95.663559
-7046.789362	6595.901667	1485.978516	38.674805
-7046.789362	6595.901667	1484.916016	26.737356
-7046.789362	6595.901667	1483.853516	-0.924551
-7046.789362	6595.901667	1482.791016	142.365463
-7046.789362	6595.901667	1481.727539	33.816849
-7046.789362	6595.901667	1480.664063	10.764862
-7046.789362	6595.901667	1479.600586	-81.913437
-7046.789362	6595.901667	1478.537109	61.382141
-7046.789362	6595.901667	1477.473633	-6.480127
-7046.789362	6595.901667	1476.409180	15.510603
-7046.789362	6595.901667	1475.344727	42.046856
-7046.789362	6595.901667	1474.280273	28.107731
-7046.789362	6595.901667	1473.215820	21.114218
-7046.789362	6595.901667	1472.151367	-68.849617
-7046.789362	6595.901667	1471.085938	85.560715
-7046.789362	6595.901667	1470.020508	51.740215
-7046.789362	6595.901667	1468.955078	177.019043
-7046.789362	6595.901667	1467.888672	105.017647
-7046.789362	6595.901667	1466.823242	109.413857
-7046.789362	6595.901667	1465.756836	33.308853
-7046.789362	6595.901667	1464.690430	160.868973
-7046.789362	6595.901667	1463.624023	95.923874
-7046.789362	6595.901667	1462.556641	149.769913
-7046.789362	6595.901667	1461.490234	290.609528
-7046.789362	6595.901667	1460.422852	185.636963
-7046.789362	6595.901667	1459.355469	163.201965
-7046.789362	6595.901667	1458.287109	199.426682
-7046.789362	6595.901667	1457.219727	145.530914
-7046.789362	6595.901667	1456.151367	277.276489
-7046.789362	6595.901667	1455.083008	231.104828
-7046.789362	6595.901667	1454.014648	300.417877
-7046.789362	6595.901667	1452.945313	266.880829
-7046.789362	6595.901667	1451.876953	318.104797
-7046.789362	6595.901667	1450.807617	344.944672
-7046.789362	6595.901667	1449.738281	592.658630
-7046.789362	6595.901667	1448.668945	681.815979
-7046.789362	6595.901667	1447.598633	603.929871
-7046.789362	6595.901667	1446.528320	644.182617
-7046.789362	6595.901667	1445.458008	795.422974
-7046.789362	6595.901667	1444.387695	908.368591
-7046.789362	6595.901667	1443.317383	994.108032
-7046.789362	6595.901667	1442.246094	913.708557
-7046.789362	6595.901667	1441.174805	847.652283
-7046.789362	6595.901667	1440.103516	951.375183
-7046.789362	6595.901667	1439.032227	923.797302
-7046.789362	6595.901667	1437.960938	749.653381
-7046.789362	6595.901667	1436.888672	854.749329
-7046.789362	6595.901667	1435.816406	764.697388
-7046.789362	6595.901667	1434.744141	746.075623
-7046.789362	6595.901667	1433.670898	723.427734
-7046.789362	6595.901667	1432.598633	468.444763
-7046.789362	6595.901667	1431.525391	400.814636
-7046.789362	6595.901667	1430.452148	404.871582
-7046.789362	6595.901667	1429.378906	383.059479
-7046.789362	6595.901667	1428.304688	469.802002
-7046.789362	6595.901667	1427.231445	437.717590
-7046.789362	6595.901667	1426.157227	515.086792
-7046.789362	6595.901667	1425.083008	415.869141
-7046.789362	6595.901667	1424.007813	493.023621
-7046.789362	6595.901667	1422.933594	484.717743
-7046.789362	6595.901667	1421.858398	666.801575
-7046.789362	6595.901667	1420.783203	508.583710
-7046.789362	6595.901667	1419.708008	447.210571
-7046.789362	6595.901667	1418.631836	514.882019
-7046.789362	6595.901667	1417.555664	411.691650
-7046.789362	6595.901667	1416.479492	432.795197
-7046.789362	6595.901667	1415.403320	383.415283
-7046.789362	6595.901667	1414.327148	426.881958
-7046.789362	6595.901667	1413.250000	434.464966
-7046.789362	6595.901667	1412.173828	317.899078
-7046.789362	6595.901667	1411.096680	223.700958
-7046.789362	6595.901667	1410.018555	338.032776
-7046.789362	6595.901667	1408.941406	236.237000
-7046.789362	6595.901667	1407.863281	221.330948
-7046.789362	6595.901667	1406.785156	290.703369
-7046.789362	6595.901667	1405.707031	321.583160
-7046.789362	6595.901667	1404.628906	341.603607
-7046.789362	6595.901667	1403.549805	411.063019
-7046.789362	6595.901667	1402.470703	287.140533
-7046.789362	6595.901667	1401.391602	144.265244
-7046.789362	6595.901667	1400.312500	172.262817
-7046.789362	6595.901667	1399.233398	293.424622
-7046.789362	6595.901667	1398.153320	281.503296
-7046.789362	6595.901667	1397.073242	155.163101
-7046.789362	6595.901667	1395.993164	165.347824
-7046.789362	6595.901667	1394.913086	172.515381
-7046.789362	6595.901667	1393.832031	11.465837
-7046.789362	6595.901667	1392.750977	52.759354
-7046.789362	6595.901667	1391.669922	34.616051
-7046.789362	6595.901667	1390.588867	-31.145309
-7046.789362	6595.901667	1389.506836	97.392616
-7046.789362	6595.901667	1388.425781	62.760586
-7046.789362	6595.901667	1387.343750	-19.726107
-7046.789362	6595.901667	1386.261719	140.871429
-7046.789362	6595.901667	1385.178711	22.058044
-7046.789362	6595.901667	1384.096680	-78.893547
-7046.789362	6595.901667	1383.013672	-181.653687
-7046.789362	6595.901667	1381.930664	72.572853
-7046.789362	6595.901667	1380.846680	-86.705551
-7046.789362	6595.901667	1379.763672	-50.416630
-7046.789362	6595.901667	1378.679688	-28.779814
-7046.789362	6595.901667	1377.595703	48.290520
-7046.789362	6595.901667	1376.511719	-78.039742
-7046.789362	6595.901667	1375.427734	104.318146
-7046.789362	6595.901667	1374.342773	26.589510
-7046.789362	6595.901667	1373.257813	-29.737318
-7046.789362	6595.901667	1372.172852	6.405397
-7046.789362	6595.901667	1371.087891	75.705513
-7046.789362	6595.901667	1370.001953	44.980247
-7046.789362	6595.901667	1368.916992	-54.894981
-7046.789362	6595.901667	1367.831055	-73.287025
-7046.789362	6595.901667	1366.744141	-52.110989
-7046.789362	6595.901667	1365.658203	85.991768
-7046.789362	6595.901667	1364.571289	216.815689
-7046.789362	6595.901667	1363.484375	109.148148
-7046.789362	6595.901667	1362.397461	132.251694
-7046.789362	6595.901667	1361.310547	97.197456
-7046.789362	6595.901667	1360.222656	162.129547
-7046.789362	6595.901667	1359.135742	234.717789
-7046.789362	6595.901667	1358.047852	221.600204
-7046.789362	6595.901667	1356.958984	298.329437
-7046.789362	6595.901667	1355.871094	301.926208
-7046.789362	6595.901667	1354.782227	358.187897
-7046.789362	6595.901667	1353.693359	546.326416
-7046.789362	6595.901667	1352.604492	403.092529
-7046.789362	6595.901667	1351.515625	388.823029
-7046.789362	6595.901667	1350.425781	408.343872
-7046.789362	6595.901667	1349.335938	443.690582
-7046.789362	6595.901667	1348.246094	364.795135
-7046.789362	6595.901667	1347.156250	491.717407
-7046.789362	6595.901667	1346.066406	295.481628
-7046.789362	6595.901667	1344.975586	299.103821
-7046.789362	6595.901667	1343.884766	367.013916
-7046.789362	6595.901667	1342.793945	374.037903
-7046.789362	6595.901667	1341.702148	291.365692
-7046.789362	6595.901667	1340.611328	248.459229
-7046.789362	6595.901667	1339.519531	240.351837
-7046.789362	6595.901667	1338.427734	250.707230
-7046.789362	6595.901667	1337.334961	282.203674
-7046.789362	6595.901667	1336.243164	372.358124
-7046.789362	6595.901667	1335.150391	321.720642
-7046.789362	6595.901667	1334.057617	255.410904
-7046.789362	6595.901667	1332.964844	69.747604
-7046.789362	6595.901667	1331.871094	100.879768
-7046.789362	6595.901667	1330.778320	414.076569
-7046.789362	6595.901667	1329.684570	327.466888
-7046.789362	6595.901667	1328.590820	266.181091
-7046.789362	6595.901667	1327.496094	227.448334
-7046.789362	6595.901667	1326.402344	277.571808
-7046.789362	6595.901667	1325.307617	155.856873
-7046.789362	6595.901667	1324.212891	181.501099
-7046.789362	6595.901667	1323.117188	133.514572
-7046.789362	6595.901667	1322.022461	274.125061
-7046.789362	6595.901667	1320.926758	260.758667
-7046.789362	6595.901667	1319.831055	144.035782
-7046.789362	6595.901667	1318.735352	156.434204
-7046.789362	6595.901667	1317.638672	159.737518
-7046.789362	6595.901667	1316.542969	61.780731
-7046.789362	6595.901667	1315.446289	154.228424
-7046.789362	6595.901667	1314.349609	127.688637
-7046.789362	6595.901667	1313.251953	188.102753
-7046.789362	6595.901667	1312.155273	114.053192
-7046.789362	6595.901667	1311.057617	148.142166
-7046.789362	6595.901667	1309.959961	110.858994
-7046.789362	6595.901667	1308.862305	131.174652
-7046.789362	6595.901667	1307.763672	112.485153
-7046.789362	6595.901667	1306.665039	82.690918
-7046.789362	6595.901667	1305.566406	109.086624
-7046.789362	6595.901667	1304.467773	-49.526199
-7046.789362	6595.901667	1303.369141	-58.100929
-7046.789362	6595.901667	1302.269531	15.865496
-7046.789362	6595.901667	1301.169922	-5.467340
-7046.789362	6595.901667	1300.070313	-21.008371
-7046.789362	6595.901667	1298.970703	68.232880
-7046.789362	6595.901667	1297.870117	148.898209
-7046.789362	6595.901667	1296.769531	62.992817
-7046.789362	6595.901667	1295.668945	46.608761
-7046.789362	6595.901667	1294.568359	19.422543
-7046.789362	6595.901667	1293.466797	45.360184
-7046.789362	6595.901667	1292.366211	-20.352955
-7046.789362	6595.901667	1291.264648	32.660812
-7046.789362	6595.901667	1290.162109	38.605385
-7046.789362	6595.901667	1289.060547	50.739231
-7046.789362	6595.901667	1287.958008	31.461607
-7046.789362	6595.901667	1286.855469	107.789803
-7046.789362	6595.901667	1285.752930	3.451591
-7046.789362	6595.901667	1284.650391	111.422302
-7046.789362	6595.901667	1283.546875	30.083155
-7046.789362	6595.901667	1282.444336	159.169998
-7046.789362	6595.901667	1281.339844	277.300140
-7046.789362	6595.901667	1280.236328	269.430969
-7046.789362	6595.901667	1279.132813	275.242035
-7046.789362	6595.901667	1278.028320	292.892914
-7046.789362	6595.901667	1276.923828	255.182022
-7046.789362	6595.901667	1275.819336	320.359100
-7046.789362	6595.901667	1274.713867	256.866028
-7046.789362	6595.901667	1273.608398	313.964081
-7046.789362	6595.901667	1272.503906	326.657104
-7046.789362	6595.901667	1271.397461	233.219009
-7046.789362	6595.901667	1270.291992	308.751373
-7046.789362	6595.901667	1269.185547	295.766144
-7046.789362	6595.901667	1268.080078	242.027695
-7046.789362	6595.901667	1266.972656	206.882278
-7046.789362	6595.901667	1265.866211	320.594452
-7046.789362	6595.901667	1264.759766	206.567520
-7046.789362	6595.901667	1263.652344	304.443634
-7046.789362	6595.901667	1262.544922	234.376541
-7046.789362	6595.901667	1261.436523	263.239838
-7046.789362	6595.901667	1260.329102	283.634186
-7046.789362	6595.901667	1259.220703	156.961838
-7046.789362	6595.901667	1258.112305	86.467804
-7046.789362	6595.901667	1257.003906	191.304657
-7046.789362	6595.901667	1255.895508	155.421356
-7046.789362	6595.901667	1254.786133	159.730591
-7046.789362	6595.901667	1253.676758	166.879715
-7046.789362	6595.901667	1252.567383	110.029099
-7046.789362	6595.901667	1251.458008	225.396744
-7046.789362	6595.901667	1250.347656	159.848984
-7046.789362	6595.901667	1249.237305	96.398361
-7046.789362	6595.901667	1248.126953	307.959167
-7046.789362	6595.901667	1247.016602	182.204498
-7046.789362	6595.901667	1245.905273	224.247757
-7046.789362	6595.901667	1244.793945	121.742104
-7046.789362	6595.901667	1243.682617	117.531029
-7046.789362	6595.901667	1242.571289	183.527344
-7046.789362	6595.901667	1241.459961	38.093597
-7046.789362	6595.901667	1240.347656	61.109341
-7046.789362	6595.901667	1239.235352	7.579268
-7046.789362	6595.901667	1238.123047	-65.322563
-7046.789362	6595.901667	1237.009766	-30.289335
-7046.789362	6595.901667	1235.897461	-60.222569
-7046.789362	6595.901667	1234.784180	-23.540594
-7046.789362	6595.901667	1233.670898	82.224648
-7046.789362	6595.901667	1232.556641	34.982525
-7046.789362	6595.901667	1231.443359	115.553665
-7046.789362	6595.901667	1230.329102	117.787819
-7046.789362	6595.901667	1229.214844	128.849335
-7046.789362	6595.901667	1228.099609	63.016243
-7046.789362	6595.901667	1226.985352	81.315697
-7046.789362	6595.901667	1225.870117	20.335752
-7046.789362	6595.901667	1224.754883	-23.403301
-7046.789362	6595.901667	1223.639648	52.086075
-7046.789362	6595.901667	1222.523438	62.375378
-7046.789362	6595.901667	1221.408203	2.034727
-7046.789362	6595.901667	1220.291992	-85.997223
-7046.789362	6595.901667	1219.174805	-154.125519
-7046.789362	6595.901667	1218.058594	18.327890
-7046.789362	6595.901667	1216.941406	-31.723255
-7046.789362	6595.901667	1215.824219	9.642705
-7046.789362	6595.901667	1214.707031	71.865952
-7046.789362	6595.901667	1213.589844	26.420856
-7046.789362	6595.901667	1212.471680	-69.689461
-7046.789362	6595.901667	1211.353516	70.814583
-7046.789362	6595.901667	1210.235352	106.667122
-7046.789362	6595.901667	1209.117188	138.912338
-7046.789362	6595.901667	1207.998047	95.584137
-7046.789362	6595.901667	1206.878906	76.207199
-7046.789362	6595.901667	1205.759766	136.950256
-7046.789362	6595.901667	1204.640625	31.514225
-7046.789362	6595.901667	1203.520508	92.121948
-7046.789362	6595.901667	1202.401367	36.771378
-7046.789362	6595.901667	1201.281250	46.562222
-7046.789362	6595.901667	1200.160156	90.603134
-7046.789362	6595.901667	1199.040039	39.351547
-7046.789362	6595.901667	1197.918945	40.057072
-7046.789362	6595.901667	1196.797852	91.651680
-7046.789362	6595.901667	1195.676758	-17.352158
-7046.789362	6595.901667	1194.555664	32.229408
-7046.789362	6595.901667	1193.433594	-19.432081
-7046.789362	6595.901667	1192.311523	-8.697592
-7046.789362	6595.901667	1191.189453	-100.179657
-7046.789362	6595.901667	1190.066406	80.997360
-7046.789362	6595.901667	1188.944336	-4.709986
-7046.789362	6595.901667	1187.821289	-71.362221
-7046.789362	6595.901667	1186.698242	-12.556619
-7046.789362	6595.901667	1185.574219	-121.940506
-7046.789362	6595.901667	1184.451172	-84.711571
-7046.789362	6595.901667	1183.327148	-81.413300
-7046.789362	6595.901667	1182.203125	-62.570656
-7046.789362	6595.901667	1181.078125	-55.280712
-7046.789362	6595.901667	1179.954102	-105.522820
-7046.789362	6595.901667	1178.829102	-27.788763
-7046.789362	6595.901667	1177.704102	-25.436972
-7046.789362	6595.901667	1176.579102	-100.082886
-7046.789362	6595.901667	1175.453125	-47.406124
-7046.789362	6595.901667	1174.327148	-119.502396
-7046.789362	6595.901667	1173.201172	-22.918285
-7046.789362	6595.901667	1172.075195	8.283022
-7046.789362	6595.901667	1170.949219	-57.515373
-7046.789362	6595.901667	1169.822266	-109.533661
-7046.789362	6595.901667	1168.695313	-38.295219
-7046.789362	6595.901667	1167.568359	-82.605911
-7046.789362	6595.901667	1166.440430	-18.596102
-7046.789362	6595.901667	1165.313477	-70.849388
-7046.789362	6595.901667	1164.185547	-50.242039
-7046.789362	6595.901667	1163.057617	-91.756866
-7046.789362	6595.901667	1161.928711	-69.493500
-7046.789362	6595.901667	1160.800781	-60.258102
-7046.789362	6595.901667	1159.671875	20.468475
-7046.789362	6595.901667	1158.541992	-33.433113
-7046.789362	6595.901667	1157.413086	-121.334877
-7046.789362	6595.901667	1156.283203	45.584038
-7046.789362	6595.901667	1155.154297	5.559093
-7046.789362	6595.901667	1154.023438	-13.856402
-7046.789362	6595.901667	1152.893555	16.351282
-7046.789362	6595.901667	1151.763672	-57.960506
-7046.789362	6595.901667	1150.632813	-44.230865
-7046.789362	6595.901667	1149.501953	-94.182678
-7046.789362	6595.901667	1148.370117	-62.840492
-7046.789362	6595.901667	1147.239258	-3.586848
-7046.789362	6595.901667	1146.107422	-23.296879
-7046.789362	6595.901667	1144.975586	45.053169
-7046.789362	6595.901667	1143.843750	-22.988514
-7046.789362	6595.901667	1142.710938	41.476791
-7046.789362	6595.901667	1141.578125	-0.705819
-7046.789362	6595.901667	1140.445313	48.143677
-7046.789362	6595.901667	1139.312500	128.066650
-7046.789362	6595.901667	1138.178711	50.497402
-7046.789362	6595.901667	1137.045898	56.788544
-7046.789362	6595.901667	1135.912109	113.769302
-7046.789362	6595.901667	1134.777344	167.278854
-7046.789362	6595.901667	1133.643555	262.288513
-7046.789362	6595.901667	1132.508789	327.762238
-7046.789362	6595.901667	1131.374023	348.102356
-7046.789362	6595.901667	1130.239258	412.842438
-7046.789362	6595.901667	1129.104492	388.370056
-7046.789362	6595.901667	1127.968750	427.676086
-7046.789362	6595.901667	1126.833008	561.563782
-7046.789362	6595.901667	1125.697266	448.189819
-7046.789362	6595.901667	1124.560547	434.924835
-7046.789362	6595.901667	1123.424805	521.432434
-7046.789362	6595.901667	1122.288086	292.908112
-7046.789362	6595.901667	1121.151367	406.794464
-7046.789362	6595.901667	1120.013672	422.761963
-7046.789362	6595.901667	1118.876953	312.068481
-7046.789362	6595.901667	1117.739258	382.856293
-7046.789362	6595.901667	1116.601563	219.542603
-7046.789362	6595.901667	1115.462891	252.780746
-7046.789362	6595.901667	1114.324219	245.122238
-7046.789362	6595.901667	1113.186523	174.397995
-7046.789362	6595.901667	1112.046875	228.266312
-7046.789362	6595.901667	1110.908203	188.681488
-7046.789362	6595.901667	1109.769531	133.359833
-7046.789362	6595.901667	1108.629883	191.858368
-7046.789362	6595.901667	1107.490234	139.447479
-7046.789362	6595.901667	1106.349609	239.527954
-7046.789362	6595.901667	1105.209961	196.072418
-7046.789362	6595.901667	1104.069336	93.844368
-7046.789362	6595.901667	1102.928711	148.146500
-7046.789362	6595.901667	1101.787109	76.664207
-7046.789362	6595.901667	1100.646484	65.234505
-7046.789362	6595.901667	1099.504883	26.552912
-7046.789362	6595.901667	1098.363281	91.267899
-7046.789362	6595.901667	1097.221680	74.034683
-7046.789362	6595.901667	1096.079102	115.353989
-7046.789362	6595.901667	1094.936523	137.852386
-7046.789362	6595.901667	1093.793945	58.892109
-7046.789362	6595.901667	1092.651367	128.819794
-7046.789362	6595.901667	1091.507813	144.898331
-7046.789362	6595.901667	1090.364258	-61.805725
-7046.789362	6595.901667	1089.220703	85.612869
-7046.789362	6595.901667	1088.077148	36.758072
-7046.789362	6595.901667	1086.933594	74.727982
-7046.789362	6595.901667	1085.789063	128.098892
-7046.789362	6595.901667	1084.644531	-21.651896
-7046.789362	6595.901667	1083.499023	4.880991
-7046.789362	6595.901667	1082.354492	103.078117
-7046.789362	6595.901667	1081.208984	23.816637
-7046.789362	6595.901667	1080.063477	155.561234
-7046.789362	6595.901667	1078.917969	174.387589
-7046.789362	6595.901667	1077.771484	-32.233131
-7046.789362	6595.901667	1076.625977	102.786896
-7046.789362	6595.901667	1075.479492	209.602463
-7046.789362	6595.901667	1074.332031	57.264790
-7046.789362	6595.901667	1073.185547	177.176697
-7046.789362	6595.901667	1072.038086	98.145271
-7046.789362	6595.901667	1070.890625	171.737885
-7046.789362	6595.901667	1069.743164	81.558548
-7046.789362	6595.901667	1068.594727	125.414764
-7046.789362	6595.901667	1067.447266	112.644127
-7046.789362	6595.901667	1066.298828	195.324051
-7046.789362	6595.901667	1065.149414	184.354874
-7046.789362	6595.901667	1064.000977	56.776936
-7046.789362	6595.901667	1062.851563	144.838455
-7046.789362	6595.901667	1061.702148	53.211456
-7046.789362	6595.901667	1060.552734	216.959946
-7046.789362	6595.901667	1059.402344	249.402512
-7046.789362	6595.901667	1058.252930	128.058212
-7046.789362	6595.901667	1057.102539	104.785942
-7046.789362	6595.901667	1055.951172	163.804886
-7046.789362	6595.901667	1054.800781	46.563431
-7046.789362	6595.901667	1053.649414	83.628342
-7046.789362	6595.901667	1052.498047	319.008270
-7046.789362	6595.901667	1051.346680	101.985939
-7046.789362	6595.901667	1050.194336	110.446754
-7046.789362	6595.901667	1049.042969	26.816792
-7046.789362	6595.901667	1047.890625	118.005943
-7046.789362	6595.901667	1046.738281	140.538559
-7046.789362	6595.901667	1045.584961	221.554855
-7046.789362	6595.901667	1044.431641	107.549431
-7046.789362	6595.901667	1043.278320	77.490112
-7046.789362	6595.901667	1042.125000	50.764633
-7046.789362	6595.901667	1040.971680	15.556643
-7046.789362	6595.901667	1039.817383	58.170341
-7046.789362	6595.901667	1038.663086	25.768881
-7046.789362	6595.901667	1037.508789	102.084747
-7046.789362	6595.901667	1036.353516	-3.145785
-7046.789362	6595.901667	1035.198242	-16.285372
-7046.789362	6595.901667	1034.042969	187.605011
-7046.789362	6595.901667	1032.887695	319.203644
-7046.789362	6595.901667	1031.732422	143.952988
-7046.789362	6595.901667	1030.576172	350.578522
-7046.789362	6595.901667	1029.419922	184.765488
-7046.789362	6595.901667	1028.263672	319.609680
-7046.789362	6595.901667	1027.106445	336.373657
-7046.789362	6595.901667	1025.949219	264.517151
-7046.789362	6595.901667	1024.792969	154.752884
-7046.789362	6595.901667	1023.634766	171.936630
-7046.789362	6595.901667	1022.477539	12.784567
-7046.789362	6595.901667	1021.319336	96.882149
-7046.789362	6595.901667	1020.161133	106.471924
-7046.789362	6595.901667	1019.002930	30.291782
-7046.789362	6595.901667	1017.843750	24.771620
-7046.789362	6595.901667	1016.684570	-70.555916
-7046.789362	6595.901667	1015.525391	98.074409
-7046.789362	6595.901667	1014.366211	55.342861
-7046.789362	6595.901667	1013.207031	-135.280243
-7046.789362	6595.901667	1012.046875	-65.610191
-7046.789362	6595.901667	1010.886719	-10.323726
-7046.789362	6595.901667	1009.726563	-54.986164
-7046.789362	6595.901667	1008.565430	88.187744
-7046.789362	6595.901667	1007.404297	-104.621742
-7046.789362	6595.901667	1006.243164	74.626984
-7046.789362	6595.901667	1005.082031	-0.516164
-7046.789362	6595.901667	1003.920898	68.812202
-7046.789362	6595.901667	1002.758789	22.145325
-7046.789362	6595.901667	1001.596680	191.682083
-7046.789362	6595.901667	1000.433594	100.492821
-7046.789362	6595.901667	999.271484	5.915720
-7046.789362	6595.901667	998.108398	120.034668
-7046.789362	6595.901667	996.945313	71.360130
-7046.789362	6595.901667	995.782227	130.621246
-7046.789362	6595.901667	994.618164	77.320396
-7046.789362	6595.901667	993.454102	123.802094
-7046.789362	6595.901667	992.290039	-80.266068
-7046.789362	6595.901667	991.125977	35.001305
-7046.789362	6595.901667	989.960938	94.731544
-7046.789362	6595.901667	988.796875	69.957939
-7046.789362	6595.901667	987.630859	64.690628
-7046.789362	6595.901667	986.465820	198.825500
-7046.789362	6595.901667	985.300781	76.769669
-7046.789362	6595.901667	984.134766	85.283714
-7046.789362	6595.901667	982.968750	78.048210
-7046.789362	6595.901667	981.801758	51.201645
-7046.789362	6595.901667	980.635742	36.476234
-7046.789362	6595.901667	979.468750	-37.162720
-7046.789362	6595.901667	978.301758	-10.017000
-7046.789362	6595.901667	977.133789	47.681221
-7046.789362	6595.901667	975.966797	73.196503
-7046.789362	6595.901667	974.798828	-64.746201
-7046.789362	6595.901667	973.630859	-2.326541
-7046.789362	6595.901667	972.461914	-36.422726
-7046.789362	6595.901667	971.293945	-10.104573
-7046.789362	6595.901667	970.125000	-89.494385
-7046.789362	6595.901667	968.956055	13.598851
-7046.789362	6595.901667	967.786133	-83.179199
-7046.789362	6595.901667	966.617188	-238.770828
-7046.789362	6595.901667	965.447266	-39.331593
-7046.789362	6595.901667	964.276367	-7.795975
-7046.789362	6595.901667	963.106445	43.289822
-7046.789362	6595.901667	961.935547	48.463017
-7046.789362	6595.901667	960.764648	-57.579445
-7046.789362	6595.901667	959.593750	-102.630379
-7046.789362	6595.901667	958.422852	108.314270
-7046.789362	6595.901667	957.250977	-49.628223
-7046.789362	6595.901667	956.079102	72.960312
-7046.789362	6595.901667	954.907227	-33.433144
-7046.789362	6595.901667	953.734375	24.962446
-7046.789362	6595.901667	952.562500	112.917961
-7046.789362	6595.901667	951.389648	77.692604
-7046.789362	6595.901667	950.215820	18.393436
-7046.789362	6595.901667	949.042969	87.071671
-7046.789362	6595.901667	947.869141	66.862427
-7046.789362	6595.901667	946.695313	2.148328
-7046.789362	6595.901667	945.521484	198.771332
-7046.789362	6595.901667	944.346680	-45.641632
-7046.789362	6595.901667	943.172852	51.949997
-7046.789362	6595.901667	941.998047	21.938087
-7046.789362	6595.901667	940.822266	85.538109
-7046.789362	6595.901667	939.647461	-28.506697
-7046.789362	6595.901667	938.471680	-85.777153
-7046.789362	6595.901667	937.295898	41.632374
-7046.789362	6595.901667	936.119141	114.883919
-7046.789362	6595.901667	934.943359	237.222260
-7046.789362	6595.901667	933.766602	19.989349
-7046.789362	6595.901667	932.589844	85.772995
-7046.789362	6595.901667	931.413086	161.387314
-7046.789362	6595.901667	930.235352	138.511414
-7046.789362	6595.901667	929.057617	64.010918
-7046.789362	6595.901667	927.879883	114.939232
-7046.789362	6595.901667	926.702148	229.801407
-7046.789362	6595.901667	925.523438	76.617783
-7046.789362	6595.901667	924.344727	19.333649
-7046.789362	6595.901667	923.166016	33.350048
-7046.789362	6595.901667	921.987305	157.953262
-7046.789362	6595.901667	920.807617	191.585526
-7046.789362	6595.901667	919.627930	191.762421
-7046.789362	6595.901667	919.497070	264.522369
-7046.789362	6595.901667	918.331055	295.644165
-7046.789362	6595.901667	917.165039	226.059174
-7046.789362	6595.901667	915.999023	269.437927
-7046.789362	6595.901667	914.833008	310.336761
-7046.789362	6595.901667	913.666016	199.047440
-7046.789362	6595.901667	912.499023	117.241859
-7046.789362	6595.901667	911.332031	91.888412
-7046.789362	6595.901667	910.165039	-7.044462
-7046.789362	6595.901667	908.997070	38.740341
-7046.789362	6595.901667	907.830078	-128.803604
-7046.789362	6595.901667	906.661133	-90.378517
-7046.789362	6595.901667	905.493164	63.211773
-7046.789362	6595.901667	904.325195	-60.147736
-7046.789362	6595.901667	903.156250	-38.926060
-7046.789362	6595.901667	901.987305	-164.674896
-7046.789362	6595.901667	900.818359	-74.884811
-7046.789362	6595.901667	899.648438	-149.171829
-7046.789362	6595.901667	898.478516	14.001253
-7046.789362	6595.901667	897.308594	25.371386
-7046.789362	6595.901667	896.138672	12.264398
-7046.789362	6595.901667	894.968750	43.191174
-7046.789362	6595.901667	893.797852	-57.971645
-7046.789362	6595.901667	892.626953	95.212563
-7046.789362	6595.901667	891.456055	40.522736
-7046.789362	6595.901667	890.284180	-63.035088
-7046.789362	6595.901667	889.113281	-142.116119
-7046.789362	6595.901667	887.941406	10.943911
-7046.789362	6595.901667	886.768555	112.639259
-7046.789362	6595.901667	885.596680	138.577927
-7046.789362	6595.901667	884.423828	298.801575
-7046.789362	6595.901667	883.250977	339.332794
-7046.789362	6595.901667	882.078125	365.199066
-7046.789362	6595.901667	880.905273	298.320923
-7046.789362	6595.901667	879.731445	336.378174
-7046.789362	6595.901667	878.557617	340.266937
-7046.789362	6595.901667	877.383789	217.334000
-7046.789362	6595.901667	876.209961	223.678146
-7046.789362	6595.901667	875.035156	95.938652
-7046.789362	6595.901667	873.860352	133.985260
-7046.789362	6595.901667	872.685547	81.852768
-7046.789362	6595.901667	871.510742	236.824982
-7046.789362	6595.901667	870.334961	243.148087
-7046.789362	6595.901667	869.159180	298.172333
-7046.789362	6595.901667	867.983398	260.649750
-7046.789362	6595.901667	866.807617	174.454514
-7046.789362	6595.901667	865.630859	78.557899
-7046.789362	6595.901667	864.454102	-75.700142
-7046.789362	6595.901667	863.277344	10.951999
-7046.789362	6595.901667	862.100586	48.921158
-7046.789362	6595.901667	860.922852	30.941809
-7046.789362	6595.901667	859.745117	66.457909
-7046.789362	6595.901667	858.567383	-85.214516
-7046.789362	6595.901667	857.389648	-1.084154
-7046.789362	6595.901667	856.210938	0.396437
-7046.789362	6595.901667	855.032227	-29.705246
-7046.789362	6595.901667	853.853516	20.356499
-7046.789362	6595.901667	852.674805	-7.309348
-7046.789362	6595.901667	851.495117	-136.933182
-7046.789362	6595.901667	850.315430	10.211675
-7046.789362	6595.901667	849.135742	67.503235
-7046.789362	6595.901667	847.956055	61.686695
-7046.789362	6595.901667	846.775391	-55.715889
-7046.789362	6595.901667	845.595703	113.119316
-7046.789362	6595.901667	844.415039	53.950672
-7046.789362	6595.901667	843.233398	103.901794
-7046.789362	6595.901667	842.052734	47.184204
-7046.789362	6595.901667	840.871094	-41.013561
-7046.789362	6595.901667	839.689453	62.229965
-7046.789362	6595.901667	838.506836	-96.181343
-7046.789362	6595.901667	837.325195	-36.560867
-7046.789362	6595.901667	836.142578	52.092415
-7046.789362	6595.901667	834.959961	53.558849
-7046.789362	6595.901667	833.777344	-22.425655
-7046.789362	6595.901667	832.593750	0.836222
-7046.789362	6595.901667	831.410156	33.766914
-7046.789362	6595.901667	830.226563	-5.880593
-7046.789362	6595.901667	829.042969	17.366415
-7046.789362	6595.901667	827.858398	91.380058
-7046.789362	6595.901667	826.673828	20.322998
-7046.789362	6595.901667	825.489258	-36.202671
-7046.789362	6595.901667	824.304688	57.111206
-7046.789362	6595.901667	823.120117	-1.811985
-7046.789362	6595.901667	821.934570	26.244116
-7046.789362	6595.901667	820.749023	-107.506584
-7046.789362	6595.901667	819.562500	34.038010
-7046.789362	6595.901667	818.376953	-48.964851
-7046.789362	6595.901667	817.190430	49.071804
-7046.789362	6595.901667	816.003906	-120.760208
-7046.789362	6595.901667	814.817383	6.202235
-7046.789362	6595.901667	813.629883	-9.187306
-7046.789362	6595.901667	812.442383	-60.739365
-7046.789362	6595.901667	811.254883	-15.832827
-7046.789362	6595.901667	810.067383	-40.844616
-7046.789362	6595.901667	808.878906	131.766815
-7046.789362	6595.901667	807.690430	-52.281254
-7046.789362	6595.901667	806.501953	11.864710
-7046.789362	6595.901667	805.313477	78.394180
-7046.789362	6595.901667	804.124023	65.437073
-7046.789362	6595.901667	802.934570	16.376677
-7046.789362	6595.901667	801.745117	29.917591
-7046.789362	6595.901667	800.555664	-35.956295
-7046.789362	6595.901667	799.365234	-32.030094
-7046.789362	6595.901667	798.175781	-47.346851
-7046.789362	6595.901667	796.985352	-132.397690
-7046.789362	6595.901667	795.793945	-94.786636
-7046.789362	6595.901667	794.603516	-126.902428
-7046.789362	6595.901667	793.412109	-106.128288
-7046.789362	6595.901667	792.220703	15.562089
-7046.789362	6595.901667	791.028320	-88.623734
-7046.789362	6595.901667	789.836914	198.748215
-7046.789362	6595.901667	788.644531	195.430939
-7046.789362	6595.901667	787.452148	117.688057
-7046.789362	6595.901667	786.258789	186.405334
-7046.789362	6595.901667	785.066406	228.696915
-7046.789362	6595.901667	783.873047	86.216187
-7046.789362	6595.901667	782.679688	-61.001770
-7046.789362	6595.901667	781.485352	77.257439
-7046.789362	6595.901667	780.291992	217.858398
-7046.789362	6595.901667	779.097656	238.530701
-7046.789362	6595.901667	777.903320	340.691742
-7046.789362	6595.901667	776.708008	236.717987
-7046.789362	6595.901667	775.512695	132.789032
-7046.789362	6595.901667	774.318359	143.886215
-7046.789362	6595.901667	773.122070	152.585388
-7046.789362	6595.901667	771.926758	182.832077
-7046.789362	6595.901667	770.730469	134.067322
-7046.789362	6595.901667	769.534180	6.339825
-7046.789362	6595.901667	768.337891	46.173939
-7046.789362	6595.901667	767.141602	28.573517
-7046.789362	6595.901667	765.944336	118.620132
-7046.789362	6595.901667	764.747070	117.754570
-7046.789362	6595.901667	763.549805	-19.395309
-7046.789362	6595.901667	762.351563	72.998650
-7046.789362	6595.901667	761.154297	220.324387
-7046.789362	6595.901667	759.956055	95.189453
-7046.789362	6595.901667	758.757813	75.222099
-7046.789362	6595.901667	757.558594	12.271462
-7046.789362	6595.901667	756.359375	30.539053
-7046.789362	6595.901667	755.160156	53.574596
-7046.789362	6595.901667	753.960938	-16.491604
-7046.789362	6595.901667	752.761719	123.482948
-7046.789362	6595.901667	751.561523	-39.621845
-7046.789362	6595.901667	750.361328	-33.287605
-7046.789362	6595.901667	749.160156	139.993500
-7046.789362	6595.901667	747.959961	60.445801
-7046.789362	6595.901667	746.758789	145.427322
-7046.789362	6595.901667	745.557617	113.581421
-7046.789362	6595.901667	744.356445	167.537415
-7046.789362	6595.901667	743.154297	35.634186
-7046.789362	6595.901667	741.952148	161.043411
-7046.789362	6595.901667	740.750000	153.035004
-7046.789362	6595.901667	739.547852	123.600113
-7046.789362	6595.901667	738.344727	194.159119
-7046.789362	6595.901667	737.142578	271.827972
-7046.789362	6595.901667	735.939453	194.793747
-7046.789362	6595.901667	734.735352	215.331268
-7046.789362	6595.901667	733.532227	193.045700
-7046.789362	6595.901667	732.328125	265.889771
-7046.789362	6595.901667	731.124023	98.570305
-7046.789362	6595.901667	729.918945	-25.893656
-7046.789362	6595.901667	728.714844	-7.713832
-7046.789362	6595.901667	727.509766	57.977524
-7046.789362	6595.901667	726.303711	49.997684
-7046.789362	6595.901667	725.098633	-0.731759
-7046.789362	6595.901667	723.892578	-132.177063
-7046.789362	6595.901667	722.686523	-30.910675
-7046.789362	6595.901667	721.480469	-36.499619
-7046.789362	6595.901667	720.274414	-23.103666
-7046.789362	6595.901667	719.067383	37.735634
-7046.789362	6595.901667	717.860352	-27.172827
-7046.789362	6595.901667	716.653320	-103.914619
-7046.789362	6595.901667	715.445313	75.449669
-7046.789362	6595.901667	714.238281	-41.586582
-7046.789362	6595.901667	713.030273	52.360443
-7046.789362	6595.901667	711.821289	-17.236233
-7046.789362	6595.901667	710.613281	-82.069252
-7046.789362	6595.901667	709.404297	28.398506
-7046.789362	6595.901667	708.195313	22.779154
-7046.789362	6595.901667	706.986328	-113.059753
-7046.789362	6595.901667	705.776367	4.435427
-7046.789362	6595.901667	704.566406	39.045761
-7046.789362	6595.901667	703.356445	9.752568
-7046.789362	6595.901667	702.146484	63.264713
-7046.789362	6595.901667	700.935547	0.858962
-7046.789362	6595.901667	699.724609	148.926743
-7046.789362	6595.901667	698.513672	-26.957836
-7046.789362	6595.901667	697.302734	144.680664
-7046.789362	6595.901667	696.090820	122.465210
-7046.789362	6595.901667	694.878906	293.990845
-7046.789362	6595.901667	693.666992	432.369263
-7046.789362	6595.901667	692.455078	334.520264
-7046.789362	6595.901667	691.242188	208.372925
-7046.789362	6595.901667	690.029297	242.797714
-7046.789362	6595.901667	688.816406	225.278870
-7046.789362	6595.901667	687.602539	295.069214
-7046.789362	6595.901667	686.389648	327.077759
-7046.789362	6595.901667	685.175781	132.634979
-7046.789362	6595.901667	683.960938	-45.224602
-7046.789362	6595.901667	682.747070	5.678593
-7046.789362	6595.901667	681.532227	28.268234
-7046.789362	6595.901667	680.317383	67.338654
-7046.789362	6595.901667	679.102539	78.111397
-7046.789362	6595.901667	677.886719	-24.199827
-7046.789362	6595.901667	676.670898	-84.080948
-7046.789362	6595.901667	675.455078	82.106583
-7046.789362	6595.901667	674.239258	62.235691
-7046.789362	6595.901667	673.022461	47.072796
-7046.789362	6595.901667	671.805664	62.501129
-7046.789362	6595.901667	670.588867	84.973206
-7046.789362	6595.901667	669.372070	3.931298
-7046.789362	6595.901667	668.154297	45.204788
-7046.789362	6595.901667	666.936523	62.941097
-7046.789362	6595.901667	665.718750	-55.680202
-7046.789362	6595.901667	664.500977	84.266060
-7046.789362	6595.901667	663.282227	101.958389
-7046.789362	6595.901667	662.063477	18.617950
-7046.789362	6595.901667	660.844727	-36.510735
-7046.789362	6595.901667	659.625000	42.225414
-7046.789362	6595.901667	658.405273	31.704824
-7046.789362	6595.901667	657.185547	25.874657
-7046.789362	6595.901667	655.965820	-36.284241
-7046.789362	6595.901667	654.745117	28.272310
-7046.789362	6595.901667	653.525391	207.735428
-7046.789362	6595.901667	652.303711	171.348175
-7046.789362	6595.901667	651.083008	24.762308
-7046.789362	6595.901667	649.861328	147.821625
-7046.789362	6595.901667	648.640625	228.631363
-7046.789362	6595.901667	647.417969	285.963806
-7046.789362	6595.901667	646.196289	113.668579
-7046.789362	6595.901667	644.973633	145.216354
-7046.789362	6595.901667	643.750977	237.627747
-7046.789362	6595.901667	642.528320	189.511566
-7046.789362	6595.901667	641.305664	375.487366
-7046.789362	6595.901667	640.082031	540.311157
-7046.789362	6595.901667	638.858398	747.171570
-7046.789362	6595.901667	637.634766	946.916138
-7046.789362	6595.901667	636.410156	1181.648071
-7046.789362	6595.901667	635.185547	1252.585815
-7046.789362	6595.901667	633.960938	1106.063843
-7046.789362	6595.901667	632.736328	835.713257
-7046.789362	6595.901667	631.510742	775.782898
-7046.789362	6595.901667	630.285156	486.904175
-7046.789362	6595.901667	629.059570	438.730927
-7046.789362	6595.901667	627.833984	392.902252
-7046.789362	6595.901667	626.607422	473.164795
-7046.789362	6595.901667	625.380859	333.950958
-7046.789362	6595.901667	624.154297	204.120056
-7046.789362	6595.901667	622.927734	296.005066
-7046.789362	6595.901667	621.700195	289.858002
-7046.789362	6595.901667	620.472656	160.084946
-7046.789362	6595.901667	619.245117	279.869415
-7046.789362	6595.901667	618.016602	70.862892
-7046.789362	6595.901667	616.788086	178.937729
-7046.789362	6595.901667	615.559570	81.878098
-7046.789362	6595.901667	614.331055	92.024773
-7046.789362	6595.901667	613.101563	-9.657839
-7046.789362	6595.901667	611.872070	2.809150
-7046.789362	6595.901667	610.642578	71.142029
-7046.789362	6595.901667	609.413086	30.020464
-7046.789362	6595.901667	608.182617	-20.405632
-7046.789362	6595.901667	606.952148	8.294836
-7046.789362	6595.901667	605.721680	-74.698944
-7046.789362	6595.901667	604.491211	-108.823997
-7046.789362	6595.901667	603.259766	-24.347908
-7046.789362	6595.901667	602.028320	-7.343445
-7046.789362	6595.901667	600.796875	-97.284729
-7046.789362	6595.901667	599.564453	-129.100021
-7046.789362	6595.901667	598.332031	-107.473358
-7046.789362	6595.901667	597.099609	62.804722
-7046.789362	6595.901667	595.867188	-99.120255
-7046.789362	6595.901667	594.633789	-79.871384
-7046.789362	6595.901667	593.400391	-14.212766
-7046.789362	6595.901667	592.166992	165.136887
-7046.789362	6595.901667	590.933594	35.767910
-7046.789362	6595.901667	589.699219	119.884338
-7046.789362	6595.901667	588.464844	-21.041533
-7046.789362	6595.901667	587.230469	-29.733803
-7046.789362	6595.901667	585.995117	72.856262
-7046.789362	6595.901667	584.760742	115.121544
-7046.789362	6595.901667	583.525391	71.607208
-7046.789362	6595.901667	582.289063	106.879204
-7046.789362	6595.901667	581.053711	197.723038
-7046.789362	6595.901667	579.817383	91.649185
-7046.789362	6595.901667	578.581055	129.175903
-7046.789362	6595.901667	577.343750	157.413437
-7046.789362	6595.901667	576.107422	169.426651
-7046.789362	6595.901667	574.870117	81.915916
-7046.789362	6595.901667	573.631836	98.542885
-7046.789362	6595.901667	572.394531	73.516541
-7046.789362	6595.901667	571.156250	129.430756
-7046.789362	6595.901667	569.917969	67.391289
-7046.789362	6595.901667	568.679688	81.651634
-7046.789362	6595.901667	567.440430	119.005547
-7046.789362	6595.901667	566.202148	140.158707
-7046.789362	6595.901667	564.961914	350.723175
-7046.789362	6595.901667	563.722656	302.505524
-7046.789362	6595.901667	562.482422	395.156616
-7046.789362	6595.901667	561.243164	547.784058
-7046.789362	6595.901667	560.001953	568.767395
-7046.789362	6595.901667	558.761719	714.347473
-7046.789362	6595.901667	557.520508	582.990906
-7046.789362	6595.901667	556.279297	564.708374
-7046.789362	6595.901667	555.038086	336.558197
-7046.789362	6595.901667	553.795898	214.558060
-7046.789362	6595.901667	552.554688	175.589188
-7046.789362	6595.901667	551.311523	-33.925076
-7046.789362	6595.901667	550.069336	28.541330
-7046.789362	6595.901667	548.826172	213.069336
-7046.789362	6595.901667	547.583984	65.841408
-7046.789362	6595.901667	546.339844	-9.949127
-7046.789362	6595.901667	545.096680	-41.972916
-7046.789362	6595.901667	543.852539	142.373871
-7046.789362	6595.901667	542.608398	-16.258377
-7046.789362	6595.901667	541.364258	13.832600
-7046.789362	6595.901667	540.119141	76.104988
-7046.789362	6595.901667	538.875000	14.153965
-7046.789362	6595.901667	537.628906	161.455414
-7046.789362	6595.901667	536.383789	175.354965
-7046.789362	6595.901667	535.137695	72.024689
-7046.789362	6595.901667	533.892578	111.196548
-7046.789362	6595.901667	532.645508	166.422516
-7046.789362	6595.901667	531.399414	40.166939
-7046.789362	6595.901667	530.152344	40.256149
-7046.789362	6595.901667	528.905273	15.082310
-7046.789362	6595.901667	527.658203	-37.632801
-7046.789362	6595.901667	526.410156	111.614342
-7046.789362	6595.901667	525.163086	54.296467
-7046.789362	6595.901667	523.914063	26.814562
-7046.789362	6595.901667	522.666016	31.445074
-7046.789362	6595.901667	521.416992	123.195412
-7046.789362	6595.901667	520.167969	267.624237
-7046.789362	6595.901667	518.918945	256.133545
-7046.789362	6595.901667	517.669922	292.759949
-7046.789362	6595.901667	516.419922	237.725250
-7046.789362	6595.901667	515.169922	212.482635
-7046.789362	6595.901667	513.919922	150.604919
-7046.789362	6595.901667	512.668945	219.244476
-7046.789362	6595.901667	511.417969	100.152374
-7046.789362	6595.901667	510.166992	31.450739
-7046.789362	6595.901667	508.916016	-46.379917
-7046.789362	6595.901667	507.664063	-7.522721
-7046.789362	6595.901667	506.412109	35.884724
-7046.789362	6595.901667	505.160156	-64.783531
-7046.789362	6595.901667	503.907227	26.609180
-7046.789362	6595.901667	502.655273	-117.452118
-7046.789362	6595.901667	501.402344	-108.362099
-7046.789362	6595.901667	500.148438	-69.584656
-7046.789362	6595.901667	498.895508	12.567399
-7046.789362	6595.901667	497.641602	23.885853
-7046.789362	6595.901667	496.387695	-74.394852
-7046.789362	6595.901667	495.132813	69.312050
-7046.789362	6595.901667	493.878906	-99.694443
-7046.789362	6595.901667	492.624023	5.155218
-7046.789362	6595.901667	491.368164	2.739853
-7046.789362	6595.901667	490.113281	9.441467
-7046.789362	6595.901667	488.857422	-52.271534
-7046.789362	6595.901667	487.601563	-100.287796
-7046.789362	6595.901667	486.344727	-218.944977
-7046.789362	6595.901667	485.088867	-93.741959
-7046.789362	6595.901667	483.832031	81.517128
-7046.789362	6595.901667	482.575195	6.149660
-7046.789362	6595.901667	481.317383	-119.291977
-7046.789362	6595.901667	480.059570	-142.237488
-7046.789362	6595.901667	478.801758	-96.895576
-7046.789362	6595.901667	477.543945	-17.446142
-7046.789362	6595.901667	476.285156	48.307171
-7046.789362	6595.901667	475.027344	54.881573
-7046.789362	6595.901667	473.767578	-43.173008
-7046.789362	6595.901667	472.508789	6.599297
-7046.789362	6595.901667	471.249023	13.146499
-7046.789362	6595.901667	469.989258	119.682343
-7046.789362	6595.901667	468.729492	62.558048
-7046.789362	6595.901667	467.469727	180.373825
-7046.789362	6595.901667	466.208984	227.716461
-7046.789362	6595.901667	464.948242	215.985657
-7046.789362	6595.901667	463.686523	263.274475
-7046.789362	6595.901667	462.425781	249.246078
-7046.789362	6595.901667	461.164063	496.181641
-7046.789362	6595.901667	459.901367	404.939056
-7046.789362	6595.901667	458.639648	490.653595
-7046.789362	6595.901667	457.376953	474.261139
-7046.789362	6595.901667	456.114258	428.384430
-7046.789362	6595.901667	454.851563	280.501862
-7046.789362	6595.901667	453.587891	255.049911
-7046.789362	6595.901667	452.324219	152.551224
-7046.789362	6595.901667	451.060547	174.675476
-7046.789362	6595.901667	449.796875	178.651917
-7046.789362	6595.901667	448.532227	182.605362
-7046.789362	6595.901667	447.267578	62.020229
-7046.789362	6595.901667	446.002930	133.858093
-7046.789362	6595.901667	444.737305	33.657192
-7046.789362	6595.901667	443.471680	-100.461395
-7046.789362	6595.901667	442.206055	-110.136787
-7046.789362	6595.901667	440.940430	-90.434425
-7046.789362	6595.901667	439.673828	46.803818
-7046.789362	6595.901667	438.407227	-42.095978
-7046.789362	6595.901667	437.140625	-45.104641
-7046.789362	6595.901667	435.873047	51.275608
-7046.789362	6595.901667	434.605469	32.372746
-7046.789362	6595.901667	433.337891	81.202133
-7046.789362	6595.901667	432.070313	105.137993
-7046.789362	6595.901667	430.801758	208.042557
-7046.789362	6595.901667	429.533203	191.240311
-7046.789362	6595.901667	428.264648	316.573547
-7046.789362	6595.901667	426.996094	256.812836
-7046.789362	6595.901667	425.726563	359.439667
-7046.789362	6595.901667	424.457031	243.232056
-7046.789362	6595.901667	423.186523	278.090332
-7046.789362	6595.901667	421.916992	28.866100
-7046.789362	6595.901667	420.646484	156.062180
-7046.789362	6595.901667	419.375977	37.558037
-7046.789362	6595.901667	418.104492	11.412306
-7046.789362	6595.901667	416.833008	46.034184
-7046.789362	6595.901667	415.561523	87.340645
-7046.789362	6595.901667	414.290039	-6.501410
-7046.789362	6595.901667	413.017578	66.190277
-7046.789362	6595.901667	411.746094	84.785042
-7046.789362	6595.901667	410.472656	157.297409
-7046.789362	6595.901667	409.200195	72.265938
-7046.789362	6595.901667	407.926758	52.414619
-7046.789362	6595.901667	406.653320	61.728630
-7046.789362	6595.901667	405.379883	-84.133896
-7046.789362	6595.901667	404.105469	-30.000359
-7046.789362	6595.901667	402.831055	66.719826
-7046.789362	6595.901667	401.556641	-59.071297
-7046.789362	6595.901667	400.282227	17.233797
-7046.789362	6595.901667	399.006836	59.734886
-7046.789362	6595.901667	397.731445	104.371094
-7046.789362	6595.901667	396.456055	7.497757
-7046.789362	6595.901667	395.179688	-26.604187
-7046.789362	6595.901667	393.903320	80.542908
-7046.789362	6595.901667	392.626953	203.239426
-7046.789362	6595.901667	391.350586	65.652817
-7046.789362	6595.901667	390.073242	194.803604
-7046.789362	6595.901667	388.795898	175.846588
-7046.789362	6595.901667	387.518555	76.104233
-7046.789362	6595.901667	386.240234	56.936813
-7046.789362	6595.901667	384.961914	71.251045
-7046.789362	6595.901667	383.683594	42.877396
-7046.789362	6595.901667	382.405273	150.961639
-7046.789362	6595.901667	381.125977	68.580009
-7046.789362	6595.901667	379.846680	55.470253
-7046.789362	6595.901667	378.567383	156.333481
-7046.789362	6595.901667	377.287109	183.172028
-7046.789362	6595.901667	376.006836	142.743118
-7046.789362	6595.901667	374.726563	86.516090
-7046.789362	6595.901667	373.446289	121.806335
-7046.789362	6595.901667	372.165039	65.263138
-7046.789362	6595.901667	370.883789	53.258965
-7046.789362	6595.901667	369.602539	41.076130
-7046.789362	6595.901667	368.320313	39.872879
-7046.789362	6595.901667	367.039063	-21.816160
-7046.789362	6595.901667	365.755859	30.177494
-7046.789362	6595.901667	364.473633	-116.719719
-7046.789362	6595.901667	363.190430	-22.745277
-7046.789362	6595.901667	361.907227	-111.992996
-7046.789362	6595.901667	360.624023	-237.120010
-7046.789362	6595.901667	359.340820	-181.772858
-7046.789362	6595.901667	358.056641	-95.477852
-7046.789362	6595.901667	356.772461	-0.549928
-7046.789362	6595.901667	355.487305	-68.626945
-7046.789362	6595.901667	354.202148	63.614880
-7046.789362	6595.901667	352.916992	6.164933
-7046.789362	6595.901667	351.631836	-18.125736
-7046.789362	6595.901667	350.346680	-40.461418
-7046.789362	6595.901667	349.060547	-23.011608
-7046.789362	6595.901667	347.774414	65.360123
-7046.789362	6595.901667	346.487305	115.545479
-7046.789362	6595.901667	345.200195	49.696091
-7046.789362	6595.901667	343.913086	128.139984
-7046.789362	6595.901667	342.625977	159.512604
-7046.789362	6595.901667	341.338867	152.730011
-7046.789362	6595.901667	340.050781	270.076721
-7046.789362	6595.901667	338.762695	298.110870
-7046.789362	6595.901667	337.473633	332.417328
-7046.789362	6595.901667	336.184570	141.952789
-7046.789362	6595.901667	334.895508	-6.620172
-7046.789362	6595.901667	333.606445	28.777830
-7046.789362	6595.901667	332.317383	-18.394644
-7046.789362	6595.901667	331.027344	87.171753
-7046.789362	6595.901667	329.736328	-20.788475
-7046.789362	6595.901667	328.446289	-124.697319
-7046.789362	6595.901667	327.155273	-31.614866
-7046.789362	6595.901667	325.864258	-61.012482
-7046.789362	6595.901667	324.573242	-57.619484
-7046.789362	6595.901667	323.281250	60.534550
-7046.789362	6595.901667	321.989258	-36.840282
-7046.789362	6595.901667	320.697266	-103.670319
-7046.789362	6595.901667	319.405273	8.433281
-7046.789362	6595.901667	318.112305	86.708389
-7046.789362	6595.901667	316.819336	-68.106560
-7046.789362	6595.901667	315.526367	46.656757
-7046.789362	6595.901667	314.232422	1.411385
-7046.789362	6595.901667	312.938477	137.036789
-7046.789362	6595.901667	311.644531	210.044235
-7046.789362	6595.901667	310.349609	322.185852
-7046.789362	6595.901667	309.054688	318.642365
-7046.789362	6595.901667	307.759766	256.958374
-7046.789362	6595.901667	306.464844	214.518951
-7046.789362	6595.901667	305.168945	217.795258
-7046.789362	6595.901667	303.873047	286.644501
-7046.789362	6595.901667	302.577148	191.276123
-7046.789362	6595.901667	301.281250	236.550049
-7046.789362	6595.901667	299.984375	148.543365
