#X		#Y		#Wave		#Intensity
20382.573617	-1263.584833	1999.980469	62.029530
20382.573617	-1263.584833	1999.016602	-58.190514
20382.573617	-1263.584833	1998.052734	1.020229
20382.573617	-1263.584833	1997.087891	0.545354
20382.573617	-1263.584833	1996.123047	-69.491547
20382.573617	-1263.584833	1995.158203	-28.209888
20382.573617	-1263.584833	1994.193359	-29.223839
20382.573617	-1263.584833	1993.228516	43.879673
20382.573617	-1263.584833	1992.262695	17.760157
20382.573617	-1263.584833	1991.297852	-189.215530
20382.573617	-1263.584833	1990.332031	-57.204666
20382.573617	-1263.584833	1989.366211	-24.371731
20382.573617	-1263.584833	1988.399414	13.252317
20382.573617	-1263.584833	1987.433594	18.562531
20382.573617	-1263.584833	1986.466797	-52.930077
20382.573617	-1263.584833	1985.500977	-10.789559
20382.573617	-1263.584833	1984.534180	88.068085
20382.573617	-1263.584833	1983.567383	45.877621
20382.573617	-1263.584833	1982.599609	65.365021
20382.573617	-1263.584833	1981.632813	87.199303
20382.573617	-1263.584833	1980.665039	212.667694
20382.573617	-1263.584833	1979.697266	36.658436
20382.573617	-1263.584833	1978.729492	-15.919806
20382.573617	-1263.584833	1977.761719	79.557877
20382.573617	-1263.584833	1976.792969	-74.413208
20382.573617	-1263.584833	1975.825195	287.397247
20382.573617	-1263.584833	1974.856445	133.261566
20382.573617	-1263.584833	1973.887695	13.635912
20382.573617	-1263.584833	1972.918945	172.704361
20382.573617	-1263.584833	1971.949219	188.593704
20382.573617	-1263.584833	1970.980469	118.100159
20382.573617	-1263.584833	1970.010742	91.934204
20382.573617	-1263.584833	1969.041016	102.679543
20382.573617	-1263.584833	1968.071289	32.029110
20382.573617	-1263.584833	1967.101563	47.577610
20382.573617	-1263.584833	1966.130859	-65.042191
20382.573617	-1263.584833	1965.161133	125.270004
20382.573617	-1263.584833	1964.190430	93.825989
20382.573617	-1263.584833	1963.219727	-31.219786
20382.573617	-1263.584833	1962.249023	33.274887
20382.573617	-1263.584833	1961.277344	183.836197
20382.573617	-1263.584833	1960.306641	75.922035
20382.573617	-1263.584833	1959.334961	71.333107
20382.573617	-1263.584833	1958.363281	140.497696
20382.573617	-1263.584833	1957.391602	130.897537
20382.573617	-1263.584833	1956.419922	163.064560
20382.573617	-1263.584833	1955.447266	30.469156
20382.573617	-1263.584833	1954.474609	-45.577656
20382.573617	-1263.584833	1953.501953	-55.275066
20382.573617	-1263.584833	1952.529297	43.111259
20382.573617	-1263.584833	1951.556641	129.150070
20382.573617	-1263.584833	1950.583984	-138.552338
20382.573617	-1263.584833	1949.610352	-86.943108
20382.573617	-1263.584833	1948.636719	148.766174
20382.573617	-1263.584833	1947.663086	-143.407745
20382.573617	-1263.584833	1946.689453	-40.349499
20382.573617	-1263.584833	1945.715820	72.468300
20382.573617	-1263.584833	1944.741211	-67.473625
20382.573617	-1263.584833	1943.767578	-25.859932
20382.573617	-1263.584833	1942.792969	108.917206
20382.573617	-1263.584833	1941.818359	-102.104050
20382.573617	-1263.584833	1940.842773	-77.708351
20382.573617	-1263.584833	1939.868164	12.849227
20382.573617	-1263.584833	1938.892578	-58.380417
20382.573617	-1263.584833	1937.916992	83.575798
20382.573617	-1263.584833	1936.941406	93.186722
20382.573617	-1263.584833	1935.965820	48.903587
20382.573617	-1263.584833	1934.990234	-63.934734
20382.573617	-1263.584833	1934.013672	41.168964
20382.573617	-1263.584833	1933.037109	-25.123945
20382.573617	-1263.584833	1932.060547	94.613174
20382.573617	-1263.584833	1931.083984	47.908005
20382.573617	-1263.584833	1930.107422	79.509361
20382.573617	-1263.584833	1929.129883	-69.912903
20382.573617	-1263.584833	1928.153320	-18.735386
20382.573617	-1263.584833	1927.175781	32.423782
20382.573617	-1263.584833	1926.198242	112.902946
20382.573617	-1263.584833	1925.219727	-2.188249
20382.573617	-1263.584833	1924.242188	-134.338379
20382.573617	-1263.584833	1923.263672	24.323067
20382.573617	-1263.584833	1922.285156	63.227051
20382.573617	-1263.584833	1921.306641	60.600094
20382.573617	-1263.584833	1920.328125	87.283424
20382.573617	-1263.584833	1919.349609	-42.295815
20382.573617	-1263.584833	1918.370117	72.285309
20382.573617	-1263.584833	1917.391602	206.356750
20382.573617	-1263.584833	1916.412109	35.362595
20382.573617	-1263.584833	1915.431641	23.018957
20382.573617	-1263.584833	1914.452148	-86.881950
20382.573617	-1263.584833	1913.472656	-26.018396
20382.573617	-1263.584833	1912.492188	183.567581
20382.573617	-1263.584833	1911.511719	-21.358524
20382.573617	-1263.584833	1910.531250	66.291801
20382.573617	-1263.584833	1909.550781	-121.461342
20382.573617	-1263.584833	1908.569336	-2.135165
20382.573617	-1263.584833	1907.588867	-82.602791
20382.573617	-1263.584833	1906.607422	85.399605
20382.573617	-1263.584833	1905.625977	-75.399796
20382.573617	-1263.584833	1904.644531	65.772430
20382.573617	-1263.584833	1903.662109	-9.749939
20382.573617	-1263.584833	1902.680664	-131.476944
20382.573617	-1263.584833	1901.698242	48.582245
20382.573617	-1263.584833	1900.715820	-109.589439
20382.573617	-1263.584833	1899.733398	177.440979
20382.573617	-1263.584833	1898.750000	262.515503
20382.573617	-1263.584833	1897.767578	111.708878
20382.573617	-1263.584833	1896.784180	26.603233
20382.573617	-1263.584833	1895.800781	-51.171677
20382.573617	-1263.584833	1894.817383	148.126587
20382.573617	-1263.584833	1893.833984	55.792213
20382.573617	-1263.584833	1892.850586	24.229706
20382.573617	-1263.584833	1891.866211	-155.472885
20382.573617	-1263.584833	1890.881836	-16.990129
20382.573617	-1263.584833	1889.897461	60.748463
20382.573617	-1263.584833	1888.913086	12.236208
20382.573617	-1263.584833	1887.927734	-4.703537
20382.573617	-1263.584833	1886.943359	-33.764927
20382.573617	-1263.584833	1885.958008	0.264990
20382.573617	-1263.584833	1884.972656	22.157827
20382.573617	-1263.584833	1883.987305	-23.859770
20382.573617	-1263.584833	1883.001953	-77.131477
20382.573617	-1263.584833	1882.015625	-94.018562
20382.573617	-1263.584833	1881.029297	-89.083466
20382.573617	-1263.584833	1880.042969	-79.302231
20382.573617	-1263.584833	1879.056641	-45.294937
20382.573617	-1263.584833	1878.070313	3.233841
20382.573617	-1263.584833	1877.083984	73.542412
20382.573617	-1263.584833	1876.096680	-25.684158
20382.573617	-1263.584833	1875.109375	252.812897
20382.573617	-1263.584833	1874.122070	-122.363884
20382.573617	-1263.584833	1873.134766	-1.268255
20382.573617	-1263.584833	1872.146484	85.902489
20382.573617	-1263.584833	1871.159180	-22.922007
20382.573617	-1263.584833	1870.170898	-10.770115
20382.573617	-1263.584833	1869.182617	-136.473923
20382.573617	-1263.584833	1868.194336	81.206749
20382.573617	-1263.584833	1867.205078	88.481270
20382.573617	-1263.584833	1866.216797	-29.935535
20382.573617	-1263.584833	1865.227539	61.923481
20382.573617	-1263.584833	1864.238281	-32.298183
20382.573617	-1263.584833	1863.249023	141.643036
20382.573617	-1263.584833	1862.259766	57.085903
20382.573617	-1263.584833	1861.269531	44.992672
20382.573617	-1263.584833	1860.279297	-97.476555
20382.573617	-1263.584833	1859.290039	-13.001980
20382.573617	-1263.584833	1858.298828	20.746613
20382.573617	-1263.584833	1857.308594	-39.631031
20382.573617	-1263.584833	1856.318359	3.737457
20382.573617	-1263.584833	1855.327148	-54.227757
20382.573617	-1263.584833	1854.335938	-13.311352
20382.573617	-1263.584833	1853.344727	-51.990494
20382.573617	-1263.584833	1852.353516	-13.528488
20382.573617	-1263.584833	1851.362305	29.723963
20382.573617	-1263.584833	1850.370117	145.235779
20382.573617	-1263.584833	1849.377930	128.176926
20382.573617	-1263.584833	1848.385742	132.787033
20382.573617	-1263.584833	1847.393555	38.633862
20382.573617	-1263.584833	1846.401367	79.342270
20382.573617	-1263.584833	1845.408203	105.570557
20382.573617	-1263.584833	1844.415039	42.708992
20382.573617	-1263.584833	1843.421875	-0.895870
20382.573617	-1263.584833	1842.428711	143.171875
20382.573617	-1263.584833	1841.435547	106.739250
20382.573617	-1263.584833	1840.441406	72.702255
20382.573617	-1263.584833	1839.448242	-127.271492
20382.573617	-1263.584833	1838.454102	38.260475
20382.573617	-1263.584833	1837.459961	93.128517
20382.573617	-1263.584833	1836.464844	174.387711
20382.573617	-1263.584833	1835.470703	109.013000
20382.573617	-1263.584833	1834.475586	-131.746674
20382.573617	-1263.584833	1833.480469	21.493322
20382.573617	-1263.584833	1832.485352	-135.156738
20382.573617	-1263.584833	1831.490234	-49.259430
20382.573617	-1263.584833	1830.495117	62.984943
20382.573617	-1263.584833	1829.499023	-62.466816
20382.573617	-1263.584833	1828.502930	68.876534
20382.573617	-1263.584833	1827.506836	56.180447
20382.573617	-1263.584833	1826.510742	96.234894
20382.573617	-1263.584833	1825.513672	40.303692
20382.573617	-1263.584833	1824.517578	123.446884
20382.573617	-1263.584833	1823.520508	134.598892
20382.573617	-1263.584833	1822.523438	25.861021
20382.573617	-1263.584833	1821.526367	135.222961
20382.573617	-1263.584833	1820.529297	83.966927
20382.573617	-1263.584833	1819.531250	61.442505
20382.573617	-1263.584833	1818.533203	84.401535
20382.573617	-1263.584833	1817.535156	61.815678
20382.573617	-1263.584833	1816.537109	158.919785
20382.573617	-1263.584833	1815.539063	81.196274
20382.573617	-1263.584833	1814.540039	87.233864
20382.573617	-1263.584833	1813.541992	-7.272364
20382.573617	-1263.584833	1812.542969	-68.287071
20382.573617	-1263.584833	1811.543945	119.460899
20382.573617	-1263.584833	1810.543945	-1.425197
20382.573617	-1263.584833	1809.544922	-139.041473
20382.573617	-1263.584833	1808.544922	81.963562
20382.573617	-1263.584833	1807.544922	116.402237
20382.573617	-1263.584833	1806.544922	-18.891396
20382.573617	-1263.584833	1805.544922	168.391800
20382.573617	-1263.584833	1804.544922	61.723583
20382.573617	-1263.584833	1803.543945	272.719666
20382.573617	-1263.584833	1802.542969	84.791771
20382.573617	-1263.584833	1801.541992	44.921902
20382.573617	-1263.584833	1800.541016	157.800110
20382.573617	-1263.584833	1799.539063	-75.479492
20382.573617	-1263.584833	1798.538086	-22.365095
20382.573617	-1263.584833	1797.536133	-31.348291
20382.573617	-1263.584833	1796.534180	-66.611824
20382.573617	-1263.584833	1795.532227	7.797095
20382.573617	-1263.584833	1794.529297	170.352768
20382.573617	-1263.584833	1793.527344	158.773483
20382.573617	-1263.584833	1792.524414	-33.998150
20382.573617	-1263.584833	1791.521484	68.757217
20382.573617	-1263.584833	1790.518555	121.390862
20382.573617	-1263.584833	1789.514648	78.667427
20382.573617	-1263.584833	1788.511719	-4.573202
20382.573617	-1263.584833	1787.507813	88.379219
20382.573617	-1263.584833	1786.503906	12.210646
20382.573617	-1263.584833	1785.500000	97.886627
20382.573617	-1263.584833	1784.496094	226.319519
20382.573617	-1263.584833	1783.491211	130.981766
20382.573617	-1263.584833	1782.486328	-71.424370
20382.573617	-1263.584833	1781.481445	-169.147629
20382.573617	-1263.584833	1780.476563	4.219960
20382.573617	-1263.584833	1779.471680	158.450668
20382.573617	-1263.584833	1778.465820	-74.915390
20382.573617	-1263.584833	1777.460938	7.867564
20382.573617	-1263.584833	1776.455078	135.713943
20382.573617	-1263.584833	1775.449219	56.761951
20382.573617	-1263.584833	1774.442383	32.418758
20382.573617	-1263.584833	1773.436523	-77.461044
20382.573617	-1263.584833	1772.429688	14.477033
20382.573617	-1263.584833	1771.422852	23.237156
20382.573617	-1263.584833	1770.416016	-89.111946
20382.573617	-1263.584833	1769.409180	-113.664146
20382.573617	-1263.584833	1768.402344	-19.625109
20382.573617	-1263.584833	1767.394531	24.504822
20382.573617	-1263.584833	1766.386719	47.218876
20382.573617	-1263.584833	1765.378906	-55.809200
20382.573617	-1263.584833	1764.371094	56.899536
20382.573617	-1263.584833	1763.362305	46.244968
20382.573617	-1263.584833	1762.354492	109.015976
20382.573617	-1263.584833	1761.345703	1.098297
20382.573617	-1263.584833	1760.336914	87.433762
20382.573617	-1263.584833	1759.328125	83.674683
20382.573617	-1263.584833	1758.318359	23.022995
20382.573617	-1263.584833	1757.308594	28.637012
20382.573617	-1263.584833	1756.299805	50.771435
20382.573617	-1263.584833	1755.290039	-57.336483
20382.573617	-1263.584833	1754.279297	-25.845068
20382.573617	-1263.584833	1753.269531	24.513073
20382.573617	-1263.584833	1752.258789	91.351875
20382.573617	-1263.584833	1751.249023	23.310047
20382.573617	-1263.584833	1750.238281	170.412476
20382.573617	-1263.584833	1749.226563	194.465714
20382.573617	-1263.584833	1748.215820	171.187912
20382.573617	-1263.584833	1747.204102	166.766281
20382.573617	-1263.584833	1746.193359	107.954308
20382.573617	-1263.584833	1745.181641	77.454185
20382.573617	-1263.584833	1744.168945	-16.863518
20382.573617	-1263.584833	1743.157227	-101.746933
20382.573617	-1263.584833	1742.144531	-42.636719
20382.573617	-1263.584833	1741.132813	-28.446823
20382.573617	-1263.584833	1740.120117	-115.803627
20382.573617	-1263.584833	1739.106445	-85.203697
20382.573617	-1263.584833	1738.093750	4.316788
20382.573617	-1263.584833	1737.080078	27.701002
20382.573617	-1263.584833	1736.067383	230.258194
20382.573617	-1263.584833	1735.053711	-100.187302
20382.573617	-1263.584833	1734.040039	-76.952881
20382.573617	-1263.584833	1733.025391	-143.347382
20382.573617	-1263.584833	1732.011719	-148.494232
20382.573617	-1263.584833	1730.997070	-42.963474
20382.573617	-1263.584833	1729.982422	203.810501
20382.573617	-1263.584833	1728.967773	12.386559
20382.573617	-1263.584833	1727.952148	-183.729874
20382.573617	-1263.584833	1726.937500	3.921761
20382.573617	-1263.584833	1725.921875	57.280773
20382.573617	-1263.584833	1724.906250	-193.009308
20382.573617	-1263.584833	1723.890625	36.732483
20382.573617	-1263.584833	1722.875000	82.848228
20382.573617	-1263.584833	1721.858398	-99.250587
20382.573617	-1263.584833	1720.841797	-39.121883
20382.573617	-1263.584833	1719.825195	42.095013
20382.573617	-1263.584833	1718.808594	-29.558062
20382.573617	-1263.584833	1717.791992	-33.076862
20382.573617	-1263.584833	1716.774414	-27.249319
20382.573617	-1263.584833	1715.756836	44.307838
20382.573617	-1263.584833	1714.739258	33.581787
20382.573617	-1263.584833	1713.721680	137.883438
20382.573617	-1263.584833	1712.704102	174.009079
20382.573617	-1263.584833	1711.685547	87.999207
20382.573617	-1263.584833	1710.667969	-66.079605
20382.573617	-1263.584833	1709.649414	35.624275
20382.573617	-1263.584833	1708.630859	-41.060730
20382.573617	-1263.584833	1707.611328	170.749512
20382.573617	-1263.584833	1706.592773	58.801132
20382.573617	-1263.584833	1705.573242	3.118792
20382.573617	-1263.584833	1704.553711	69.319687
20382.573617	-1263.584833	1703.534180	107.325645
20382.573617	-1263.584833	1702.513672	117.146141
20382.573617	-1263.584833	1701.494141	190.187851
20382.573617	-1263.584833	1700.473633	155.396988
20382.573617	-1263.584833	1699.453125	-183.891754
20382.573617	-1263.584833	1698.432617	78.706390
20382.573617	-1263.584833	1697.412109	268.586914
20382.573617	-1263.584833	1696.390625	46.380177
20382.573617	-1263.584833	1695.369141	86.329292
20382.573617	-1263.584833	1694.347656	-46.922672
20382.573617	-1263.584833	1693.326172	-49.156956
20382.573617	-1263.584833	1692.304688	187.142090
20382.573617	-1263.584833	1691.282227	116.965065
20382.573617	-1263.584833	1690.260742	63.151127
20382.573617	-1263.584833	1689.238281	219.695602
20382.573617	-1263.584833	1688.214844	317.708771
20382.573617	-1263.584833	1687.192383	270.781525
20382.573617	-1263.584833	1686.168945	356.994873
20382.573617	-1263.584833	1685.146484	183.876343
20382.573617	-1263.584833	1684.123047	202.280350
20382.573617	-1263.584833	1683.099609	159.936752
20382.573617	-1263.584833	1682.075195	322.998535
20382.573617	-1263.584833	1681.051758	455.631104
20382.573617	-1263.584833	1680.027344	247.477783
20382.573617	-1263.584833	1679.002930	293.678711
20382.573617	-1263.584833	1677.978516	384.151428
20382.573617	-1263.584833	1676.953125	329.955078
20382.573617	-1263.584833	1675.928711	413.331573
20382.573617	-1263.584833	1674.903320	473.325287
20382.573617	-1263.584833	1673.877930	461.011139
20382.573617	-1263.584833	1672.852539	509.264679
20382.573617	-1263.584833	1671.826172	480.575653
20382.573617	-1263.584833	1670.800781	540.400085
20382.573617	-1263.584833	1669.774414	409.186371
20382.573617	-1263.584833	1668.748047	492.227417
20382.573617	-1263.584833	1667.721680	398.273804
20382.573617	-1263.584833	1666.694336	399.758484
20382.573617	-1263.584833	1665.667969	510.607452
20382.573617	-1263.584833	1664.640625	614.402771
20382.573617	-1263.584833	1663.613281	459.911041
20382.573617	-1263.584833	1662.585938	424.078186
20382.573617	-1263.584833	1661.557617	374.276581
20382.573617	-1263.584833	1660.530273	505.831757
20382.573617	-1263.584833	1659.501953	572.220215
20382.573617	-1263.584833	1658.473633	659.481079
20382.573617	-1263.584833	1657.444336	676.972046
20382.573617	-1263.584833	1656.416016	680.507996
20382.573617	-1263.584833	1655.386719	802.476440
20382.573617	-1263.584833	1654.358398	864.008850
20382.573617	-1263.584833	1653.328125	684.013733
20382.573617	-1263.584833	1652.298828	729.256775
20382.573617	-1263.584833	1651.269531	892.835815
20382.573617	-1263.584833	1650.239258	854.445435
20382.573617	-1263.584833	1649.208984	890.298645
20382.573617	-1263.584833	1648.178711	1002.672546
20382.573617	-1263.584833	1647.148438	957.287476
20382.573617	-1263.584833	1646.117188	1057.979614
20382.573617	-1263.584833	1645.086914	1021.853210
20382.573617	-1263.584833	1644.055664	784.072937
20382.573617	-1263.584833	1643.024414	965.817749
20382.573617	-1263.584833	1641.992188	955.170776
20382.573617	-1263.584833	1640.960938	930.630859
20382.573617	-1263.584833	1639.928711	1017.252380
20382.573617	-1263.584833	1638.896484	971.847961
20382.573617	-1263.584833	1637.864258	1132.499512
20382.573617	-1263.584833	1636.832031	1110.225220
20382.573617	-1263.584833	1635.798828	1006.949951
20382.573617	-1263.584833	1634.766602	1088.820313
20382.573617	-1263.584833	1633.733398	1080.427368
20382.573617	-1263.584833	1632.699219	1259.370728
20382.573617	-1263.584833	1631.666016	945.704773
20382.573617	-1263.584833	1630.632813	1196.281372
20382.573617	-1263.584833	1629.598633	1250.272339
20382.573617	-1263.584833	1628.564453	1325.042358
20382.573617	-1263.584833	1627.530273	1302.738647
20382.573617	-1263.584833	1626.495117	1421.357422
20382.573617	-1263.584833	1625.460938	1276.632935
20382.573617	-1263.584833	1624.425781	1649.237549
20382.573617	-1263.584833	1623.390625	1564.552490
20382.573617	-1263.584833	1622.355469	1341.402710
20382.573617	-1263.584833	1621.319336	1459.911499
20382.573617	-1263.584833	1620.284180	1497.626221
20382.573617	-1263.584833	1619.248047	1595.307617
20382.573617	-1263.584833	1618.211914	1720.637451
20382.573617	-1263.584833	1617.174805	1700.631714
20382.573617	-1263.584833	1616.138672	1493.891357
20382.573617	-1263.584833	1615.101563	1646.849121
20382.573617	-1263.584833	1614.065430	1868.910645
20382.573617	-1263.584833	1613.027344	1791.315674
20382.573617	-1263.584833	1611.990234	1637.742065
20382.573617	-1263.584833	1610.953125	1792.902832
20382.573617	-1263.584833	1609.915039	1830.555298
20382.573617	-1263.584833	1608.876953	1741.566650
20382.573617	-1263.584833	1607.838867	1788.451294
20382.573617	-1263.584833	1606.800781	1902.080933
20382.573617	-1263.584833	1605.761719	1925.927856
20382.573617	-1263.584833	1604.723633	1903.775513
20382.573617	-1263.584833	1603.684570	1890.841675
20382.573617	-1263.584833	1602.644531	2032.013916
20382.573617	-1263.584833	1601.605469	1901.827637
20382.573617	-1263.584833	1600.566406	1769.412964
20382.573617	-1263.584833	1599.526367	1855.420044
20382.573617	-1263.584833	1598.486328	2001.165161
20382.573617	-1263.584833	1597.446289	1776.958374
20382.573617	-1263.584833	1596.405273	1545.963623
20382.573617	-1263.584833	1595.365234	1606.771484
20382.573617	-1263.584833	1594.324219	1722.683350
20382.573617	-1263.584833	1593.283203	1625.062134
20382.573617	-1263.584833	1592.242188	1504.551147
20382.573617	-1263.584833	1591.200195	1510.326050
20382.573617	-1263.584833	1590.159180	1357.813965
20382.573617	-1263.584833	1589.117188	1391.197510
20382.573617	-1263.584833	1588.075195	1488.816040
20382.573617	-1263.584833	1587.032227	1281.431274
20382.573617	-1263.584833	1585.990234	1353.871582
20382.573617	-1263.584833	1584.947266	1378.168213
20382.573617	-1263.584833	1583.904297	1088.513062
20382.573617	-1263.584833	1582.861328	961.687073
20382.573617	-1263.584833	1581.818359	1047.994629
20382.573617	-1263.584833	1580.775391	1207.594604
20382.573617	-1263.584833	1579.731445	1248.079834
20382.573617	-1263.584833	1578.687500	1034.443604
20382.573617	-1263.584833	1577.643555	1409.221924
20382.573617	-1263.584833	1576.598633	1250.627686
20382.573617	-1263.584833	1575.554688	1131.038574
20382.573617	-1263.584833	1574.509766	1141.926880
20382.573617	-1263.584833	1573.464844	1036.197021
20382.573617	-1263.584833	1572.419922	1179.811646
20382.573617	-1263.584833	1571.374023	904.990601
20382.573617	-1263.584833	1570.329102	1204.097534
20382.573617	-1263.584833	1569.283203	1018.593384
20382.573617	-1263.584833	1568.237305	1111.979126
20382.573617	-1263.584833	1567.191406	1091.139038
20382.573617	-1263.584833	1566.144531	1141.149902
20382.573617	-1263.584833	1565.098633	974.238953
20382.573617	-1263.584833	1564.051758	830.261230
20382.573617	-1263.584833	1563.004883	1028.806274
20382.573617	-1263.584833	1561.957031	967.120789
20382.573617	-1263.584833	1560.910156	869.001038
20382.573617	-1263.584833	1559.862305	1005.948914
20382.573617	-1263.584833	1558.814453	1129.203125
20382.573617	-1263.584833	1557.766602	974.226074
20382.573617	-1263.584833	1556.718750	953.883606
20382.573617	-1263.584833	1555.669922	742.097595
20382.573617	-1263.584833	1554.621094	865.490295
20382.573617	-1263.584833	1553.573242	922.803894
20382.573617	-1263.584833	1552.523438	1132.780762
20382.573617	-1263.584833	1551.474609	1012.438293
20382.573617	-1263.584833	1550.424805	883.077209
20382.573617	-1263.584833	1549.375000	892.714905
20382.573617	-1263.584833	1548.325195	827.274780
20382.573617	-1263.584833	1547.275391	798.329651
20382.573617	-1263.584833	1546.225586	714.833069
20382.573617	-1263.584833	1545.174805	622.316772
20382.573617	-1263.584833	1544.124023	716.419128
20382.573617	-1263.584833	1543.073242	790.070190
20382.573617	-1263.584833	1542.022461	502.205170
20382.573617	-1263.584833	1540.970703	687.370483
20382.573617	-1263.584833	1539.919922	606.588867
20382.573617	-1263.584833	1538.868164	719.053467
20382.573617	-1263.584833	1537.815430	488.443726
20382.573617	-1263.584833	1536.763672	523.766235
20382.573617	-1263.584833	1535.710938	550.042725
20382.573617	-1263.584833	1534.659180	433.318665
20382.573617	-1263.584833	1533.606445	473.341522
20382.573617	-1263.584833	1532.552734	481.625641
20382.573617	-1263.584833	1531.500000	362.886017
20382.573617	-1263.584833	1530.446289	584.587341
20382.573617	-1263.584833	1529.393555	722.333984
20382.573617	-1263.584833	1528.338867	819.251831
20382.573617	-1263.584833	1527.285156	544.316406
20382.573617	-1263.584833	1526.231445	514.401062
20382.573617	-1263.584833	1525.176758	514.021790
20382.573617	-1263.584833	1524.122070	459.316772
20382.573617	-1263.584833	1523.067383	547.440674
20382.573617	-1263.584833	1522.012695	447.571594
20382.573617	-1263.584833	1520.957031	442.926025
20382.573617	-1263.584833	1519.901367	594.593994
20382.573617	-1263.584833	1518.845703	499.491882
20382.573617	-1263.584833	1517.790039	393.174744
20382.573617	-1263.584833	1516.734375	325.438782
20382.573617	-1263.584833	1515.677734	364.135559
20382.573617	-1263.584833	1514.621094	323.707275
20382.573617	-1263.584833	1513.564453	156.703110
20382.573617	-1263.584833	1512.507813	365.209320
20382.573617	-1263.584833	1511.450195	476.480988
20382.573617	-1263.584833	1510.393555	79.187645
20382.573617	-1263.584833	1509.335938	258.406586
20382.573617	-1263.584833	1508.278320	96.437057
20382.573617	-1263.584833	1507.219727	174.057800
20382.573617	-1263.584833	1506.162109	211.065735
20382.573617	-1263.584833	1505.103516	295.547455
20382.573617	-1263.584833	1504.044922	497.466949
20382.573617	-1263.584833	1502.986328	132.802002
20382.573617	-1263.584833	1501.926758	208.429352
20382.573617	-1263.584833	1500.868164	130.667664
20382.573617	-1263.584833	1499.808594	233.479172
20382.573617	-1263.584833	1498.749023	67.920250
20382.573617	-1263.584833	1497.688477	173.099335
20382.573617	-1263.584833	1496.628906	129.509308
20382.573617	-1263.584833	1495.568359	176.171539
20382.573617	-1263.584833	1494.507813	49.354015
20382.573617	-1263.584833	1493.447266	15.043278
20382.573617	-1263.584833	1492.386719	75.436783
20382.573617	-1263.584833	1491.325195	-127.646698
20382.573617	-1263.584833	1490.263672	88.277306
20382.573617	-1263.584833	1489.202148	79.043961
20382.573617	-1263.584833	1488.140625	-85.430565
20382.573617	-1263.584833	1487.079102	-80.973244
20382.573617	-1263.584833	1486.016602	-8.941765
20382.573617	-1263.584833	1484.954102	126.127487
20382.573617	-1263.584833	1483.891602	-91.909889
20382.573617	-1263.584833	1482.829102	61.262672
20382.573617	-1263.584833	1481.765625	7.607070
20382.573617	-1263.584833	1480.702148	-156.096985
20382.573617	-1263.584833	1479.638672	-182.546661
20382.573617	-1263.584833	1478.575195	22.501356
20382.573617	-1263.584833	1477.511719	0.674102
20382.573617	-1263.584833	1476.447266	-9.818134
20382.573617	-1263.584833	1475.382813	40.343025
20382.573617	-1263.584833	1474.318359	38.916451
20382.573617	-1263.584833	1473.253906	-38.695423
20382.573617	-1263.584833	1472.189453	-42.175148
20382.573617	-1263.584833	1471.124023	183.102936
20382.573617	-1263.584833	1470.058594	81.155045
20382.573617	-1263.584833	1468.993164	1.848422
20382.573617	-1263.584833	1467.927734	47.856949
20382.573617	-1263.584833	1466.861328	58.451073
20382.573617	-1263.584833	1465.794922	225.584198
20382.573617	-1263.584833	1464.728516	213.844238
20382.573617	-1263.584833	1463.662109	51.782021
20382.573617	-1263.584833	1462.594727	400.557892
20382.573617	-1263.584833	1461.528320	231.671539
20382.573617	-1263.584833	1460.460938	133.290436
20382.573617	-1263.584833	1459.393555	479.639954
20382.573617	-1263.584833	1458.326172	248.868546
20382.573617	-1263.584833	1457.257813	336.260895
20382.573617	-1263.584833	1456.189453	501.248260
20382.573617	-1263.584833	1455.121094	534.610840
20382.573617	-1263.584833	1454.052734	442.915009
20382.573617	-1263.584833	1452.984375	443.179321
20382.573617	-1263.584833	1451.915039	488.352844
20382.573617	-1263.584833	1450.845703	493.186707
20382.573617	-1263.584833	1449.776367	491.140869
20382.573617	-1263.584833	1448.707031	539.991577
20382.573617	-1263.584833	1447.636719	429.226257
20382.573617	-1263.584833	1446.567383	548.477356
20382.573617	-1263.584833	1445.497070	492.781342
20382.573617	-1263.584833	1444.425781	711.430420
20382.573617	-1263.584833	1443.355469	652.641418
20382.573617	-1263.584833	1442.285156	327.091339
20382.573617	-1263.584833	1441.213867	563.585449
20382.573617	-1263.584833	1440.142578	666.397522
20382.573617	-1263.584833	1439.070313	673.521423
20382.573617	-1263.584833	1437.999023	679.485718
20382.573617	-1263.584833	1436.926758	641.870056
20382.573617	-1263.584833	1435.854492	639.963623
20382.573617	-1263.584833	1434.782227	648.002563
20382.573617	-1263.584833	1433.709961	596.412476
20382.573617	-1263.584833	1432.636719	693.290161
20382.573617	-1263.584833	1431.563477	621.489807
20382.573617	-1263.584833	1430.490234	687.996643
20382.573617	-1263.584833	1429.416992	478.586792
20382.573617	-1263.584833	1428.343750	399.327515
20382.573617	-1263.584833	1427.269531	432.963379
20382.573617	-1263.584833	1426.195313	340.354980
20382.573617	-1263.584833	1425.121094	273.377197
20382.573617	-1263.584833	1424.046875	422.053192
20382.573617	-1263.584833	1422.971680	324.532135
20382.573617	-1263.584833	1421.896484	417.348206
20382.573617	-1263.584833	1420.821289	318.185730
20382.573617	-1263.584833	1419.746094	299.620667
20382.573617	-1263.584833	1418.669922	539.315063
20382.573617	-1263.584833	1417.594727	441.807465
20382.573617	-1263.584833	1416.518555	516.942749
20382.573617	-1263.584833	1415.442383	436.945190
20382.573617	-1263.584833	1414.365234	417.669342
20382.573617	-1263.584833	1413.289063	576.174744
20382.573617	-1263.584833	1412.211914	333.273621
20382.573617	-1263.584833	1411.134766	466.546295
20382.573617	-1263.584833	1410.057617	453.328369
20382.573617	-1263.584833	1408.979492	690.463196
20382.573617	-1263.584833	1407.902344	397.375732
20382.573617	-1263.584833	1406.824219	575.828003
20382.573617	-1263.584833	1405.746094	473.617828
20382.573617	-1263.584833	1404.666992	464.116028
20382.573617	-1263.584833	1403.588867	483.943329
20382.573617	-1263.584833	1402.509766	419.270508
20382.573617	-1263.584833	1401.430664	544.590393
20382.573617	-1263.584833	1400.351563	483.468964
20382.573617	-1263.584833	1399.271484	347.158325
20382.573617	-1263.584833	1398.192383	399.678864
20382.573617	-1263.584833	1397.112305	371.076050
20382.573617	-1263.584833	1396.031250	519.425903
20382.573617	-1263.584833	1394.951172	494.915375
20382.573617	-1263.584833	1393.871094	213.673630
20382.573617	-1263.584833	1392.790039	333.140503
20382.573617	-1263.584833	1391.708984	282.758331
20382.573617	-1263.584833	1390.626953	416.507172
20382.573617	-1263.584833	1389.545898	311.343872
20382.573617	-1263.584833	1388.463867	192.590240
20382.573617	-1263.584833	1387.381836	401.717651
20382.573617	-1263.584833	1386.299805	282.002106
20382.573617	-1263.584833	1385.217773	251.388519
20382.573617	-1263.584833	1384.134766	243.548645
20382.573617	-1263.584833	1383.051758	501.160645
20382.573617	-1263.584833	1381.968750	322.573730
20382.573617	-1263.584833	1380.885742	345.458374
20382.573617	-1263.584833	1379.802734	153.423569
20382.573617	-1263.584833	1378.718750	274.678436
20382.573617	-1263.584833	1377.634766	373.547333
20382.573617	-1263.584833	1376.550781	346.927277
20382.573617	-1263.584833	1375.465820	343.963104
20382.573617	-1263.584833	1374.381836	290.699860
20382.573617	-1263.584833	1373.296875	344.631775
20382.573617	-1263.584833	1372.211914	573.457947
20382.573617	-1263.584833	1371.126953	403.799896
20382.573617	-1263.584833	1370.041016	389.021545
20382.573617	-1263.584833	1368.955078	448.270966
20382.573617	-1263.584833	1367.869141	395.715637
20382.573617	-1263.584833	1366.783203	404.189117
20382.573617	-1263.584833	1365.697266	305.884277
20382.573617	-1263.584833	1364.610352	340.966980
20382.573617	-1263.584833	1363.523438	512.195374
20382.573617	-1263.584833	1362.436523	647.213562
20382.573617	-1263.584833	1361.349609	544.950623
20382.573617	-1263.584833	1360.261719	642.987793
20382.573617	-1263.584833	1359.174805	618.310852
20382.573617	-1263.584833	1358.086914	648.119629
20382.573617	-1263.584833	1356.998047	561.919678
20382.573617	-1263.584833	1355.910156	572.940674
20382.573617	-1263.584833	1354.821289	552.492981
20382.573617	-1263.584833	1353.732422	584.636108
20382.573617	-1263.584833	1352.643555	515.504272
20382.573617	-1263.584833	1351.554688	639.842102
20382.573617	-1263.584833	1350.464844	392.526001
20382.573617	-1263.584833	1349.375000	483.386658
20382.573617	-1263.584833	1348.285156	602.529053
20382.573617	-1263.584833	1347.195313	583.287598
20382.573617	-1263.584833	1346.105469	526.570984
20382.573617	-1263.584833	1345.014648	517.356445
20382.573617	-1263.584833	1343.923828	536.524231
20382.573617	-1263.584833	1342.833008	617.078613
20382.573617	-1263.584833	1341.741211	620.298828
20382.573617	-1263.584833	1340.650391	642.307678
20382.573617	-1263.584833	1339.558594	723.901245
20382.573617	-1263.584833	1338.466797	609.514221
20382.573617	-1263.584833	1337.374023	570.989380
20382.573617	-1263.584833	1336.282227	604.637695
20382.573617	-1263.584833	1335.189453	520.286804
20382.573617	-1263.584833	1334.096680	674.955261
20382.573617	-1263.584833	1333.003906	352.206940
20382.573617	-1263.584833	1331.910156	545.179749
20382.573617	-1263.584833	1330.817383	598.850159
20382.573617	-1263.584833	1329.723633	430.690918
20382.573617	-1263.584833	1328.629883	414.676270
20382.573617	-1263.584833	1327.535156	344.564392
20382.573617	-1263.584833	1326.441406	302.624481
20382.573617	-1263.584833	1325.346680	199.018906
20382.573617	-1263.584833	1324.251953	326.206207
20382.573617	-1263.584833	1323.156250	321.086304
20382.573617	-1263.584833	1322.061523	301.337219
20382.573617	-1263.584833	1320.965820	257.543579
20382.573617	-1263.584833	1319.870117	350.166595
20382.573617	-1263.584833	1318.774414	362.394257
20382.573617	-1263.584833	1317.678711	334.323669
20382.573617	-1263.584833	1316.582031	307.282593
20382.573617	-1263.584833	1315.485352	354.146271
20382.573617	-1263.584833	1314.388672	352.376099
20382.573617	-1263.584833	1313.291016	346.464996
20382.573617	-1263.584833	1312.194336	208.520126
20382.573617	-1263.584833	1311.096680	355.296539
20382.573617	-1263.584833	1309.999023	214.137070
20382.573617	-1263.584833	1308.901367	363.883942
20382.573617	-1263.584833	1307.802734	333.827118
20382.573617	-1263.584833	1306.705078	307.529480
20382.573617	-1263.584833	1305.606445	141.407562
20382.573617	-1263.584833	1304.506836	253.088776
20382.573617	-1263.584833	1303.408203	170.738403
20382.573617	-1263.584833	1302.308594	237.660797
20382.573617	-1263.584833	1301.208984	378.687805
20382.573617	-1263.584833	1300.109375	281.110840
20382.573617	-1263.584833	1299.009766	279.463531
20382.573617	-1263.584833	1297.909180	212.948181
20382.573617	-1263.584833	1296.808594	452.563538
20382.573617	-1263.584833	1295.708008	263.843201
20382.573617	-1263.584833	1294.607422	231.627411
20382.573617	-1263.584833	1293.506836	275.874603
20382.573617	-1263.584833	1292.405273	226.649536
20382.573617	-1263.584833	1291.303711	202.669540
20382.573617	-1263.584833	1290.202148	253.401840
20382.573617	-1263.584833	1289.099609	193.611435
20382.573617	-1263.584833	1287.998047	114.689476
20382.573617	-1263.584833	1286.895508	243.088440
20382.573617	-1263.584833	1285.792969	188.049026
20382.573617	-1263.584833	1284.689453	-1.680279
20382.573617	-1263.584833	1283.586914	58.283707
20382.573617	-1263.584833	1282.483398	92.129936
20382.573617	-1263.584833	1281.379883	-81.754478
20382.573617	-1263.584833	1280.276367	49.532238
20382.573617	-1263.584833	1279.171875	23.154671
20382.573617	-1263.584833	1278.067383	130.715698
20382.573617	-1263.584833	1276.962891	18.999912
20382.573617	-1263.584833	1275.858398	82.863197
20382.573617	-1263.584833	1274.753906	98.648743
20382.573617	-1263.584833	1273.648438	-57.950466
20382.573617	-1263.584833	1272.542969	-33.526939
20382.573617	-1263.584833	1271.437500	217.726379
20382.573617	-1263.584833	1270.331055	-104.185959
20382.573617	-1263.584833	1269.225586	51.380573
20382.573617	-1263.584833	1268.119141	72.733482
20382.573617	-1263.584833	1267.012695	4.685488
20382.573617	-1263.584833	1265.906250	-64.573540
20382.573617	-1263.584833	1264.798828	107.505920
20382.573617	-1263.584833	1263.691406	-46.227310
20382.573617	-1263.584833	1262.583984	-74.776711
20382.573617	-1263.584833	1261.476563	14.232176
20382.573617	-1263.584833	1260.368164	100.075470
20382.573617	-1263.584833	1259.260742	82.967865
20382.573617	-1263.584833	1258.152344	-12.411863
20382.573617	-1263.584833	1257.043945	-7.558694
20382.573617	-1263.584833	1255.934570	9.834784
20382.573617	-1263.584833	1254.825195	-90.652206
20382.573617	-1263.584833	1253.716797	63.963848
20382.573617	-1263.584833	1252.606445	86.954910
20382.573617	-1263.584833	1251.497070	-1.008692
20382.573617	-1263.584833	1250.387695	5.367784
20382.573617	-1263.584833	1249.277344	-44.991032
20382.573617	-1263.584833	1248.166992	11.697200
20382.573617	-1263.584833	1247.055664	-157.872375
20382.573617	-1263.584833	1245.945313	-62.420712
20382.573617	-1263.584833	1244.833984	128.254532
20382.573617	-1263.584833	1243.722656	4.739419
20382.573617	-1263.584833	1242.611328	-113.465118
20382.573617	-1263.584833	1241.499023	-38.138996
20382.573617	-1263.584833	1240.387695	-31.582769
20382.573617	-1263.584833	1239.275391	-25.309397
20382.573617	-1263.584833	1238.162109	78.021431
20382.573617	-1263.584833	1237.049805	88.727844
20382.573617	-1263.584833	1235.936523	49.254387
20382.573617	-1263.584833	1234.823242	144.421509
20382.573617	-1263.584833	1233.709961	188.867371
20382.573617	-1263.584833	1232.596680	249.876663
20382.573617	-1263.584833	1231.482422	69.038094
20382.573617	-1263.584833	1230.369141	16.026289
20382.573617	-1263.584833	1229.253906	83.508759
20382.573617	-1263.584833	1228.139648	46.443012
20382.573617	-1263.584833	1227.025391	178.823044
20382.573617	-1263.584833	1225.910156	-8.870826
20382.573617	-1263.584833	1224.794922	-12.469474
20382.573617	-1263.584833	1223.679688	48.207302
20382.573617	-1263.584833	1222.563477	-66.117035
20382.573617	-1263.584833	1221.447266	-93.893448
20382.573617	-1263.584833	1220.331055	46.630047
20382.573617	-1263.584833	1219.214844	-147.450806
20382.573617	-1263.584833	1218.098633	17.086691
20382.573617	-1263.584833	1216.981445	29.336082
20382.573617	-1263.584833	1215.864258	10.512973
20382.573617	-1263.584833	1214.747070	29.340065
20382.573617	-1263.584833	1213.629883	-102.782684
20382.573617	-1263.584833	1212.511719	-0.019568
20382.573617	-1263.584833	1211.393555	-52.963036
20382.573617	-1263.584833	1210.275391	-36.154045
20382.573617	-1263.584833	1209.157227	-69.257568
20382.573617	-1263.584833	1208.038086	31.052801
20382.573617	-1263.584833	1206.918945	-62.346104
20382.573617	-1263.584833	1205.799805	-66.587990
20382.573617	-1263.584833	1204.680664	-41.847591
20382.573617	-1263.584833	1203.560547	-65.002151
20382.573617	-1263.584833	1202.441406	-94.067917
20382.573617	-1263.584833	1201.321289	-2.459168
20382.573617	-1263.584833	1200.200195	-41.711975
20382.573617	-1263.584833	1199.080078	-1.740443
20382.573617	-1263.584833	1197.958984	-14.980398
20382.573617	-1263.584833	1196.837891	49.813320
20382.573617	-1263.584833	1195.716797	-78.403130
20382.573617	-1263.584833	1194.594727	59.635494
20382.573617	-1263.584833	1193.473633	-75.792847
20382.573617	-1263.584833	1192.351563	112.137108
20382.573617	-1263.584833	1191.229492	65.355682
20382.573617	-1263.584833	1190.106445	89.559204
20382.573617	-1263.584833	1188.984375	-34.543056
20382.573617	-1263.584833	1187.861328	6.502459
20382.573617	-1263.584833	1186.738281	-1.273261
20382.573617	-1263.584833	1185.614258	-52.695431
20382.573617	-1263.584833	1184.491211	76.867264
20382.573617	-1263.584833	1183.367188	-42.442303
20382.573617	-1263.584833	1182.243164	33.915245
20382.573617	-1263.584833	1181.119141	3.474252
20382.573617	-1263.584833	1179.994141	-84.149658
20382.573617	-1263.584833	1178.869141	-18.682177
20382.573617	-1263.584833	1177.744141	74.689377
20382.573617	-1263.584833	1176.619141	76.895836
20382.573617	-1263.584833	1175.493164	-84.457985
20382.573617	-1263.584833	1174.368164	-183.028946
20382.573617	-1263.584833	1173.242188	-16.351748
20382.573617	-1263.584833	1172.115234	-70.875000
20382.573617	-1263.584833	1170.989258	120.014122
20382.573617	-1263.584833	1169.862305	116.485855
20382.573617	-1263.584833	1168.735352	122.851379
20382.573617	-1263.584833	1167.608398	27.935106
20382.573617	-1263.584833	1166.481445	-8.749069
20382.573617	-1263.584833	1165.353516	-93.827950
20382.573617	-1263.584833	1164.225586	10.993142
20382.573617	-1263.584833	1163.097656	-41.146412
20382.573617	-1263.584833	1161.968750	30.660704
20382.573617	-1263.584833	1160.840820	-12.439512
20382.573617	-1263.584833	1159.711914	-49.842144
20382.573617	-1263.584833	1158.583008	63.103096
20382.573617	-1263.584833	1157.453125	88.820526
20382.573617	-1263.584833	1156.324219	-146.965515
20382.573617	-1263.584833	1155.194336	-175.198135
20382.573617	-1263.584833	1154.064453	-101.625877
20382.573617	-1263.584833	1152.933594	-4.083283
20382.573617	-1263.584833	1151.803711	61.135166
20382.573617	-1263.584833	1150.672852	-135.225357
20382.573617	-1263.584833	1149.541992	76.835747
20382.573617	-1263.584833	1148.411133	36.466728
20382.573617	-1263.584833	1147.279297	-36.213959
20382.573617	-1263.584833	1146.147461	127.941376
20382.573617	-1263.584833	1145.015625	-44.647060
20382.573617	-1263.584833	1143.883789	77.168503
20382.573617	-1263.584833	1142.750977	54.816483
20382.573617	-1263.584833	1141.619141	191.346680
20382.573617	-1263.584833	1140.486328	108.866112
20382.573617	-1263.584833	1139.352539	60.608406
20382.573617	-1263.584833	1138.219727	203.442398
20382.573617	-1263.584833	1137.085938	54.210766
20382.573617	-1263.584833	1135.952148	205.477524
20382.573617	-1263.584833	1134.818359	223.298645
20382.573617	-1263.584833	1133.683594	176.186371
20382.573617	-1263.584833	1132.549805	222.576233
20382.573617	-1263.584833	1131.415039	287.028442
20382.573617	-1263.584833	1130.279297	281.736115
20382.573617	-1263.584833	1129.144531	247.239960
20382.573617	-1263.584833	1128.008789	241.672806
20382.573617	-1263.584833	1126.873047	291.406494
20382.573617	-1263.584833	1125.737305	226.551758
20382.573617	-1263.584833	1124.601563	67.365791
20382.573617	-1263.584833	1123.464844	260.912354
20382.573617	-1263.584833	1122.328125	200.635727
20382.573617	-1263.584833	1121.191406	261.168610
20382.573617	-1263.584833	1120.054688	62.743809
20382.573617	-1263.584833	1118.916992	189.876144
20382.573617	-1263.584833	1117.779297	236.049072
20382.573617	-1263.584833	1116.641602	100.352867
20382.573617	-1263.584833	1115.503906	120.740555
20382.573617	-1263.584833	1114.365234	126.909943
20382.573617	-1263.584833	1113.226563	204.913986
20382.573617	-1263.584833	1112.087891	196.109070
20382.573617	-1263.584833	1110.949219	-52.694832
20382.573617	-1263.584833	1109.809570	92.730270
20382.573617	-1263.584833	1108.669922	39.120075
20382.573617	-1263.584833	1107.530273	40.208420
20382.573617	-1263.584833	1106.390625	317.572388
20382.573617	-1263.584833	1105.250000	178.130310
20382.573617	-1263.584833	1104.109375	254.431000
20382.573617	-1263.584833	1102.968750	274.558899
20382.573617	-1263.584833	1101.828125	328.563263
20382.573617	-1263.584833	1100.686523	68.628937
20382.573617	-1263.584833	1099.544922	113.670570
20382.573617	-1263.584833	1098.403320	223.511887
20382.573617	-1263.584833	1097.261719	192.282272
20382.573617	-1263.584833	1096.120117	115.160896
20382.573617	-1263.584833	1094.977539	335.161530
20382.573617	-1263.584833	1093.834961	214.547165
20382.573617	-1263.584833	1092.691406	266.459442
20382.573617	-1263.584833	1091.548828	248.220062
20382.573617	-1263.584833	1090.405273	218.036087
20382.573617	-1263.584833	1089.261719	248.738525
20382.573617	-1263.584833	1088.118164	107.274681
20382.573617	-1263.584833	1086.973633	298.845093
20382.573617	-1263.584833	1085.829102	211.315125
20382.573617	-1263.584833	1084.684570	214.442581
20382.573617	-1263.584833	1083.540039	203.185989
20382.573617	-1263.584833	1082.395508	264.422302
20382.573617	-1263.584833	1081.250000	232.075653
20382.573617	-1263.584833	1080.104492	171.584717
20382.573617	-1263.584833	1078.958984	292.955414
20382.573617	-1263.584833	1077.812500	173.833893
20382.573617	-1263.584833	1076.666016	32.828430
20382.573617	-1263.584833	1075.519531	-6.412984
20382.573617	-1263.584833	1074.373047	123.113129
20382.573617	-1263.584833	1073.226563	178.029373
20382.573617	-1263.584833	1072.079102	212.611176
20382.573617	-1263.584833	1070.931641	210.401047
20382.573617	-1263.584833	1069.784180	297.954712
20382.573617	-1263.584833	1068.635742	152.132477
20382.573617	-1263.584833	1067.487305	321.548248
20382.573617	-1263.584833	1066.338867	18.491646
20382.573617	-1263.584833	1065.190430	263.966675
20382.573617	-1263.584833	1064.041992	218.218491
20382.573617	-1263.584833	1062.892578	272.740112
20382.573617	-1263.584833	1061.743164	140.976135
20382.573617	-1263.584833	1060.593750	348.191345
20382.573617	-1263.584833	1059.443359	274.264832
20382.573617	-1263.584833	1058.292969	309.808319
20382.573617	-1263.584833	1057.142578	174.879089
20382.573617	-1263.584833	1055.992188	112.669090
20382.573617	-1263.584833	1054.841797	179.822983
20382.573617	-1263.584833	1053.690430	96.393074
20382.573617	-1263.584833	1052.539063	180.428772
20382.573617	-1263.584833	1051.387695	107.508797
20382.573617	-1263.584833	1050.235352	85.019859
20382.573617	-1263.584833	1049.083984	89.984291
20382.573617	-1263.584833	1047.931641	0.576719
20382.573617	-1263.584833	1046.778320	154.227844
20382.573617	-1263.584833	1045.625977	259.915253
20382.573617	-1263.584833	1044.472656	257.648376
20382.573617	-1263.584833	1043.319336	138.014938
20382.573617	-1263.584833	1042.166016	139.713364
20382.573617	-1263.584833	1041.012695	-128.941788
20382.573617	-1263.584833	1039.858398	-59.833572
20382.573617	-1263.584833	1038.704102	82.682518
20382.573617	-1263.584833	1037.549805	100.655952
20382.573617	-1263.584833	1036.394531	183.792938
20382.573617	-1263.584833	1035.239258	156.024216
20382.573617	-1263.584833	1034.083984	119.472496
20382.573617	-1263.584833	1032.928711	166.526611
20382.573617	-1263.584833	1031.773438	210.991867
20382.573617	-1263.584833	1030.617188	179.881012
20382.573617	-1263.584833	1029.460938	137.501389
20382.573617	-1263.584833	1028.304688	291.586548
20382.573617	-1263.584833	1027.147461	191.748779
20382.573617	-1263.584833	1025.991211	76.385094
20382.573617	-1263.584833	1024.833984	177.171478
20382.573617	-1263.584833	1023.675781	223.399521
20382.573617	-1263.584833	1022.518555	16.816057
20382.573617	-1263.584833	1021.360352	-44.129662
20382.573617	-1263.584833	1020.202148	-7.173007
20382.573617	-1263.584833	1019.043945	101.617348
20382.573617	-1263.584833	1017.884766	210.907166
20382.573617	-1263.584833	1016.726563	-54.406071
20382.573617	-1263.584833	1015.567383	13.204280
20382.573617	-1263.584833	1014.407227	53.193882
20382.573617	-1263.584833	1013.248047	101.130318
20382.573617	-1263.584833	1012.087891	204.908234
20382.573617	-1263.584833	1010.927734	-98.429695
20382.573617	-1263.584833	1009.767578	3.869654
20382.573617	-1263.584833	1008.606445	9.023105
20382.573617	-1263.584833	1007.446289	-128.644653
20382.573617	-1263.584833	1006.285156	-10.714342
20382.573617	-1263.584833	1005.123047	11.398149
20382.573617	-1263.584833	1003.961914	155.913162
20382.573617	-1263.584833	1002.799805	5.068192
20382.573617	-1263.584833	1001.637695	-4.737408
20382.573617	-1263.584833	1000.475586	25.685514
20382.573617	-1263.584833	999.312500	168.236221
20382.573617	-1263.584833	998.149414	204.970367
20382.573617	-1263.584833	996.986328	11.335922
20382.573617	-1263.584833	995.823242	-25.643988
20382.573617	-1263.584833	994.659180	-46.825073
20382.573617	-1263.584833	993.496094	22.132099
20382.573617	-1263.584833	992.332031	49.639416
20382.573617	-1263.584833	991.166992	157.202377
20382.573617	-1263.584833	990.002930	150.264557
20382.573617	-1263.584833	988.837891	-102.428307
20382.573617	-1263.584833	987.672852	90.484848
20382.573617	-1263.584833	986.506836	41.850288
20382.573617	-1263.584833	985.341797	-83.011757
20382.573617	-1263.584833	984.175781	154.788803
20382.573617	-1263.584833	983.009766	89.439301
20382.573617	-1263.584833	981.843750	-4.136748
20382.573617	-1263.584833	980.676758	161.974213
20382.573617	-1263.584833	979.509766	-151.702515
20382.573617	-1263.584833	978.342773	-63.083759
20382.573617	-1263.584833	977.175781	155.202774
20382.573617	-1263.584833	976.007813	152.042694
20382.573617	-1263.584833	974.839844	-21.708036
20382.573617	-1263.584833	973.671875	46.632885
20382.573617	-1263.584833	972.503906	82.782951
20382.573617	-1263.584833	971.334961	-4.479717
20382.573617	-1263.584833	970.166016	57.216038
20382.573617	-1263.584833	968.997070	-15.923053
20382.573617	-1263.584833	967.828125	-50.801571
20382.573617	-1263.584833	966.658203	60.575321
20382.573617	-1263.584833	965.488281	-147.670654
20382.573617	-1263.584833	964.318359	107.167236
20382.573617	-1263.584833	963.148438	-24.895184
20382.573617	-1263.584833	961.977539	-75.942261
20382.573617	-1263.584833	960.806641	-182.554337
20382.573617	-1263.584833	959.635742	15.360561
20382.573617	-1263.584833	958.463867	0.029084
20382.573617	-1263.584833	957.292969	78.695763
20382.573617	-1263.584833	956.121094	53.827339
20382.573617	-1263.584833	954.948242	-1.239131
20382.573617	-1263.584833	953.776367	37.458271
20382.573617	-1263.584833	952.603516	-95.783257
20382.573617	-1263.584833	951.430664	-132.464813
20382.573617	-1263.584833	950.257813	-91.841125
20382.573617	-1263.584833	949.084961	-27.578003
20382.573617	-1263.584833	947.911133	-3.723396
20382.573617	-1263.584833	946.737305	-16.830597
20382.573617	-1263.584833	945.563477	81.602524
20382.573617	-1263.584833	944.388672	97.085587
20382.573617	-1263.584833	943.213867	-53.231522
20382.573617	-1263.584833	942.039063	-80.635742
20382.573617	-1263.584833	940.864258	-65.080521
20382.573617	-1263.584833	939.688477	36.019386
20382.573617	-1263.584833	938.513672	-42.813614
20382.573617	-1263.584833	937.337891	21.097595
20382.573617	-1263.584833	936.161133	104.942589
20382.573617	-1263.584833	934.985352	220.270721
20382.573617	-1263.584833	933.808594	92.690636
20382.573617	-1263.584833	932.631836	196.585281
20382.573617	-1263.584833	931.454102	163.236526
20382.573617	-1263.584833	930.277344	61.407227
20382.573617	-1263.584833	929.099609	-9.079726
20382.573617	-1263.584833	927.921875	43.274849
20382.573617	-1263.584833	926.743164	95.576019
20382.573617	-1263.584833	925.565430	173.541824
20382.573617	-1263.584833	924.386719	14.614654
20382.573617	-1263.584833	923.208008	-81.498734
20382.573617	-1263.584833	922.028320	207.469742
20382.573617	-1263.584833	920.849609	117.031204
20382.573617	-1263.584833	919.669922	119.218254
20382.573617	-1263.584833	919.474609	-21.495405
20382.573617	-1263.584833	918.309570	-20.693533
20382.573617	-1263.584833	917.143555	-19.906050
20382.573617	-1263.584833	915.977539	52.100719
20382.573617	-1263.584833	914.810547	58.541546
20382.573617	-1263.584833	913.644531	-91.692421
20382.573617	-1263.584833	912.477539	-85.255783
20382.573617	-1263.584833	911.310547	-138.626724
20382.573617	-1263.584833	910.143555	72.735390
20382.573617	-1263.584833	908.975586	-17.671528
20382.573617	-1263.584833	907.807617	111.036659
20382.573617	-1263.584833	906.639648	37.697475
20382.573617	-1263.584833	905.471680	66.765121
20382.573617	-1263.584833	904.303711	-162.963898
20382.573617	-1263.584833	903.134766	11.100514
20382.573617	-1263.584833	901.965820	315.832794
20382.573617	-1263.584833	900.796875	-132.673676
20382.573617	-1263.584833	899.626953	-18.430918
20382.573617	-1263.584833	898.457031	78.706551
20382.573617	-1263.584833	897.287109	84.905815
20382.573617	-1263.584833	896.117188	20.098604
20382.573617	-1263.584833	894.947266	91.576019
20382.573617	-1263.584833	893.776367	-47.030926
20382.573617	-1263.584833	892.605469	-123.162666
20382.573617	-1263.584833	891.434570	33.378147
20382.573617	-1263.584833	890.262695	141.618958
20382.573617	-1263.584833	889.091797	-16.792744
20382.573617	-1263.584833	887.919922	0.650954
20382.573617	-1263.584833	886.748047	-83.984467
20382.573617	-1263.584833	885.575195	18.470959
20382.573617	-1263.584833	884.403320	-43.489990
20382.573617	-1263.584833	883.230469	16.390507
20382.573617	-1263.584833	882.057617	30.910873
20382.573617	-1263.584833	880.883789	59.574028
20382.573617	-1263.584833	879.710938	-8.058812
20382.573617	-1263.584833	878.537109	176.272995
20382.573617	-1263.584833	877.362305	-10.252778
20382.573617	-1263.584833	876.188477	-86.357101
20382.573617	-1263.584833	875.013672	18.623917
20382.573617	-1263.584833	873.839844	-48.995472
20382.573617	-1263.584833	872.664063	-167.501755
20382.573617	-1263.584833	871.489258	16.560074
20382.573617	-1263.584833	870.313477	90.288399
20382.573617	-1263.584833	869.138672	50.921856
20382.573617	-1263.584833	867.962891	62.422039
20382.573617	-1263.584833	866.786133	-109.725700
20382.573617	-1263.584833	865.610352	-5.013638
20382.573617	-1263.584833	864.433594	-21.785412
20382.573617	-1263.584833	863.256836	133.661835
20382.573617	-1263.584833	862.079102	94.261452
20382.573617	-1263.584833	860.902344	128.240494
20382.573617	-1263.584833	859.724609	108.583359
20382.573617	-1263.584833	858.546875	-71.878174
20382.573617	-1263.584833	857.368164	86.178856
20382.573617	-1263.584833	856.190430	-63.211304
20382.573617	-1263.584833	855.011719	190.609955
20382.573617	-1263.584833	853.833008	58.147804
20382.573617	-1263.584833	852.654297	-29.182253
20382.573617	-1263.584833	851.474609	-37.596371
20382.573617	-1263.584833	850.294922	75.111320
20382.573617	-1263.584833	849.115234	-71.351189
20382.573617	-1263.584833	847.935547	69.449684
20382.573617	-1263.584833	846.754883	80.678574
20382.573617	-1263.584833	845.575195	21.521271
20382.573617	-1263.584833	844.393555	89.012711
20382.573617	-1263.584833	843.212891	-15.163343
20382.573617	-1263.584833	842.032227	71.971199
20382.573617	-1263.584833	840.850586	77.498894
20382.573617	-1263.584833	839.668945	-23.837225
20382.573617	-1263.584833	838.486328	23.850548
20382.573617	-1263.584833	837.304688	127.717369
20382.573617	-1263.584833	836.122070	119.126526
20382.573617	-1263.584833	834.939453	104.906555
20382.573617	-1263.584833	833.756836	-2.014363
20382.573617	-1263.584833	832.573242	59.595142
20382.573617	-1263.584833	831.389648	50.972328
20382.573617	-1263.584833	830.206055	56.375439
20382.573617	-1263.584833	829.022461	33.696503
20382.573617	-1263.584833	827.838867	215.851486
20382.573617	-1263.584833	826.654297	212.760651
20382.573617	-1263.584833	825.469727	125.510902
20382.573617	-1263.584833	824.284180	91.565468
20382.573617	-1263.584833	823.099609	-37.706409
20382.573617	-1263.584833	821.914063	127.388359
20382.573617	-1263.584833	820.728516	188.707214
20382.573617	-1263.584833	819.542969	118.294525
20382.573617	-1263.584833	818.356445	25.485991
20382.573617	-1263.584833	817.169922	350.020935
20382.573617	-1263.584833	815.983398	327.179016
20382.573617	-1263.584833	814.796875	374.323486
20382.573617	-1263.584833	813.609375	63.153259
20382.573617	-1263.584833	812.422852	-18.428040
20382.573617	-1263.584833	811.235352	25.916479
20382.573617	-1263.584833	810.046875	128.972336
20382.573617	-1263.584833	808.859375	114.505531
20382.573617	-1263.584833	807.670898	66.476410
20382.573617	-1263.584833	806.482422	1.677611
20382.573617	-1263.584833	805.293945	-93.855331
20382.573617	-1263.584833	804.104492	70.520248
20382.573617	-1263.584833	802.915039	162.171234
20382.573617	-1263.584833	801.725586	-39.527012
20382.573617	-1263.584833	800.536133	88.381973
20382.573617	-1263.584833	799.345703	45.902603
20382.573617	-1263.584833	798.155273	-49.614807
20382.573617	-1263.584833	796.964844	-22.306597
20382.573617	-1263.584833	795.774414	-95.479996
20382.573617	-1263.584833	794.583008	-68.205856
20382.573617	-1263.584833	793.392578	-85.588448
20382.573617	-1263.584833	792.200195	-119.711205
20382.573617	-1263.584833	791.008789	-128.744827
20382.573617	-1263.584833	789.816406	-48.590725
20382.573617	-1263.584833	788.625000	9.216749
20382.573617	-1263.584833	787.432617	-30.539291
20382.573617	-1263.584833	786.239258	-81.438606
20382.573617	-1263.584833	785.046875	-168.542801
20382.573617	-1263.584833	783.853516	-85.766609
20382.573617	-1263.584833	782.660156	-119.971947
20382.573617	-1263.584833	781.465820	-117.995941
20382.573617	-1263.584833	780.272461	-77.078796
20382.573617	-1263.584833	779.078125	-22.285273
20382.573617	-1263.584833	777.883789	21.340153
20382.573617	-1263.584833	776.688477	78.834816
20382.573617	-1263.584833	775.494141	102.919548
20382.573617	-1263.584833	774.298828	-153.804504
20382.573617	-1263.584833	773.103516	120.429268
20382.573617	-1263.584833	771.907227	149.991638
20382.573617	-1263.584833	770.711914	62.834503
20382.573617	-1263.584833	769.515625	75.691711
20382.573617	-1263.584833	768.318359	94.077728
20382.573617	-1263.584833	767.122070	6.927964
20382.573617	-1263.584833	765.924805	-132.948654
20382.573617	-1263.584833	764.727539	-89.611580
20382.573617	-1263.584833	763.530273	134.048920
20382.573617	-1263.584833	762.333008	27.463388
20382.573617	-1263.584833	761.134766	-45.814461
20382.573617	-1263.584833	759.936523	-44.209732
20382.573617	-1263.584833	758.738281	-42.626362
20382.573617	-1263.584833	757.540039	0.514135
20382.573617	-1263.584833	756.340820	-22.896206
20382.573617	-1263.584833	755.141602	-79.567581
20382.573617	-1263.584833	753.942383	68.756714
20382.573617	-1263.584833	752.742188	-21.188063
20382.573617	-1263.584833	751.541992	-194.188232
20382.573617	-1263.584833	750.341797	186.552948
20382.573617	-1263.584833	749.141602	-19.677029
20382.573617	-1263.584833	747.941406	42.585079
20382.573617	-1263.584833	746.740234	16.263889
20382.573617	-1263.584833	745.539063	194.626404
20382.573617	-1263.584833	744.337891	-44.709328
20382.573617	-1263.584833	743.135742	136.311142
20382.573617	-1263.584833	741.933594	85.021751
20382.573617	-1263.584833	740.731445	64.133820
20382.573617	-1263.584833	739.529297	145.471451
20382.573617	-1263.584833	738.326172	-13.601388
20382.573617	-1263.584833	737.124023	12.430182
20382.573617	-1263.584833	735.919922	24.619633
20382.573617	-1263.584833	734.716797	56.106644
20382.573617	-1263.584833	733.513672	10.266873
20382.573617	-1263.584833	732.309570	-41.097816
20382.573617	-1263.584833	731.105469	53.773949
20382.573617	-1263.584833	729.900391	18.925200
20382.573617	-1263.584833	728.696289	171.615738
20382.573617	-1263.584833	727.491211	-205.220612
20382.573617	-1263.584833	726.286133	-129.789688
20382.573617	-1263.584833	725.080078	-54.415215
20382.573617	-1263.584833	723.874023	81.530029
20382.573617	-1263.584833	722.668945	101.676270
20382.573617	-1263.584833	721.461914	14.358055
20382.573617	-1263.584833	720.255859	-144.552292
20382.573617	-1263.584833	719.048828	-63.871208
20382.573617	-1263.584833	717.841797	69.055489
20382.573617	-1263.584833	716.634766	42.267773
20382.573617	-1263.584833	715.427734	-34.065487
20382.573617	-1263.584833	714.219727	131.708878
20382.573617	-1263.584833	713.011719	5.827667
20382.573617	-1263.584833	711.803711	88.972946
20382.573617	-1263.584833	710.594727	-61.643570
20382.573617	-1263.584833	709.385742	-11.556988
20382.573617	-1263.584833	708.176758	195.134003
20382.573617	-1263.584833	706.967773	60.998707
20382.573617	-1263.584833	705.758789	-86.841835
20382.573617	-1263.584833	704.548828	75.711693
20382.573617	-1263.584833	703.338867	21.240030
20382.573617	-1263.584833	702.127930	-49.708309
20382.573617	-1263.584833	700.917969	197.746109
20382.573617	-1263.584833	699.707031	-153.173721
20382.573617	-1263.584833	698.496094	151.761978
20382.573617	-1263.584833	697.285156	47.824184
20382.573617	-1263.584833	696.073242	-1.247279
20382.573617	-1263.584833	694.861328	-0.969645
20382.573617	-1263.584833	693.649414	43.142921
20382.573617	-1263.584833	692.436523	4.986454
20382.573617	-1263.584833	691.224609	21.624828
20382.573617	-1263.584833	690.011719	13.571778
20382.573617	-1263.584833	688.798828	71.233040
20382.573617	-1263.584833	687.584961	54.903999
20382.573617	-1263.584833	686.372070	85.100372
20382.573617	-1263.584833	685.158203	82.408508
20382.573617	-1263.584833	683.943359	137.162354
20382.573617	-1263.584833	682.729492	109.782547
20382.573617	-1263.584833	681.514648	139.834335
20382.573617	-1263.584833	680.299805	221.812012
20382.573617	-1263.584833	679.084961	136.928040
20382.573617	-1263.584833	677.869141	95.794548
20382.573617	-1263.584833	676.653320	117.517258
20382.573617	-1263.584833	675.437500	191.126495
20382.573617	-1263.584833	674.221680	119.874802
20382.573617	-1263.584833	673.004883	127.841530
20382.573617	-1263.584833	671.789063	53.850082
20382.573617	-1263.584833	670.571289	149.147186
20382.573617	-1263.584833	669.354492	42.371559
20382.573617	-1263.584833	668.136719	102.098793
20382.573617	-1263.584833	666.919922	33.527958
20382.573617	-1263.584833	665.701172	210.487579
20382.573617	-1263.584833	664.483398	84.592239
20382.573617	-1263.584833	663.264648	92.343658
20382.573617	-1263.584833	662.045898	34.633488
20382.573617	-1263.584833	660.827148	173.181107
20382.573617	-1263.584833	659.608398	107.252266
20382.573617	-1263.584833	658.388672	133.963303
20382.573617	-1263.584833	657.168945	245.084885
20382.573617	-1263.584833	655.949219	72.889610
20382.573617	-1263.584833	654.728516	20.549934
20382.573617	-1263.584833	653.507813	175.107574
20382.573617	-1263.584833	652.287109	32.901100
20382.573617	-1263.584833	651.066406	209.112335
20382.573617	-1263.584833	649.844727	221.984940
20382.573617	-1263.584833	648.623047	213.068573
20382.573617	-1263.584833	647.401367	-43.341152
20382.573617	-1263.584833	646.179688	287.618744
20382.573617	-1263.584833	644.957031	188.917038
20382.573617	-1263.584833	643.734375	63.056561
20382.573617	-1263.584833	642.511719	32.328072
20382.573617	-1263.584833	641.289063	221.635132
20382.573617	-1263.584833	640.065430	57.753548
20382.573617	-1263.584833	638.841797	81.285896
20382.573617	-1263.584833	637.618164	34.199715
20382.573617	-1263.584833	636.393555	171.682907
20382.573617	-1263.584833	635.168945	124.552940
20382.573617	-1263.584833	633.944336	134.397995
20382.573617	-1263.584833	632.719727	-97.202072
20382.573617	-1263.584833	631.494141	26.546562
20382.573617	-1263.584833	630.269531	101.418930
20382.573617	-1263.584833	629.042969	59.668434
20382.573617	-1263.584833	627.817383	91.095985
20382.573617	-1263.584833	626.590820	-31.965017
20382.573617	-1263.584833	625.365234	40.066746
20382.573617	-1263.584833	624.137695	87.668663
20382.573617	-1263.584833	622.911133	2.542223
20382.573617	-1263.584833	621.683594	-41.957287
20382.573617	-1263.584833	620.456055	48.886311
20382.573617	-1263.584833	619.228516	145.086548
20382.573617	-1263.584833	618.000977	130.295624
20382.573617	-1263.584833	616.772461	15.402499
20382.573617	-1263.584833	615.543945	-67.003532
20382.573617	-1263.584833	614.314453	175.083176
20382.573617	-1263.584833	613.085938	165.637787
20382.573617	-1263.584833	611.856445	-14.098775
20382.573617	-1263.584833	610.626953	-31.638733
20382.573617	-1263.584833	609.397461	34.565681
20382.573617	-1263.584833	608.166992	103.426819
20382.573617	-1263.584833	606.936523	-60.000076
20382.573617	-1263.584833	605.706055	165.421631
20382.573617	-1263.584833	604.474609	-95.154984
20382.573617	-1263.584833	603.244141	86.972038
20382.573617	-1263.584833	602.012695	53.148933
20382.573617	-1263.584833	600.780273	-69.695663
20382.573617	-1263.584833	599.548828	-65.734711
20382.573617	-1263.584833	598.316406	113.484428
20382.573617	-1263.584833	597.083984	25.719265
20382.573617	-1263.584833	595.851563	-56.627407
20382.573617	-1263.584833	594.618164	-39.243355
20382.573617	-1263.584833	593.384766	-135.033157
20382.573617	-1263.584833	592.151367	-77.253174
20382.573617	-1263.584833	590.917969	-92.218857
20382.573617	-1263.584833	589.683594	3.204787
20382.573617	-1263.584833	588.449219	-52.167549
20382.573617	-1263.584833	587.214844	83.563065
20382.573617	-1263.584833	585.979492	-14.869761
20382.573617	-1263.584833	584.745117	2.413929
20382.573617	-1263.584833	583.509766	121.889168
20382.573617	-1263.584833	582.273438	96.097473
20382.573617	-1263.584833	581.038086	35.364624
20382.573617	-1263.584833	579.801758	68.728638
20382.573617	-1263.584833	578.565430	-123.661255
20382.573617	-1263.584833	577.329102	76.295570
20382.573617	-1263.584833	576.091797	141.853241
20382.573617	-1263.584833	574.854492	-69.236961
20382.573617	-1263.584833	573.617188	-3.678602
20382.573617	-1263.584833	572.378906	-53.583755
20382.573617	-1263.584833	571.141602	-31.000145
20382.573617	-1263.584833	569.903320	-5.744233
20382.573617	-1263.584833	568.664063	124.126411
20382.573617	-1263.584833	567.425781	23.278410
20382.573617	-1263.584833	566.186523	-5.123233
20382.573617	-1263.584833	564.947266	28.153252
20382.573617	-1263.584833	563.708008	29.252922
20382.573617	-1263.584833	562.467773	-92.920631
20382.573617	-1263.584833	561.227539	87.724205
20382.573617	-1263.584833	559.987305	187.934052
20382.573617	-1263.584833	558.747070	162.232880
20382.573617	-1263.584833	557.505859	16.054575
20382.573617	-1263.584833	556.264648	153.708984
20382.573617	-1263.584833	555.023438	90.577972
20382.573617	-1263.584833	553.781250	0.719954
20382.573617	-1263.584833	552.539063	95.504822
20382.573617	-1263.584833	551.296875	-34.420422
20382.573617	-1263.584833	550.054688	218.123932
20382.573617	-1263.584833	548.811523	88.244644
20382.573617	-1263.584833	547.569336	161.581772
20382.573617	-1263.584833	546.325195	50.495621
20382.573617	-1263.584833	545.082031	-20.452219
20382.573617	-1263.584833	543.837891	-45.948109
20382.573617	-1263.584833	542.593750	-55.396675
20382.573617	-1263.584833	541.349609	-80.849670
20382.573617	-1263.584833	540.105469	3.173832
20382.573617	-1263.584833	538.860352	12.440809
20382.573617	-1263.584833	537.615234	-26.314756
20382.573617	-1263.584833	536.369141	137.717087
20382.573617	-1263.584833	535.124023	61.638500
20382.573617	-1263.584833	533.877930	62.940998
20382.573617	-1263.584833	532.631836	98.918549
20382.573617	-1263.584833	531.384766	124.232674
20382.573617	-1263.584833	530.138672	29.628965
20382.573617	-1263.584833	528.891602	-6.301881
20382.573617	-1263.584833	527.643555	170.907852
20382.573617	-1263.584833	526.396484	52.435768
20382.573617	-1263.584833	525.148438	-10.052193
20382.573617	-1263.584833	523.900391	-35.225124
20382.573617	-1263.584833	522.652344	-57.706223
20382.573617	-1263.584833	521.403320	-231.838318
20382.573617	-1263.584833	520.154297	-33.414143
20382.573617	-1263.584833	518.905273	-143.600372
20382.573617	-1263.584833	517.656250	142.516342
20382.573617	-1263.584833	516.406250	61.624916
20382.573617	-1263.584833	515.156250	-149.461044
20382.573617	-1263.584833	513.906250	-57.470303
20382.573617	-1263.584833	512.655273	-58.495209
20382.573617	-1263.584833	511.404297	102.544334
20382.573617	-1263.584833	510.153320	-92.349533
20382.573617	-1263.584833	508.902344	95.224709
20382.573617	-1263.584833	507.650391	-134.053787
20382.573617	-1263.584833	506.398438	-7.553812
20382.573617	-1263.584833	505.146484	-72.144409
20382.573617	-1263.584833	503.893555	-88.932571
20382.573617	-1263.584833	502.641602	-63.249985
20382.573617	-1263.584833	501.388672	-114.462112
20382.573617	-1263.584833	500.134766	-226.611359
20382.573617	-1263.584833	498.881836	-52.408524
20382.573617	-1263.584833	497.627930	-254.583267
20382.573617	-1263.584833	496.374023	20.278465
20382.573617	-1263.584833	495.119141	80.471992
20382.573617	-1263.584833	493.865234	8.240368
20382.573617	-1263.584833	492.610352	-21.573292
20382.573617	-1263.584833	491.355469	94.250069
20382.573617	-1263.584833	490.099609	53.885590
20382.573617	-1263.584833	488.843750	-68.470718
20382.573617	-1263.584833	487.587891	44.705265
20382.573617	-1263.584833	486.332031	186.949371
20382.573617	-1263.584833	485.075195	51.482067
20382.573617	-1263.584833	483.818359	-12.521342
20382.573617	-1263.584833	482.561523	134.989014
20382.573617	-1263.584833	481.304688	-42.604031
20382.573617	-1263.584833	480.046875	104.886238
20382.573617	-1263.584833	478.789063	27.793585
20382.573617	-1263.584833	477.531250	29.983641
20382.573617	-1263.584833	476.272461	13.705539
20382.573617	-1263.584833	475.013672	-68.546967
20382.573617	-1263.584833	473.754883	147.497375
20382.573617	-1263.584833	472.496094	136.529251
20382.573617	-1263.584833	471.236328	151.961212
20382.573617	-1263.584833	469.976563	175.313141
20382.573617	-1263.584833	468.716797	-36.031067
20382.573617	-1263.584833	467.456055	58.559299
20382.573617	-1263.584833	466.196289	-41.936909
20382.573617	-1263.584833	464.935547	-2.708077
20382.573617	-1263.584833	463.673828	-34.627342
20382.573617	-1263.584833	462.413086	7.233633
20382.573617	-1263.584833	461.151367	143.892899
20382.573617	-1263.584833	459.889648	-135.528107
20382.573617	-1263.584833	458.626953	43.230888
20382.573617	-1263.584833	457.364258	-36.014954
20382.573617	-1263.584833	456.101563	0.554217
20382.573617	-1263.584833	454.838867	116.031624
20382.573617	-1263.584833	453.575195	105.204155
20382.573617	-1263.584833	452.312500	-8.178100
20382.573617	-1263.584833	451.047852	-13.726104
20382.573617	-1263.584833	449.784180	-3.506671
20382.573617	-1263.584833	448.519531	19.837971
20382.573617	-1263.584833	447.254883	53.671280
20382.573617	-1263.584833	445.990234	-35.983807
20382.573617	-1263.584833	444.725586	116.000061
20382.573617	-1263.584833	443.459961	128.738739
20382.573617	-1263.584833	442.194336	39.072987
20382.573617	-1263.584833	440.927734	183.008118
20382.573617	-1263.584833	439.662109	38.219913
20382.573617	-1263.584833	438.395508	224.017044
20382.573617	-1263.584833	437.127930	226.104431
20382.573617	-1263.584833	435.861328	133.758347
20382.573617	-1263.584833	434.593750	117.446213
20382.573617	-1263.584833	433.326172	80.134781
20382.573617	-1263.584833	432.058594	84.728416
20382.573617	-1263.584833	430.790039	170.496216
20382.573617	-1263.584833	429.521484	195.933533
20382.573617	-1263.584833	428.252930	195.122192
20382.573617	-1263.584833	426.984375	280.662476
20382.573617	-1263.584833	425.714844	245.692062
20382.573617	-1263.584833	424.445313	1.303735
20382.573617	-1263.584833	423.174805	125.898071
20382.573617	-1263.584833	421.905273	164.044495
20382.573617	-1263.584833	420.634766	134.099213
20382.573617	-1263.584833	419.364258	135.471634
20382.573617	-1263.584833	418.092773	50.490398
20382.573617	-1263.584833	416.822266	310.482758
20382.573617	-1263.584833	415.550781	180.906052
20382.573617	-1263.584833	414.278320	166.248947
20382.573617	-1263.584833	413.006836	96.650749
20382.573617	-1263.584833	411.734375	107.936676
20382.573617	-1263.584833	410.461914	137.389801
20382.573617	-1263.584833	409.188477	93.626953
20382.573617	-1263.584833	407.916016	255.945297
20382.573617	-1263.584833	406.642578	123.227020
20382.573617	-1263.584833	405.368164	358.260620
20382.573617	-1263.584833	404.094727	217.497192
20382.573617	-1263.584833	402.820313	107.946373
20382.573617	-1263.584833	401.545898	245.963181
20382.573617	-1263.584833	400.270508	279.512909
20382.573617	-1263.584833	398.996094	187.817474
20382.573617	-1263.584833	397.720703	192.393860
20382.573617	-1263.584833	396.444336	129.075867
20382.573617	-1263.584833	395.168945	354.676025
20382.573617	-1263.584833	393.892578	173.837570
20382.573617	-1263.584833	392.616211	188.116913
20382.573617	-1263.584833	391.339844	295.885712
20382.573617	-1263.584833	390.062500	195.252975
20382.573617	-1263.584833	388.785156	156.888367
20382.573617	-1263.584833	387.507813	271.769501
20382.573617	-1263.584833	386.229492	183.560059
20382.573617	-1263.584833	384.951172	-34.822803
20382.573617	-1263.584833	383.672852	81.929565
20382.573617	-1263.584833	382.394531	8.694975
20382.573617	-1263.584833	381.115234	192.427170
20382.573617	-1263.584833	379.835938	105.690773
20382.573617	-1263.584833	378.556641	145.963623
20382.573617	-1263.584833	377.277344	-32.144794
20382.573617	-1263.584833	375.997070	178.877762
20382.573617	-1263.584833	374.716797	15.815189
20382.573617	-1263.584833	373.435547	140.501587
20382.573617	-1263.584833	372.155273	31.365061
20382.573617	-1263.584833	370.874023	202.028732
20382.573617	-1263.584833	369.591797	97.431221
20382.573617	-1263.584833	368.310547	70.306168
20382.573617	-1263.584833	367.028320	117.985474
20382.573617	-1263.584833	365.746094	40.898750
20382.573617	-1263.584833	364.463867	194.026505
20382.573617	-1263.584833	363.180664	46.244900
20382.573617	-1263.584833	361.897461	71.616516
20382.573617	-1263.584833	360.614258	49.961514
20382.573617	-1263.584833	359.330078	56.350224
20382.573617	-1263.584833	358.045898	-2.397752
20382.573617	-1263.584833	356.761719	-61.572826
20382.573617	-1263.584833	355.477539	-59.107254
20382.573617	-1263.584833	354.192383	33.380424
20382.573617	-1263.584833	352.907227	-6.524698
20382.573617	-1263.584833	351.622070	7.366926
20382.573617	-1263.584833	350.336914	80.175262
20382.573617	-1263.584833	349.050781	-28.460533
20382.573617	-1263.584833	347.764648	-36.849468
20382.573617	-1263.584833	346.477539	295.105682
20382.573617	-1263.584833	345.191406	215.795319
20382.573617	-1263.584833	343.904297	11.998793
20382.573617	-1263.584833	342.616211	52.864372
20382.573617	-1263.584833	341.329102	-128.813919
20382.573617	-1263.584833	340.041016	-37.600101
20382.573617	-1263.584833	338.752930	55.497639
20382.573617	-1263.584833	337.463867	6.035116
20382.573617	-1263.584833	336.175781	48.736313
20382.573617	-1263.584833	334.886719	-69.116890
20382.573617	-1263.584833	333.596680	-112.926422
20382.573617	-1263.584833	332.307617	2.302481
20382.573617	-1263.584833	331.017578	-112.556290
20382.573617	-1263.584833	329.727539	-53.018787
20382.573617	-1263.584833	328.436523	-197.735504
20382.573617	-1263.584833	327.146484	-18.830456
20382.573617	-1263.584833	325.855469	138.549606
20382.573617	-1263.584833	324.563477	-88.414864
20382.573617	-1263.584833	323.272461	-172.071228
20382.573617	-1263.584833	321.980469	-45.708340
20382.573617	-1263.584833	320.688477	-100.320862
20382.573617	-1263.584833	319.395508	-158.446228
20382.573617	-1263.584833	318.103516	18.985788
20382.573617	-1263.584833	316.810547	-102.762039
20382.573617	-1263.584833	315.516602	75.103622
20382.573617	-1263.584833	314.223633	-92.308083
20382.573617	-1263.584833	312.929688	14.054407
20382.573617	-1263.584833	311.635742	114.156776
20382.573617	-1263.584833	310.340820	69.333908
20382.573617	-1263.584833	309.045898	56.765610
20382.573617	-1263.584833	307.750977	-67.280304
20382.573617	-1263.584833	306.456055	82.033905
20382.573617	-1263.584833	305.160156	122.327553
20382.573617	-1263.584833	303.865234	156.279907
20382.573617	-1263.584833	302.568359	219.652664
20382.573617	-1263.584833	301.272461	281.748260
20382.573617	-1263.584833	299.975586	124.658821
20382.573617	-1263.584833	298.678711	435.123962
