#X		#Y		#Wave		#Intensity
-6887.722340	6806.458333	1999.946289	-111.647911
-6887.722340	6806.458333	1998.981445	59.190262
-6887.722340	6806.458333	1998.017578	-91.780190
-6887.722340	6806.458333	1997.052734	-32.227886
-6887.722340	6806.458333	1996.088867	-76.928314
-6887.722340	6806.458333	1995.124023	59.063194
-6887.722340	6806.458333	1994.159180	-85.021225
-6887.722340	6806.458333	1993.193359	-83.099831
-6887.722340	6806.458333	1992.228516	-2.096763
-6887.722340	6806.458333	1991.262695	16.856684
-6887.722340	6806.458333	1990.296875	8.448816
-6887.722340	6806.458333	1989.331055	-22.351675
-6887.722340	6806.458333	1988.365234	80.334908
-6887.722340	6806.458333	1987.398438	155.661057
-6887.722340	6806.458333	1986.432617	-28.820955
-6887.722340	6806.458333	1985.465820	90.791458
-6887.722340	6806.458333	1984.499023	-34.480347
-6887.722340	6806.458333	1983.532227	156.575745
-6887.722340	6806.458333	1982.565430	-117.117340
-6887.722340	6806.458333	1981.597656	-52.297035
-6887.722340	6806.458333	1980.629883	126.053062
-6887.722340	6806.458333	1979.662109	-43.985256
-6887.722340	6806.458333	1978.694336	-63.397705
-6887.722340	6806.458333	1977.726563	-55.711113
-6887.722340	6806.458333	1976.758789	127.173553
-6887.722340	6806.458333	1975.790039	33.514881
-6887.722340	6806.458333	1974.821289	139.709946
-6887.722340	6806.458333	1973.852539	-45.300720
-6887.722340	6806.458333	1972.883789	97.773888
-6887.722340	6806.458333	1971.915039	122.378014
-6887.722340	6806.458333	1970.945313	119.811516
-6887.722340	6806.458333	1969.975586	60.510288
-6887.722340	6806.458333	1969.005859	-35.771164
-6887.722340	6806.458333	1968.036133	70.032104
-6887.722340	6806.458333	1967.066406	217.657791
-6887.722340	6806.458333	1966.096680	227.255630
-6887.722340	6806.458333	1965.125977	295.943146
-6887.722340	6806.458333	1964.155273	157.738861
-6887.722340	6806.458333	1963.184570	164.835220
-6887.722340	6806.458333	1962.213867	174.382584
-6887.722340	6806.458333	1961.242188	68.245140
-6887.722340	6806.458333	1960.271484	368.158875
-6887.722340	6806.458333	1959.299805	170.992767
-6887.722340	6806.458333	1958.328125	214.959274
-6887.722340	6806.458333	1957.356445	15.440763
-6887.722340	6806.458333	1956.384766	214.340027
-6887.722340	6806.458333	1955.412109	39.495426
-6887.722340	6806.458333	1954.439453	83.484329
-6887.722340	6806.458333	1953.467773	156.962067
-6887.722340	6806.458333	1952.495117	-140.585571
-6887.722340	6806.458333	1951.521484	48.397205
-6887.722340	6806.458333	1950.548828	55.577034
-6887.722340	6806.458333	1949.575195	215.025528
-6887.722340	6806.458333	1948.601563	38.075378
-6887.722340	6806.458333	1947.627930	82.144348
-6887.722340	6806.458333	1946.654297	-143.749283
-6887.722340	6806.458333	1945.680664	-67.708397
-6887.722340	6806.458333	1944.706055	94.201546
-6887.722340	6806.458333	1943.732422	54.944214
-6887.722340	6806.458333	1942.757813	74.593086
-6887.722340	6806.458333	1941.783203	197.253647
-6887.722340	6806.458333	1940.807617	33.072239
-6887.722340	6806.458333	1939.833008	1.347943
-6887.722340	6806.458333	1938.857422	35.840813
-6887.722340	6806.458333	1937.881836	138.965530
-6887.722340	6806.458333	1936.906250	21.617678
-6887.722340	6806.458333	1935.930664	61.106873
-6887.722340	6806.458333	1934.955078	54.097157
-6887.722340	6806.458333	1933.978516	125.480843
-6887.722340	6806.458333	1933.001953	72.038361
-6887.722340	6806.458333	1932.025391	-44.971699
-6887.722340	6806.458333	1931.048828	-24.861082
-6887.722340	6806.458333	1930.072266	41.772274
-6887.722340	6806.458333	1929.094727	108.429070
-6887.722340	6806.458333	1928.118164	-49.889187
-6887.722340	6806.458333	1927.140625	-39.382957
-6887.722340	6806.458333	1926.163086	46.954071
-6887.722340	6806.458333	1925.184570	42.871628
-6887.722340	6806.458333	1924.207031	-51.579548
-6887.722340	6806.458333	1923.228516	-180.152435
-6887.722340	6806.458333	1922.250000	-59.451454
-6887.722340	6806.458333	1921.271484	83.237549
-6887.722340	6806.458333	1920.292969	-30.483625
-6887.722340	6806.458333	1919.314453	-48.890163
-6887.722340	6806.458333	1918.334961	-155.117035
-6887.722340	6806.458333	1917.355469	38.943783
-6887.722340	6806.458333	1916.375977	-30.553337
-6887.722340	6806.458333	1915.396484	-304.906189
-6887.722340	6806.458333	1914.416992	-74.181190
-6887.722340	6806.458333	1913.436523	-43.470245
-6887.722340	6806.458333	1912.457031	-63.924526
-6887.722340	6806.458333	1911.476563	-108.695648
-6887.722340	6806.458333	1910.496094	-126.587349
-6887.722340	6806.458333	1909.515625	50.536934
-6887.722340	6806.458333	1908.534180	-76.915604
-6887.722340	6806.458333	1907.552734	-33.745056
-6887.722340	6806.458333	1906.572266	-253.584747
-6887.722340	6806.458333	1905.590820	55.135841
-6887.722340	6806.458333	1904.608398	-288.703583
-6887.722340	6806.458333	1903.626953	39.483837
-6887.722340	6806.458333	1902.644531	-201.904007
-6887.722340	6806.458333	1901.663086	-104.921112
-6887.722340	6806.458333	1900.680664	99.122498
-6887.722340	6806.458333	1899.698242	40.438828
-6887.722340	6806.458333	1898.714844	91.265358
-6887.722340	6806.458333	1897.732422	127.530006
-6887.722340	6806.458333	1896.749023	-79.275162
-6887.722340	6806.458333	1895.765625	15.439462
-6887.722340	6806.458333	1894.782227	158.768036
-6887.722340	6806.458333	1893.798828	-137.685516
-6887.722340	6806.458333	1892.814453	88.305664
-6887.722340	6806.458333	1891.831055	-96.209099
-6887.722340	6806.458333	1890.846680	112.781212
-6887.722340	6806.458333	1889.862305	-49.727924
-6887.722340	6806.458333	1888.877930	-71.343651
-6887.722340	6806.458333	1887.892578	-80.770599
-6887.722340	6806.458333	1886.908203	157.348602
-6887.722340	6806.458333	1885.922852	-75.233475
-6887.722340	6806.458333	1884.937500	116.792778
-6887.722340	6806.458333	1883.952148	-47.710114
-6887.722340	6806.458333	1882.965820	81.277931
-6887.722340	6806.458333	1881.980469	93.889183
-6887.722340	6806.458333	1880.994141	-126.147865
-6887.722340	6806.458333	1880.007813	39.243698
-6887.722340	6806.458333	1879.021484	95.578651
-6887.722340	6806.458333	1878.035156	-58.822567
-6887.722340	6806.458333	1877.047852	-215.552048
-6887.722340	6806.458333	1876.061523	-178.471176
-6887.722340	6806.458333	1875.074219	-122.000557
-6887.722340	6806.458333	1874.086914	128.127869
-6887.722340	6806.458333	1873.098633	75.676567
-6887.722340	6806.458333	1872.111328	57.148136
-6887.722340	6806.458333	1871.123047	-75.046776
-6887.722340	6806.458333	1870.135742	37.130413
-6887.722340	6806.458333	1869.147461	-51.426144
-6887.722340	6806.458333	1868.158203	51.091259
-6887.722340	6806.458333	1867.169922	6.128252
-6887.722340	6806.458333	1866.180664	4.714852
-6887.722340	6806.458333	1865.192383	-240.746384
-6887.722340	6806.458333	1864.203125	125.175018
-6887.722340	6806.458333	1863.213867	15.103172
-6887.722340	6806.458333	1862.223633	25.853464
-6887.722340	6806.458333	1861.234375	24.543108
-6887.722340	6806.458333	1860.244141	194.666199
-6887.722340	6806.458333	1859.253906	161.982483
-6887.722340	6806.458333	1858.263672	11.071990
-6887.722340	6806.458333	1857.273438	219.755981
-6887.722340	6806.458333	1856.282227	-15.511430
-6887.722340	6806.458333	1855.291992	9.814507
-6887.722340	6806.458333	1854.300781	8.618664
-6887.722340	6806.458333	1853.309570	38.778843
-6887.722340	6806.458333	1852.317383	131.616394
-6887.722340	6806.458333	1851.326172	176.221848
-6887.722340	6806.458333	1850.333984	293.112976
-6887.722340	6806.458333	1849.342773	-100.802307
-6887.722340	6806.458333	1848.350586	158.230072
-6887.722340	6806.458333	1847.357422	-16.332880
-6887.722340	6806.458333	1846.365234	69.224312
-6887.722340	6806.458333	1845.372070	-1.729946
-6887.722340	6806.458333	1844.379883	-91.914764
-6887.722340	6806.458333	1843.386719	97.098816
-6887.722340	6806.458333	1842.393555	23.775442
-6887.722340	6806.458333	1841.399414	65.952118
-6887.722340	6806.458333	1840.406250	-96.333412
-6887.722340	6806.458333	1839.412109	-200.845551
-6887.722340	6806.458333	1838.417969	26.470184
-6887.722340	6806.458333	1837.423828	-49.188957
-6887.722340	6806.458333	1836.429688	81.864471
-6887.722340	6806.458333	1835.434570	42.256535
-6887.722340	6806.458333	1834.440430	29.078768
-6887.722340	6806.458333	1833.445313	92.763977
-6887.722340	6806.458333	1832.450195	-23.703602
-6887.722340	6806.458333	1831.454102	23.140934
-6887.722340	6806.458333	1830.458984	98.760323
-6887.722340	6806.458333	1829.462891	270.348999
-6887.722340	6806.458333	1828.466797	151.486984
-6887.722340	6806.458333	1827.470703	104.633270
-6887.722340	6806.458333	1826.474609	-64.560768
-6887.722340	6806.458333	1825.478516	-15.453517
-6887.722340	6806.458333	1824.481445	-79.085030
-6887.722340	6806.458333	1823.484375	99.437302
-6887.722340	6806.458333	1822.487305	124.460205
-6887.722340	6806.458333	1821.490234	132.675125
-6887.722340	6806.458333	1820.493164	231.919998
-6887.722340	6806.458333	1819.495117	77.161530
-6887.722340	6806.458333	1818.498047	-8.102854
-6887.722340	6806.458333	1817.500000	179.649048
-6887.722340	6806.458333	1816.500977	94.351791
-6887.722340	6806.458333	1815.502930	186.205139
-6887.722340	6806.458333	1814.504883	421.602539
-6887.722340	6806.458333	1813.505859	139.999832
-6887.722340	6806.458333	1812.506836	112.082947
-6887.722340	6806.458333	1811.507813	29.127382
-6887.722340	6806.458333	1810.508789	41.837379
-6887.722340	6806.458333	1809.508789	49.730213
-6887.722340	6806.458333	1808.508789	88.667740
-6887.722340	6806.458333	1807.508789	206.434311
-6887.722340	6806.458333	1806.508789	99.479286
-6887.722340	6806.458333	1805.508789	64.209122
-6887.722340	6806.458333	1804.508789	313.199188
-6887.722340	6806.458333	1803.507813	-6.396669
-6887.722340	6806.458333	1802.506836	8.412572
-6887.722340	6806.458333	1801.505859	-84.262520
-6887.722340	6806.458333	1800.504883	68.931801
-6887.722340	6806.458333	1799.502930	167.135590
-6887.722340	6806.458333	1798.501953	98.224701
-6887.722340	6806.458333	1797.500000	337.062958
-6887.722340	6806.458333	1796.498047	93.935638
-6887.722340	6806.458333	1795.496094	51.185780
-6887.722340	6806.458333	1794.493164	87.094894
-6887.722340	6806.458333	1793.491211	137.247299
-6887.722340	6806.458333	1792.488281	13.342419
-6887.722340	6806.458333	1791.485352	106.295639
-6887.722340	6806.458333	1790.482422	215.845596
-6887.722340	6806.458333	1789.478516	280.047028
-6887.722340	6806.458333	1788.475586	308.448669
-6887.722340	6806.458333	1787.471680	22.468277
-6887.722340	6806.458333	1786.467773	262.702179
-6887.722340	6806.458333	1785.463867	193.350983
-6887.722340	6806.458333	1784.459961	-68.795860
-6887.722340	6806.458333	1783.455078	45.058407
-6887.722340	6806.458333	1782.450195	194.503525
-6887.722340	6806.458333	1781.445313	15.600488
-6887.722340	6806.458333	1780.440430	65.008926
-6887.722340	6806.458333	1779.435547	226.093567
-6887.722340	6806.458333	1778.429688	44.750557
-6887.722340	6806.458333	1777.424805	229.437042
-6887.722340	6806.458333	1776.418945	48.052227
-6887.722340	6806.458333	1775.413086	99.512482
-6887.722340	6806.458333	1774.406250	177.027267
-6887.722340	6806.458333	1773.400391	197.456558
-6887.722340	6806.458333	1772.393555	160.834900
-6887.722340	6806.458333	1771.386719	-51.508953
-6887.722340	6806.458333	1770.379883	-33.591995
-6887.722340	6806.458333	1769.373047	26.975023
-6887.722340	6806.458333	1768.365234	77.970634
-6887.722340	6806.458333	1767.358398	183.448914
-6887.722340	6806.458333	1766.350586	212.930161
-6887.722340	6806.458333	1765.342773	95.319679
-6887.722340	6806.458333	1764.334961	100.978500
-6887.722340	6806.458333	1763.326172	92.351898
-6887.722340	6806.458333	1762.318359	211.645950
-6887.722340	6806.458333	1761.309570	285.813080
-6887.722340	6806.458333	1760.300781	14.005015
-6887.722340	6806.458333	1759.291016	50.160057
-6887.722340	6806.458333	1758.282227	183.333435
-6887.722340	6806.458333	1757.272461	212.214417
-6887.722340	6806.458333	1756.262695	252.857407
-6887.722340	6806.458333	1755.252930	139.579575
-6887.722340	6806.458333	1754.243164	182.460800
-6887.722340	6806.458333	1753.233398	-72.842865
-6887.722340	6806.458333	1752.222656	211.212967
-6887.722340	6806.458333	1751.211914	76.488724
-6887.722340	6806.458333	1750.201172	62.343628
-6887.722340	6806.458333	1749.190430	-13.325972
-6887.722340	6806.458333	1748.179688	-74.850281
-6887.722340	6806.458333	1747.167969	21.918346
-6887.722340	6806.458333	1746.156250	-27.905382
-6887.722340	6806.458333	1745.144531	-32.890892
-6887.722340	6806.458333	1744.132813	21.106268
-6887.722340	6806.458333	1743.121094	41.958103
-6887.722340	6806.458333	1742.108398	-88.365723
-6887.722340	6806.458333	1741.095703	-152.610474
-6887.722340	6806.458333	1740.083008	-164.975418
-6887.722340	6806.458333	1739.070313	-42.903915
-6887.722340	6806.458333	1738.057617	8.280778
-6887.722340	6806.458333	1737.043945	-117.524185
-6887.722340	6806.458333	1736.030273	-80.626213
-6887.722340	6806.458333	1735.016602	-263.084839
-6887.722340	6806.458333	1734.002930	-228.662720
-6887.722340	6806.458333	1732.989258	-217.889099
-6887.722340	6806.458333	1731.974609	-77.580956
-6887.722340	6806.458333	1730.959961	36.691998
-6887.722340	6806.458333	1729.945313	56.632961
-6887.722340	6806.458333	1728.930664	36.463722
-6887.722340	6806.458333	1727.916016	122.196106
-6887.722340	6806.458333	1726.900391	-20.530067
-6887.722340	6806.458333	1725.885742	-109.127899
-6887.722340	6806.458333	1724.870117	-141.279846
-6887.722340	6806.458333	1723.853516	-152.311111
-6887.722340	6806.458333	1722.837891	196.516968
-6887.722340	6806.458333	1721.822266	-40.490833
-6887.722340	6806.458333	1720.805664	32.924152
-6887.722340	6806.458333	1719.789063	23.959595
-6887.722340	6806.458333	1718.772461	7.882304
-6887.722340	6806.458333	1717.754883	26.996685
-6887.722340	6806.458333	1716.738281	-146.634552
-6887.722340	6806.458333	1715.720703	-188.706573
-6887.722340	6806.458333	1714.703125	-5.340684
-6887.722340	6806.458333	1713.685547	22.898926
-6887.722340	6806.458333	1712.667969	-2.936684
-6887.722340	6806.458333	1711.649414	-19.438913
-6887.722340	6806.458333	1710.630859	-158.041290
-6887.722340	6806.458333	1709.612305	43.597313
-6887.722340	6806.458333	1708.593750	-1.245443
-6887.722340	6806.458333	1707.575195	-17.984270
-6887.722340	6806.458333	1706.555664	28.539196
-6887.722340	6806.458333	1705.536133	-164.182449
-6887.722340	6806.458333	1704.516602	-256.085388
-6887.722340	6806.458333	1703.497070	-55.032497
-6887.722340	6806.458333	1702.477539	136.509766
-6887.722340	6806.458333	1701.457031	187.337234
-6887.722340	6806.458333	1700.437500	29.606445
-6887.722340	6806.458333	1699.416992	73.289482
-6887.722340	6806.458333	1698.395508	-37.652470
-6887.722340	6806.458333	1697.375000	8.249974
-6887.722340	6806.458333	1696.354492	-34.869534
-6887.722340	6806.458333	1695.333008	78.763084
-6887.722340	6806.458333	1694.311523	44.886246
-6887.722340	6806.458333	1693.290039	-75.590408
-6887.722340	6806.458333	1692.267578	-107.203476
-6887.722340	6806.458333	1691.246094	-12.579573
-6887.722340	6806.458333	1690.223633	9.470289
-6887.722340	6806.458333	1689.201172	45.481720
-6887.722340	6806.458333	1688.178711	212.302872
-6887.722340	6806.458333	1687.155273	37.848103
-6887.722340	6806.458333	1686.132813	54.980614
-6887.722340	6806.458333	1685.109375	-170.870834
-6887.722340	6806.458333	1684.085938	-153.815872
-6887.722340	6806.458333	1683.062500	-132.149826
-6887.722340	6806.458333	1682.039063	-108.210052
-6887.722340	6806.458333	1681.014648	221.414627
-6887.722340	6806.458333	1679.990234	67.823814
-6887.722340	6806.458333	1678.965820	21.563013
-6887.722340	6806.458333	1677.941406	80.237282
-6887.722340	6806.458333	1676.916992	26.896029
-6887.722340	6806.458333	1675.891602	94.770569
-6887.722340	6806.458333	1674.866211	176.559402
-6887.722340	6806.458333	1673.840820	188.344177
-6887.722340	6806.458333	1672.815430	102.201698
-6887.722340	6806.458333	1671.790039	141.861069
-6887.722340	6806.458333	1670.763672	118.559303
-6887.722340	6806.458333	1669.737305	-44.519512
-6887.722340	6806.458333	1668.710938	155.676041
-6887.722340	6806.458333	1667.684570	-9.764516
-6887.722340	6806.458333	1666.658203	153.017853
-6887.722340	6806.458333	1665.630859	138.820511
-6887.722340	6806.458333	1664.603516	159.486984
-6887.722340	6806.458333	1663.576172	226.631210
-6887.722340	6806.458333	1662.548828	463.497040
-6887.722340	6806.458333	1661.520508	372.341644
-6887.722340	6806.458333	1660.493164	467.183899
-6887.722340	6806.458333	1659.464844	317.870483
-6887.722340	6806.458333	1658.436523	354.503021
-6887.722340	6806.458333	1657.408203	676.889771
-6887.722340	6806.458333	1656.378906	432.253693
-6887.722340	6806.458333	1655.350586	264.330719
-6887.722340	6806.458333	1654.321289	372.783691
-6887.722340	6806.458333	1653.291992	409.183136
-6887.722340	6806.458333	1652.261719	278.388550
-6887.722340	6806.458333	1651.232422	328.649841
-6887.722340	6806.458333	1650.202148	225.700943
-6887.722340	6806.458333	1649.171875	384.924957
-6887.722340	6806.458333	1648.141602	319.054108
-6887.722340	6806.458333	1647.111328	369.136017
-6887.722340	6806.458333	1646.080078	412.206757
-6887.722340	6806.458333	1645.049805	378.735382
-6887.722340	6806.458333	1644.018555	347.559967
-6887.722340	6806.458333	1642.987305	483.218170
-6887.722340	6806.458333	1641.955078	463.558533
-6887.722340	6806.458333	1640.923828	443.886200
-6887.722340	6806.458333	1639.891602	491.353577
-6887.722340	6806.458333	1638.859375	418.369446
-6887.722340	6806.458333	1637.827148	498.186584
-6887.722340	6806.458333	1636.794922	610.353577
-6887.722340	6806.458333	1635.761719	581.283325
-6887.722340	6806.458333	1634.729492	660.954102
-6887.722340	6806.458333	1633.696289	587.888184
-6887.722340	6806.458333	1632.662109	380.680054
-6887.722340	6806.458333	1631.628906	328.469208
-6887.722340	6806.458333	1630.594727	315.557129
-6887.722340	6806.458333	1629.561523	427.460388
-6887.722340	6806.458333	1628.527344	430.675659
-6887.722340	6806.458333	1627.493164	567.889404
-6887.722340	6806.458333	1626.458008	296.130524
-6887.722340	6806.458333	1625.423828	405.569061
-6887.722340	6806.458333	1624.388672	572.678223
-6887.722340	6806.458333	1623.353516	432.635651
-6887.722340	6806.458333	1622.318359	438.062256
-6887.722340	6806.458333	1621.282227	475.779968
-6887.722340	6806.458333	1620.247070	645.003784
-6887.722340	6806.458333	1619.210938	634.197998
-6887.722340	6806.458333	1618.174805	565.722046
-6887.722340	6806.458333	1617.137695	737.096008
-6887.722340	6806.458333	1616.101563	848.452881
-6887.722340	6806.458333	1615.064453	747.673035
-6887.722340	6806.458333	1614.027344	1052.567017
-6887.722340	6806.458333	1612.990234	1260.555420
-6887.722340	6806.458333	1611.953125	952.388245
-6887.722340	6806.458333	1610.916016	1213.286011
-6887.722340	6806.458333	1609.877930	1165.471802
-6887.722340	6806.458333	1608.839844	1317.995605
-6887.722340	6806.458333	1607.801758	1343.843506
-6887.722340	6806.458333	1606.763672	1480.158936
-6887.722340	6806.458333	1605.724609	1561.186646
-6887.722340	6806.458333	1604.685547	1734.213745
-6887.722340	6806.458333	1603.646484	1286.096436
-6887.722340	6806.458333	1602.607422	1643.100220
-6887.722340	6806.458333	1601.568359	1533.192627
-6887.722340	6806.458333	1600.528320	1381.943726
-6887.722340	6806.458333	1599.489258	1508.883911
-6887.722340	6806.458333	1598.449219	1114.117188
-6887.722340	6806.458333	1597.408203	1291.606201
-6887.722340	6806.458333	1596.368164	1404.720215
-6887.722340	6806.458333	1595.327148	1145.726440
-6887.722340	6806.458333	1594.287109	1098.103394
-6887.722340	6806.458333	1593.246094	915.049927
-6887.722340	6806.458333	1592.204102	1076.376343
-6887.722340	6806.458333	1591.163086	1352.402954
-6887.722340	6806.458333	1590.121094	1231.385254
-6887.722340	6806.458333	1589.079102	991.139587
-6887.722340	6806.458333	1588.037109	1138.614014
-6887.722340	6806.458333	1586.995117	1283.751587
-6887.722340	6806.458333	1585.953125	1144.557129
-6887.722340	6806.458333	1584.910156	1097.116211
-6887.722340	6806.458333	1583.867188	1171.173828
-6887.722340	6806.458333	1582.824219	1107.741577
-6887.722340	6806.458333	1581.781250	883.991028
-6887.722340	6806.458333	1580.737305	1313.111450
-6887.722340	6806.458333	1579.693359	1274.928955
-6887.722340	6806.458333	1578.649414	833.825867
-6887.722340	6806.458333	1577.605469	862.178040
-6887.722340	6806.458333	1576.561523	1075.919800
-6887.722340	6806.458333	1575.516602	866.281677
-6887.722340	6806.458333	1574.472656	981.613464
-6887.722340	6806.458333	1573.427734	788.135193
-6887.722340	6806.458333	1572.381836	702.233459
-6887.722340	6806.458333	1571.336914	696.420044
-6887.722340	6806.458333	1570.291016	882.649414
-6887.722340	6806.458333	1569.246094	806.007629
-6887.722340	6806.458333	1568.200195	601.455994
-6887.722340	6806.458333	1567.153320	703.142883
-6887.722340	6806.458333	1566.107422	882.486023
-6887.722340	6806.458333	1565.060547	833.414856
-6887.722340	6806.458333	1564.013672	784.393433
-6887.722340	6806.458333	1562.966797	787.927307
-6887.722340	6806.458333	1561.919922	640.857056
-6887.722340	6806.458333	1560.872070	701.525818
-6887.722340	6806.458333	1559.825195	648.137085
-6887.722340	6806.458333	1558.777344	717.973145
-6887.722340	6806.458333	1557.729492	835.708801
-6887.722340	6806.458333	1556.680664	912.387573
-6887.722340	6806.458333	1555.632813	763.391296
-6887.722340	6806.458333	1554.583984	673.744751
-6887.722340	6806.458333	1553.535156	611.517151
-6887.722340	6806.458333	1552.486328	503.786224
-6887.722340	6806.458333	1551.436523	530.526367
-6887.722340	6806.458333	1550.387695	662.062317
-6887.722340	6806.458333	1549.337891	572.716187
-6887.722340	6806.458333	1548.288086	667.844910
-6887.722340	6806.458333	1547.238281	681.040039
-6887.722340	6806.458333	1546.187500	496.287659
-6887.722340	6806.458333	1545.136719	382.182068
-6887.722340	6806.458333	1544.086914	436.500854
-6887.722340	6806.458333	1543.035156	445.347137
-6887.722340	6806.458333	1541.984375	329.179565
-6887.722340	6806.458333	1540.933594	208.556625
-6887.722340	6806.458333	1539.881836	-25.624109
-6887.722340	6806.458333	1538.830078	67.573074
-6887.722340	6806.458333	1537.778320	263.023743
-6887.722340	6806.458333	1536.725586	244.911713
-6887.722340	6806.458333	1535.673828	-75.203140
-6887.722340	6806.458333	1534.621094	-0.044524
-6887.722340	6806.458333	1533.568359	134.160904
-6887.722340	6806.458333	1532.515625	79.970314
-6887.722340	6806.458333	1531.461914	168.817749
-6887.722340	6806.458333	1530.409180	53.484230
-6887.722340	6806.458333	1529.355469	-18.653872
-6887.722340	6806.458333	1528.301758	-247.204361
-6887.722340	6806.458333	1527.247070	52.727928
-6887.722340	6806.458333	1526.193359	309.524170
-6887.722340	6806.458333	1525.138672	10.936118
-6887.722340	6806.458333	1524.083984	-92.583710
-6887.722340	6806.458333	1523.029297	78.150711
-6887.722340	6806.458333	1521.974609	83.505089
-6887.722340	6806.458333	1520.918945	251.982269
-6887.722340	6806.458333	1519.863281	164.569717
-6887.722340	6806.458333	1518.807617	50.081337
-6887.722340	6806.458333	1517.751953	-41.668938
-6887.722340	6806.458333	1516.696289	224.243164
-6887.722340	6806.458333	1515.639648	293.257233
-6887.722340	6806.458333	1514.583008	99.889740
-6887.722340	6806.458333	1513.526367	67.241669
-6887.722340	6806.458333	1512.469727	181.651321
-6887.722340	6806.458333	1511.412109	128.770432
-6887.722340	6806.458333	1510.355469	-86.772545
-6887.722340	6806.458333	1509.297852	-17.418633
-6887.722340	6806.458333	1508.240234	-135.567810
-6887.722340	6806.458333	1507.181641	-27.704836
-6887.722340	6806.458333	1506.124023	-134.387314
-6887.722340	6806.458333	1505.065430	-1.600758
-6887.722340	6806.458333	1504.006836	-53.935818
-6887.722340	6806.458333	1502.948242	-101.671455
-6887.722340	6806.458333	1501.888672	-13.916193
-6887.722340	6806.458333	1500.830078	-61.511475
-6887.722340	6806.458333	1499.770508	121.080231
-6887.722340	6806.458333	1498.710938	120.971046
-6887.722340	6806.458333	1497.650391	109.651283
-6887.722340	6806.458333	1496.590820	188.587585
-6887.722340	6806.458333	1495.530273	224.729065
-6887.722340	6806.458333	1494.469727	362.338959
-6887.722340	6806.458333	1493.409180	484.189972
-6887.722340	6806.458333	1492.348633	520.453308
-6887.722340	6806.458333	1491.287109	604.068787
-6887.722340	6806.458333	1490.225586	775.542542
-6887.722340	6806.458333	1489.164063	706.112183
-6887.722340	6806.458333	1488.102539	893.392090
-6887.722340	6806.458333	1487.041016	677.820068
-6887.722340	6806.458333	1485.978516	595.157532
-6887.722340	6806.458333	1484.916016	739.830200
-6887.722340	6806.458333	1483.853516	623.572632
-6887.722340	6806.458333	1482.791016	388.273621
-6887.722340	6806.458333	1481.727539	436.432251
-6887.722340	6806.458333	1480.664063	313.802979
-6887.722340	6806.458333	1479.600586	144.131042
-6887.722340	6806.458333	1478.537109	304.884430
-6887.722340	6806.458333	1477.473633	184.861160
-6887.722340	6806.458333	1476.409180	-51.844757
-6887.722340	6806.458333	1475.344727	1.298096
-6887.722340	6806.458333	1474.280273	126.354324
-6887.722340	6806.458333	1473.215820	-112.253090
-6887.722340	6806.458333	1472.151367	-61.073822
-6887.722340	6806.458333	1471.085938	12.443477
-6887.722340	6806.458333	1470.020508	140.016388
-6887.722340	6806.458333	1468.955078	128.510239
-6887.722340	6806.458333	1467.888672	69.915039
-6887.722340	6806.458333	1466.823242	273.464020
-6887.722340	6806.458333	1465.756836	385.354919
-6887.722340	6806.458333	1464.690430	425.387970
-6887.722340	6806.458333	1463.624023	230.848343
-6887.722340	6806.458333	1462.556641	199.767395
-6887.722340	6806.458333	1461.490234	250.954788
-6887.722340	6806.458333	1460.422852	280.225098
-6887.722340	6806.458333	1459.355469	291.473907
-6887.722340	6806.458333	1458.287109	448.908478
-6887.722340	6806.458333	1457.219727	299.835022
-6887.722340	6806.458333	1456.151367	145.872360
-6887.722340	6806.458333	1455.083008	179.787781
-6887.722340	6806.458333	1454.014648	306.963104
-6887.722340	6806.458333	1452.945313	399.686066
-6887.722340	6806.458333	1451.876953	381.012115
-6887.722340	6806.458333	1450.807617	601.922058
-6887.722340	6806.458333	1449.738281	720.588989
-6887.722340	6806.458333	1448.668945	568.202393
-6887.722340	6806.458333	1447.598633	699.786621
-6887.722340	6806.458333	1446.528320	664.645508
-6887.722340	6806.458333	1445.458008	1100.890259
-6887.722340	6806.458333	1444.387695	1041.034424
-6887.722340	6806.458333	1443.317383	1057.208862
-6887.722340	6806.458333	1442.246094	1039.654175
-6887.722340	6806.458333	1441.174805	1290.786865
-6887.722340	6806.458333	1440.103516	1203.546387
-6887.722340	6806.458333	1439.032227	1030.570313
-6887.722340	6806.458333	1437.960938	1283.853638
-6887.722340	6806.458333	1436.888672	1140.022827
-6887.722340	6806.458333	1435.816406	1166.333252
-6887.722340	6806.458333	1434.744141	871.438965
-6887.722340	6806.458333	1433.670898	713.219604
-6887.722340	6806.458333	1432.598633	854.243652
-6887.722340	6806.458333	1431.525391	568.317505
-6887.722340	6806.458333	1430.452148	483.199799
-6887.722340	6806.458333	1429.378906	429.304504
-6887.722340	6806.458333	1428.304688	455.318207
-6887.722340	6806.458333	1427.231445	349.309601
-6887.722340	6806.458333	1426.157227	315.295685
-6887.722340	6806.458333	1425.083008	295.985931
-6887.722340	6806.458333	1424.007813	92.806503
-6887.722340	6806.458333	1422.933594	265.100891
-6887.722340	6806.458333	1421.858398	226.623932
-6887.722340	6806.458333	1420.783203	112.413902
-6887.722340	6806.458333	1419.708008	111.414932
-6887.722340	6806.458333	1418.631836	230.190125
-6887.722340	6806.458333	1417.555664	27.219959
-6887.722340	6806.458333	1416.479492	131.727829
-6887.722340	6806.458333	1415.403320	96.374596
-6887.722340	6806.458333	1414.327148	-200.313629
-6887.722340	6806.458333	1413.250000	-103.126953
-6887.722340	6806.458333	1412.173828	-131.377518
-6887.722340	6806.458333	1411.096680	-183.201859
-6887.722340	6806.458333	1410.018555	-101.845184
-6887.722340	6806.458333	1408.941406	-46.879810
-6887.722340	6806.458333	1407.863281	-195.104996
-6887.722340	6806.458333	1406.785156	-56.611263
-6887.722340	6806.458333	1405.707031	-221.830597
-6887.722340	6806.458333	1404.628906	62.248425
-6887.722340	6806.458333	1403.549805	104.879158
-6887.722340	6806.458333	1402.470703	-106.173744
-6887.722340	6806.458333	1401.391602	-73.368629
-6887.722340	6806.458333	1400.312500	-98.485123
-6887.722340	6806.458333	1399.233398	-96.654457
-6887.722340	6806.458333	1398.153320	105.721756
-6887.722340	6806.458333	1397.073242	-55.690807
-6887.722340	6806.458333	1395.993164	98.964905
-6887.722340	6806.458333	1394.913086	-45.687447
-6887.722340	6806.458333	1393.832031	26.769070
-6887.722340	6806.458333	1392.750977	59.924686
-6887.722340	6806.458333	1391.669922	29.670614
-6887.722340	6806.458333	1390.588867	88.205673
-6887.722340	6806.458333	1389.506836	81.908943
-6887.722340	6806.458333	1388.425781	242.634399
-6887.722340	6806.458333	1387.343750	219.506866
-6887.722340	6806.458333	1386.261719	233.776321
-6887.722340	6806.458333	1385.178711	98.500755
-6887.722340	6806.458333	1384.096680	211.911621
-6887.722340	6806.458333	1383.013672	187.645859
-6887.722340	6806.458333	1381.930664	175.910248
-6887.722340	6806.458333	1380.846680	280.720032
-6887.722340	6806.458333	1379.763672	441.677246
-6887.722340	6806.458333	1378.679688	342.005219
-6887.722340	6806.458333	1377.595703	436.945648
-6887.722340	6806.458333	1376.511719	262.524475
-6887.722340	6806.458333	1375.427734	466.838806
-6887.722340	6806.458333	1374.342773	316.024353
-6887.722340	6806.458333	1373.257813	454.950470
-6887.722340	6806.458333	1372.172852	177.645020
-6887.722340	6806.458333	1371.087891	264.773499
-6887.722340	6806.458333	1370.001953	195.777420
-6887.722340	6806.458333	1368.916992	246.081970
-6887.722340	6806.458333	1367.831055	171.013016
-6887.722340	6806.458333	1366.744141	291.634674
-6887.722340	6806.458333	1365.658203	111.078827
-6887.722340	6806.458333	1364.571289	140.255646
-6887.722340	6806.458333	1363.484375	279.765472
-6887.722340	6806.458333	1362.397461	151.137070
-6887.722340	6806.458333	1361.310547	198.636536
-6887.722340	6806.458333	1360.222656	174.838547
-6887.722340	6806.458333	1359.135742	118.488693
-6887.722340	6806.458333	1358.047852	187.018158
-6887.722340	6806.458333	1356.958984	119.696098
-6887.722340	6806.458333	1355.871094	46.341995
-6887.722340	6806.458333	1354.782227	297.040649
-6887.722340	6806.458333	1353.693359	54.386047
-6887.722340	6806.458333	1352.604492	139.293701
-6887.722340	6806.458333	1351.515625	255.255219
-6887.722340	6806.458333	1350.425781	162.357407
-6887.722340	6806.458333	1349.335938	246.300522
-6887.722340	6806.458333	1348.246094	149.858429
-6887.722340	6806.458333	1347.156250	129.701462
-6887.722340	6806.458333	1346.066406	18.180618
-6887.722340	6806.458333	1344.975586	194.141663
-6887.722340	6806.458333	1343.884766	272.750458
-6887.722340	6806.458333	1342.793945	119.503510
-6887.722340	6806.458333	1341.702148	190.525986
-6887.722340	6806.458333	1340.611328	134.691833
-6887.722340	6806.458333	1339.519531	85.353554
-6887.722340	6806.458333	1338.427734	-104.307556
-6887.722340	6806.458333	1337.334961	169.783997
-6887.722340	6806.458333	1336.243164	223.773361
-6887.722340	6806.458333	1335.150391	103.724236
-6887.722340	6806.458333	1334.057617	125.662491
-6887.722340	6806.458333	1332.964844	122.371719
-6887.722340	6806.458333	1331.871094	109.549644
-6887.722340	6806.458333	1330.778320	66.881073
-6887.722340	6806.458333	1329.684570	34.266991
-6887.722340	6806.458333	1328.590820	276.106110
-6887.722340	6806.458333	1327.496094	182.594345
-6887.722340	6806.458333	1326.402344	193.657440
-6887.722340	6806.458333	1325.307617	117.311844
-6887.722340	6806.458333	1324.212891	68.449326
-6887.722340	6806.458333	1323.117188	-29.561258
-6887.722340	6806.458333	1322.022461	28.679235
-6887.722340	6806.458333	1320.926758	69.506828
-6887.722340	6806.458333	1319.831055	-78.795242
-6887.722340	6806.458333	1318.735352	-33.998112
-6887.722340	6806.458333	1317.638672	-122.067726
-6887.722340	6806.458333	1316.542969	-65.357208
-6887.722340	6806.458333	1315.446289	46.677769
-6887.722340	6806.458333	1314.349609	287.904266
-6887.722340	6806.458333	1313.251953	12.017542
-6887.722340	6806.458333	1312.155273	196.746338
-6887.722340	6806.458333	1311.057617	20.959351
-6887.722340	6806.458333	1309.959961	28.422979
-6887.722340	6806.458333	1308.862305	-50.913212
-6887.722340	6806.458333	1307.763672	-43.132156
-6887.722340	6806.458333	1306.665039	-115.678490
-6887.722340	6806.458333	1305.566406	195.558502
-6887.722340	6806.458333	1304.467773	38.687565
-6887.722340	6806.458333	1303.369141	-140.687439
-6887.722340	6806.458333	1302.269531	53.847744
-6887.722340	6806.458333	1301.169922	-61.759068
-6887.722340	6806.458333	1300.070313	-52.044617
-6887.722340	6806.458333	1298.970703	81.092026
-6887.722340	6806.458333	1297.870117	-68.068611
-6887.722340	6806.458333	1296.769531	-88.739906
-6887.722340	6806.458333	1295.668945	-22.847281
-6887.722340	6806.458333	1294.568359	39.379150
-6887.722340	6806.458333	1293.466797	-18.938238
-6887.722340	6806.458333	1292.366211	-90.744286
-6887.722340	6806.458333	1291.264648	-255.065094
-6887.722340	6806.458333	1290.162109	-67.449081
-6887.722340	6806.458333	1289.060547	27.704716
-6887.722340	6806.458333	1287.958008	-73.776199
-6887.722340	6806.458333	1286.855469	-197.426620
-6887.722340	6806.458333	1285.752930	-109.406319
-6887.722340	6806.458333	1284.650391	-287.990356
-6887.722340	6806.458333	1283.546875	-109.986877
-6887.722340	6806.458333	1282.444336	-48.072395
-6887.722340	6806.458333	1281.339844	-109.658463
-6887.722340	6806.458333	1280.236328	-83.554459
-6887.722340	6806.458333	1279.132813	69.112099
-6887.722340	6806.458333	1278.028320	60.682510
-6887.722340	6806.458333	1276.923828	77.894363
-6887.722340	6806.458333	1275.819336	200.947250
-6887.722340	6806.458333	1274.713867	85.366074
-6887.722340	6806.458333	1273.608398	185.965561
-6887.722340	6806.458333	1272.503906	67.095566
-6887.722340	6806.458333	1271.397461	145.500992
-6887.722340	6806.458333	1270.291992	341.163269
-6887.722340	6806.458333	1269.185547	137.143631
-6887.722340	6806.458333	1268.080078	288.991974
-6887.722340	6806.458333	1266.972656	120.908310
-6887.722340	6806.458333	1265.866211	20.547895
-6887.722340	6806.458333	1264.759766	26.524546
-6887.722340	6806.458333	1263.652344	123.704025
-6887.722340	6806.458333	1262.544922	41.752605
-6887.722340	6806.458333	1261.436523	-30.220778
-6887.722340	6806.458333	1260.329102	-193.956223
-6887.722340	6806.458333	1259.220703	28.999069
-6887.722340	6806.458333	1258.112305	-57.733517
-6887.722340	6806.458333	1257.003906	-75.291275
-6887.722340	6806.458333	1255.895508	-88.391571
-6887.722340	6806.458333	1254.786133	-167.534836
-6887.722340	6806.458333	1253.676758	-118.533295
-6887.722340	6806.458333	1252.567383	-62.928509
-6887.722340	6806.458333	1251.458008	-261.391937
-6887.722340	6806.458333	1250.347656	-183.131058
-6887.722340	6806.458333	1249.237305	-134.531311
-6887.722340	6806.458333	1248.126953	-372.430145
-6887.722340	6806.458333	1247.016602	-93.159134
-6887.722340	6806.458333	1245.905273	-107.182640
-6887.722340	6806.458333	1244.793945	-107.524727
-6887.722340	6806.458333	1243.682617	-232.485718
-6887.722340	6806.458333	1242.571289	70.028587
-6887.722340	6806.458333	1241.459961	-70.976494
-6887.722340	6806.458333	1240.347656	-28.886209
-6887.722340	6806.458333	1239.235352	24.642622
-6887.722340	6806.458333	1238.123047	114.753036
-6887.722340	6806.458333	1237.009766	45.266792
-6887.722340	6806.458333	1235.897461	288.692169
-6887.722340	6806.458333	1234.784180	301.206360
-6887.722340	6806.458333	1233.670898	230.102814
-6887.722340	6806.458333	1232.556641	219.170059
-6887.722340	6806.458333	1231.443359	306.196777
-6887.722340	6806.458333	1230.329102	418.655945
-6887.722340	6806.458333	1229.214844	387.847931
-6887.722340	6806.458333	1228.099609	450.759460
-6887.722340	6806.458333	1226.985352	354.734955
-6887.722340	6806.458333	1225.870117	537.916321
-6887.722340	6806.458333	1224.754883	379.640106
-6887.722340	6806.458333	1223.639648	432.254486
-6887.722340	6806.458333	1222.523438	327.600586
-6887.722340	6806.458333	1221.408203	389.763275
-6887.722340	6806.458333	1220.291992	302.409668
-6887.722340	6806.458333	1219.174805	143.760971
-6887.722340	6806.458333	1218.058594	210.179489
-6887.722340	6806.458333	1216.941406	212.778549
-6887.722340	6806.458333	1215.824219	258.189789
-6887.722340	6806.458333	1214.707031	240.121750
-6887.722340	6806.458333	1213.589844	255.311340
-6887.722340	6806.458333	1212.471680	37.813416
-6887.722340	6806.458333	1211.353516	22.530243
-6887.722340	6806.458333	1210.235352	144.669403
-6887.722340	6806.458333	1209.117188	94.288124
-6887.722340	6806.458333	1207.998047	64.768349
-6887.722340	6806.458333	1206.878906	-16.069592
-6887.722340	6806.458333	1205.759766	-52.123558
-6887.722340	6806.458333	1204.640625	-68.602921
-6887.722340	6806.458333	1203.520508	-77.458786
-6887.722340	6806.458333	1202.401367	-4.869210
-6887.722340	6806.458333	1201.281250	-54.113972
-6887.722340	6806.458333	1200.160156	-28.029455
-6887.722340	6806.458333	1199.040039	-24.360920
-6887.722340	6806.458333	1197.918945	-99.606064
-6887.722340	6806.458333	1196.797852	-17.624006
-6887.722340	6806.458333	1195.676758	-36.585018
-6887.722340	6806.458333	1194.555664	28.009581
-6887.722340	6806.458333	1193.433594	235.818848
-6887.722340	6806.458333	1192.311523	260.447662
-6887.722340	6806.458333	1191.189453	210.279449
-6887.722340	6806.458333	1190.066406	374.799408
-6887.722340	6806.458333	1188.944336	391.625061
-6887.722340	6806.458333	1187.821289	572.213379
-6887.722340	6806.458333	1186.698242	655.323730
-6887.722340	6806.458333	1185.574219	701.645203
-6887.722340	6806.458333	1184.451172	670.827881
-6887.722340	6806.458333	1183.327148	798.822693
-6887.722340	6806.458333	1182.203125	952.149719
-6887.722340	6806.458333	1181.078125	627.906311
-6887.722340	6806.458333	1179.954102	756.706665
-6887.722340	6806.458333	1178.829102	729.896851
-6887.722340	6806.458333	1177.704102	669.203369
-6887.722340	6806.458333	1176.579102	737.336792
-6887.722340	6806.458333	1175.453125	842.060425
-6887.722340	6806.458333	1174.327148	679.729553
-6887.722340	6806.458333	1173.201172	735.665283
-6887.722340	6806.458333	1172.075195	688.452332
-6887.722340	6806.458333	1170.949219	789.175415
-6887.722340	6806.458333	1169.822266	825.934509
-6887.722340	6806.458333	1168.695313	571.660339
-6887.722340	6806.458333	1167.568359	675.472900
-6887.722340	6806.458333	1166.440430	420.613586
-6887.722340	6806.458333	1165.313477	560.839050
-6887.722340	6806.458333	1164.185547	501.869751
-6887.722340	6806.458333	1163.057617	432.896423
-6887.722340	6806.458333	1161.928711	384.857697
-6887.722340	6806.458333	1160.800781	386.808289
-6887.722340	6806.458333	1159.671875	304.459686
-6887.722340	6806.458333	1158.541992	280.223694
-6887.722340	6806.458333	1157.413086	257.515594
-6887.722340	6806.458333	1156.283203	322.792786
-6887.722340	6806.458333	1155.154297	305.291016
-6887.722340	6806.458333	1154.023438	217.176590
-6887.722340	6806.458333	1152.893555	200.438171
-6887.722340	6806.458333	1151.763672	241.869736
-6887.722340	6806.458333	1150.632813	241.023880
-6887.722340	6806.458333	1149.501953	250.543961
-6887.722340	6806.458333	1148.370117	164.343872
-6887.722340	6806.458333	1147.239258	168.875671
-6887.722340	6806.458333	1146.107422	154.093262
-6887.722340	6806.458333	1144.975586	-13.547379
-6887.722340	6806.458333	1143.843750	-20.828583
-6887.722340	6806.458333	1142.710938	-14.505534
-6887.722340	6806.458333	1141.578125	99.600525
-6887.722340	6806.458333	1140.445313	128.917252
-6887.722340	6806.458333	1139.312500	29.242413
-6887.722340	6806.458333	1138.178711	-6.570898
-6887.722340	6806.458333	1137.045898	163.150772
-6887.722340	6806.458333	1135.912109	-11.819950
-6887.722340	6806.458333	1134.777344	69.206238
-6887.722340	6806.458333	1133.643555	17.562187
-6887.722340	6806.458333	1132.508789	69.528152
-6887.722340	6806.458333	1131.374023	241.715881
-6887.722340	6806.458333	1130.239258	268.708344
-6887.722340	6806.458333	1129.104492	279.590454
-6887.722340	6806.458333	1127.968750	296.154541
-6887.722340	6806.458333	1126.833008	188.678452
-6887.722340	6806.458333	1125.697266	196.076279
-6887.722340	6806.458333	1124.560547	353.435120
-6887.722340	6806.458333	1123.424805	306.978149
-6887.722340	6806.458333	1122.288086	300.853210
-6887.722340	6806.458333	1121.151367	121.448792
-6887.722340	6806.458333	1120.013672	244.866516
-6887.722340	6806.458333	1118.876953	-17.553928
-6887.722340	6806.458333	1117.739258	227.202225
-6887.722340	6806.458333	1116.601563	149.298035
-6887.722340	6806.458333	1115.462891	146.283249
-6887.722340	6806.458333	1114.324219	204.525101
-6887.722340	6806.458333	1113.186523	176.762070
-6887.722340	6806.458333	1112.046875	11.351154
-6887.722340	6806.458333	1110.908203	68.847557
-6887.722340	6806.458333	1109.769531	152.988495
-6887.722340	6806.458333	1108.629883	254.677048
-6887.722340	6806.458333	1107.490234	189.724030
-6887.722340	6806.458333	1106.349609	75.609657
-6887.722340	6806.458333	1105.209961	117.952835
-6887.722340	6806.458333	1104.069336	176.866165
-6887.722340	6806.458333	1102.928711	30.741699
-6887.722340	6806.458333	1101.787109	347.134674
-6887.722340	6806.458333	1100.646484	10.104784
-6887.722340	6806.458333	1099.504883	43.417652
-6887.722340	6806.458333	1098.363281	-49.652668
-6887.722340	6806.458333	1097.221680	-70.764275
-6887.722340	6806.458333	1096.079102	-75.524170
-6887.722340	6806.458333	1094.936523	63.168953
-6887.722340	6806.458333	1093.793945	9.302511
-6887.722340	6806.458333	1092.651367	-9.710281
-6887.722340	6806.458333	1091.507813	-51.301746
-6887.722340	6806.458333	1090.364258	28.575867
-6887.722340	6806.458333	1089.220703	-10.905432
-6887.722340	6806.458333	1088.077148	141.960556
-6887.722340	6806.458333	1086.933594	17.787252
-6887.722340	6806.458333	1085.789063	4.883404
-6887.722340	6806.458333	1084.644531	-35.789967
-6887.722340	6806.458333	1083.499023	-107.815781
-6887.722340	6806.458333	1082.354492	-131.540451
-6887.722340	6806.458333	1081.208984	63.899300
-6887.722340	6806.458333	1080.063477	-140.321487
-6887.722340	6806.458333	1078.917969	-1.988772
-6887.722340	6806.458333	1077.771484	42.755787
-6887.722340	6806.458333	1076.625977	239.598343
-6887.722340	6806.458333	1075.479492	158.209503
-6887.722340	6806.458333	1074.332031	12.917447
-6887.722340	6806.458333	1073.185547	128.120483
-6887.722340	6806.458333	1072.038086	119.958717
-6887.722340	6806.458333	1070.890625	252.575272
-6887.722340	6806.458333	1069.743164	200.508423
-6887.722340	6806.458333	1068.594727	71.583084
-6887.722340	6806.458333	1067.447266	95.381470
-6887.722340	6806.458333	1066.298828	11.438901
-6887.722340	6806.458333	1065.149414	191.157852
-6887.722340	6806.458333	1064.000977	137.626587
-6887.722340	6806.458333	1062.851563	188.594116
-6887.722340	6806.458333	1061.702148	183.925522
-6887.722340	6806.458333	1060.552734	-29.339920
-6887.722340	6806.458333	1059.402344	66.688889
-6887.722340	6806.458333	1058.252930	45.165958
-6887.722340	6806.458333	1057.102539	-82.278137
-6887.722340	6806.458333	1055.951172	-32.954769
-6887.722340	6806.458333	1054.800781	111.656464
-6887.722340	6806.458333	1053.649414	127.782646
-6887.722340	6806.458333	1052.498047	108.900429
-6887.722340	6806.458333	1051.346680	154.366501
-6887.722340	6806.458333	1050.194336	316.167450
-6887.722340	6806.458333	1049.042969	208.984146
-6887.722340	6806.458333	1047.890625	93.443794
-6887.722340	6806.458333	1046.738281	184.974365
-6887.722340	6806.458333	1045.584961	177.442215
-6887.722340	6806.458333	1044.431641	259.672852
-6887.722340	6806.458333	1043.278320	177.762253
-6887.722340	6806.458333	1042.125000	103.507530
-6887.722340	6806.458333	1040.971680	140.089630
-6887.722340	6806.458333	1039.817383	162.843536
-6887.722340	6806.458333	1038.663086	194.799011
-6887.722340	6806.458333	1037.508789	58.552971
-6887.722340	6806.458333	1036.353516	-27.536194
-6887.722340	6806.458333	1035.198242	20.116993
-6887.722340	6806.458333	1034.042969	63.901478
-6887.722340	6806.458333	1032.887695	79.673004
-6887.722340	6806.458333	1031.732422	249.381073
-6887.722340	6806.458333	1030.576172	118.690552
-6887.722340	6806.458333	1029.419922	-166.570740
-6887.722340	6806.458333	1028.263672	254.949051
-6887.722340	6806.458333	1027.106445	144.724289
-6887.722340	6806.458333	1025.949219	-1.361455
-6887.722340	6806.458333	1024.792969	-115.691162
-6887.722340	6806.458333	1023.634766	-75.201721
-6887.722340	6806.458333	1022.477539	65.164436
-6887.722340	6806.458333	1021.319336	-72.784958
-6887.722340	6806.458333	1020.161133	-17.762920
-6887.722340	6806.458333	1019.002930	-108.601204
-6887.722340	6806.458333	1017.843750	-70.474030
-6887.722340	6806.458333	1016.684570	67.812889
-6887.722340	6806.458333	1015.525391	24.009832
-6887.722340	6806.458333	1014.366211	-28.250103
-6887.722340	6806.458333	1013.207031	124.215988
-6887.722340	6806.458333	1012.046875	107.215225
-6887.722340	6806.458333	1010.886719	21.027925
-6887.722340	6806.458333	1009.726563	196.186615
-6887.722340	6806.458333	1008.565430	345.379181
-6887.722340	6806.458333	1007.404297	356.366516
-6887.722340	6806.458333	1006.243164	244.786591
-6887.722340	6806.458333	1005.082031	275.214874
-6887.722340	6806.458333	1003.920898	284.943634
-6887.722340	6806.458333	1002.758789	230.886292
-6887.722340	6806.458333	1001.596680	204.735428
-6887.722340	6806.458333	1000.433594	217.051880
-6887.722340	6806.458333	999.271484	204.858368
-6887.722340	6806.458333	998.108398	95.005737
-6887.722340	6806.458333	996.945313	77.425903
-6887.722340	6806.458333	995.782227	115.136726
-6887.722340	6806.458333	994.618164	115.494843
-6887.722340	6806.458333	993.454102	82.434166
-6887.722340	6806.458333	992.290039	236.645416
-6887.722340	6806.458333	991.125977	215.677673
-6887.722340	6806.458333	989.960938	97.687317
-6887.722340	6806.458333	988.796875	138.720810
-6887.722340	6806.458333	987.630859	37.700752
-6887.722340	6806.458333	986.465820	16.580074
-6887.722340	6806.458333	985.300781	23.010241
-6887.722340	6806.458333	984.134766	213.834045
-6887.722340	6806.458333	982.968750	110.067581
-6887.722340	6806.458333	981.801758	21.079988
-6887.722340	6806.458333	980.635742	123.674767
-6887.722340	6806.458333	979.468750	36.031322
-6887.722340	6806.458333	978.301758	-112.079819
-6887.722340	6806.458333	977.133789	73.915009
-6887.722340	6806.458333	975.966797	66.037689
-6887.722340	6806.458333	974.798828	-28.263479
-6887.722340	6806.458333	973.630859	29.721066
-6887.722340	6806.458333	972.461914	28.134743
-6887.722340	6806.458333	971.293945	12.539076
-6887.722340	6806.458333	970.125000	-59.436584
-6887.722340	6806.458333	968.956055	34.014038
-6887.722340	6806.458333	967.786133	66.356567
-6887.722340	6806.458333	966.617188	-41.429417
-6887.722340	6806.458333	965.447266	-25.014473
-6887.722340	6806.458333	964.276367	-63.348614
-6887.722340	6806.458333	963.106445	77.133743
-6887.722340	6806.458333	961.935547	104.190674
-6887.722340	6806.458333	960.764648	257.909760
-6887.722340	6806.458333	959.593750	-132.023727
-6887.722340	6806.458333	958.422852	69.679955
-6887.722340	6806.458333	957.250977	32.472157
-6887.722340	6806.458333	956.079102	-170.469666
-6887.722340	6806.458333	954.907227	-244.549622
-6887.722340	6806.458333	953.734375	-76.883301
-6887.722340	6806.458333	952.562500	-150.113953
-6887.722340	6806.458333	951.389648	-106.519363
-6887.722340	6806.458333	950.215820	-45.405060
-6887.722340	6806.458333	949.042969	-45.772617
-6887.722340	6806.458333	947.869141	-95.913589
-6887.722340	6806.458333	946.695313	-134.690002
-6887.722340	6806.458333	945.521484	74.526718
-6887.722340	6806.458333	944.346680	65.488541
-6887.722340	6806.458333	943.172852	-162.031143
-6887.722340	6806.458333	941.998047	-25.719501
-6887.722340	6806.458333	940.822266	26.363525
-6887.722340	6806.458333	939.647461	-94.286453
-6887.722340	6806.458333	938.471680	41.867931
-6887.722340	6806.458333	937.295898	-24.385897
-6887.722340	6806.458333	936.119141	209.797684
-6887.722340	6806.458333	934.943359	268.712158
-6887.722340	6806.458333	933.766602	25.111170
-6887.722340	6806.458333	932.589844	304.682007
-6887.722340	6806.458333	931.413086	161.047867
-6887.722340	6806.458333	930.235352	281.325287
-6887.722340	6806.458333	929.057617	269.596130
-6887.722340	6806.458333	927.879883	182.904434
-6887.722340	6806.458333	926.702148	132.622406
-6887.722340	6806.458333	925.523438	32.340134
-6887.722340	6806.458333	924.344727	134.294815
-6887.722340	6806.458333	923.166016	-6.830884
-6887.722340	6806.458333	921.987305	11.055899
-6887.722340	6806.458333	920.807617	-55.074390
-6887.722340	6806.458333	919.627930	-53.691113
-6887.722340	6806.458333	919.497070	101.442528
-6887.722340	6806.458333	918.331055	-91.810753
-6887.722340	6806.458333	917.165039	-83.034042
-6887.722340	6806.458333	915.999023	-108.300552
-6887.722340	6806.458333	914.833008	4.799928
-6887.722340	6806.458333	913.666016	-111.203644
-6887.722340	6806.458333	912.499023	-23.105324
-6887.722340	6806.458333	911.332031	-52.930489
-6887.722340	6806.458333	910.165039	-1.159585
-6887.722340	6806.458333	908.997070	55.114235
-6887.722340	6806.458333	907.830078	120.417625
-6887.722340	6806.458333	906.661133	233.253784
-6887.722340	6806.458333	905.493164	158.073624
-6887.722340	6806.458333	904.325195	146.310791
-6887.722340	6806.458333	903.156250	166.235855
-6887.722340	6806.458333	901.987305	14.140714
-6887.722340	6806.458333	900.818359	-131.113342
-6887.722340	6806.458333	899.648438	-117.955009
-6887.722340	6806.458333	898.478516	-66.359482
-6887.722340	6806.458333	897.308594	-80.373688
-6887.722340	6806.458333	896.138672	-46.911724
-6887.722340	6806.458333	894.968750	-106.150902
-6887.722340	6806.458333	893.797852	-84.014130
-6887.722340	6806.458333	892.626953	53.339821
-6887.722340	6806.458333	891.456055	46.049053
-6887.722340	6806.458333	890.284180	-13.195114
-6887.722340	6806.458333	889.113281	-31.778978
-6887.722340	6806.458333	887.941406	-23.271511
-6887.722340	6806.458333	886.768555	37.140160
-6887.722340	6806.458333	885.596680	-87.537659
-6887.722340	6806.458333	884.423828	-101.615211
-6887.722340	6806.458333	883.250977	-156.301559
-6887.722340	6806.458333	882.078125	64.180519
-6887.722340	6806.458333	880.905273	-44.655422
-6887.722340	6806.458333	879.731445	-101.603546
-6887.722340	6806.458333	878.557617	-79.649277
-6887.722340	6806.458333	877.383789	3.131075
-6887.722340	6806.458333	876.209961	63.335995
-6887.722340	6806.458333	875.035156	-180.596802
-6887.722340	6806.458333	873.860352	-12.296278
-6887.722340	6806.458333	872.685547	-12.953031
-6887.722340	6806.458333	871.510742	89.935699
-6887.722340	6806.458333	870.334961	-88.574760
-6887.722340	6806.458333	869.159180	-35.242264
-6887.722340	6806.458333	867.983398	-49.438580
-6887.722340	6806.458333	866.807617	-90.634117
-6887.722340	6806.458333	865.630859	3.111149
-6887.722340	6806.458333	864.454102	148.520828
-6887.722340	6806.458333	863.277344	-45.591812
-6887.722340	6806.458333	862.100586	-100.289490
-6887.722340	6806.458333	860.922852	-56.105873
-6887.722340	6806.458333	859.745117	-27.680136
-6887.722340	6806.458333	858.567383	-44.202934
-6887.722340	6806.458333	857.389648	71.762985
-6887.722340	6806.458333	856.210938	-25.629581
-6887.722340	6806.458333	855.032227	-44.429459
-6887.722340	6806.458333	853.853516	91.620918
-6887.722340	6806.458333	852.674805	-82.051476
-6887.722340	6806.458333	851.495117	92.059593
-6887.722340	6806.458333	850.315430	-77.086357
-6887.722340	6806.458333	849.135742	-118.357292
-6887.722340	6806.458333	847.956055	-2.686589
-6887.722340	6806.458333	846.775391	-117.959702
-6887.722340	6806.458333	845.595703	-228.720093
-6887.722340	6806.458333	844.415039	-77.297981
-6887.722340	6806.458333	843.233398	27.001627
-6887.722340	6806.458333	842.052734	-175.600540
-6887.722340	6806.458333	840.871094	-102.709160
-6887.722340	6806.458333	839.689453	19.387272
-6887.722340	6806.458333	838.506836	-24.221226
-6887.722340	6806.458333	837.325195	-56.641933
-6887.722340	6806.458333	836.142578	96.636513
-6887.722340	6806.458333	834.959961	-20.839344
-6887.722340	6806.458333	833.777344	127.855431
-6887.722340	6806.458333	832.593750	115.474808
-6887.722340	6806.458333	831.410156	-82.473221
-6887.722340	6806.458333	830.226563	32.553463
-6887.722340	6806.458333	829.042969	-37.965034
-6887.722340	6806.458333	827.858398	-141.988220
-6887.722340	6806.458333	826.673828	-163.343994
-6887.722340	6806.458333	825.489258	40.846668
-6887.722340	6806.458333	824.304688	-0.679317
-6887.722340	6806.458333	823.120117	-53.373016
-6887.722340	6806.458333	821.934570	30.075476
-6887.722340	6806.458333	820.749023	-0.336957
-6887.722340	6806.458333	819.562500	-164.619797
-6887.722340	6806.458333	818.376953	-47.816822
-6887.722340	6806.458333	817.190430	-111.721046
-6887.722340	6806.458333	816.003906	-133.263245
-6887.722340	6806.458333	814.817383	88.151367
-6887.722340	6806.458333	813.629883	-80.568825
-6887.722340	6806.458333	812.442383	13.681066
-6887.722340	6806.458333	811.254883	-108.226814
-6887.722340	6806.458333	810.067383	-54.157166
-6887.722340	6806.458333	808.878906	8.768013
-6887.722340	6806.458333	807.690430	67.185432
-6887.722340	6806.458333	806.501953	116.644951
-6887.722340	6806.458333	805.313477	270.649048
-6887.722340	6806.458333	804.124023	319.985260
-6887.722340	6806.458333	802.934570	151.266510
-6887.722340	6806.458333	801.745117	360.675873
-6887.722340	6806.458333	800.555664	354.277405
-6887.722340	6806.458333	799.365234	316.724701
-6887.722340	6806.458333	798.175781	421.405396
-6887.722340	6806.458333	796.985352	539.343018
-6887.722340	6806.458333	795.793945	428.356323
-6887.722340	6806.458333	794.603516	519.518677
-6887.722340	6806.458333	793.412109	395.186401
-6887.722340	6806.458333	792.220703	419.635651
-6887.722340	6806.458333	791.028320	373.000397
-6887.722340	6806.458333	789.836914	230.912674
-6887.722340	6806.458333	788.644531	197.576324
-6887.722340	6806.458333	787.452148	248.519577
-6887.722340	6806.458333	786.258789	212.899628
-6887.722340	6806.458333	785.066406	181.690613
-6887.722340	6806.458333	783.873047	101.677155
-6887.722340	6806.458333	782.679688	121.409065
-6887.722340	6806.458333	781.485352	-71.667503
-6887.722340	6806.458333	780.291992	140.783157
-6887.722340	6806.458333	779.097656	-25.714848
-6887.722340	6806.458333	777.903320	27.085197
-6887.722340	6806.458333	776.708008	-75.188080
-6887.722340	6806.458333	775.512695	154.629593
-6887.722340	6806.458333	774.318359	21.297865
-6887.722340	6806.458333	773.122070	51.739975
-6887.722340	6806.458333	771.926758	-77.178261
-6887.722340	6806.458333	770.730469	61.574566
-6887.722340	6806.458333	769.534180	113.971016
-6887.722340	6806.458333	768.337891	195.044296
-6887.722340	6806.458333	767.141602	198.663055
-6887.722340	6806.458333	765.944336	173.497589
-6887.722340	6806.458333	764.747070	196.911713
-6887.722340	6806.458333	763.549805	145.150085
-6887.722340	6806.458333	762.351563	345.171906
-6887.722340	6806.458333	761.154297	483.227173
-6887.722340	6806.458333	759.956055	259.068756
-6887.722340	6806.458333	758.757813	233.629059
-6887.722340	6806.458333	757.558594	307.463837
-6887.722340	6806.458333	756.359375	191.450882
-6887.722340	6806.458333	755.160156	335.756714
-6887.722340	6806.458333	753.960938	177.775360
-6887.722340	6806.458333	752.761719	268.993683
-6887.722340	6806.458333	751.561523	80.117653
-6887.722340	6806.458333	750.361328	113.899261
-6887.722340	6806.458333	749.160156	198.298309
-6887.722340	6806.458333	747.959961	-10.437736
-6887.722340	6806.458333	746.758789	166.364532
-6887.722340	6806.458333	745.557617	246.128693
-6887.722340	6806.458333	744.356445	110.010071
-6887.722340	6806.458333	743.154297	255.684067
-6887.722340	6806.458333	741.952148	49.070000
-6887.722340	6806.458333	740.750000	157.170380
-6887.722340	6806.458333	739.547852	16.552155
-6887.722340	6806.458333	738.344727	-60.278385
-6887.722340	6806.458333	737.142578	56.399239
-6887.722340	6806.458333	735.939453	172.965179
-6887.722340	6806.458333	734.735352	296.016541
-6887.722340	6806.458333	733.532227	304.669617
-6887.722340	6806.458333	732.328125	330.834534
-6887.722340	6806.458333	731.124023	293.216278
-6887.722340	6806.458333	729.918945	371.962402
-6887.722340	6806.458333	728.714844	226.622253
-6887.722340	6806.458333	727.509766	98.842911
-6887.722340	6806.458333	726.303711	45.683414
-6887.722340	6806.458333	725.098633	130.748077
-6887.722340	6806.458333	723.892578	145.497208
-6887.722340	6806.458333	722.686523	-35.066029
-6887.722340	6806.458333	721.480469	34.413498
-6887.722340	6806.458333	720.274414	184.932526
-6887.722340	6806.458333	719.067383	170.895065
-6887.722340	6806.458333	717.860352	112.958855
-6887.722340	6806.458333	716.653320	22.109892
-6887.722340	6806.458333	715.445313	180.999146
-6887.722340	6806.458333	714.238281	98.802216
-6887.722340	6806.458333	713.030273	-75.412079
-6887.722340	6806.458333	711.821289	137.931992
-6887.722340	6806.458333	710.613281	40.266239
-6887.722340	6806.458333	709.404297	91.398430
-6887.722340	6806.458333	708.195313	43.972111
-6887.722340	6806.458333	706.986328	215.271210
-6887.722340	6806.458333	705.776367	93.329155
-6887.722340	6806.458333	704.566406	-52.686886
-6887.722340	6806.458333	703.356445	186.090042
-6887.722340	6806.458333	702.146484	186.432205
-6887.722340	6806.458333	700.935547	136.435333
-6887.722340	6806.458333	699.724609	151.937759
-6887.722340	6806.458333	698.513672	-22.691566
-6887.722340	6806.458333	697.302734	156.502258
-6887.722340	6806.458333	696.090820	84.429268
-6887.722340	6806.458333	694.878906	-59.729195
-6887.722340	6806.458333	693.666992	25.284546
-6887.722340	6806.458333	692.455078	40.360012
-6887.722340	6806.458333	691.242188	173.167786
-6887.722340	6806.458333	690.029297	4.826010
-6887.722340	6806.458333	688.816406	106.908813
-6887.722340	6806.458333	687.602539	130.378632
-6887.722340	6806.458333	686.389648	195.188232
-6887.722340	6806.458333	685.175781	129.123871
-6887.722340	6806.458333	683.960938	137.097443
-6887.722340	6806.458333	682.747070	412.964417
-6887.722340	6806.458333	681.532227	244.300781
-6887.722340	6806.458333	680.317383	151.854156
-6887.722340	6806.458333	679.102539	105.094276
-6887.722340	6806.458333	677.886719	225.884598
-6887.722340	6806.458333	676.670898	144.156494
-6887.722340	6806.458333	675.455078	166.829956
-6887.722340	6806.458333	674.239258	63.248795
-6887.722340	6806.458333	673.022461	135.800705
-6887.722340	6806.458333	671.805664	193.026733
-6887.722340	6806.458333	670.588867	167.545166
-6887.722340	6806.458333	669.372070	24.629528
-6887.722340	6806.458333	668.154297	144.638077
-6887.722340	6806.458333	666.936523	53.780109
-6887.722340	6806.458333	665.718750	217.029419
-6887.722340	6806.458333	664.500977	60.896923
-6887.722340	6806.458333	663.282227	-17.082552
-6887.722340	6806.458333	662.063477	-105.955276
-6887.722340	6806.458333	660.844727	22.169598
-6887.722340	6806.458333	659.625000	121.953728
-6887.722340	6806.458333	658.405273	48.071766
-6887.722340	6806.458333	657.185547	41.386272
-6887.722340	6806.458333	655.965820	-75.960869
-6887.722340	6806.458333	654.745117	64.659637
-6887.722340	6806.458333	653.525391	133.626770
-6887.722340	6806.458333	652.303711	100.626503
-6887.722340	6806.458333	651.083008	78.410072
-6887.722340	6806.458333	649.861328	47.461121
-6887.722340	6806.458333	648.640625	207.047821
-6887.722340	6806.458333	647.417969	260.385834
-6887.722340	6806.458333	646.196289	112.309120
-6887.722340	6806.458333	644.973633	74.602745
-6887.722340	6806.458333	643.750977	-19.418158
-6887.722340	6806.458333	642.528320	20.667763
-6887.722340	6806.458333	641.305664	-121.023781
-6887.722340	6806.458333	640.082031	29.215168
-6887.722340	6806.458333	638.858398	116.622864
-6887.722340	6806.458333	637.634766	104.491837
-6887.722340	6806.458333	636.410156	70.683250
-6887.722340	6806.458333	635.185547	2.251980
-6887.722340	6806.458333	633.960938	2.912470
-6887.722340	6806.458333	632.736328	124.457306
-6887.722340	6806.458333	631.510742	-73.701668
-6887.722340	6806.458333	630.285156	-1.980034
-6887.722340	6806.458333	629.059570	-33.955261
-6887.722340	6806.458333	627.833984	-171.718491
-6887.722340	6806.458333	626.607422	122.009201
-6887.722340	6806.458333	625.380859	-80.569351
-6887.722340	6806.458333	624.154297	-132.160446
-6887.722340	6806.458333	622.927734	-106.167664
-6887.722340	6806.458333	621.700195	-190.191101
-6887.722340	6806.458333	620.472656	-71.646782
-6887.722340	6806.458333	619.245117	-35.090584
-6887.722340	6806.458333	618.016602	-106.327744
-6887.722340	6806.458333	616.788086	-125.899139
-6887.722340	6806.458333	615.559570	-85.220909
-6887.722340	6806.458333	614.331055	-141.496307
-6887.722340	6806.458333	613.101563	-234.399796
-6887.722340	6806.458333	611.872070	109.542610
-6887.722340	6806.458333	610.642578	-48.025578
-6887.722340	6806.458333	609.413086	-52.848568
-6887.722340	6806.458333	608.182617	54.106121
-6887.722340	6806.458333	606.952148	253.425034
-6887.722340	6806.458333	605.721680	22.665768
-6887.722340	6806.458333	604.491211	232.558823
-6887.722340	6806.458333	603.259766	-71.258911
-6887.722340	6806.458333	602.028320	-102.149902
-6887.722340	6806.458333	600.796875	-53.598465
-6887.722340	6806.458333	599.564453	-103.902313
-6887.722340	6806.458333	598.332031	-74.787048
-6887.722340	6806.458333	597.099609	14.378284
-6887.722340	6806.458333	595.867188	-274.243103
-6887.722340	6806.458333	594.633789	-146.538773
-6887.722340	6806.458333	593.400391	-181.958832
-6887.722340	6806.458333	592.166992	-50.112427
-6887.722340	6806.458333	590.933594	-167.090225
-6887.722340	6806.458333	589.699219	13.927180
-6887.722340	6806.458333	588.464844	-8.782557
-6887.722340	6806.458333	587.230469	52.058140
-6887.722340	6806.458333	585.995117	-86.411049
-6887.722340	6806.458333	584.760742	-107.035164
-6887.722340	6806.458333	583.525391	125.012772
-6887.722340	6806.458333	582.289063	123.551346
-6887.722340	6806.458333	581.053711	81.401680
-6887.722340	6806.458333	579.817383	169.786194
-6887.722340	6806.458333	578.581055	341.558014
-6887.722340	6806.458333	577.343750	170.950577
-6887.722340	6806.458333	576.107422	250.638641
-6887.722340	6806.458333	574.870117	293.914917
-6887.722340	6806.458333	573.631836	337.146881
-6887.722340	6806.458333	572.394531	384.626648
-6887.722340	6806.458333	571.156250	335.900787
-6887.722340	6806.458333	569.917969	496.556946
-6887.722340	6806.458333	568.679688	462.753723
-6887.722340	6806.458333	567.440430	554.944275
-6887.722340	6806.458333	566.202148	486.960876
-6887.722340	6806.458333	564.961914	551.330139
-6887.722340	6806.458333	563.722656	538.842651
-6887.722340	6806.458333	562.482422	598.893677
-6887.722340	6806.458333	561.243164	609.858398
-6887.722340	6806.458333	560.001953	541.883606
-6887.722340	6806.458333	558.761719	508.062714
-6887.722340	6806.458333	557.520508	506.228455
-6887.722340	6806.458333	556.279297	615.233215
-6887.722340	6806.458333	555.038086	528.140015
-6887.722340	6806.458333	553.795898	773.448914
-6887.722340	6806.458333	552.554688	645.899475
-6887.722340	6806.458333	551.311523	586.543823
-6887.722340	6806.458333	550.069336	618.786804
-6887.722340	6806.458333	548.826172	521.164368
-6887.722340	6806.458333	547.583984	527.890503
-6887.722340	6806.458333	546.339844	511.205109
-6887.722340	6806.458333	545.096680	539.223755
-6887.722340	6806.458333	543.852539	309.882935
-6887.722340	6806.458333	542.608398	459.168762
-6887.722340	6806.458333	541.364258	434.076782
-6887.722340	6806.458333	540.119141	438.766479
-6887.722340	6806.458333	538.875000	207.598083
-6887.722340	6806.458333	537.628906	333.476837
-6887.722340	6806.458333	536.383789	285.151733
-6887.722340	6806.458333	535.137695	154.040894
-6887.722340	6806.458333	533.892578	192.884232
-6887.722340	6806.458333	532.645508	185.021835
-6887.722340	6806.458333	531.399414	238.751160
-6887.722340	6806.458333	530.152344	109.997383
-6887.722340	6806.458333	528.905273	93.769714
-6887.722340	6806.458333	527.658203	69.100739
-6887.722340	6806.458333	526.410156	91.122787
-6887.722340	6806.458333	525.163086	0.816447
-6887.722340	6806.458333	523.914063	48.348534
-6887.722340	6806.458333	522.666016	-58.791855
-6887.722340	6806.458333	521.416992	-38.728043
-6887.722340	6806.458333	520.167969	-149.961899
-6887.722340	6806.458333	518.918945	-95.915047
-6887.722340	6806.458333	517.669922	-60.901722
-6887.722340	6806.458333	516.419922	-61.850990
-6887.722340	6806.458333	515.169922	-122.013016
-6887.722340	6806.458333	513.919922	-182.099564
-6887.722340	6806.458333	512.668945	-113.068954
-6887.722340	6806.458333	511.417969	142.110672
-6887.722340	6806.458333	510.166992	-180.060608
-6887.722340	6806.458333	508.916016	-157.429459
-6887.722340	6806.458333	507.664063	-126.305695
-6887.722340	6806.458333	506.412109	-25.401899
-6887.722340	6806.458333	505.160156	-129.427139
-6887.722340	6806.458333	503.907227	-26.346458
-6887.722340	6806.458333	502.655273	-180.897064
-6887.722340	6806.458333	501.402344	-179.081253
-6887.722340	6806.458333	500.148438	-109.661797
-6887.722340	6806.458333	498.895508	-124.625351
-6887.722340	6806.458333	497.641602	71.480072
-6887.722340	6806.458333	496.387695	35.504639
-6887.722340	6806.458333	495.132813	-129.059616
-6887.722340	6806.458333	493.878906	121.935783
-6887.722340	6806.458333	492.624023	79.830734
-6887.722340	6806.458333	491.368164	4.076012
-6887.722340	6806.458333	490.113281	-6.245817
-6887.722340	6806.458333	488.857422	-14.398216
-6887.722340	6806.458333	487.601563	47.032692
-6887.722340	6806.458333	486.344727	9.513540
-6887.722340	6806.458333	485.088867	210.009048
-6887.722340	6806.458333	483.832031	71.558647
-6887.722340	6806.458333	482.575195	82.662689
-6887.722340	6806.458333	481.317383	74.883438
-6887.722340	6806.458333	480.059570	229.162369
-6887.722340	6806.458333	478.801758	4.848878
-6887.722340	6806.458333	477.543945	89.813728
-6887.722340	6806.458333	476.285156	88.603500
-6887.722340	6806.458333	475.027344	131.604324
-6887.722340	6806.458333	473.767578	197.755524
-6887.722340	6806.458333	472.508789	394.210327
-6887.722340	6806.458333	471.249023	718.772156
-6887.722340	6806.458333	469.989258	766.041626
-6887.722340	6806.458333	468.729492	618.084167
-6887.722340	6806.458333	467.469727	571.012146
-6887.722340	6806.458333	466.208984	395.990875
-6887.722340	6806.458333	464.948242	267.265930
-6887.722340	6806.458333	463.686523	159.626572
-6887.722340	6806.458333	462.425781	121.308594
-6887.722340	6806.458333	461.164063	47.408390
-6887.722340	6806.458333	459.901367	46.963535
-6887.722340	6806.458333	458.639648	377.748230
-6887.722340	6806.458333	457.376953	119.576599
-6887.722340	6806.458333	456.114258	-19.014029
-6887.722340	6806.458333	454.851563	-222.434906
-6887.722340	6806.458333	453.587891	-17.357250
-6887.722340	6806.458333	452.324219	196.047806
-6887.722340	6806.458333	451.060547	87.028748
-6887.722340	6806.458333	449.796875	57.621090
-6887.722340	6806.458333	448.532227	-13.593859
-6887.722340	6806.458333	447.267578	-51.277184
-6887.722340	6806.458333	446.002930	-166.302017
-6887.722340	6806.458333	444.737305	74.221199
-6887.722340	6806.458333	443.471680	-17.745123
-6887.722340	6806.458333	442.206055	78.459618
-6887.722340	6806.458333	440.940430	-13.436752
-6887.722340	6806.458333	439.673828	11.709636
-6887.722340	6806.458333	438.407227	38.940578
-6887.722340	6806.458333	437.140625	97.486343
-6887.722340	6806.458333	435.873047	316.765686
-6887.722340	6806.458333	434.605469	89.233948
-6887.722340	6806.458333	433.337891	76.747803
-6887.722340	6806.458333	432.070313	262.471405
-6887.722340	6806.458333	430.801758	101.799301
-6887.722340	6806.458333	429.533203	-131.826584
-6887.722340	6806.458333	428.264648	-75.543472
-6887.722340	6806.458333	426.996094	1.523921
-6887.722340	6806.458333	425.726563	101.437256
-6887.722340	6806.458333	424.457031	111.654312
-6887.722340	6806.458333	423.186523	53.054600
-6887.722340	6806.458333	421.916992	-38.902424
-6887.722340	6806.458333	420.646484	52.362423
-6887.722340	6806.458333	419.375977	156.004456
-6887.722340	6806.458333	418.104492	232.453827
-6887.722340	6806.458333	416.833008	260.914307
-6887.722340	6806.458333	415.561523	176.908630
-6887.722340	6806.458333	414.290039	225.968094
-6887.722340	6806.458333	413.017578	331.039154
-6887.722340	6806.458333	411.746094	32.563835
-6887.722340	6806.458333	410.472656	160.241562
-6887.722340	6806.458333	409.200195	142.241348
-6887.722340	6806.458333	407.926758	176.042694
-6887.722340	6806.458333	406.653320	101.641945
-6887.722340	6806.458333	405.379883	133.034378
-6887.722340	6806.458333	404.105469	89.471443
-6887.722340	6806.458333	402.831055	10.445046
-6887.722340	6806.458333	401.556641	246.760162
-6887.722340	6806.458333	400.282227	221.281067
-6887.722340	6806.458333	399.006836	324.223206
-6887.722340	6806.458333	397.731445	202.858124
-6887.722340	6806.458333	396.456055	60.562866
-6887.722340	6806.458333	395.179688	139.923431
-6887.722340	6806.458333	393.903320	140.207047
-6887.722340	6806.458333	392.626953	175.441101
-6887.722340	6806.458333	391.350586	40.453434
-6887.722340	6806.458333	390.073242	211.810287
-6887.722340	6806.458333	388.795898	-79.106422
-6887.722340	6806.458333	387.518555	81.188301
-6887.722340	6806.458333	386.240234	143.749084
-6887.722340	6806.458333	384.961914	170.727966
-6887.722340	6806.458333	383.683594	122.814903
-6887.722340	6806.458333	382.405273	-165.472382
-6887.722340	6806.458333	381.125977	-9.332944
-6887.722340	6806.458333	379.846680	-12.932538
-6887.722340	6806.458333	378.567383	162.902588
-6887.722340	6806.458333	377.287109	112.866676
-6887.722340	6806.458333	376.006836	-5.832284
-6887.722340	6806.458333	374.726563	29.986029
-6887.722340	6806.458333	373.446289	-197.086365
-6887.722340	6806.458333	372.165039	87.592705
-6887.722340	6806.458333	370.883789	80.438965
-6887.722340	6806.458333	369.602539	-24.321144
-6887.722340	6806.458333	368.320313	-38.832325
-6887.722340	6806.458333	367.039063	-241.727722
-6887.722340	6806.458333	365.755859	107.702820
-6887.722340	6806.458333	364.473633	-55.205536
-6887.722340	6806.458333	363.190430	-35.209850
-6887.722340	6806.458333	361.907227	105.708939
-6887.722340	6806.458333	360.624023	-44.811047
-6887.722340	6806.458333	359.340820	36.853188
-6887.722340	6806.458333	358.056641	125.922783
-6887.722340	6806.458333	356.772461	-2.150496
-6887.722340	6806.458333	355.487305	68.750603
-6887.722340	6806.458333	354.202148	124.346481
-6887.722340	6806.458333	352.916992	-230.631271
-6887.722340	6806.458333	351.631836	16.669518
-6887.722340	6806.458333	350.346680	-119.812637
-6887.722340	6806.458333	349.060547	-43.275330
-6887.722340	6806.458333	347.774414	151.522797
-6887.722340	6806.458333	346.487305	-64.034622
-6887.722340	6806.458333	345.200195	-44.130821
-6887.722340	6806.458333	343.913086	194.605270
-6887.722340	6806.458333	342.625977	53.991344
-6887.722340	6806.458333	341.338867	-26.082243
-6887.722340	6806.458333	340.050781	89.856491
-6887.722340	6806.458333	338.762695	83.354698
-6887.722340	6806.458333	337.473633	-117.437210
-6887.722340	6806.458333	336.184570	-19.731436
-6887.722340	6806.458333	334.895508	-149.154663
-6887.722340	6806.458333	333.606445	-95.219002
-6887.722340	6806.458333	332.317383	117.301018
-6887.722340	6806.458333	331.027344	-59.383469
-6887.722340	6806.458333	329.736328	-44.760712
-6887.722340	6806.458333	328.446289	-105.430557
-6887.722340	6806.458333	327.155273	-38.547878
-6887.722340	6806.458333	325.864258	-90.100746
-6887.722340	6806.458333	324.573242	-294.883759
-6887.722340	6806.458333	323.281250	-341.539307
-6887.722340	6806.458333	321.989258	-215.840378
-6887.722340	6806.458333	320.697266	157.810562
-6887.722340	6806.458333	319.405273	-148.064941
-6887.722340	6806.458333	318.112305	27.254194
-6887.722340	6806.458333	316.819336	79.863060
-6887.722340	6806.458333	315.526367	-127.260323
-6887.722340	6806.458333	314.232422	-27.537626
-6887.722340	6806.458333	312.938477	47.585884
-6887.722340	6806.458333	311.644531	200.291641
-6887.722340	6806.458333	310.349609	201.508957
-6887.722340	6806.458333	309.054688	92.208435
-6887.722340	6806.458333	307.759766	133.903732
-6887.722340	6806.458333	306.464844	289.676971
-6887.722340	6806.458333	305.168945	377.593262
-6887.722340	6806.458333	303.873047	318.078278
-6887.722340	6806.458333	302.577148	419.385956
-6887.722340	6806.458333	301.281250	585.438354
-6887.722340	6806.458333	299.984375	650.802734
