#X		#Y		#Wave		#Intensity
20383.537660	-1260.157167	1999.980469	-196.977966
20383.537660	-1260.157167	1999.016602	-24.159077
20383.537660	-1260.157167	1998.052734	37.366489
20383.537660	-1260.157167	1997.087891	180.211411
20383.537660	-1260.157167	1996.123047	104.533257
20383.537660	-1260.157167	1995.158203	291.043884
20383.537660	-1260.157167	1994.193359	192.247894
20383.537660	-1260.157167	1993.228516	112.900589
20383.537660	-1260.157167	1992.262695	122.334984
20383.537660	-1260.157167	1991.297852	84.347862
20383.537660	-1260.157167	1990.332031	1.470453
20383.537660	-1260.157167	1989.366211	-54.510471
20383.537660	-1260.157167	1988.399414	62.372459
20383.537660	-1260.157167	1987.433594	8.198323
20383.537660	-1260.157167	1986.466797	-19.066921
20383.537660	-1260.157167	1985.500977	-14.497617
20383.537660	-1260.157167	1984.534180	-89.334618
20383.537660	-1260.157167	1983.567383	-119.946632
20383.537660	-1260.157167	1982.599609	-153.295227
20383.537660	-1260.157167	1981.632813	-162.204147
20383.537660	-1260.157167	1980.665039	-28.090267
20383.537660	-1260.157167	1979.697266	-131.389297
20383.537660	-1260.157167	1978.729492	-173.162720
20383.537660	-1260.157167	1977.761719	4.576671
20383.537660	-1260.157167	1976.792969	78.346992
20383.537660	-1260.157167	1975.825195	117.311737
20383.537660	-1260.157167	1974.856445	10.462959
20383.537660	-1260.157167	1973.887695	66.277405
20383.537660	-1260.157167	1972.918945	40.470795
20383.537660	-1260.157167	1971.949219	93.404030
20383.537660	-1260.157167	1970.980469	119.006424
20383.537660	-1260.157167	1970.010742	-3.492652
20383.537660	-1260.157167	1969.041016	236.211807
20383.537660	-1260.157167	1968.071289	39.470375
20383.537660	-1260.157167	1967.101563	-80.973953
20383.537660	-1260.157167	1966.130859	81.772850
20383.537660	-1260.157167	1965.161133	-21.689949
20383.537660	-1260.157167	1964.190430	143.163864
20383.537660	-1260.157167	1963.219727	265.969391
20383.537660	-1260.157167	1962.249023	16.895544
20383.537660	-1260.157167	1961.277344	87.746048
20383.537660	-1260.157167	1960.306641	87.092407
20383.537660	-1260.157167	1959.334961	263.465637
20383.537660	-1260.157167	1958.363281	-62.128227
20383.537660	-1260.157167	1957.391602	-43.395958
20383.537660	-1260.157167	1956.419922	154.731842
20383.537660	-1260.157167	1955.447266	128.978302
20383.537660	-1260.157167	1954.474609	235.878632
20383.537660	-1260.157167	1953.501953	55.128819
20383.537660	-1260.157167	1952.529297	88.131691
20383.537660	-1260.157167	1951.556641	-58.282299
20383.537660	-1260.157167	1950.583984	67.920303
20383.537660	-1260.157167	1949.610352	71.226021
20383.537660	-1260.157167	1948.636719	-121.948387
20383.537660	-1260.157167	1947.663086	60.470207
20383.537660	-1260.157167	1946.689453	73.419037
20383.537660	-1260.157167	1945.715820	-9.387431
20383.537660	-1260.157167	1944.741211	37.819668
20383.537660	-1260.157167	1943.767578	141.381821
20383.537660	-1260.157167	1942.792969	43.761776
20383.537660	-1260.157167	1941.818359	115.329979
20383.537660	-1260.157167	1940.842773	-180.899231
20383.537660	-1260.157167	1939.868164	-97.128426
20383.537660	-1260.157167	1938.892578	214.493088
20383.537660	-1260.157167	1937.916992	143.740753
20383.537660	-1260.157167	1936.941406	23.996000
20383.537660	-1260.157167	1935.965820	-215.741653
20383.537660	-1260.157167	1934.990234	24.561378
20383.537660	-1260.157167	1934.013672	-53.531620
20383.537660	-1260.157167	1933.037109	39.743668
20383.537660	-1260.157167	1932.060547	142.761368
20383.537660	-1260.157167	1931.083984	54.862297
20383.537660	-1260.157167	1930.107422	99.101074
20383.537660	-1260.157167	1929.129883	40.578560
20383.537660	-1260.157167	1928.153320	-8.143909
20383.537660	-1260.157167	1927.175781	31.172495
20383.537660	-1260.157167	1926.198242	26.467331
20383.537660	-1260.157167	1925.219727	24.205370
20383.537660	-1260.157167	1924.242188	9.726947
20383.537660	-1260.157167	1923.263672	-95.150345
20383.537660	-1260.157167	1922.285156	205.536179
20383.537660	-1260.157167	1921.306641	178.826721
20383.537660	-1260.157167	1920.328125	32.474274
20383.537660	-1260.157167	1919.349609	-43.013321
20383.537660	-1260.157167	1918.370117	-54.997967
20383.537660	-1260.157167	1917.391602	8.688211
20383.537660	-1260.157167	1916.412109	-25.247974
20383.537660	-1260.157167	1915.431641	-27.446413
20383.537660	-1260.157167	1914.452148	-22.315651
20383.537660	-1260.157167	1913.472656	104.762566
20383.537660	-1260.157167	1912.492188	107.448471
20383.537660	-1260.157167	1911.511719	100.393387
20383.537660	-1260.157167	1910.531250	22.667030
20383.537660	-1260.157167	1909.550781	-1.405051
20383.537660	-1260.157167	1908.569336	23.273708
20383.537660	-1260.157167	1907.588867	-20.252697
20383.537660	-1260.157167	1906.607422	99.435051
20383.537660	-1260.157167	1905.625977	7.232006
20383.537660	-1260.157167	1904.644531	-48.402790
20383.537660	-1260.157167	1903.662109	46.919029
20383.537660	-1260.157167	1902.680664	-69.521629
20383.537660	-1260.157167	1901.698242	-76.405174
20383.537660	-1260.157167	1900.715820	-183.022415
20383.537660	-1260.157167	1899.733398	-68.235840
20383.537660	-1260.157167	1898.750000	-62.918968
20383.537660	-1260.157167	1897.767578	66.415779
20383.537660	-1260.157167	1896.784180	-54.685535
20383.537660	-1260.157167	1895.800781	81.913727
20383.537660	-1260.157167	1894.817383	9.480755
20383.537660	-1260.157167	1893.833984	-2.172370
20383.537660	-1260.157167	1892.850586	-16.240444
20383.537660	-1260.157167	1891.866211	151.865707
20383.537660	-1260.157167	1890.881836	-68.615982
20383.537660	-1260.157167	1889.897461	-19.510283
20383.537660	-1260.157167	1888.913086	-157.328537
20383.537660	-1260.157167	1887.927734	100.510498
20383.537660	-1260.157167	1886.943359	-73.661499
20383.537660	-1260.157167	1885.958008	-36.694138
20383.537660	-1260.157167	1884.972656	123.971565
20383.537660	-1260.157167	1883.987305	221.526276
20383.537660	-1260.157167	1883.001953	-49.506371
20383.537660	-1260.157167	1882.015625	55.324848
20383.537660	-1260.157167	1881.029297	55.895206
20383.537660	-1260.157167	1880.042969	-98.626228
20383.537660	-1260.157167	1879.056641	37.656147
20383.537660	-1260.157167	1878.070313	156.930893
20383.537660	-1260.157167	1877.083984	-164.641800
20383.537660	-1260.157167	1876.096680	112.022003
20383.537660	-1260.157167	1875.109375	-100.477982
20383.537660	-1260.157167	1874.122070	-22.428864
20383.537660	-1260.157167	1873.134766	-50.900986
20383.537660	-1260.157167	1872.146484	-16.457014
20383.537660	-1260.157167	1871.159180	-102.995193
20383.537660	-1260.157167	1870.170898	-46.800037
20383.537660	-1260.157167	1869.182617	-41.421314
20383.537660	-1260.157167	1868.194336	-26.382565
20383.537660	-1260.157167	1867.205078	36.987793
20383.537660	-1260.157167	1866.216797	-90.621544
20383.537660	-1260.157167	1865.227539	-29.706215
20383.537660	-1260.157167	1864.238281	-67.889229
20383.537660	-1260.157167	1863.249023	24.371235
20383.537660	-1260.157167	1862.259766	-35.576359
20383.537660	-1260.157167	1861.269531	-259.722687
20383.537660	-1260.157167	1860.279297	-143.390976
20383.537660	-1260.157167	1859.290039	6.669897
20383.537660	-1260.157167	1858.298828	-7.457242
20383.537660	-1260.157167	1857.308594	166.605286
20383.537660	-1260.157167	1856.318359	-55.065891
20383.537660	-1260.157167	1855.327148	-11.359099
20383.537660	-1260.157167	1854.335938	-54.510540
20383.537660	-1260.157167	1853.344727	46.991280
20383.537660	-1260.157167	1852.353516	-68.532585
20383.537660	-1260.157167	1851.362305	47.335594
20383.537660	-1260.157167	1850.370117	-101.944031
20383.537660	-1260.157167	1849.377930	49.960831
20383.537660	-1260.157167	1848.385742	139.143677
20383.537660	-1260.157167	1847.393555	-0.538311
20383.537660	-1260.157167	1846.401367	-106.492592
20383.537660	-1260.157167	1845.408203	-41.516037
20383.537660	-1260.157167	1844.415039	35.431812
20383.537660	-1260.157167	1843.421875	-87.434441
20383.537660	-1260.157167	1842.428711	119.342003
20383.537660	-1260.157167	1841.435547	147.977707
20383.537660	-1260.157167	1840.441406	248.714691
20383.537660	-1260.157167	1839.448242	63.201981
20383.537660	-1260.157167	1838.454102	74.865211
20383.537660	-1260.157167	1837.459961	271.573273
20383.537660	-1260.157167	1836.464844	78.805267
20383.537660	-1260.157167	1835.470703	35.043671
20383.537660	-1260.157167	1834.475586	111.370964
20383.537660	-1260.157167	1833.480469	290.904266
20383.537660	-1260.157167	1832.485352	263.779175
20383.537660	-1260.157167	1831.490234	94.941757
20383.537660	-1260.157167	1830.495117	199.789322
20383.537660	-1260.157167	1829.499023	-31.493252
20383.537660	-1260.157167	1828.502930	92.419479
20383.537660	-1260.157167	1827.506836	-54.898418
20383.537660	-1260.157167	1826.510742	42.464058
20383.537660	-1260.157167	1825.513672	7.812685
20383.537660	-1260.157167	1824.517578	407.145844
20383.537660	-1260.157167	1823.520508	276.410095
20383.537660	-1260.157167	1822.523438	-65.284477
20383.537660	-1260.157167	1821.526367	58.026840
20383.537660	-1260.157167	1820.529297	219.562744
20383.537660	-1260.157167	1819.531250	74.316185
20383.537660	-1260.157167	1818.533203	137.441422
20383.537660	-1260.157167	1817.535156	126.232384
20383.537660	-1260.157167	1816.537109	-21.521904
20383.537660	-1260.157167	1815.539063	223.306473
20383.537660	-1260.157167	1814.540039	27.570559
20383.537660	-1260.157167	1813.541992	42.419708
20383.537660	-1260.157167	1812.542969	176.812851
20383.537660	-1260.157167	1811.543945	16.849178
20383.537660	-1260.157167	1810.543945	88.855087
20383.537660	-1260.157167	1809.544922	129.672012
20383.537660	-1260.157167	1808.544922	113.013214
20383.537660	-1260.157167	1807.544922	-56.699512
20383.537660	-1260.157167	1806.544922	96.198997
20383.537660	-1260.157167	1805.544922	69.751831
20383.537660	-1260.157167	1804.544922	59.954269
20383.537660	-1260.157167	1803.543945	88.288528
20383.537660	-1260.157167	1802.542969	106.974709
20383.537660	-1260.157167	1801.541992	-22.462564
20383.537660	-1260.157167	1800.541016	203.743515
20383.537660	-1260.157167	1799.539063	38.358097
20383.537660	-1260.157167	1798.538086	-31.600651
20383.537660	-1260.157167	1797.536133	-96.854652
20383.537660	-1260.157167	1796.534180	126.449608
20383.537660	-1260.157167	1795.532227	82.472580
20383.537660	-1260.157167	1794.529297	0.266191
20383.537660	-1260.157167	1793.527344	154.015549
20383.537660	-1260.157167	1792.524414	21.586824
20383.537660	-1260.157167	1791.521484	63.079166
20383.537660	-1260.157167	1790.518555	32.982220
20383.537660	-1260.157167	1789.514648	102.847542
20383.537660	-1260.157167	1788.511719	144.015533
20383.537660	-1260.157167	1787.507813	144.584946
20383.537660	-1260.157167	1786.503906	178.387878
20383.537660	-1260.157167	1785.500000	-64.040016
20383.537660	-1260.157167	1784.496094	7.672834
20383.537660	-1260.157167	1783.491211	31.666416
20383.537660	-1260.157167	1782.486328	55.551598
20383.537660	-1260.157167	1781.481445	112.627762
20383.537660	-1260.157167	1780.476563	19.761673
20383.537660	-1260.157167	1779.471680	98.021309
20383.537660	-1260.157167	1778.465820	-47.313099
20383.537660	-1260.157167	1777.460938	56.871597
20383.537660	-1260.157167	1776.455078	-197.912659
20383.537660	-1260.157167	1775.449219	107.998535
20383.537660	-1260.157167	1774.442383	28.870440
20383.537660	-1260.157167	1773.436523	-85.949539
20383.537660	-1260.157167	1772.429688	67.483437
20383.537660	-1260.157167	1771.422852	37.952385
20383.537660	-1260.157167	1770.416016	-107.977478
20383.537660	-1260.157167	1769.409180	220.673126
20383.537660	-1260.157167	1768.402344	-60.688736
20383.537660	-1260.157167	1767.394531	248.634247
20383.537660	-1260.157167	1766.386719	199.593674
20383.537660	-1260.157167	1765.378906	112.526314
20383.537660	-1260.157167	1764.371094	-19.661684
20383.537660	-1260.157167	1763.362305	2.167131
20383.537660	-1260.157167	1762.354492	-92.240013
20383.537660	-1260.157167	1761.345703	159.227737
20383.537660	-1260.157167	1760.336914	268.348846
20383.537660	-1260.157167	1759.328125	-30.082771
20383.537660	-1260.157167	1758.318359	0.663694
20383.537660	-1260.157167	1757.308594	2.878767
20383.537660	-1260.157167	1756.299805	59.442261
20383.537660	-1260.157167	1755.290039	-28.505779
20383.537660	-1260.157167	1754.279297	20.715099
20383.537660	-1260.157167	1753.269531	166.821854
20383.537660	-1260.157167	1752.258789	118.789948
20383.537660	-1260.157167	1751.249023	39.933445
20383.537660	-1260.157167	1750.238281	67.398331
20383.537660	-1260.157167	1749.226563	248.407150
20383.537660	-1260.157167	1748.215820	8.513877
20383.537660	-1260.157167	1747.204102	54.549515
20383.537660	-1260.157167	1746.193359	62.666134
20383.537660	-1260.157167	1745.181641	82.477577
20383.537660	-1260.157167	1744.168945	118.700615
20383.537660	-1260.157167	1743.157227	-57.715160
20383.537660	-1260.157167	1742.144531	-16.966988
20383.537660	-1260.157167	1741.132813	-40.063839
20383.537660	-1260.157167	1740.120117	92.499825
20383.537660	-1260.157167	1739.106445	-51.177292
20383.537660	-1260.157167	1738.093750	-22.672867
20383.537660	-1260.157167	1737.080078	-175.914505
20383.537660	-1260.157167	1736.067383	-86.289024
20383.537660	-1260.157167	1735.053711	-109.985130
20383.537660	-1260.157167	1734.040039	-143.203751
20383.537660	-1260.157167	1733.025391	85.097404
20383.537660	-1260.157167	1732.011719	-174.570221
20383.537660	-1260.157167	1730.997070	119.415543
20383.537660	-1260.157167	1729.982422	-109.748344
20383.537660	-1260.157167	1728.967773	-134.030106
20383.537660	-1260.157167	1727.952148	107.665894
20383.537660	-1260.157167	1726.937500	45.486874
20383.537660	-1260.157167	1725.921875	49.127396
20383.537660	-1260.157167	1724.906250	52.668758
20383.537660	-1260.157167	1723.890625	-78.002678
20383.537660	-1260.157167	1722.875000	-13.470281
20383.537660	-1260.157167	1721.858398	76.801582
20383.537660	-1260.157167	1720.841797	138.724701
20383.537660	-1260.157167	1719.825195	-69.843788
20383.537660	-1260.157167	1718.808594	62.413193
20383.537660	-1260.157167	1717.791992	-33.441135
20383.537660	-1260.157167	1716.774414	345.279846
20383.537660	-1260.157167	1715.756836	-65.591591
20383.537660	-1260.157167	1714.739258	84.969688
20383.537660	-1260.157167	1713.721680	9.939057
20383.537660	-1260.157167	1712.704102	-100.372147
20383.537660	-1260.157167	1711.685547	59.216518
20383.537660	-1260.157167	1710.667969	26.210741
20383.537660	-1260.157167	1709.649414	143.298691
20383.537660	-1260.157167	1708.630859	-70.550018
20383.537660	-1260.157167	1707.611328	-253.920822
20383.537660	-1260.157167	1706.592773	-127.726265
20383.537660	-1260.157167	1705.573242	-81.399879
20383.537660	-1260.157167	1704.553711	-11.732388
20383.537660	-1260.157167	1703.534180	-136.717041
20383.537660	-1260.157167	1702.513672	-116.456184
20383.537660	-1260.157167	1701.494141	63.050552
20383.537660	-1260.157167	1700.473633	90.129723
20383.537660	-1260.157167	1699.453125	32.804493
20383.537660	-1260.157167	1698.432617	-1.161471
20383.537660	-1260.157167	1697.412109	51.430080
20383.537660	-1260.157167	1696.390625	-406.366333
20383.537660	-1260.157167	1695.369141	-89.431496
20383.537660	-1260.157167	1694.347656	-107.289787
20383.537660	-1260.157167	1693.326172	94.686775
20383.537660	-1260.157167	1692.304688	-56.666794
20383.537660	-1260.157167	1691.282227	-154.262054
20383.537660	-1260.157167	1690.260742	26.347336
20383.537660	-1260.157167	1689.238281	52.523678
20383.537660	-1260.157167	1688.214844	13.167286
20383.537660	-1260.157167	1687.192383	74.248337
20383.537660	-1260.157167	1686.168945	158.587784
20383.537660	-1260.157167	1685.146484	126.052559
20383.537660	-1260.157167	1684.123047	-11.638167
20383.537660	-1260.157167	1683.099609	-53.610386
20383.537660	-1260.157167	1682.075195	98.115509
20383.537660	-1260.157167	1681.051758	16.335632
20383.537660	-1260.157167	1680.027344	298.544159
20383.537660	-1260.157167	1679.002930	-84.343636
20383.537660	-1260.157167	1677.978516	8.714437
20383.537660	-1260.157167	1676.953125	241.596222
20383.537660	-1260.157167	1675.928711	315.787842
20383.537660	-1260.157167	1674.903320	266.324005
20383.537660	-1260.157167	1673.877930	88.629089
20383.537660	-1260.157167	1672.852539	309.446503
20383.537660	-1260.157167	1671.826172	476.524017
20383.537660	-1260.157167	1670.800781	382.599213
20383.537660	-1260.157167	1669.774414	318.924194
20383.537660	-1260.157167	1668.748047	380.969452
20383.537660	-1260.157167	1667.721680	538.397400
20383.537660	-1260.157167	1666.694336	230.167603
20383.537660	-1260.157167	1665.667969	292.057068
20383.537660	-1260.157167	1664.640625	330.597870
20383.537660	-1260.157167	1663.613281	380.713837
20383.537660	-1260.157167	1662.585938	740.113281
20383.537660	-1260.157167	1661.557617	494.705872
20383.537660	-1260.157167	1660.530273	409.793365
20383.537660	-1260.157167	1659.501953	434.116547
20383.537660	-1260.157167	1658.473633	595.515442
20383.537660	-1260.157167	1657.444336	596.472839
20383.537660	-1260.157167	1656.416016	471.957764
20383.537660	-1260.157167	1655.386719	565.784058
20383.537660	-1260.157167	1654.358398	634.012634
20383.537660	-1260.157167	1653.328125	609.282349
20383.537660	-1260.157167	1652.298828	658.833008
20383.537660	-1260.157167	1651.269531	726.906067
20383.537660	-1260.157167	1650.239258	827.400269
20383.537660	-1260.157167	1649.208984	756.147034
20383.537660	-1260.157167	1648.178711	682.580444
20383.537660	-1260.157167	1647.148438	745.851196
20383.537660	-1260.157167	1646.117188	649.071777
20383.537660	-1260.157167	1645.086914	844.426514
20383.537660	-1260.157167	1644.055664	849.613647
20383.537660	-1260.157167	1643.024414	829.291931
20383.537660	-1260.157167	1641.992188	778.829712
20383.537660	-1260.157167	1640.960938	1140.718140
20383.537660	-1260.157167	1639.928711	1076.293823
20383.537660	-1260.157167	1638.896484	1109.137695
20383.537660	-1260.157167	1637.864258	1424.403442
20383.537660	-1260.157167	1636.832031	1315.956543
20383.537660	-1260.157167	1635.798828	1230.671143
20383.537660	-1260.157167	1634.766602	1159.312988
20383.537660	-1260.157167	1633.733398	1370.188477
20383.537660	-1260.157167	1632.699219	1197.027588
20383.537660	-1260.157167	1631.666016	1181.194336
20383.537660	-1260.157167	1630.632813	1250.909790
20383.537660	-1260.157167	1629.598633	1493.949219
20383.537660	-1260.157167	1628.564453	1471.125122
20383.537660	-1260.157167	1627.530273	1335.092773
20383.537660	-1260.157167	1626.495117	1409.331299
20383.537660	-1260.157167	1625.460938	1504.349976
20383.537660	-1260.157167	1624.425781	1347.615723
20383.537660	-1260.157167	1623.390625	1599.614502
20383.537660	-1260.157167	1622.355469	1662.239136
20383.537660	-1260.157167	1621.319336	1588.670776
20383.537660	-1260.157167	1620.284180	1766.674561
20383.537660	-1260.157167	1619.248047	1730.056396
20383.537660	-1260.157167	1618.211914	1289.816772
20383.537660	-1260.157167	1617.174805	1548.511597
20383.537660	-1260.157167	1616.138672	1846.337769
20383.537660	-1260.157167	1615.101563	1759.078735
20383.537660	-1260.157167	1614.065430	1817.092163
20383.537660	-1260.157167	1613.027344	1757.556641
20383.537660	-1260.157167	1611.990234	1866.268921
20383.537660	-1260.157167	1610.953125	1974.964844
20383.537660	-1260.157167	1609.915039	1947.754517
20383.537660	-1260.157167	1608.876953	1869.928955
20383.537660	-1260.157167	1607.838867	2105.249268
20383.537660	-1260.157167	1606.800781	2179.394775
20383.537660	-1260.157167	1605.761719	2170.686035
20383.537660	-1260.157167	1604.723633	2035.489380
20383.537660	-1260.157167	1603.684570	2105.093750
20383.537660	-1260.157167	1602.644531	1914.810181
20383.537660	-1260.157167	1601.605469	2216.726807
20383.537660	-1260.157167	1600.566406	2086.361328
20383.537660	-1260.157167	1599.526367	2169.835449
20383.537660	-1260.157167	1598.486328	2306.175293
20383.537660	-1260.157167	1597.446289	2107.054443
20383.537660	-1260.157167	1596.405273	2098.706787
20383.537660	-1260.157167	1595.365234	2131.763428
20383.537660	-1260.157167	1594.324219	1891.586304
20383.537660	-1260.157167	1593.283203	1915.570557
20383.537660	-1260.157167	1592.242188	1813.350342
20383.537660	-1260.157167	1591.200195	1825.955078
20383.537660	-1260.157167	1590.159180	1902.866577
20383.537660	-1260.157167	1589.117188	1764.149658
20383.537660	-1260.157167	1588.075195	1760.864014
20383.537660	-1260.157167	1587.032227	1847.055298
20383.537660	-1260.157167	1585.990234	1779.674194
20383.537660	-1260.157167	1584.947266	1771.963867
20383.537660	-1260.157167	1583.904297	1810.152710
20383.537660	-1260.157167	1582.861328	2013.364990
20383.537660	-1260.157167	1581.818359	1882.091187
20383.537660	-1260.157167	1580.775391	1728.027832
20383.537660	-1260.157167	1579.731445	1828.267456
20383.537660	-1260.157167	1578.687500	1701.869385
20383.537660	-1260.157167	1577.643555	1722.090576
20383.537660	-1260.157167	1576.598633	1605.041504
20383.537660	-1260.157167	1575.554688	1588.802490
20383.537660	-1260.157167	1574.509766	1570.340698
20383.537660	-1260.157167	1573.464844	1465.040894
20383.537660	-1260.157167	1572.419922	1762.342651
20383.537660	-1260.157167	1571.374023	1922.405762
20383.537660	-1260.157167	1570.329102	1655.021606
20383.537660	-1260.157167	1569.283203	1543.222412
20383.537660	-1260.157167	1568.237305	1353.853516
20383.537660	-1260.157167	1567.191406	1605.567383
20383.537660	-1260.157167	1566.144531	1350.167725
20383.537660	-1260.157167	1565.098633	1524.299438
20383.537660	-1260.157167	1564.051758	1248.632324
20383.537660	-1260.157167	1563.004883	1240.245728
20383.537660	-1260.157167	1561.957031	1222.807739
20383.537660	-1260.157167	1560.910156	1310.441284
20383.537660	-1260.157167	1559.862305	1249.821533
20383.537660	-1260.157167	1558.814453	1152.817627
20383.537660	-1260.157167	1557.766602	1192.775146
20383.537660	-1260.157167	1556.718750	1168.964600
20383.537660	-1260.157167	1555.669922	987.946289
20383.537660	-1260.157167	1554.621094	848.117065
20383.537660	-1260.157167	1553.573242	895.308228
20383.537660	-1260.157167	1552.523438	1124.818970
20383.537660	-1260.157167	1551.474609	823.599915
20383.537660	-1260.157167	1550.424805	905.194946
20383.537660	-1260.157167	1549.375000	993.685120
20383.537660	-1260.157167	1548.325195	875.075195
20383.537660	-1260.157167	1547.275391	906.832886
20383.537660	-1260.157167	1546.225586	797.587891
20383.537660	-1260.157167	1545.174805	950.125977
20383.537660	-1260.157167	1544.124023	1134.552002
20383.537660	-1260.157167	1543.073242	1253.053223
20383.537660	-1260.157167	1542.022461	957.772217
20383.537660	-1260.157167	1540.970703	1140.117065
20383.537660	-1260.157167	1539.919922	1281.591431
20383.537660	-1260.157167	1538.868164	1264.033203
20383.537660	-1260.157167	1537.815430	1123.887817
20383.537660	-1260.157167	1536.763672	1038.434814
20383.537660	-1260.157167	1535.710938	998.538940
20383.537660	-1260.157167	1534.659180	1017.816162
20383.537660	-1260.157167	1533.606445	1159.782227
20383.537660	-1260.157167	1532.552734	1245.050293
20383.537660	-1260.157167	1531.500000	962.767944
20383.537660	-1260.157167	1530.446289	1014.232666
20383.537660	-1260.157167	1529.393555	968.255554
20383.537660	-1260.157167	1528.338867	1004.044006
20383.537660	-1260.157167	1527.285156	1030.871460
20383.537660	-1260.157167	1526.231445	1028.332520
20383.537660	-1260.157167	1525.176758	849.102295
20383.537660	-1260.157167	1524.122070	1003.196655
20383.537660	-1260.157167	1523.067383	1087.109375
20383.537660	-1260.157167	1522.012695	958.167175
20383.537660	-1260.157167	1520.957031	1010.578796
20383.537660	-1260.157167	1519.901367	1004.215027
20383.537660	-1260.157167	1518.845703	866.662354
20383.537660	-1260.157167	1517.790039	1037.129395
20383.537660	-1260.157167	1516.734375	1033.392944
20383.537660	-1260.157167	1515.677734	749.205261
20383.537660	-1260.157167	1514.621094	775.175842
20383.537660	-1260.157167	1513.564453	826.139038
20383.537660	-1260.157167	1512.507813	492.785858
20383.537660	-1260.157167	1511.450195	485.245880
20383.537660	-1260.157167	1510.393555	570.519165
20383.537660	-1260.157167	1509.335938	273.945709
20383.537660	-1260.157167	1508.278320	359.474854
20383.537660	-1260.157167	1507.219727	352.469116
20383.537660	-1260.157167	1506.162109	298.169739
20383.537660	-1260.157167	1505.103516	214.658768
20383.537660	-1260.157167	1504.044922	302.897797
20383.537660	-1260.157167	1502.986328	427.347168
20383.537660	-1260.157167	1501.926758	262.997772
20383.537660	-1260.157167	1500.868164	220.694138
20383.537660	-1260.157167	1499.808594	442.477478
20383.537660	-1260.157167	1498.749023	82.388733
20383.537660	-1260.157167	1497.688477	11.215229
20383.537660	-1260.157167	1496.628906	32.645103
20383.537660	-1260.157167	1495.568359	-13.429864
20383.537660	-1260.157167	1494.507813	71.359848
20383.537660	-1260.157167	1493.447266	-17.249180
20383.537660	-1260.157167	1492.386719	65.522591
20383.537660	-1260.157167	1491.325195	105.596924
20383.537660	-1260.157167	1490.263672	159.300797
20383.537660	-1260.157167	1489.202148	-45.798203
20383.537660	-1260.157167	1488.140625	129.738586
20383.537660	-1260.157167	1487.079102	244.576385
20383.537660	-1260.157167	1486.016602	118.738106
20383.537660	-1260.157167	1484.954102	375.528564
20383.537660	-1260.157167	1483.891602	238.739838
20383.537660	-1260.157167	1482.829102	405.732452
20383.537660	-1260.157167	1481.765625	458.136230
20383.537660	-1260.157167	1480.702148	418.508331
20383.537660	-1260.157167	1479.638672	635.235535
20383.537660	-1260.157167	1478.575195	831.780823
20383.537660	-1260.157167	1477.511719	956.539734
20383.537660	-1260.157167	1476.447266	969.101746
20383.537660	-1260.157167	1475.382813	813.363037
20383.537660	-1260.157167	1474.318359	947.483826
20383.537660	-1260.157167	1473.253906	861.545288
20383.537660	-1260.157167	1472.189453	1108.075562
20383.537660	-1260.157167	1471.124023	1020.604187
20383.537660	-1260.157167	1470.058594	1329.703491
20383.537660	-1260.157167	1468.993164	1350.098999
20383.537660	-1260.157167	1467.927734	1305.166626
20383.537660	-1260.157167	1466.861328	1462.105225
20383.537660	-1260.157167	1465.794922	1256.033447
20383.537660	-1260.157167	1464.728516	1297.208984
20383.537660	-1260.157167	1463.662109	1468.230469
20383.537660	-1260.157167	1462.594727	1465.857666
20383.537660	-1260.157167	1461.528320	1641.286377
20383.537660	-1260.157167	1460.460938	1581.871704
20383.537660	-1260.157167	1459.393555	1339.220459
20383.537660	-1260.157167	1458.326172	1401.110962
20383.537660	-1260.157167	1457.257813	1388.648315
20383.537660	-1260.157167	1456.189453	1375.758545
20383.537660	-1260.157167	1455.121094	1484.691406
20383.537660	-1260.157167	1454.052734	1399.909668
20383.537660	-1260.157167	1452.984375	1591.168701
20383.537660	-1260.157167	1451.915039	1614.875366
20383.537660	-1260.157167	1450.845703	1518.223145
20383.537660	-1260.157167	1449.776367	1448.003052
20383.537660	-1260.157167	1448.707031	1728.266602
20383.537660	-1260.157167	1447.636719	1916.869751
20383.537660	-1260.157167	1446.567383	1820.525269
20383.537660	-1260.157167	1445.497070	1782.147095
20383.537660	-1260.157167	1444.425781	1963.605347
20383.537660	-1260.157167	1443.355469	2137.092529
20383.537660	-1260.157167	1442.285156	1892.095825
20383.537660	-1260.157167	1441.213867	2094.597900
20383.537660	-1260.157167	1440.142578	2233.291504
20383.537660	-1260.157167	1439.070313	2047.373169
20383.537660	-1260.157167	1437.999023	2221.508789
20383.537660	-1260.157167	1436.926758	2358.272705
20383.537660	-1260.157167	1435.854492	2291.741943
20383.537660	-1260.157167	1434.782227	2376.718506
20383.537660	-1260.157167	1433.709961	2038.565552
20383.537660	-1260.157167	1432.636719	2055.107178
20383.537660	-1260.157167	1431.563477	1806.537354
20383.537660	-1260.157167	1430.490234	2051.395996
20383.537660	-1260.157167	1429.416992	1763.272217
20383.537660	-1260.157167	1428.343750	1835.203613
20383.537660	-1260.157167	1427.269531	1802.106201
20383.537660	-1260.157167	1426.195313	1929.002686
20383.537660	-1260.157167	1425.121094	1731.240234
20383.537660	-1260.157167	1424.046875	1748.093750
20383.537660	-1260.157167	1422.971680	1848.255859
20383.537660	-1260.157167	1421.896484	1687.036987
20383.537660	-1260.157167	1420.821289	1837.341797
20383.537660	-1260.157167	1419.746094	1640.666748
20383.537660	-1260.157167	1418.669922	1588.835815
20383.537660	-1260.157167	1417.594727	1405.433838
20383.537660	-1260.157167	1416.518555	1397.871216
20383.537660	-1260.157167	1415.442383	1363.587280
20383.537660	-1260.157167	1414.365234	1423.978882
20383.537660	-1260.157167	1413.289063	1290.417725
20383.537660	-1260.157167	1412.211914	1309.122803
20383.537660	-1260.157167	1411.134766	962.306519
20383.537660	-1260.157167	1410.057617	1059.456421
20383.537660	-1260.157167	1408.979492	825.807617
20383.537660	-1260.157167	1407.902344	1084.169434
20383.537660	-1260.157167	1406.824219	1211.022217
20383.537660	-1260.157167	1405.746094	1145.757813
20383.537660	-1260.157167	1404.666992	1124.361572
20383.537660	-1260.157167	1403.588867	1029.978638
20383.537660	-1260.157167	1402.509766	871.749756
20383.537660	-1260.157167	1401.430664	1072.687988
20383.537660	-1260.157167	1400.351563	983.716492
20383.537660	-1260.157167	1399.271484	1050.358276
20383.537660	-1260.157167	1398.192383	1083.257446
20383.537660	-1260.157167	1397.112305	878.099609
20383.537660	-1260.157167	1396.031250	1113.783813
20383.537660	-1260.157167	1394.951172	975.729858
20383.537660	-1260.157167	1393.871094	978.341797
20383.537660	-1260.157167	1392.790039	934.556396
20383.537660	-1260.157167	1391.708984	980.804626
20383.537660	-1260.157167	1390.626953	929.722717
20383.537660	-1260.157167	1389.545898	831.833801
20383.537660	-1260.157167	1388.463867	740.523438
20383.537660	-1260.157167	1387.381836	933.979980
20383.537660	-1260.157167	1386.299805	914.199707
20383.537660	-1260.157167	1385.217773	728.322327
20383.537660	-1260.157167	1384.134766	774.924927
20383.537660	-1260.157167	1383.051758	879.113586
20383.537660	-1260.157167	1381.968750	991.595337
20383.537660	-1260.157167	1380.885742	785.462097
20383.537660	-1260.157167	1379.802734	694.089966
20383.537660	-1260.157167	1378.718750	852.836731
20383.537660	-1260.157167	1377.634766	755.426025
20383.537660	-1260.157167	1376.550781	840.285645
20383.537660	-1260.157167	1375.465820	822.074402
20383.537660	-1260.157167	1374.381836	730.730835
20383.537660	-1260.157167	1373.296875	733.431030
20383.537660	-1260.157167	1372.211914	975.330627
20383.537660	-1260.157167	1371.126953	720.238403
20383.537660	-1260.157167	1370.041016	727.420898
20383.537660	-1260.157167	1368.955078	1073.493652
20383.537660	-1260.157167	1367.869141	940.779846
20383.537660	-1260.157167	1366.783203	889.819641
20383.537660	-1260.157167	1365.697266	1016.588562
20383.537660	-1260.157167	1364.610352	1055.932861
20383.537660	-1260.157167	1363.523438	1011.994690
20383.537660	-1260.157167	1362.436523	1125.548584
20383.537660	-1260.157167	1361.349609	1036.205933
20383.537660	-1260.157167	1360.261719	973.777954
20383.537660	-1260.157167	1359.174805	1189.010376
20383.537660	-1260.157167	1358.086914	1053.805908
20383.537660	-1260.157167	1356.998047	1118.157104
20383.537660	-1260.157167	1355.910156	1284.820068
20383.537660	-1260.157167	1354.821289	1253.476196
20383.537660	-1260.157167	1353.732422	1168.194824
20383.537660	-1260.157167	1352.643555	965.706604
20383.537660	-1260.157167	1351.554688	1036.828735
20383.537660	-1260.157167	1350.464844	865.490356
20383.537660	-1260.157167	1349.375000	1118.609985
20383.537660	-1260.157167	1348.285156	1211.998291
20383.537660	-1260.157167	1347.195313	1173.936523
20383.537660	-1260.157167	1346.105469	1439.832520
20383.537660	-1260.157167	1345.014648	1414.046631
20383.537660	-1260.157167	1343.923828	1218.552734
20383.537660	-1260.157167	1342.833008	1292.663208
20383.537660	-1260.157167	1341.741211	1245.083130
20383.537660	-1260.157167	1340.650391	1128.611328
20383.537660	-1260.157167	1339.558594	1152.172607
20383.537660	-1260.157167	1338.466797	1020.741455
20383.537660	-1260.157167	1337.374023	1078.090454
20383.537660	-1260.157167	1336.282227	1169.262207
20383.537660	-1260.157167	1335.189453	1126.400757
20383.537660	-1260.157167	1334.096680	886.855286
20383.537660	-1260.157167	1333.003906	938.911865
20383.537660	-1260.157167	1331.910156	833.247681
20383.537660	-1260.157167	1330.817383	985.027832
20383.537660	-1260.157167	1329.723633	788.960205
20383.537660	-1260.157167	1328.629883	771.974915
20383.537660	-1260.157167	1327.535156	746.835266
20383.537660	-1260.157167	1326.441406	780.895325
20383.537660	-1260.157167	1325.346680	694.893738
20383.537660	-1260.157167	1324.251953	664.852173
20383.537660	-1260.157167	1323.156250	720.106323
20383.537660	-1260.157167	1322.061523	524.058838
20383.537660	-1260.157167	1320.965820	703.586365
20383.537660	-1260.157167	1319.870117	748.477905
20383.537660	-1260.157167	1318.774414	628.687561
20383.537660	-1260.157167	1317.678711	622.537537
20383.537660	-1260.157167	1316.582031	710.860779
20383.537660	-1260.157167	1315.485352	558.361328
20383.537660	-1260.157167	1314.388672	827.914124
20383.537660	-1260.157167	1313.291016	755.950867
20383.537660	-1260.157167	1312.194336	635.416382
20383.537660	-1260.157167	1311.096680	564.490845
20383.537660	-1260.157167	1309.999023	680.399414
20383.537660	-1260.157167	1308.901367	561.581543
20383.537660	-1260.157167	1307.802734	598.892029
20383.537660	-1260.157167	1306.705078	574.652222
20383.537660	-1260.157167	1305.606445	546.386414
20383.537660	-1260.157167	1304.506836	588.031067
20383.537660	-1260.157167	1303.408203	433.625244
20383.537660	-1260.157167	1302.308594	612.476440
20383.537660	-1260.157167	1301.208984	618.165222
20383.537660	-1260.157167	1300.109375	693.038147
20383.537660	-1260.157167	1299.009766	686.912537
20383.537660	-1260.157167	1297.909180	678.483337
20383.537660	-1260.157167	1296.808594	586.568176
20383.537660	-1260.157167	1295.708008	702.605530
20383.537660	-1260.157167	1294.607422	624.893127
20383.537660	-1260.157167	1293.506836	634.950500
20383.537660	-1260.157167	1292.405273	645.065430
20383.537660	-1260.157167	1291.303711	640.881653
20383.537660	-1260.157167	1290.202148	593.586670
20383.537660	-1260.157167	1289.099609	480.343292
20383.537660	-1260.157167	1287.998047	616.666504
20383.537660	-1260.157167	1286.895508	612.712158
20383.537660	-1260.157167	1285.792969	545.189392
20383.537660	-1260.157167	1284.689453	593.174255
20383.537660	-1260.157167	1283.586914	532.970581
20383.537660	-1260.157167	1282.483398	506.338959
20383.537660	-1260.157167	1281.379883	495.199310
20383.537660	-1260.157167	1280.276367	365.465729
20383.537660	-1260.157167	1279.171875	308.475037
20383.537660	-1260.157167	1278.067383	209.147186
20383.537660	-1260.157167	1276.962891	51.518326
20383.537660	-1260.157167	1275.858398	112.355042
20383.537660	-1260.157167	1274.753906	121.670998
20383.537660	-1260.157167	1273.648438	145.953461
20383.537660	-1260.157167	1272.542969	146.391922
20383.537660	-1260.157167	1271.437500	60.919029
20383.537660	-1260.157167	1270.331055	20.320873
20383.537660	-1260.157167	1269.225586	36.416874
20383.537660	-1260.157167	1268.119141	0.110313
20383.537660	-1260.157167	1267.012695	5.699095
20383.537660	-1260.157167	1265.906250	26.292625
20383.537660	-1260.157167	1264.798828	110.365517
20383.537660	-1260.157167	1263.691406	142.821152
20383.537660	-1260.157167	1262.583984	-15.397068
20383.537660	-1260.157167	1261.476563	4.750949
20383.537660	-1260.157167	1260.368164	2.384349
20383.537660	-1260.157167	1259.260742	99.576523
20383.537660	-1260.157167	1258.152344	118.326462
20383.537660	-1260.157167	1257.043945	67.530754
20383.537660	-1260.157167	1255.934570	80.166954
20383.537660	-1260.157167	1254.825195	-141.608566
20383.537660	-1260.157167	1253.716797	17.831352
20383.537660	-1260.157167	1252.606445	-138.600418
20383.537660	-1260.157167	1251.497070	-60.775566
20383.537660	-1260.157167	1250.387695	-158.638397
20383.537660	-1260.157167	1249.277344	-123.785652
20383.537660	-1260.157167	1248.166992	-67.075478
20383.537660	-1260.157167	1247.055664	-78.386833
20383.537660	-1260.157167	1245.945313	-2.092298
20383.537660	-1260.157167	1244.833984	32.491482
20383.537660	-1260.157167	1243.722656	-38.121506
20383.537660	-1260.157167	1242.611328	-105.367638
20383.537660	-1260.157167	1241.499023	-154.004822
20383.537660	-1260.157167	1240.387695	-199.152527
20383.537660	-1260.157167	1239.275391	-13.433182
20383.537660	-1260.157167	1238.162109	16.900387
20383.537660	-1260.157167	1237.049805	-68.002579
20383.537660	-1260.157167	1235.936523	-19.669899
20383.537660	-1260.157167	1234.823242	-105.022934
20383.537660	-1260.157167	1233.709961	-129.143509
20383.537660	-1260.157167	1232.596680	-92.379082
20383.537660	-1260.157167	1231.482422	-193.807037
20383.537660	-1260.157167	1230.369141	-61.888176
20383.537660	-1260.157167	1229.253906	-45.438171
20383.537660	-1260.157167	1228.139648	-89.437759
20383.537660	-1260.157167	1227.025391	83.439980
20383.537660	-1260.157167	1225.910156	-13.242809
20383.537660	-1260.157167	1224.794922	104.124054
20383.537660	-1260.157167	1223.679688	66.726379
20383.537660	-1260.157167	1222.563477	92.430954
20383.537660	-1260.157167	1221.447266	-6.955659
20383.537660	-1260.157167	1220.331055	13.384211
20383.537660	-1260.157167	1219.214844	-5.193669
20383.537660	-1260.157167	1218.098633	-99.387238
20383.537660	-1260.157167	1216.981445	-131.733154
20383.537660	-1260.157167	1215.864258	-15.871911
20383.537660	-1260.157167	1214.747070	129.814972
20383.537660	-1260.157167	1213.629883	130.129578
20383.537660	-1260.157167	1212.511719	6.510743
20383.537660	-1260.157167	1211.393555	202.285904
20383.537660	-1260.157167	1210.275391	243.805984
20383.537660	-1260.157167	1209.157227	184.714935
20383.537660	-1260.157167	1208.038086	302.552032
20383.537660	-1260.157167	1206.918945	209.973984
20383.537660	-1260.157167	1205.799805	228.301498
20383.537660	-1260.157167	1204.680664	366.893372
20383.537660	-1260.157167	1203.560547	312.841553
20383.537660	-1260.157167	1202.441406	465.341278
20383.537660	-1260.157167	1201.321289	285.485168
20383.537660	-1260.157167	1200.200195	277.891693
20383.537660	-1260.157167	1199.080078	214.378479
20383.537660	-1260.157167	1197.958984	460.401154
20383.537660	-1260.157167	1196.837891	437.213562
20383.537660	-1260.157167	1195.716797	317.823975
20383.537660	-1260.157167	1194.594727	331.552521
20383.537660	-1260.157167	1193.473633	224.397018
20383.537660	-1260.157167	1192.351563	358.835175
20383.537660	-1260.157167	1191.229492	299.019501
20383.537660	-1260.157167	1190.106445	247.543411
20383.537660	-1260.157167	1188.984375	327.451050
20383.537660	-1260.157167	1187.861328	178.714874
20383.537660	-1260.157167	1186.738281	193.911453
20383.537660	-1260.157167	1185.614258	166.128204
20383.537660	-1260.157167	1184.491211	227.725067
20383.537660	-1260.157167	1183.367188	158.791397
20383.537660	-1260.157167	1182.243164	154.395157
20383.537660	-1260.157167	1181.119141	90.247864
20383.537660	-1260.157167	1179.994141	142.902588
20383.537660	-1260.157167	1178.869141	22.049559
20383.537660	-1260.157167	1177.744141	87.595619
20383.537660	-1260.157167	1176.619141	-51.971306
20383.537660	-1260.157167	1175.493164	-135.023102
20383.537660	-1260.157167	1174.368164	-96.488953
20383.537660	-1260.157167	1173.242188	36.856419
20383.537660	-1260.157167	1172.115234	-62.102680
20383.537660	-1260.157167	1170.989258	-13.841991
20383.537660	-1260.157167	1169.862305	110.130104
20383.537660	-1260.157167	1168.735352	-25.782780
20383.537660	-1260.157167	1167.608398	-38.480335
20383.537660	-1260.157167	1166.481445	-119.375931
20383.537660	-1260.157167	1165.353516	-41.076210
20383.537660	-1260.157167	1164.225586	-158.094299
20383.537660	-1260.157167	1163.097656	-160.090607
20383.537660	-1260.157167	1161.968750	21.250933
20383.537660	-1260.157167	1160.840820	-12.236772
20383.537660	-1260.157167	1159.711914	-18.549292
20383.537660	-1260.157167	1158.583008	-1.002189
20383.537660	-1260.157167	1157.453125	-152.836197
20383.537660	-1260.157167	1156.324219	-32.560749
20383.537660	-1260.157167	1155.194336	95.066490
20383.537660	-1260.157167	1154.064453	-1.844985
20383.537660	-1260.157167	1152.933594	-33.382778
20383.537660	-1260.157167	1151.803711	57.720520
20383.537660	-1260.157167	1150.672852	27.704889
20383.537660	-1260.157167	1149.541992	182.078506
20383.537660	-1260.157167	1148.411133	125.612724
20383.537660	-1260.157167	1147.279297	121.691399
20383.537660	-1260.157167	1146.147461	125.352180
20383.537660	-1260.157167	1145.015625	-69.947014
20383.537660	-1260.157167	1143.883789	43.209713
20383.537660	-1260.157167	1142.750977	57.649399
20383.537660	-1260.157167	1141.619141	135.955948
20383.537660	-1260.157167	1140.486328	40.734623
20383.537660	-1260.157167	1139.352539	-95.676895
20383.537660	-1260.157167	1138.219727	102.719704
20383.537660	-1260.157167	1137.085938	6.095797
20383.537660	-1260.157167	1135.952148	157.093140
20383.537660	-1260.157167	1134.818359	-12.575396
20383.537660	-1260.157167	1133.683594	132.005692
20383.537660	-1260.157167	1132.549805	181.145874
20383.537660	-1260.157167	1131.415039	277.398834
20383.537660	-1260.157167	1130.279297	313.439209
20383.537660	-1260.157167	1129.144531	448.729156
20383.537660	-1260.157167	1128.008789	585.704895
20383.537660	-1260.157167	1126.873047	347.003754
20383.537660	-1260.157167	1125.737305	354.856262
20383.537660	-1260.157167	1124.601563	298.171661
20383.537660	-1260.157167	1123.464844	345.678497
20383.537660	-1260.157167	1122.328125	393.210693
20383.537660	-1260.157167	1121.191406	343.115967
20383.537660	-1260.157167	1120.054688	234.151260
20383.537660	-1260.157167	1118.916992	505.527344
20383.537660	-1260.157167	1117.779297	365.237579
20383.537660	-1260.157167	1116.641602	518.626831
20383.537660	-1260.157167	1115.503906	369.861145
20383.537660	-1260.157167	1114.365234	403.163879
20383.537660	-1260.157167	1113.226563	449.507172
20383.537660	-1260.157167	1112.087891	412.238770
20383.537660	-1260.157167	1110.949219	418.179138
20383.537660	-1260.157167	1109.809570	437.322906
20383.537660	-1260.157167	1108.669922	339.490051
20383.537660	-1260.157167	1107.530273	442.492310
20383.537660	-1260.157167	1106.390625	244.001678
20383.537660	-1260.157167	1105.250000	495.913971
20383.537660	-1260.157167	1104.109375	442.028931
20383.537660	-1260.157167	1102.968750	470.573334
20383.537660	-1260.157167	1101.828125	416.707520
20383.537660	-1260.157167	1100.686523	456.902283
20383.537660	-1260.157167	1099.544922	389.568970
20383.537660	-1260.157167	1098.403320	401.660919
20383.537660	-1260.157167	1097.261719	363.968384
20383.537660	-1260.157167	1096.120117	359.646881
20383.537660	-1260.157167	1094.977539	437.977509
20383.537660	-1260.157167	1093.834961	329.146332
20383.537660	-1260.157167	1092.691406	163.868927
20383.537660	-1260.157167	1091.548828	257.457977
20383.537660	-1260.157167	1090.405273	322.048523
20383.537660	-1260.157167	1089.261719	318.022095
20383.537660	-1260.157167	1088.118164	180.003052
20383.537660	-1260.157167	1086.973633	238.975281
20383.537660	-1260.157167	1085.829102	295.029541
20383.537660	-1260.157167	1084.684570	265.279449
20383.537660	-1260.157167	1083.540039	261.235992
20383.537660	-1260.157167	1082.395508	115.320404
20383.537660	-1260.157167	1081.250000	217.843536
20383.537660	-1260.157167	1080.104492	318.701080
20383.537660	-1260.157167	1078.958984	201.044785
20383.537660	-1260.157167	1077.812500	409.058380
20383.537660	-1260.157167	1076.666016	281.606506
20383.537660	-1260.157167	1075.519531	83.326256
20383.537660	-1260.157167	1074.373047	381.485504
20383.537660	-1260.157167	1073.226563	367.603210
20383.537660	-1260.157167	1072.079102	228.566971
20383.537660	-1260.157167	1070.931641	300.772980
20383.537660	-1260.157167	1069.784180	380.754822
20383.537660	-1260.157167	1068.635742	381.038666
20383.537660	-1260.157167	1067.487305	224.737656
20383.537660	-1260.157167	1066.338867	81.758408
20383.537660	-1260.157167	1065.190430	253.038818
20383.537660	-1260.157167	1064.041992	306.226715
20383.537660	-1260.157167	1062.892578	278.244598
20383.537660	-1260.157167	1061.743164	266.918732
20383.537660	-1260.157167	1060.593750	296.486816
20383.537660	-1260.157167	1059.443359	377.588043
20383.537660	-1260.157167	1058.292969	172.755783
20383.537660	-1260.157167	1057.142578	263.880157
20383.537660	-1260.157167	1055.992188	220.036789
20383.537660	-1260.157167	1054.841797	235.795395
20383.537660	-1260.157167	1053.690430	457.570343
20383.537660	-1260.157167	1052.539063	279.118958
20383.537660	-1260.157167	1051.387695	146.450470
20383.537660	-1260.157167	1050.235352	351.092377
20383.537660	-1260.157167	1049.083984	222.459686
20383.537660	-1260.157167	1047.931641	399.432159
20383.537660	-1260.157167	1046.778320	284.393890
20383.537660	-1260.157167	1045.625977	-42.358047
20383.537660	-1260.157167	1044.472656	102.355705
20383.537660	-1260.157167	1043.319336	100.023285
20383.537660	-1260.157167	1042.166016	184.399063
20383.537660	-1260.157167	1041.012695	361.729584
20383.537660	-1260.157167	1039.858398	198.751022
20383.537660	-1260.157167	1038.704102	121.452682
20383.537660	-1260.157167	1037.549805	39.602604
20383.537660	-1260.157167	1036.394531	160.462250
20383.537660	-1260.157167	1035.239258	208.189987
20383.537660	-1260.157167	1034.083984	214.985504
20383.537660	-1260.157167	1032.928711	34.774078
20383.537660	-1260.157167	1031.773438	3.088426
20383.537660	-1260.157167	1030.617188	173.084381
20383.537660	-1260.157167	1029.460938	125.500557
20383.537660	-1260.157167	1028.304688	-118.441849
20383.537660	-1260.157167	1027.147461	163.981262
20383.537660	-1260.157167	1025.991211	100.223511
20383.537660	-1260.157167	1024.833984	25.025545
20383.537660	-1260.157167	1023.675781	225.833084
20383.537660	-1260.157167	1022.518555	94.629242
20383.537660	-1260.157167	1021.360352	127.878105
20383.537660	-1260.157167	1020.202148	40.060780
20383.537660	-1260.157167	1019.043945	82.999031
20383.537660	-1260.157167	1017.884766	-13.573503
20383.537660	-1260.157167	1016.726563	45.121532
20383.537660	-1260.157167	1015.567383	139.558670
20383.537660	-1260.157167	1014.407227	82.084015
20383.537660	-1260.157167	1013.248047	-112.439896
20383.537660	-1260.157167	1012.087891	122.240593
20383.537660	-1260.157167	1010.927734	140.679077
20383.537660	-1260.157167	1009.767578	101.967850
20383.537660	-1260.157167	1008.606445	-0.271013
20383.537660	-1260.157167	1007.446289	-149.381729
20383.537660	-1260.157167	1006.285156	-47.616802
20383.537660	-1260.157167	1005.123047	104.464645
20383.537660	-1260.157167	1003.961914	-66.792992
20383.537660	-1260.157167	1002.799805	-38.586685
20383.537660	-1260.157167	1001.637695	172.695007
20383.537660	-1260.157167	1000.475586	83.625809
20383.537660	-1260.157167	999.312500	59.473106
20383.537660	-1260.157167	998.149414	207.029068
20383.537660	-1260.157167	996.986328	-98.584717
20383.537660	-1260.157167	995.823242	14.580491
20383.537660	-1260.157167	994.659180	85.549782
20383.537660	-1260.157167	993.496094	-27.449202
20383.537660	-1260.157167	992.332031	-53.621674
20383.537660	-1260.157167	991.166992	-22.021894
20383.537660	-1260.157167	990.002930	38.429462
20383.537660	-1260.157167	988.837891	-118.093063
20383.537660	-1260.157167	987.672852	-19.821533
20383.537660	-1260.157167	986.506836	81.327599
20383.537660	-1260.157167	985.341797	57.987507
20383.537660	-1260.157167	984.175781	91.567924
20383.537660	-1260.157167	983.009766	57.359333
20383.537660	-1260.157167	981.843750	245.543839
20383.537660	-1260.157167	980.676758	218.240036
20383.537660	-1260.157167	979.509766	-70.457832
20383.537660	-1260.157167	978.342773	-26.257315
20383.537660	-1260.157167	977.175781	65.262947
20383.537660	-1260.157167	976.007813	102.717575
20383.537660	-1260.157167	974.839844	83.481133
20383.537660	-1260.157167	973.671875	95.497421
20383.537660	-1260.157167	972.503906	59.938789
20383.537660	-1260.157167	971.334961	47.297699
20383.537660	-1260.157167	970.166016	-50.019989
20383.537660	-1260.157167	968.997070	-75.544098
20383.537660	-1260.157167	967.828125	10.130108
20383.537660	-1260.157167	966.658203	-56.512775
20383.537660	-1260.157167	965.488281	-182.429153
20383.537660	-1260.157167	964.318359	23.551331
20383.537660	-1260.157167	963.148438	61.100979
20383.537660	-1260.157167	961.977539	71.517799
20383.537660	-1260.157167	960.806641	-55.099884
20383.537660	-1260.157167	959.635742	173.027634
20383.537660	-1260.157167	958.463867	3.584075
20383.537660	-1260.157167	957.292969	65.784286
20383.537660	-1260.157167	956.121094	14.449366
20383.537660	-1260.157167	954.948242	-170.443756
20383.537660	-1260.157167	953.776367	-0.621583
20383.537660	-1260.157167	952.603516	-50.395901
20383.537660	-1260.157167	951.430664	129.610947
20383.537660	-1260.157167	950.257813	164.510681
20383.537660	-1260.157167	949.084961	216.612259
20383.537660	-1260.157167	947.911133	30.162769
20383.537660	-1260.157167	946.737305	138.686356
20383.537660	-1260.157167	945.563477	200.835739
20383.537660	-1260.157167	944.388672	44.319870
20383.537660	-1260.157167	943.213867	285.447083
20383.537660	-1260.157167	942.039063	423.969696
20383.537660	-1260.157167	940.864258	361.641968
20383.537660	-1260.157167	939.688477	525.994019
20383.537660	-1260.157167	938.513672	468.574982
20383.537660	-1260.157167	937.337891	642.882324
20383.537660	-1260.157167	936.161133	544.752258
20383.537660	-1260.157167	934.985352	444.350067
20383.537660	-1260.157167	933.808594	455.675201
20383.537660	-1260.157167	932.631836	429.019379
20383.537660	-1260.157167	931.454102	402.189117
20383.537660	-1260.157167	930.277344	253.278366
20383.537660	-1260.157167	929.099609	419.819702
20383.537660	-1260.157167	927.921875	298.926208
20383.537660	-1260.157167	926.743164	315.361298
20383.537660	-1260.157167	925.565430	247.890869
20383.537660	-1260.157167	924.386719	444.858002
20383.537660	-1260.157167	923.208008	250.265320
20383.537660	-1260.157167	922.028320	228.569702
20383.537660	-1260.157167	920.849609	148.424622
20383.537660	-1260.157167	919.669922	151.410446
20383.537660	-1260.157167	919.474609	180.589737
20383.537660	-1260.157167	918.309570	105.521553
20383.537660	-1260.157167	917.143555	88.896324
20383.537660	-1260.157167	915.977539	112.904167
20383.537660	-1260.157167	914.810547	27.745028
20383.537660	-1260.157167	913.644531	122.821388
20383.537660	-1260.157167	912.477539	-30.817671
20383.537660	-1260.157167	911.310547	51.550167
20383.537660	-1260.157167	910.143555	-3.086630
20383.537660	-1260.157167	908.975586	-154.066254
20383.537660	-1260.157167	907.807617	-26.079462
20383.537660	-1260.157167	906.639648	-149.105606
20383.537660	-1260.157167	905.471680	-64.254875
20383.537660	-1260.157167	904.303711	73.775604
20383.537660	-1260.157167	903.134766	-82.123856
20383.537660	-1260.157167	901.965820	-53.055202
20383.537660	-1260.157167	900.796875	-112.629639
20383.537660	-1260.157167	899.626953	12.651530
20383.537660	-1260.157167	898.457031	-102.595901
20383.537660	-1260.157167	897.287109	-78.597404
20383.537660	-1260.157167	896.117188	-3.999368
20383.537660	-1260.157167	894.947266	123.696350
20383.537660	-1260.157167	893.776367	61.648563
20383.537660	-1260.157167	892.605469	-18.073835
20383.537660	-1260.157167	891.434570	-148.325272
20383.537660	-1260.157167	890.262695	14.700537
20383.537660	-1260.157167	889.091797	-110.444702
20383.537660	-1260.157167	887.919922	17.138573
20383.537660	-1260.157167	886.748047	-19.530592
20383.537660	-1260.157167	885.575195	-10.717242
20383.537660	-1260.157167	884.403320	-100.388252
20383.537660	-1260.157167	883.230469	-187.491730
20383.537660	-1260.157167	882.057617	-123.109245
20383.537660	-1260.157167	880.883789	80.051743
20383.537660	-1260.157167	879.710938	-9.548925
20383.537660	-1260.157167	878.537109	-25.953112
20383.537660	-1260.157167	877.362305	-54.954769
20383.537660	-1260.157167	876.188477	-51.164402
20383.537660	-1260.157167	875.013672	-75.100449
20383.537660	-1260.157167	873.839844	-20.891024
20383.537660	-1260.157167	872.664063	-150.655563
20383.537660	-1260.157167	871.489258	-28.418253
20383.537660	-1260.157167	870.313477	45.914745
20383.537660	-1260.157167	869.138672	21.997511
20383.537660	-1260.157167	867.962891	-19.530207
20383.537660	-1260.157167	866.786133	120.219223
20383.537660	-1260.157167	865.610352	23.321709
20383.537660	-1260.157167	864.433594	-76.047844
20383.537660	-1260.157167	863.256836	116.468285
20383.537660	-1260.157167	862.079102	303.880341
20383.537660	-1260.157167	860.902344	-6.726022
20383.537660	-1260.157167	859.724609	47.378754
20383.537660	-1260.157167	858.546875	78.838493
20383.537660	-1260.157167	857.368164	198.256210
20383.537660	-1260.157167	856.190430	11.063191
20383.537660	-1260.157167	855.011719	-47.922134
20383.537660	-1260.157167	853.833008	-126.976868
20383.537660	-1260.157167	852.654297	-40.255466
20383.537660	-1260.157167	851.474609	174.481750
20383.537660	-1260.157167	850.294922	236.008453
20383.537660	-1260.157167	849.115234	104.263916
20383.537660	-1260.157167	847.935547	246.075104
20383.537660	-1260.157167	846.754883	59.195335
20383.537660	-1260.157167	845.575195	2.814660
20383.537660	-1260.157167	844.393555	9.152414
20383.537660	-1260.157167	843.212891	-129.928146
20383.537660	-1260.157167	842.032227	21.814569
20383.537660	-1260.157167	840.850586	-52.050716
20383.537660	-1260.157167	839.668945	26.952723
20383.537660	-1260.157167	838.486328	-91.973587
20383.537660	-1260.157167	837.304688	-265.955078
20383.537660	-1260.157167	836.122070	-144.388306
20383.537660	-1260.157167	834.939453	-77.951813
20383.537660	-1260.157167	833.756836	-66.609741
20383.537660	-1260.157167	832.573242	-52.768993
20383.537660	-1260.157167	831.389648	-78.969490
20383.537660	-1260.157167	830.206055	49.929127
20383.537660	-1260.157167	829.022461	-108.836121
20383.537660	-1260.157167	827.838867	10.005964
20383.537660	-1260.157167	826.654297	-173.688873
20383.537660	-1260.157167	825.469727	-99.875618
20383.537660	-1260.157167	824.284180	-23.595987
20383.537660	-1260.157167	823.099609	-2.318206
20383.537660	-1260.157167	821.914063	-138.416489
20383.537660	-1260.157167	820.728516	-62.190529
20383.537660	-1260.157167	819.542969	61.437473
20383.537660	-1260.157167	818.356445	-102.062561
20383.537660	-1260.157167	817.169922	-15.923918
20383.537660	-1260.157167	815.983398	-29.637175
20383.537660	-1260.157167	814.796875	-73.289589
20383.537660	-1260.157167	813.609375	-37.113422
20383.537660	-1260.157167	812.422852	11.507141
20383.537660	-1260.157167	811.235352	12.730948
20383.537660	-1260.157167	810.046875	41.367184
20383.537660	-1260.157167	808.859375	62.504364
20383.537660	-1260.157167	807.670898	31.301264
20383.537660	-1260.157167	806.482422	37.468948
20383.537660	-1260.157167	805.293945	56.077351
20383.537660	-1260.157167	804.104492	-49.836365
20383.537660	-1260.157167	802.915039	-193.060150
20383.537660	-1260.157167	801.725586	-40.035809
20383.537660	-1260.157167	800.536133	5.906193
20383.537660	-1260.157167	799.345703	-22.822037
20383.537660	-1260.157167	798.155273	3.175164
20383.537660	-1260.157167	796.964844	-0.695382
20383.537660	-1260.157167	795.774414	22.772947
20383.537660	-1260.157167	794.583008	-155.143539
20383.537660	-1260.157167	793.392578	-159.020203
20383.537660	-1260.157167	792.200195	132.805695
20383.537660	-1260.157167	791.008789	-15.253259
20383.537660	-1260.157167	789.816406	37.934036
20383.537660	-1260.157167	788.625000	28.996414
20383.537660	-1260.157167	787.432617	173.987747
20383.537660	-1260.157167	786.239258	11.089197
20383.537660	-1260.157167	785.046875	14.524411
20383.537660	-1260.157167	783.853516	67.568848
20383.537660	-1260.157167	782.660156	-3.467646
20383.537660	-1260.157167	781.465820	61.926407
20383.537660	-1260.157167	780.272461	119.834137
20383.537660	-1260.157167	779.078125	115.716415
20383.537660	-1260.157167	777.883789	-17.315092
20383.537660	-1260.157167	776.688477	-43.745079
20383.537660	-1260.157167	775.494141	31.402287
20383.537660	-1260.157167	774.298828	158.521332
20383.537660	-1260.157167	773.103516	-28.979342
20383.537660	-1260.157167	771.907227	65.866669
20383.537660	-1260.157167	770.711914	12.106615
20383.537660	-1260.157167	769.515625	0.425702
20383.537660	-1260.157167	768.318359	-63.240063
20383.537660	-1260.157167	767.122070	24.018023
20383.537660	-1260.157167	765.924805	128.533463
20383.537660	-1260.157167	764.727539	72.226723
20383.537660	-1260.157167	763.530273	-53.315769
20383.537660	-1260.157167	762.333008	-52.754608
20383.537660	-1260.157167	761.134766	165.281693
20383.537660	-1260.157167	759.936523	-61.592976
20383.537660	-1260.157167	758.738281	-21.580248
20383.537660	-1260.157167	757.540039	70.258881
20383.537660	-1260.157167	756.340820	-10.833095
20383.537660	-1260.157167	755.141602	29.060534
20383.537660	-1260.157167	753.942383	-37.236465
20383.537660	-1260.157167	752.742188	-2.346895
20383.537660	-1260.157167	751.541992	49.770046
20383.537660	-1260.157167	750.341797	163.508438
20383.537660	-1260.157167	749.141602	217.974289
20383.537660	-1260.157167	747.941406	200.873215
20383.537660	-1260.157167	746.740234	459.875244
20383.537660	-1260.157167	745.539063	482.106293
20383.537660	-1260.157167	744.337891	260.320801
20383.537660	-1260.157167	743.135742	393.393799
20383.537660	-1260.157167	741.933594	277.577271
20383.537660	-1260.157167	740.731445	166.700851
20383.537660	-1260.157167	739.529297	77.997520
20383.537660	-1260.157167	738.326172	31.146910
20383.537660	-1260.157167	737.124023	129.496475
20383.537660	-1260.157167	735.919922	-28.151447
20383.537660	-1260.157167	734.716797	107.001534
20383.537660	-1260.157167	733.513672	160.888947
20383.537660	-1260.157167	732.309570	182.746918
20383.537660	-1260.157167	731.105469	199.641174
20383.537660	-1260.157167	729.900391	209.116409
20383.537660	-1260.157167	728.696289	63.711918
20383.537660	-1260.157167	727.491211	-5.497219
20383.537660	-1260.157167	726.286133	166.037292
20383.537660	-1260.157167	725.080078	192.547516
20383.537660	-1260.157167	723.874023	118.324982
20383.537660	-1260.157167	722.668945	112.835175
20383.537660	-1260.157167	721.461914	45.941875
20383.537660	-1260.157167	720.255859	194.996399
20383.537660	-1260.157167	719.048828	174.648605
20383.537660	-1260.157167	717.841797	80.675560
20383.537660	-1260.157167	716.634766	263.837677
20383.537660	-1260.157167	715.427734	159.991028
20383.537660	-1260.157167	714.219727	389.553009
20383.537660	-1260.157167	713.011719	283.185608
20383.537660	-1260.157167	711.803711	115.555473
20383.537660	-1260.157167	710.594727	80.251778
20383.537660	-1260.157167	709.385742	22.872179
20383.537660	-1260.157167	708.176758	-49.223274
20383.537660	-1260.157167	706.967773	113.718063
20383.537660	-1260.157167	705.758789	97.846291
20383.537660	-1260.157167	704.548828	47.670334
20383.537660	-1260.157167	703.338867	51.301743
20383.537660	-1260.157167	702.127930	98.919296
20383.537660	-1260.157167	700.917969	102.443924
20383.537660	-1260.157167	699.707031	193.953140
20383.537660	-1260.157167	698.496094	275.596771
20383.537660	-1260.157167	697.285156	181.165604
20383.537660	-1260.157167	696.073242	145.378311
20383.537660	-1260.157167	694.861328	-44.372974
20383.537660	-1260.157167	693.649414	144.542404
20383.537660	-1260.157167	692.436523	115.966087
20383.537660	-1260.157167	691.224609	48.282551
20383.537660	-1260.157167	690.011719	380.946716
20383.537660	-1260.157167	688.798828	310.696655
20383.537660	-1260.157167	687.584961	362.438324
20383.537660	-1260.157167	686.372070	306.760651
20383.537660	-1260.157167	685.158203	473.023590
20383.537660	-1260.157167	683.943359	331.890900
20383.537660	-1260.157167	682.729492	441.899078
20383.537660	-1260.157167	681.514648	400.675415
20383.537660	-1260.157167	680.299805	447.154602
20383.537660	-1260.157167	679.084961	371.732056
20383.537660	-1260.157167	677.869141	410.787109
20383.537660	-1260.157167	676.653320	486.309357
20383.537660	-1260.157167	675.437500	515.481323
20383.537660	-1260.157167	674.221680	456.943634
20383.537660	-1260.157167	673.004883	310.751221
20383.537660	-1260.157167	671.789063	337.353516
20383.537660	-1260.157167	670.571289	351.726105
20383.537660	-1260.157167	669.354492	329.553528
20383.537660	-1260.157167	668.136719	482.443726
20383.537660	-1260.157167	666.919922	192.682404
20383.537660	-1260.157167	665.701172	313.829651
20383.537660	-1260.157167	664.483398	437.304962
20383.537660	-1260.157167	663.264648	307.958130
20383.537660	-1260.157167	662.045898	304.945404
20383.537660	-1260.157167	660.827148	396.612549
20383.537660	-1260.157167	659.608398	313.340485
20383.537660	-1260.157167	658.388672	421.857697
20383.537660	-1260.157167	657.168945	236.559860
20383.537660	-1260.157167	655.949219	114.388474
20383.537660	-1260.157167	654.728516	319.778992
20383.537660	-1260.157167	653.507813	296.998291
20383.537660	-1260.157167	652.287109	519.137390
20383.537660	-1260.157167	651.066406	423.476654
20383.537660	-1260.157167	649.844727	199.313766
20383.537660	-1260.157167	648.623047	350.887512
20383.537660	-1260.157167	647.401367	402.991058
20383.537660	-1260.157167	646.179688	428.370697
20383.537660	-1260.157167	644.957031	516.667725
20383.537660	-1260.157167	643.734375	520.114258
20383.537660	-1260.157167	642.511719	414.553345
20383.537660	-1260.157167	641.289063	381.609314
20383.537660	-1260.157167	640.065430	331.686920
20383.537660	-1260.157167	638.841797	501.931641
20383.537660	-1260.157167	637.618164	618.832092
20383.537660	-1260.157167	636.393555	365.571320
20383.537660	-1260.157167	635.168945	356.605499
20383.537660	-1260.157167	633.944336	531.340210
20383.537660	-1260.157167	632.719727	365.132294
20383.537660	-1260.157167	631.494141	382.610962
20383.537660	-1260.157167	630.269531	204.329300
20383.537660	-1260.157167	629.042969	390.832520
20383.537660	-1260.157167	627.817383	111.093758
20383.537660	-1260.157167	626.590820	191.203125
20383.537660	-1260.157167	625.365234	346.070435
20383.537660	-1260.157167	624.137695	276.360657
20383.537660	-1260.157167	622.911133	317.638214
20383.537660	-1260.157167	621.683594	366.088684
20383.537660	-1260.157167	620.456055	226.335785
20383.537660	-1260.157167	619.228516	45.601658
20383.537660	-1260.157167	618.000977	45.728603
20383.537660	-1260.157167	616.772461	60.273357
20383.537660	-1260.157167	615.543945	115.739700
20383.537660	-1260.157167	614.314453	115.719498
20383.537660	-1260.157167	613.085938	166.249344
20383.537660	-1260.157167	611.856445	137.235062
20383.537660	-1260.157167	610.626953	-120.562531
20383.537660	-1260.157167	609.397461	4.493831
20383.537660	-1260.157167	608.166992	74.095520
20383.537660	-1260.157167	606.936523	32.933147
20383.537660	-1260.157167	605.706055	162.570801
20383.537660	-1260.157167	604.474609	25.113831
20383.537660	-1260.157167	603.244141	265.247864
20383.537660	-1260.157167	602.012695	46.005291
20383.537660	-1260.157167	600.780273	-74.623100
20383.537660	-1260.157167	599.548828	-94.292328
20383.537660	-1260.157167	598.316406	75.834557
20383.537660	-1260.157167	597.083984	-11.194106
20383.537660	-1260.157167	595.851563	-74.200882
20383.537660	-1260.157167	594.618164	98.112831
20383.537660	-1260.157167	593.384766	23.038639
20383.537660	-1260.157167	592.151367	-164.847549
20383.537660	-1260.157167	590.917969	129.670776
20383.537660	-1260.157167	589.683594	37.749619
20383.537660	-1260.157167	588.449219	-121.326157
20383.537660	-1260.157167	587.214844	-189.229630
20383.537660	-1260.157167	585.979492	-127.656425
20383.537660	-1260.157167	584.745117	166.396317
20383.537660	-1260.157167	583.509766	-69.377510
20383.537660	-1260.157167	582.273438	59.142952
20383.537660	-1260.157167	581.038086	53.428452
20383.537660	-1260.157167	579.801758	71.641579
20383.537660	-1260.157167	578.565430	37.140671
20383.537660	-1260.157167	577.329102	110.369873
20383.537660	-1260.157167	576.091797	159.606125
20383.537660	-1260.157167	574.854492	72.392403
20383.537660	-1260.157167	573.617188	54.583023
20383.537660	-1260.157167	572.378906	161.147263
20383.537660	-1260.157167	571.141602	176.771027
20383.537660	-1260.157167	569.903320	-65.870636
20383.537660	-1260.157167	568.664063	52.548260
20383.537660	-1260.157167	567.425781	46.620903
20383.537660	-1260.157167	566.186523	-40.567539
20383.537660	-1260.157167	564.947266	-94.286469
20383.537660	-1260.157167	563.708008	238.948334
20383.537660	-1260.157167	562.467773	-32.147827
20383.537660	-1260.157167	561.227539	86.025795
20383.537660	-1260.157167	559.987305	251.878220
20383.537660	-1260.157167	558.747070	35.809681
20383.537660	-1260.157167	557.505859	-13.159873
20383.537660	-1260.157167	556.264648	-64.502907
20383.537660	-1260.157167	555.023438	-15.663924
20383.537660	-1260.157167	553.781250	-14.544862
20383.537660	-1260.157167	552.539063	48.549786
20383.537660	-1260.157167	551.296875	21.041708
20383.537660	-1260.157167	550.054688	-8.842729
20383.537660	-1260.157167	548.811523	159.018936
20383.537660	-1260.157167	547.569336	167.221008
20383.537660	-1260.157167	546.325195	-31.771088
20383.537660	-1260.157167	545.082031	76.457657
20383.537660	-1260.157167	543.837891	67.998024
20383.537660	-1260.157167	542.593750	47.642159
20383.537660	-1260.157167	541.349609	-55.982262
20383.537660	-1260.157167	540.105469	-62.027843
20383.537660	-1260.157167	538.860352	-79.964966
20383.537660	-1260.157167	537.615234	-90.757393
20383.537660	-1260.157167	536.369141	-58.753460
20383.537660	-1260.157167	535.124023	11.272855
20383.537660	-1260.157167	533.877930	-16.159000
20383.537660	-1260.157167	532.631836	-93.464043
20383.537660	-1260.157167	531.384766	-206.363678
20383.537660	-1260.157167	530.138672	-76.977699
20383.537660	-1260.157167	528.891602	-21.245663
20383.537660	-1260.157167	527.643555	-141.190430
20383.537660	-1260.157167	526.396484	-275.312744
20383.537660	-1260.157167	525.148438	-77.188889
20383.537660	-1260.157167	523.900391	-132.968445
20383.537660	-1260.157167	522.652344	-41.668507
20383.537660	-1260.157167	521.403320	97.023613
20383.537660	-1260.157167	520.154297	29.416250
20383.537660	-1260.157167	518.905273	-12.079053
20383.537660	-1260.157167	517.656250	55.459957
20383.537660	-1260.157167	516.406250	-2.587692
20383.537660	-1260.157167	515.156250	-25.068102
20383.537660	-1260.157167	513.906250	49.567848
20383.537660	-1260.157167	512.655273	-53.392662
20383.537660	-1260.157167	511.404297	-19.000937
20383.537660	-1260.157167	510.153320	-363.272400
20383.537660	-1260.157167	508.902344	-238.890488
20383.537660	-1260.157167	507.650391	-150.035873
20383.537660	-1260.157167	506.398438	-165.269806
20383.537660	-1260.157167	505.146484	-279.797333
20383.537660	-1260.157167	503.893555	-53.836266
20383.537660	-1260.157167	502.641602	-90.312225
20383.537660	-1260.157167	501.388672	41.015759
20383.537660	-1260.157167	500.134766	-97.035004
20383.537660	-1260.157167	498.881836	-36.596336
20383.537660	-1260.157167	497.627930	167.880264
20383.537660	-1260.157167	496.374023	6.321393
20383.537660	-1260.157167	495.119141	-6.445136
20383.537660	-1260.157167	493.865234	-16.830725
20383.537660	-1260.157167	492.610352	270.095856
20383.537660	-1260.157167	491.355469	52.083187
20383.537660	-1260.157167	490.099609	39.362282
20383.537660	-1260.157167	488.843750	85.607384
20383.537660	-1260.157167	487.587891	54.045448
20383.537660	-1260.157167	486.332031	161.567413
20383.537660	-1260.157167	485.075195	210.138443
20383.537660	-1260.157167	483.818359	-40.511799
20383.537660	-1260.157167	482.561523	-10.747441
20383.537660	-1260.157167	481.304688	-72.832069
20383.537660	-1260.157167	480.046875	74.656281
20383.537660	-1260.157167	478.789063	118.513390
20383.537660	-1260.157167	477.531250	-4.738408
20383.537660	-1260.157167	476.272461	107.352936
20383.537660	-1260.157167	475.013672	153.529266
20383.537660	-1260.157167	473.754883	-89.598434
20383.537660	-1260.157167	472.496094	-12.833307
20383.537660	-1260.157167	471.236328	49.786163
20383.537660	-1260.157167	469.976563	93.570839
20383.537660	-1260.157167	468.716797	26.887262
20383.537660	-1260.157167	467.456055	260.937897
20383.537660	-1260.157167	466.196289	252.949326
20383.537660	-1260.157167	464.935547	111.093643
20383.537660	-1260.157167	463.673828	39.716515
20383.537660	-1260.157167	462.413086	196.049164
20383.537660	-1260.157167	461.151367	209.137390
20383.537660	-1260.157167	459.889648	25.107813
20383.537660	-1260.157167	458.626953	333.752045
20383.537660	-1260.157167	457.364258	281.061737
20383.537660	-1260.157167	456.101563	132.228729
20383.537660	-1260.157167	454.838867	112.366570
20383.537660	-1260.157167	453.575195	97.163849
20383.537660	-1260.157167	452.312500	175.665726
20383.537660	-1260.157167	451.047852	237.688217
20383.537660	-1260.157167	449.784180	2.177860
20383.537660	-1260.157167	448.519531	249.123322
20383.537660	-1260.157167	447.254883	310.954071
20383.537660	-1260.157167	445.990234	136.290710
20383.537660	-1260.157167	444.725586	179.289902
20383.537660	-1260.157167	443.459961	257.303070
20383.537660	-1260.157167	442.194336	117.670464
20383.537660	-1260.157167	440.927734	55.206093
20383.537660	-1260.157167	439.662109	179.758377
20383.537660	-1260.157167	438.395508	77.419815
20383.537660	-1260.157167	437.127930	218.111694
20383.537660	-1260.157167	435.861328	73.583778
20383.537660	-1260.157167	434.593750	78.542023
20383.537660	-1260.157167	433.326172	6.327097
20383.537660	-1260.157167	432.058594	127.864807
20383.537660	-1260.157167	430.790039	13.440151
20383.537660	-1260.157167	429.521484	41.339848
20383.537660	-1260.157167	428.252930	52.777340
20383.537660	-1260.157167	426.984375	159.749115
20383.537660	-1260.157167	425.714844	89.262856
20383.537660	-1260.157167	424.445313	-2.313014
20383.537660	-1260.157167	423.174805	223.110672
20383.537660	-1260.157167	421.905273	98.627548
20383.537660	-1260.157167	420.634766	272.363800
20383.537660	-1260.157167	419.364258	89.359467
20383.537660	-1260.157167	418.092773	148.545334
20383.537660	-1260.157167	416.822266	170.274063
20383.537660	-1260.157167	415.550781	203.454346
20383.537660	-1260.157167	414.278320	220.132309
20383.537660	-1260.157167	413.006836	187.737030
20383.537660	-1260.157167	411.734375	143.513702
20383.537660	-1260.157167	410.461914	45.589851
20383.537660	-1260.157167	409.188477	-40.883423
20383.537660	-1260.157167	407.916016	142.230423
20383.537660	-1260.157167	406.642578	-0.485635
20383.537660	-1260.157167	405.368164	-48.080723
20383.537660	-1260.157167	404.094727	-28.501835
20383.537660	-1260.157167	402.820313	-4.551522
20383.537660	-1260.157167	401.545898	30.734388
20383.537660	-1260.157167	400.270508	-27.182360
20383.537660	-1260.157167	398.996094	-62.136707
20383.537660	-1260.157167	397.720703	-127.561668
20383.537660	-1260.157167	396.444336	-19.197506
20383.537660	-1260.157167	395.168945	130.576584
20383.537660	-1260.157167	393.892578	124.505150
20383.537660	-1260.157167	392.616211	150.567886
20383.537660	-1260.157167	391.339844	88.142433
20383.537660	-1260.157167	390.062500	-104.466667
20383.537660	-1260.157167	388.785156	340.085510
20383.537660	-1260.157167	387.507813	40.134846
20383.537660	-1260.157167	386.229492	55.015457
20383.537660	-1260.157167	384.951172	157.502991
20383.537660	-1260.157167	383.672852	18.655178
20383.537660	-1260.157167	382.394531	71.614426
20383.537660	-1260.157167	381.115234	269.929291
20383.537660	-1260.157167	379.835938	132.090378
20383.537660	-1260.157167	378.556641	204.402390
20383.537660	-1260.157167	377.277344	111.930435
20383.537660	-1260.157167	375.997070	153.127640
20383.537660	-1260.157167	374.716797	38.845276
20383.537660	-1260.157167	373.435547	243.111206
20383.537660	-1260.157167	372.155273	95.401489
20383.537660	-1260.157167	370.874023	60.406818
20383.537660	-1260.157167	369.591797	274.353241
20383.537660	-1260.157167	368.310547	275.100311
20383.537660	-1260.157167	367.028320	69.666153
20383.537660	-1260.157167	365.746094	-18.560196
20383.537660	-1260.157167	364.463867	47.260624
20383.537660	-1260.157167	363.180664	43.120914
20383.537660	-1260.157167	361.897461	-194.762711
20383.537660	-1260.157167	360.614258	-257.926941
20383.537660	-1260.157167	359.330078	-206.491501
20383.537660	-1260.157167	358.045898	67.845665
20383.537660	-1260.157167	356.761719	53.112236
20383.537660	-1260.157167	355.477539	-86.871475
20383.537660	-1260.157167	354.192383	127.256348
20383.537660	-1260.157167	352.907227	43.249706
20383.537660	-1260.157167	351.622070	-36.966740
20383.537660	-1260.157167	350.336914	86.937538
20383.537660	-1260.157167	349.050781	-8.864360
20383.537660	-1260.157167	347.764648	154.571991
20383.537660	-1260.157167	346.477539	139.758301
20383.537660	-1260.157167	345.191406	-20.947397
20383.537660	-1260.157167	343.904297	100.350533
20383.537660	-1260.157167	342.616211	-60.036686
20383.537660	-1260.157167	341.329102	38.467999
20383.537660	-1260.157167	340.041016	200.204590
20383.537660	-1260.157167	338.752930	78.076668
20383.537660	-1260.157167	337.463867	-120.977943
20383.537660	-1260.157167	336.175781	97.070763
20383.537660	-1260.157167	334.886719	1.443141
20383.537660	-1260.157167	333.596680	56.187199
20383.537660	-1260.157167	332.307617	-156.608490
20383.537660	-1260.157167	331.017578	-53.835781
20383.537660	-1260.157167	329.727539	-243.843262
20383.537660	-1260.157167	328.436523	-77.192024
20383.537660	-1260.157167	327.146484	28.440699
20383.537660	-1260.157167	325.855469	-89.844620
20383.537660	-1260.157167	324.563477	-49.020359
20383.537660	-1260.157167	323.272461	-195.293274
20383.537660	-1260.157167	321.980469	-221.541367
20383.537660	-1260.157167	320.688477	-24.722065
20383.537660	-1260.157167	319.395508	21.524141
20383.537660	-1260.157167	318.103516	-231.522247
20383.537660	-1260.157167	316.810547	-151.781586
20383.537660	-1260.157167	315.516602	-217.993057
20383.537660	-1260.157167	314.223633	48.380337
20383.537660	-1260.157167	312.929688	-46.398289
20383.537660	-1260.157167	311.635742	85.909393
20383.537660	-1260.157167	310.340820	53.918865
20383.537660	-1260.157167	309.045898	155.048538
20383.537660	-1260.157167	307.750977	85.082901
20383.537660	-1260.157167	306.456055	81.828369
20383.537660	-1260.157167	305.160156	275.410095
20383.537660	-1260.157167	303.865234	336.752014
20383.537660	-1260.157167	302.568359	409.633759
20383.537660	-1260.157167	301.272461	574.125549
20383.537660	-1260.157167	299.975586	558.276184
20383.537660	-1260.157167	298.678711	615.625793
