#X		#Y		#Wave		#Intensity
20396.185957	-1219.770667	1999.980469	-63.181862
20396.185957	-1219.770667	1999.016602	-55.371815
20396.185957	-1219.770667	1998.052734	3.058307
20396.185957	-1219.770667	1997.087891	-174.090469
20396.185957	-1219.770667	1996.123047	45.119061
20396.185957	-1219.770667	1995.158203	43.645416
20396.185957	-1219.770667	1994.193359	113.871834
20396.185957	-1219.770667	1993.228516	77.468590
20396.185957	-1219.770667	1992.262695	167.228882
20396.185957	-1219.770667	1991.297852	39.005959
20396.185957	-1219.770667	1990.332031	-84.330643
20396.185957	-1219.770667	1989.366211	168.387192
20396.185957	-1219.770667	1988.399414	20.119928
20396.185957	-1219.770667	1987.433594	17.742897
20396.185957	-1219.770667	1986.466797	-115.804184
20396.185957	-1219.770667	1985.500977	-41.698914
20396.185957	-1219.770667	1984.534180	148.479340
20396.185957	-1219.770667	1983.567383	56.723137
20396.185957	-1219.770667	1982.599609	78.592583
20396.185957	-1219.770667	1981.632813	-42.936123
20396.185957	-1219.770667	1980.665039	-154.618607
20396.185957	-1219.770667	1979.697266	-189.771744
20396.185957	-1219.770667	1978.729492	113.321121
20396.185957	-1219.770667	1977.761719	124.893211
20396.185957	-1219.770667	1976.792969	74.679573
20396.185957	-1219.770667	1975.825195	71.308830
20396.185957	-1219.770667	1974.856445	117.226257
20396.185957	-1219.770667	1973.887695	-115.719887
20396.185957	-1219.770667	1972.918945	38.625675
20396.185957	-1219.770667	1971.949219	-6.905913
20396.185957	-1219.770667	1970.980469	-42.612926
20396.185957	-1219.770667	1970.010742	-41.380566
20396.185957	-1219.770667	1969.041016	97.830376
20396.185957	-1219.770667	1968.071289	113.722275
20396.185957	-1219.770667	1967.101563	43.324596
20396.185957	-1219.770667	1966.130859	-14.774329
20396.185957	-1219.770667	1965.161133	136.460022
20396.185957	-1219.770667	1964.190430	63.506809
20396.185957	-1219.770667	1963.219727	106.259209
20396.185957	-1219.770667	1962.249023	38.185402
20396.185957	-1219.770667	1961.277344	68.548088
20396.185957	-1219.770667	1960.306641	49.652443
20396.185957	-1219.770667	1959.334961	79.935974
20396.185957	-1219.770667	1958.363281	144.615555
20396.185957	-1219.770667	1957.391602	24.791924
20396.185957	-1219.770667	1956.419922	-134.355591
20396.185957	-1219.770667	1955.447266	-8.293750
20396.185957	-1219.770667	1954.474609	-123.183189
20396.185957	-1219.770667	1953.501953	292.769043
20396.185957	-1219.770667	1952.529297	62.341198
20396.185957	-1219.770667	1951.556641	80.095184
20396.185957	-1219.770667	1950.583984	-37.263573
20396.185957	-1219.770667	1949.610352	108.160576
20396.185957	-1219.770667	1948.636719	-41.111496
20396.185957	-1219.770667	1947.663086	-20.964334
20396.185957	-1219.770667	1946.689453	-72.013489
20396.185957	-1219.770667	1945.715820	36.443810
20396.185957	-1219.770667	1944.741211	-80.864044
20396.185957	-1219.770667	1943.767578	47.156193
20396.185957	-1219.770667	1942.792969	54.946480
20396.185957	-1219.770667	1941.818359	82.341484
20396.185957	-1219.770667	1940.842773	58.234947
20396.185957	-1219.770667	1939.868164	-0.184759
20396.185957	-1219.770667	1938.892578	81.098335
20396.185957	-1219.770667	1937.916992	-116.977211
20396.185957	-1219.770667	1936.941406	62.277363
20396.185957	-1219.770667	1935.965820	99.402344
20396.185957	-1219.770667	1934.990234	134.061523
20396.185957	-1219.770667	1934.013672	-49.199783
20396.185957	-1219.770667	1933.037109	-19.426567
20396.185957	-1219.770667	1932.060547	-192.804749
20396.185957	-1219.770667	1931.083984	-11.302990
20396.185957	-1219.770667	1930.107422	60.036274
20396.185957	-1219.770667	1929.129883	33.505276
20396.185957	-1219.770667	1928.153320	161.060593
20396.185957	-1219.770667	1927.175781	-26.859375
20396.185957	-1219.770667	1926.198242	-28.908247
20396.185957	-1219.770667	1925.219727	-11.400834
20396.185957	-1219.770667	1924.242188	-89.205399
20396.185957	-1219.770667	1923.263672	-113.224953
20396.185957	-1219.770667	1922.285156	153.473190
20396.185957	-1219.770667	1921.306641	39.053871
20396.185957	-1219.770667	1920.328125	-82.645279
20396.185957	-1219.770667	1919.349609	71.598137
20396.185957	-1219.770667	1918.370117	-18.320400
20396.185957	-1219.770667	1917.391602	55.321903
20396.185957	-1219.770667	1916.412109	-24.790691
20396.185957	-1219.770667	1915.431641	-112.188316
20396.185957	-1219.770667	1914.452148	-143.445160
20396.185957	-1219.770667	1913.472656	64.317070
20396.185957	-1219.770667	1912.492188	13.541080
20396.185957	-1219.770667	1911.511719	-103.034126
20396.185957	-1219.770667	1910.531250	-70.877289
20396.185957	-1219.770667	1909.550781	7.575052
20396.185957	-1219.770667	1908.569336	76.255775
20396.185957	-1219.770667	1907.588867	81.578766
20396.185957	-1219.770667	1906.607422	-78.718132
20396.185957	-1219.770667	1905.625977	-14.916096
20396.185957	-1219.770667	1904.644531	-109.389267
20396.185957	-1219.770667	1903.662109	151.577393
20396.185957	-1219.770667	1902.680664	139.866348
20396.185957	-1219.770667	1901.698242	-51.904697
20396.185957	-1219.770667	1900.715820	104.302765
20396.185957	-1219.770667	1899.733398	65.861092
20396.185957	-1219.770667	1898.750000	178.218643
20396.185957	-1219.770667	1897.767578	-132.546921
20396.185957	-1219.770667	1896.784180	-8.032817
20396.185957	-1219.770667	1895.800781	-95.026299
20396.185957	-1219.770667	1894.817383	150.946945
20396.185957	-1219.770667	1893.833984	49.382195
20396.185957	-1219.770667	1892.850586	59.602863
20396.185957	-1219.770667	1891.866211	94.108002
20396.185957	-1219.770667	1890.881836	-70.522552
20396.185957	-1219.770667	1889.897461	46.543831
20396.185957	-1219.770667	1888.913086	-84.031609
20396.185957	-1219.770667	1887.927734	-122.333855
20396.185957	-1219.770667	1886.943359	-82.973450
20396.185957	-1219.770667	1885.958008	-53.333366
20396.185957	-1219.770667	1884.972656	-67.367058
20396.185957	-1219.770667	1883.987305	32.585182
20396.185957	-1219.770667	1883.001953	64.605904
20396.185957	-1219.770667	1882.015625	-87.632141
20396.185957	-1219.770667	1881.029297	-2.284598
20396.185957	-1219.770667	1880.042969	167.844330
20396.185957	-1219.770667	1879.056641	37.466534
20396.185957	-1219.770667	1878.070313	33.099575
20396.185957	-1219.770667	1877.083984	26.306402
20396.185957	-1219.770667	1876.096680	174.487717
20396.185957	-1219.770667	1875.109375	53.867222
20396.185957	-1219.770667	1874.122070	47.053749
20396.185957	-1219.770667	1873.134766	59.597031
20396.185957	-1219.770667	1872.146484	-266.634033
20396.185957	-1219.770667	1871.159180	-58.093311
20396.185957	-1219.770667	1870.170898	-50.402321
20396.185957	-1219.770667	1869.182617	-33.050747
20396.185957	-1219.770667	1868.194336	73.745979
20396.185957	-1219.770667	1867.205078	25.774143
20396.185957	-1219.770667	1866.216797	-89.866333
20396.185957	-1219.770667	1865.227539	101.423584
20396.185957	-1219.770667	1864.238281	-31.126520
20396.185957	-1219.770667	1863.249023	140.728821
20396.185957	-1219.770667	1862.259766	121.706276
20396.185957	-1219.770667	1861.269531	59.210178
20396.185957	-1219.770667	1860.279297	134.335388
20396.185957	-1219.770667	1859.290039	91.139671
20396.185957	-1219.770667	1858.298828	166.196625
20396.185957	-1219.770667	1857.308594	161.582748
20396.185957	-1219.770667	1856.318359	-48.107246
20396.185957	-1219.770667	1855.327148	-4.476933
20396.185957	-1219.770667	1854.335938	2.943602
20396.185957	-1219.770667	1853.344727	7.930067
20396.185957	-1219.770667	1852.353516	22.536489
20396.185957	-1219.770667	1851.362305	87.729980
20396.185957	-1219.770667	1850.370117	193.840912
20396.185957	-1219.770667	1849.377930	63.779251
20396.185957	-1219.770667	1848.385742	71.045776
20396.185957	-1219.770667	1847.393555	145.720398
20396.185957	-1219.770667	1846.401367	71.049988
20396.185957	-1219.770667	1845.408203	-22.878828
20396.185957	-1219.770667	1844.415039	-73.472412
20396.185957	-1219.770667	1843.421875	68.451675
20396.185957	-1219.770667	1842.428711	116.456238
20396.185957	-1219.770667	1841.435547	-52.096115
20396.185957	-1219.770667	1840.441406	296.505615
20396.185957	-1219.770667	1839.448242	132.733887
20396.185957	-1219.770667	1838.454102	-23.795786
20396.185957	-1219.770667	1837.459961	14.414709
20396.185957	-1219.770667	1836.464844	47.771072
20396.185957	-1219.770667	1835.470703	-12.631904
20396.185957	-1219.770667	1834.475586	63.896225
20396.185957	-1219.770667	1833.480469	73.103722
20396.185957	-1219.770667	1832.485352	120.698410
20396.185957	-1219.770667	1831.490234	43.380833
20396.185957	-1219.770667	1830.495117	-57.950260
20396.185957	-1219.770667	1829.499023	-48.870831
20396.185957	-1219.770667	1828.502930	-83.028442
20396.185957	-1219.770667	1827.506836	168.309662
20396.185957	-1219.770667	1826.510742	40.491005
20396.185957	-1219.770667	1825.513672	78.170914
20396.185957	-1219.770667	1824.517578	7.889797
20396.185957	-1219.770667	1823.520508	-31.239779
20396.185957	-1219.770667	1822.523438	157.325775
20396.185957	-1219.770667	1821.526367	89.340256
20396.185957	-1219.770667	1820.529297	64.469048
20396.185957	-1219.770667	1819.531250	-89.807022
20396.185957	-1219.770667	1818.533203	103.244286
20396.185957	-1219.770667	1817.535156	162.069153
20396.185957	-1219.770667	1816.537109	-9.032221
20396.185957	-1219.770667	1815.539063	128.699829
20396.185957	-1219.770667	1814.540039	125.117004
20396.185957	-1219.770667	1813.541992	92.774849
20396.185957	-1219.770667	1812.542969	50.825092
20396.185957	-1219.770667	1811.543945	-7.902017
20396.185957	-1219.770667	1810.543945	-40.349846
20396.185957	-1219.770667	1809.544922	-44.137772
20396.185957	-1219.770667	1808.544922	-14.506985
20396.185957	-1219.770667	1807.544922	-238.308182
20396.185957	-1219.770667	1806.544922	-5.616599
20396.185957	-1219.770667	1805.544922	64.456879
20396.185957	-1219.770667	1804.544922	86.672981
20396.185957	-1219.770667	1803.543945	30.005024
20396.185957	-1219.770667	1802.542969	-69.679146
20396.185957	-1219.770667	1801.541992	43.115578
20396.185957	-1219.770667	1800.541016	96.134315
20396.185957	-1219.770667	1799.539063	13.035279
20396.185957	-1219.770667	1798.538086	18.205141
20396.185957	-1219.770667	1797.536133	-55.416664
20396.185957	-1219.770667	1796.534180	95.153770
20396.185957	-1219.770667	1795.532227	97.748032
20396.185957	-1219.770667	1794.529297	31.132992
20396.185957	-1219.770667	1793.527344	47.926853
20396.185957	-1219.770667	1792.524414	45.585148
20396.185957	-1219.770667	1791.521484	105.144836
20396.185957	-1219.770667	1790.518555	26.431190
20396.185957	-1219.770667	1789.514648	-11.819424
20396.185957	-1219.770667	1788.511719	2.286204
20396.185957	-1219.770667	1787.507813	106.810028
20396.185957	-1219.770667	1786.503906	-31.609596
20396.185957	-1219.770667	1785.500000	29.912214
20396.185957	-1219.770667	1784.496094	112.767685
20396.185957	-1219.770667	1783.491211	-149.495102
20396.185957	-1219.770667	1782.486328	-23.943104
20396.185957	-1219.770667	1781.481445	-26.943827
20396.185957	-1219.770667	1780.476563	36.580532
20396.185957	-1219.770667	1779.471680	-54.530499
20396.185957	-1219.770667	1778.465820	-133.789139
20396.185957	-1219.770667	1777.460938	-22.938004
20396.185957	-1219.770667	1776.455078	-45.270329
20396.185957	-1219.770667	1775.449219	-41.524952
20396.185957	-1219.770667	1774.442383	-18.847118
20396.185957	-1219.770667	1773.436523	129.632416
20396.185957	-1219.770667	1772.429688	76.153664
20396.185957	-1219.770667	1771.422852	-55.714809
20396.185957	-1219.770667	1770.416016	11.782146
20396.185957	-1219.770667	1769.409180	-94.052940
20396.185957	-1219.770667	1768.402344	89.554131
20396.185957	-1219.770667	1767.394531	137.801498
20396.185957	-1219.770667	1766.386719	-36.985046
20396.185957	-1219.770667	1765.378906	-5.466335
20396.185957	-1219.770667	1764.371094	-151.844681
20396.185957	-1219.770667	1763.362305	99.993866
20396.185957	-1219.770667	1762.354492	-27.525274
20396.185957	-1219.770667	1761.345703	-60.287407
20396.185957	-1219.770667	1760.336914	63.253414
20396.185957	-1219.770667	1759.328125	65.878334
20396.185957	-1219.770667	1758.318359	61.323090
20396.185957	-1219.770667	1757.308594	87.481018
20396.185957	-1219.770667	1756.299805	52.016224
20396.185957	-1219.770667	1755.290039	54.359112
20396.185957	-1219.770667	1754.279297	-116.119965
20396.185957	-1219.770667	1753.269531	18.607231
20396.185957	-1219.770667	1752.258789	-64.416466
20396.185957	-1219.770667	1751.249023	6.254450
20396.185957	-1219.770667	1750.238281	79.186996
20396.185957	-1219.770667	1749.226563	19.625107
20396.185957	-1219.770667	1748.215820	49.841373
20396.185957	-1219.770667	1747.204102	13.800402
20396.185957	-1219.770667	1746.193359	-171.146332
20396.185957	-1219.770667	1745.181641	-11.199000
20396.185957	-1219.770667	1744.168945	-52.147804
20396.185957	-1219.770667	1743.157227	-133.289764
20396.185957	-1219.770667	1742.144531	83.006134
20396.185957	-1219.770667	1741.132813	13.532485
20396.185957	-1219.770667	1740.120117	73.813126
20396.185957	-1219.770667	1739.106445	63.205387
20396.185957	-1219.770667	1738.093750	-1.722315
20396.185957	-1219.770667	1737.080078	-109.158905
20396.185957	-1219.770667	1736.067383	-77.479530
20396.185957	-1219.770667	1735.053711	-88.329414
20396.185957	-1219.770667	1734.040039	94.060051
20396.185957	-1219.770667	1733.025391	116.033104
20396.185957	-1219.770667	1732.011719	222.767899
20396.185957	-1219.770667	1730.997070	-68.781654
20396.185957	-1219.770667	1729.982422	-23.442352
20396.185957	-1219.770667	1728.967773	-91.234993
20396.185957	-1219.770667	1727.952148	22.232254
20396.185957	-1219.770667	1726.937500	-26.846636
20396.185957	-1219.770667	1725.921875	-104.227798
20396.185957	-1219.770667	1724.906250	124.284294
20396.185957	-1219.770667	1723.890625	-101.462929
20396.185957	-1219.770667	1722.875000	-0.205533
20396.185957	-1219.770667	1721.858398	126.810310
20396.185957	-1219.770667	1720.841797	2.097327
20396.185957	-1219.770667	1719.825195	81.907761
20396.185957	-1219.770667	1718.808594	-45.233189
20396.185957	-1219.770667	1717.791992	29.722166
20396.185957	-1219.770667	1716.774414	36.433163
20396.185957	-1219.770667	1715.756836	43.075470
20396.185957	-1219.770667	1714.739258	244.601593
20396.185957	-1219.770667	1713.721680	-23.689308
20396.185957	-1219.770667	1712.704102	-54.802219
20396.185957	-1219.770667	1711.685547	-8.509210
20396.185957	-1219.770667	1710.667969	-44.436474
20396.185957	-1219.770667	1709.649414	130.769409
20396.185957	-1219.770667	1708.630859	167.423264
20396.185957	-1219.770667	1707.611328	46.831463
20396.185957	-1219.770667	1706.592773	-40.935417
20396.185957	-1219.770667	1705.573242	42.428272
20396.185957	-1219.770667	1704.553711	-97.012863
20396.185957	-1219.770667	1703.534180	-60.671467
20396.185957	-1219.770667	1702.513672	17.766901
20396.185957	-1219.770667	1701.494141	140.640030
20396.185957	-1219.770667	1700.473633	141.585098
20396.185957	-1219.770667	1699.453125	8.971713
20396.185957	-1219.770667	1698.432617	-27.643480
20396.185957	-1219.770667	1697.412109	12.954381
20396.185957	-1219.770667	1696.390625	-37.818970
20396.185957	-1219.770667	1695.369141	19.021566
20396.185957	-1219.770667	1694.347656	50.044395
20396.185957	-1219.770667	1693.326172	-0.880314
20396.185957	-1219.770667	1692.304688	-44.825256
20396.185957	-1219.770667	1691.282227	-81.803131
20396.185957	-1219.770667	1690.260742	0.425977
20396.185957	-1219.770667	1689.238281	7.756496
20396.185957	-1219.770667	1688.214844	61.762592
20396.185957	-1219.770667	1687.192383	-38.517159
20396.185957	-1219.770667	1686.168945	220.957886
20396.185957	-1219.770667	1685.146484	73.863716
20396.185957	-1219.770667	1684.123047	-131.618576
20396.185957	-1219.770667	1683.099609	127.567131
20396.185957	-1219.770667	1682.075195	122.801826
20396.185957	-1219.770667	1681.051758	108.661797
20396.185957	-1219.770667	1680.027344	-38.544254
20396.185957	-1219.770667	1679.002930	96.559814
20396.185957	-1219.770667	1677.978516	308.540100
20396.185957	-1219.770667	1676.953125	315.149017
20396.185957	-1219.770667	1675.928711	179.481339
20396.185957	-1219.770667	1674.903320	211.661850
20396.185957	-1219.770667	1673.877930	215.813980
20396.185957	-1219.770667	1672.852539	150.007263
20396.185957	-1219.770667	1671.826172	186.688324
20396.185957	-1219.770667	1670.800781	246.616440
20396.185957	-1219.770667	1669.774414	157.408173
20396.185957	-1219.770667	1668.748047	145.035858
20396.185957	-1219.770667	1667.721680	307.236053
20396.185957	-1219.770667	1666.694336	297.073883
20396.185957	-1219.770667	1665.667969	426.518982
20396.185957	-1219.770667	1664.640625	258.034760
20396.185957	-1219.770667	1663.613281	289.642090
20396.185957	-1219.770667	1662.585938	311.894501
20396.185957	-1219.770667	1661.557617	571.285095
20396.185957	-1219.770667	1660.530273	333.000824
20396.185957	-1219.770667	1659.501953	396.952942
20396.185957	-1219.770667	1658.473633	509.650848
20396.185957	-1219.770667	1657.444336	515.371765
20396.185957	-1219.770667	1656.416016	595.409302
20396.185957	-1219.770667	1655.386719	628.917664
20396.185957	-1219.770667	1654.358398	430.160309
20396.185957	-1219.770667	1653.328125	514.693787
20396.185957	-1219.770667	1652.298828	608.459229
20396.185957	-1219.770667	1651.269531	544.334473
20396.185957	-1219.770667	1650.239258	879.320251
20396.185957	-1219.770667	1649.208984	868.460449
20396.185957	-1219.770667	1648.178711	811.185547
20396.185957	-1219.770667	1647.148438	916.246399
20396.185957	-1219.770667	1646.117188	916.888794
20396.185957	-1219.770667	1645.086914	799.284851
20396.185957	-1219.770667	1644.055664	811.488770
20396.185957	-1219.770667	1643.024414	821.347229
20396.185957	-1219.770667	1641.992188	933.111938
20396.185957	-1219.770667	1640.960938	878.038025
20396.185957	-1219.770667	1639.928711	975.810547
20396.185957	-1219.770667	1638.896484	987.849487
20396.185957	-1219.770667	1637.864258	798.448730
20396.185957	-1219.770667	1636.832031	1037.317261
20396.185957	-1219.770667	1635.798828	861.819702
20396.185957	-1219.770667	1634.766602	936.272217
20396.185957	-1219.770667	1633.733398	726.130981
20396.185957	-1219.770667	1632.699219	1064.194824
20396.185957	-1219.770667	1631.666016	972.015137
20396.185957	-1219.770667	1630.632813	1157.294556
20396.185957	-1219.770667	1629.598633	1169.115723
20396.185957	-1219.770667	1628.564453	1111.588379
20396.185957	-1219.770667	1627.530273	1169.603882
20396.185957	-1219.770667	1626.495117	1241.438232
20396.185957	-1219.770667	1625.460938	1278.601929
20396.185957	-1219.770667	1624.425781	1493.546265
20396.185957	-1219.770667	1623.390625	1396.709106
20396.185957	-1219.770667	1622.355469	1334.528931
20396.185957	-1219.770667	1621.319336	1281.590210
20396.185957	-1219.770667	1620.284180	1297.902466
20396.185957	-1219.770667	1619.248047	1484.916016
20396.185957	-1219.770667	1618.211914	1353.546387
20396.185957	-1219.770667	1617.174805	1459.747070
20396.185957	-1219.770667	1616.138672	1469.079468
20396.185957	-1219.770667	1615.101563	1432.292847
20396.185957	-1219.770667	1614.065430	1450.848633
20396.185957	-1219.770667	1613.027344	1683.681519
20396.185957	-1219.770667	1611.990234	1439.532593
20396.185957	-1219.770667	1610.953125	1538.697510
20396.185957	-1219.770667	1609.915039	1596.363281
20396.185957	-1219.770667	1608.876953	1750.721680
20396.185957	-1219.770667	1607.838867	1743.879272
20396.185957	-1219.770667	1606.800781	1709.429565
20396.185957	-1219.770667	1605.761719	1555.328369
20396.185957	-1219.770667	1604.723633	1615.279297
20396.185957	-1219.770667	1603.684570	1875.333740
20396.185957	-1219.770667	1602.644531	1714.414551
20396.185957	-1219.770667	1601.605469	1629.462280
20396.185957	-1219.770667	1600.566406	1691.690918
20396.185957	-1219.770667	1599.526367	1765.393066
20396.185957	-1219.770667	1598.486328	1742.563965
20396.185957	-1219.770667	1597.446289	1735.843384
20396.185957	-1219.770667	1596.405273	1763.591431
20396.185957	-1219.770667	1595.365234	1901.600342
20396.185957	-1219.770667	1594.324219	1793.864014
20396.185957	-1219.770667	1593.283203	1752.770264
20396.185957	-1219.770667	1592.242188	1787.460571
20396.185957	-1219.770667	1591.200195	1868.049438
20396.185957	-1219.770667	1590.159180	1804.088257
20396.185957	-1219.770667	1589.117188	1907.630859
20396.185957	-1219.770667	1588.075195	1710.700806
20396.185957	-1219.770667	1587.032227	1855.539307
20396.185957	-1219.770667	1585.990234	1954.506348
20396.185957	-1219.770667	1584.947266	1966.348389
20396.185957	-1219.770667	1583.904297	1893.419678
20396.185957	-1219.770667	1582.861328	2070.305176
20396.185957	-1219.770667	1581.818359	1949.337891
20396.185957	-1219.770667	1580.775391	1798.674927
20396.185957	-1219.770667	1579.731445	1780.914307
20396.185957	-1219.770667	1578.687500	1882.250000
20396.185957	-1219.770667	1577.643555	1569.257080
20396.185957	-1219.770667	1576.598633	1707.275024
20396.185957	-1219.770667	1575.554688	1710.283081
20396.185957	-1219.770667	1574.509766	1644.685669
20396.185957	-1219.770667	1573.464844	1638.622925
20396.185957	-1219.770667	1572.419922	1726.364136
20396.185957	-1219.770667	1571.374023	1706.640503
20396.185957	-1219.770667	1570.329102	1670.974976
20396.185957	-1219.770667	1569.283203	1628.500854
20396.185957	-1219.770667	1568.237305	1476.403809
20396.185957	-1219.770667	1567.191406	1507.180786
20396.185957	-1219.770667	1566.144531	1512.855225
20396.185957	-1219.770667	1565.098633	1370.143799
20396.185957	-1219.770667	1564.051758	1583.714478
20396.185957	-1219.770667	1563.004883	1342.969360
20396.185957	-1219.770667	1561.957031	1565.680298
20396.185957	-1219.770667	1560.910156	1411.846680
20396.185957	-1219.770667	1559.862305	1388.159302
20396.185957	-1219.770667	1558.814453	1115.902100
20396.185957	-1219.770667	1557.766602	1153.962524
20396.185957	-1219.770667	1556.718750	1178.381470
20396.185957	-1219.770667	1555.669922	1266.667236
20396.185957	-1219.770667	1554.621094	1081.467773
20396.185957	-1219.770667	1553.573242	1197.205078
20396.185957	-1219.770667	1552.523438	1183.072266
20396.185957	-1219.770667	1551.474609	1102.953125
20396.185957	-1219.770667	1550.424805	1073.019775
20396.185957	-1219.770667	1549.375000	1070.482300
20396.185957	-1219.770667	1548.325195	924.584900
20396.185957	-1219.770667	1547.275391	1136.153320
20396.185957	-1219.770667	1546.225586	1042.764648
20396.185957	-1219.770667	1545.174805	1108.732300
20396.185957	-1219.770667	1544.124023	1227.057007
20396.185957	-1219.770667	1543.073242	1327.206543
20396.185957	-1219.770667	1542.022461	1315.963745
20396.185957	-1219.770667	1540.970703	1191.114014
20396.185957	-1219.770667	1539.919922	1216.405518
20396.185957	-1219.770667	1538.868164	1112.213745
20396.185957	-1219.770667	1537.815430	1087.646362
20396.185957	-1219.770667	1536.763672	1258.526001
20396.185957	-1219.770667	1535.710938	1086.455322
20396.185957	-1219.770667	1534.659180	937.240295
20396.185957	-1219.770667	1533.606445	1046.958496
20396.185957	-1219.770667	1532.552734	1120.382324
20396.185957	-1219.770667	1531.500000	882.955872
20396.185957	-1219.770667	1530.446289	879.389954
20396.185957	-1219.770667	1529.393555	676.282715
20396.185957	-1219.770667	1528.338867	493.729279
20396.185957	-1219.770667	1527.285156	422.444519
20396.185957	-1219.770667	1526.231445	575.711609
20396.185957	-1219.770667	1525.176758	486.454498
20396.185957	-1219.770667	1524.122070	406.377716
20396.185957	-1219.770667	1523.067383	580.181091
20396.185957	-1219.770667	1522.012695	337.174866
20396.185957	-1219.770667	1520.957031	334.418182
20396.185957	-1219.770667	1519.901367	286.455872
20396.185957	-1219.770667	1518.845703	560.082581
20396.185957	-1219.770667	1517.790039	138.777451
20396.185957	-1219.770667	1516.734375	30.030352
20396.185957	-1219.770667	1515.677734	215.550171
20396.185957	-1219.770667	1514.621094	84.373573
20396.185957	-1219.770667	1513.564453	362.714050
20396.185957	-1219.770667	1512.507813	344.800690
20396.185957	-1219.770667	1511.450195	363.149384
20396.185957	-1219.770667	1510.393555	175.888443
20396.185957	-1219.770667	1509.335938	549.256104
20396.185957	-1219.770667	1508.278320	359.946625
20396.185957	-1219.770667	1507.219727	306.340454
20396.185957	-1219.770667	1506.162109	381.593536
20396.185957	-1219.770667	1505.103516	499.809021
20396.185957	-1219.770667	1504.044922	663.223755
20396.185957	-1219.770667	1502.986328	442.931061
20396.185957	-1219.770667	1501.926758	335.654480
20396.185957	-1219.770667	1500.868164	395.492493
20396.185957	-1219.770667	1499.808594	270.410339
20396.185957	-1219.770667	1498.749023	224.413971
20396.185957	-1219.770667	1497.688477	13.909902
20396.185957	-1219.770667	1496.628906	67.377640
20396.185957	-1219.770667	1495.568359	12.717713
20396.185957	-1219.770667	1494.507813	190.307739
20396.185957	-1219.770667	1493.447266	257.516357
20396.185957	-1219.770667	1492.386719	209.903534
20396.185957	-1219.770667	1491.325195	-103.372688
20396.185957	-1219.770667	1490.263672	-49.363823
20396.185957	-1219.770667	1489.202148	-65.072380
20396.185957	-1219.770667	1488.140625	99.407326
20396.185957	-1219.770667	1487.079102	16.360836
20396.185957	-1219.770667	1486.016602	122.453430
20396.185957	-1219.770667	1484.954102	206.110626
20396.185957	-1219.770667	1483.891602	-130.766800
20396.185957	-1219.770667	1482.829102	-78.368927
20396.185957	-1219.770667	1481.765625	-61.864113
20396.185957	-1219.770667	1480.702148	-78.975693
20396.185957	-1219.770667	1479.638672	-73.499229
20396.185957	-1219.770667	1478.575195	-47.701004
20396.185957	-1219.770667	1477.511719	16.345083
20396.185957	-1219.770667	1476.447266	-56.463455
20396.185957	-1219.770667	1475.382813	10.069433
20396.185957	-1219.770667	1474.318359	11.493845
20396.185957	-1219.770667	1473.253906	48.994621
20396.185957	-1219.770667	1472.189453	100.057388
20396.185957	-1219.770667	1471.124023	12.171900
20396.185957	-1219.770667	1470.058594	38.580547
20396.185957	-1219.770667	1468.993164	27.122440
20396.185957	-1219.770667	1467.927734	-53.590870
20396.185957	-1219.770667	1466.861328	42.778404
20396.185957	-1219.770667	1465.794922	18.002481
20396.185957	-1219.770667	1464.728516	-97.935036
20396.185957	-1219.770667	1463.662109	0.839087
20396.185957	-1219.770667	1462.594727	-65.752037
20396.185957	-1219.770667	1461.528320	158.369827
20396.185957	-1219.770667	1460.460938	134.298859
20396.185957	-1219.770667	1459.393555	224.766571
20396.185957	-1219.770667	1458.326172	263.247711
20396.185957	-1219.770667	1457.257813	253.267441
20396.185957	-1219.770667	1456.189453	399.469025
20396.185957	-1219.770667	1455.121094	190.980499
20396.185957	-1219.770667	1454.052734	252.537338
20396.185957	-1219.770667	1452.984375	371.973602
20396.185957	-1219.770667	1451.915039	289.463379
20396.185957	-1219.770667	1450.845703	477.721588
20396.185957	-1219.770667	1449.776367	333.636047
20396.185957	-1219.770667	1448.707031	467.201904
20396.185957	-1219.770667	1447.636719	415.481262
20396.185957	-1219.770667	1446.567383	434.512238
20396.185957	-1219.770667	1445.497070	382.889801
20396.185957	-1219.770667	1444.425781	465.146515
20396.185957	-1219.770667	1443.355469	394.369629
20396.185957	-1219.770667	1442.285156	343.890961
20396.185957	-1219.770667	1441.213867	525.651062
20396.185957	-1219.770667	1440.142578	703.097290
20396.185957	-1219.770667	1439.070313	553.810974
20396.185957	-1219.770667	1437.999023	529.005249
20396.185957	-1219.770667	1436.926758	773.873413
20396.185957	-1219.770667	1435.854492	788.383667
20396.185957	-1219.770667	1434.782227	685.862183
20396.185957	-1219.770667	1433.709961	530.334229
20396.185957	-1219.770667	1432.636719	525.434509
20396.185957	-1219.770667	1431.563477	652.088867
20396.185957	-1219.770667	1430.490234	526.246460
20396.185957	-1219.770667	1429.416992	522.045776
20396.185957	-1219.770667	1428.343750	425.644867
20396.185957	-1219.770667	1427.269531	427.060822
20396.185957	-1219.770667	1426.195313	376.232544
20396.185957	-1219.770667	1425.121094	319.210693
20396.185957	-1219.770667	1424.046875	337.954010
20396.185957	-1219.770667	1422.971680	358.723114
20396.185957	-1219.770667	1421.896484	165.205475
20396.185957	-1219.770667	1420.821289	287.974182
20396.185957	-1219.770667	1419.746094	158.329773
20396.185957	-1219.770667	1418.669922	327.364227
20396.185957	-1219.770667	1417.594727	171.915482
20396.185957	-1219.770667	1416.518555	117.632660
20396.185957	-1219.770667	1415.442383	261.849060
20396.185957	-1219.770667	1414.365234	79.397301
20396.185957	-1219.770667	1413.289063	219.982605
20396.185957	-1219.770667	1412.211914	131.140594
20396.185957	-1219.770667	1411.134766	28.725643
20396.185957	-1219.770667	1410.057617	118.795074
20396.185957	-1219.770667	1408.979492	14.181920
20396.185957	-1219.770667	1407.902344	98.567917
20396.185957	-1219.770667	1406.824219	149.818741
20396.185957	-1219.770667	1405.746094	-108.243034
20396.185957	-1219.770667	1404.666992	-70.798668
20396.185957	-1219.770667	1403.588867	-30.860605
20396.185957	-1219.770667	1402.509766	22.565506
20396.185957	-1219.770667	1401.430664	176.417038
20396.185957	-1219.770667	1400.351563	92.809837
20396.185957	-1219.770667	1399.271484	105.247650
20396.185957	-1219.770667	1398.192383	80.165237
20396.185957	-1219.770667	1397.112305	283.235626
20396.185957	-1219.770667	1396.031250	159.333694
20396.185957	-1219.770667	1394.951172	51.779335
20396.185957	-1219.770667	1393.871094	73.361610
20396.185957	-1219.770667	1392.790039	-6.476716
20396.185957	-1219.770667	1391.708984	-178.854889
20396.185957	-1219.770667	1390.626953	-80.760658
20396.185957	-1219.770667	1389.545898	39.997952
20396.185957	-1219.770667	1388.463867	45.486023
20396.185957	-1219.770667	1387.381836	7.296801
20396.185957	-1219.770667	1386.299805	41.043068
20396.185957	-1219.770667	1385.217773	323.322968
20396.185957	-1219.770667	1384.134766	95.848442
20396.185957	-1219.770667	1383.051758	150.130341
20396.185957	-1219.770667	1381.968750	261.600739
20396.185957	-1219.770667	1380.885742	113.950478
20396.185957	-1219.770667	1379.802734	47.508144
20396.185957	-1219.770667	1378.718750	-9.404502
20396.185957	-1219.770667	1377.634766	-24.691217
20396.185957	-1219.770667	1376.550781	36.113247
20396.185957	-1219.770667	1375.465820	132.182465
20396.185957	-1219.770667	1374.381836	78.131500
20396.185957	-1219.770667	1373.296875	77.607956
20396.185957	-1219.770667	1372.211914	-61.298271
20396.185957	-1219.770667	1371.126953	24.807720
20396.185957	-1219.770667	1370.041016	54.603798
20396.185957	-1219.770667	1368.955078	-66.639763
20396.185957	-1219.770667	1367.869141	14.606686
20396.185957	-1219.770667	1366.783203	46.217503
20396.185957	-1219.770667	1365.697266	-18.626320
20396.185957	-1219.770667	1364.610352	225.675339
20396.185957	-1219.770667	1363.523438	234.767303
20396.185957	-1219.770667	1362.436523	271.310059
20396.185957	-1219.770667	1361.349609	285.332184
20396.185957	-1219.770667	1360.261719	320.855011
20396.185957	-1219.770667	1359.174805	495.120056
20396.185957	-1219.770667	1358.086914	484.079926
20396.185957	-1219.770667	1356.998047	484.999725
20396.185957	-1219.770667	1355.910156	440.096100
20396.185957	-1219.770667	1354.821289	420.056427
20396.185957	-1219.770667	1353.732422	474.606750
20396.185957	-1219.770667	1352.643555	273.099884
20396.185957	-1219.770667	1351.554688	197.765549
20396.185957	-1219.770667	1350.464844	163.662796
20396.185957	-1219.770667	1349.375000	82.466583
20396.185957	-1219.770667	1348.285156	69.998413
20396.185957	-1219.770667	1347.195313	207.422562
20396.185957	-1219.770667	1346.105469	217.700195
20396.185957	-1219.770667	1345.014648	245.402390
20396.185957	-1219.770667	1343.923828	262.271088
20396.185957	-1219.770667	1342.833008	271.501801
20396.185957	-1219.770667	1341.741211	428.563293
20396.185957	-1219.770667	1340.650391	436.538177
20396.185957	-1219.770667	1339.558594	578.398010
20396.185957	-1219.770667	1338.466797	526.732056
20396.185957	-1219.770667	1337.374023	801.579590
20396.185957	-1219.770667	1336.282227	728.132996
20396.185957	-1219.770667	1335.189453	1037.747192
20396.185957	-1219.770667	1334.096680	1244.529785
20396.185957	-1219.770667	1333.003906	1153.739502
20396.185957	-1219.770667	1331.910156	1283.583984
20396.185957	-1219.770667	1330.817383	1405.370361
20396.185957	-1219.770667	1329.723633	1428.603394
20396.185957	-1219.770667	1328.629883	1339.645020
20396.185957	-1219.770667	1327.535156	1412.253052
20396.185957	-1219.770667	1326.441406	1193.371582
20396.185957	-1219.770667	1325.346680	1099.490356
20396.185957	-1219.770667	1324.251953	1031.058960
20396.185957	-1219.770667	1323.156250	909.088196
20396.185957	-1219.770667	1322.061523	887.495422
20396.185957	-1219.770667	1320.965820	783.754211
20396.185957	-1219.770667	1319.870117	579.981873
20396.185957	-1219.770667	1318.774414	477.683472
20396.185957	-1219.770667	1317.678711	415.971313
20396.185957	-1219.770667	1316.582031	430.269531
20396.185957	-1219.770667	1315.485352	431.292938
20396.185957	-1219.770667	1314.388672	307.569946
20396.185957	-1219.770667	1313.291016	347.859711
20396.185957	-1219.770667	1312.194336	298.659698
20396.185957	-1219.770667	1311.096680	227.572296
20396.185957	-1219.770667	1309.999023	199.381378
20396.185957	-1219.770667	1308.901367	235.406311
20396.185957	-1219.770667	1307.802734	167.619431
20396.185957	-1219.770667	1306.705078	248.564575
20396.185957	-1219.770667	1305.606445	136.302551
20396.185957	-1219.770667	1304.506836	162.333557
20396.185957	-1219.770667	1303.408203	117.908150
20396.185957	-1219.770667	1302.308594	181.634323
20396.185957	-1219.770667	1301.208984	290.736938
20396.185957	-1219.770667	1300.109375	179.534424
20396.185957	-1219.770667	1299.009766	210.125397
20396.185957	-1219.770667	1297.909180	245.972763
20396.185957	-1219.770667	1296.808594	246.862793
20396.185957	-1219.770667	1295.708008	280.228088
20396.185957	-1219.770667	1294.607422	260.260101
20396.185957	-1219.770667	1293.506836	33.213726
20396.185957	-1219.770667	1292.405273	49.411388
20396.185957	-1219.770667	1291.303711	133.001450
20396.185957	-1219.770667	1290.202148	43.291546
20396.185957	-1219.770667	1289.099609	40.280952
20396.185957	-1219.770667	1287.998047	193.294403
20396.185957	-1219.770667	1286.895508	81.144943
20396.185957	-1219.770667	1285.792969	-6.512411
20396.185957	-1219.770667	1284.689453	197.442841
20396.185957	-1219.770667	1283.586914	139.429901
20396.185957	-1219.770667	1282.483398	174.517914
20396.185957	-1219.770667	1281.379883	26.790491
20396.185957	-1219.770667	1280.276367	174.690002
20396.185957	-1219.770667	1279.171875	126.608566
20396.185957	-1219.770667	1278.067383	71.995911
20396.185957	-1219.770667	1276.962891	29.919434
20396.185957	-1219.770667	1275.858398	-46.855251
20396.185957	-1219.770667	1274.753906	25.458977
20396.185957	-1219.770667	1273.648438	-115.485931
20396.185957	-1219.770667	1272.542969	-34.330170
20396.185957	-1219.770667	1271.437500	-56.304211
20396.185957	-1219.770667	1270.331055	-61.529480
20396.185957	-1219.770667	1269.225586	-134.505295
20396.185957	-1219.770667	1268.119141	-26.247934
20396.185957	-1219.770667	1267.012695	-73.065651
20396.185957	-1219.770667	1265.906250	-99.926208
20396.185957	-1219.770667	1264.798828	-4.463673
20396.185957	-1219.770667	1263.691406	-47.237309
20396.185957	-1219.770667	1262.583984	123.274368
20396.185957	-1219.770667	1261.476563	70.432693
20396.185957	-1219.770667	1260.368164	106.069481
20396.185957	-1219.770667	1259.260742	53.856106
20396.185957	-1219.770667	1258.152344	28.016733
20396.185957	-1219.770667	1257.043945	75.589691
20396.185957	-1219.770667	1255.934570	43.807220
20396.185957	-1219.770667	1254.825195	20.273058
20396.185957	-1219.770667	1253.716797	-31.070204
20396.185957	-1219.770667	1252.606445	-1.318829
20396.185957	-1219.770667	1251.497070	100.757278
20396.185957	-1219.770667	1250.387695	-66.037361
20396.185957	-1219.770667	1249.277344	-2.112096
20396.185957	-1219.770667	1248.166992	1.588961
20396.185957	-1219.770667	1247.055664	7.589086
20396.185957	-1219.770667	1245.945313	-123.026344
20396.185957	-1219.770667	1244.833984	-87.974480
20396.185957	-1219.770667	1243.722656	-29.951384
20396.185957	-1219.770667	1242.611328	-71.748024
20396.185957	-1219.770667	1241.499023	-29.858711
20396.185957	-1219.770667	1240.387695	-79.336197
20396.185957	-1219.770667	1239.275391	-154.289764
20396.185957	-1219.770667	1238.162109	-88.917114
20396.185957	-1219.770667	1237.049805	-36.248508
20396.185957	-1219.770667	1235.936523	-126.650566
20396.185957	-1219.770667	1234.823242	-9.889602
20396.185957	-1219.770667	1233.709961	-78.615440
20396.185957	-1219.770667	1232.596680	-93.887100
20396.185957	-1219.770667	1231.482422	-137.404510
20396.185957	-1219.770667	1230.369141	54.695793
20396.185957	-1219.770667	1229.253906	-93.025047
20396.185957	-1219.770667	1228.139648	-72.583092
20396.185957	-1219.770667	1227.025391	-130.895538
20396.185957	-1219.770667	1225.910156	-109.317673
20396.185957	-1219.770667	1224.794922	-70.642982
20396.185957	-1219.770667	1223.679688	-174.951447
20396.185957	-1219.770667	1222.563477	1.785902
20396.185957	-1219.770667	1221.447266	-73.264893
20396.185957	-1219.770667	1220.331055	-76.074905
20396.185957	-1219.770667	1219.214844	-1.523906
20396.185957	-1219.770667	1218.098633	-98.923767
20396.185957	-1219.770667	1216.981445	-138.122574
20396.185957	-1219.770667	1215.864258	-98.234894
20396.185957	-1219.770667	1214.747070	63.886845
20396.185957	-1219.770667	1213.629883	9.463016
20396.185957	-1219.770667	1212.511719	169.918915
20396.185957	-1219.770667	1211.393555	3.772861
20396.185957	-1219.770667	1210.275391	8.048949
20396.185957	-1219.770667	1209.157227	50.738071
20396.185957	-1219.770667	1208.038086	-22.280960
20396.185957	-1219.770667	1206.918945	-32.089298
20396.185957	-1219.770667	1205.799805	-42.355213
20396.185957	-1219.770667	1204.680664	8.310158
20396.185957	-1219.770667	1203.560547	-27.970816
20396.185957	-1219.770667	1202.441406	-54.725506
20396.185957	-1219.770667	1201.321289	-17.912516
20396.185957	-1219.770667	1200.200195	-126.372063
20396.185957	-1219.770667	1199.080078	40.606491
20396.185957	-1219.770667	1197.958984	-85.792580
20396.185957	-1219.770667	1196.837891	-18.535831
20396.185957	-1219.770667	1195.716797	-51.391582
20396.185957	-1219.770667	1194.594727	-29.196186
20396.185957	-1219.770667	1193.473633	48.026028
20396.185957	-1219.770667	1192.351563	19.212923
20396.185957	-1219.770667	1191.229492	20.988474
20396.185957	-1219.770667	1190.106445	-103.840729
20396.185957	-1219.770667	1188.984375	-65.494492
20396.185957	-1219.770667	1187.861328	-10.295482
20396.185957	-1219.770667	1186.738281	97.275475
20396.185957	-1219.770667	1185.614258	-154.328186
20396.185957	-1219.770667	1184.491211	-88.821541
20396.185957	-1219.770667	1183.367188	101.015915
20396.185957	-1219.770667	1182.243164	18.320242
20396.185957	-1219.770667	1181.119141	20.296368
20396.185957	-1219.770667	1179.994141	-98.453056
20396.185957	-1219.770667	1178.869141	1.917187
20396.185957	-1219.770667	1177.744141	93.056862
20396.185957	-1219.770667	1176.619141	11.196795
20396.185957	-1219.770667	1175.493164	165.501511
20396.185957	-1219.770667	1174.368164	84.224106
20396.185957	-1219.770667	1173.242188	74.150726
20396.185957	-1219.770667	1172.115234	101.800171
20396.185957	-1219.770667	1170.989258	48.794029
20396.185957	-1219.770667	1169.862305	24.625196
20396.185957	-1219.770667	1168.735352	98.079315
20396.185957	-1219.770667	1167.608398	157.247147
20396.185957	-1219.770667	1166.481445	73.804909
20396.185957	-1219.770667	1165.353516	184.991455
20396.185957	-1219.770667	1164.225586	18.093615
20396.185957	-1219.770667	1163.097656	-22.168901
20396.185957	-1219.770667	1161.968750	116.443108
20396.185957	-1219.770667	1160.840820	73.341270
20396.185957	-1219.770667	1159.711914	28.526918
20396.185957	-1219.770667	1158.583008	65.125099
20396.185957	-1219.770667	1157.453125	35.932941
20396.185957	-1219.770667	1156.324219	-39.089134
20396.185957	-1219.770667	1155.194336	-46.345451
20396.185957	-1219.770667	1154.064453	66.645721
20396.185957	-1219.770667	1152.933594	-90.215164
20396.185957	-1219.770667	1151.803711	64.201263
20396.185957	-1219.770667	1150.672852	170.595718
20396.185957	-1219.770667	1149.541992	60.536148
20396.185957	-1219.770667	1148.411133	58.893711
20396.185957	-1219.770667	1147.279297	52.941685
20396.185957	-1219.770667	1146.147461	-76.112167
20396.185957	-1219.770667	1145.015625	-42.768215
20396.185957	-1219.770667	1143.883789	-59.462379
20396.185957	-1219.770667	1142.750977	-13.710168
20396.185957	-1219.770667	1141.619141	65.196526
20396.185957	-1219.770667	1140.486328	68.192352
20396.185957	-1219.770667	1139.352539	79.462334
20396.185957	-1219.770667	1138.219727	-62.205448
20396.185957	-1219.770667	1137.085938	-17.855686
20396.185957	-1219.770667	1135.952148	-84.388885
20396.185957	-1219.770667	1134.818359	68.055000
20396.185957	-1219.770667	1133.683594	-11.615613
20396.185957	-1219.770667	1132.549805	-16.155458
20396.185957	-1219.770667	1131.415039	118.665108
20396.185957	-1219.770667	1130.279297	250.990662
20396.185957	-1219.770667	1129.144531	265.293427
20396.185957	-1219.770667	1128.008789	354.971680
20396.185957	-1219.770667	1126.873047	273.798309
20396.185957	-1219.770667	1125.737305	380.787262
20396.185957	-1219.770667	1124.601563	372.079407
20396.185957	-1219.770667	1123.464844	416.848816
20396.185957	-1219.770667	1122.328125	401.223694
20396.185957	-1219.770667	1121.191406	256.404449
20396.185957	-1219.770667	1120.054688	217.471069
20396.185957	-1219.770667	1118.916992	267.832214
20396.185957	-1219.770667	1117.779297	272.144165
20396.185957	-1219.770667	1116.641602	190.817444
20396.185957	-1219.770667	1115.503906	198.679047
20396.185957	-1219.770667	1114.365234	256.114990
20396.185957	-1219.770667	1113.226563	111.101677
20396.185957	-1219.770667	1112.087891	88.372894
20396.185957	-1219.770667	1110.949219	145.314285
20396.185957	-1219.770667	1109.809570	128.671494
20396.185957	-1219.770667	1108.669922	112.114594
20396.185957	-1219.770667	1107.530273	186.624466
20396.185957	-1219.770667	1106.390625	85.165909
20396.185957	-1219.770667	1105.250000	174.607864
20396.185957	-1219.770667	1104.109375	211.981537
20396.185957	-1219.770667	1102.968750	35.395805
20396.185957	-1219.770667	1101.828125	139.963425
20396.185957	-1219.770667	1100.686523	89.535538
20396.185957	-1219.770667	1099.544922	63.598263
20396.185957	-1219.770667	1098.403320	283.234589
20396.185957	-1219.770667	1097.261719	274.085693
20396.185957	-1219.770667	1096.120117	143.851730
20396.185957	-1219.770667	1094.977539	185.149719
20396.185957	-1219.770667	1093.834961	171.712234
20396.185957	-1219.770667	1092.691406	55.248409
20396.185957	-1219.770667	1091.548828	269.993347
20396.185957	-1219.770667	1090.405273	238.194412
20396.185957	-1219.770667	1089.261719	146.125427
20396.185957	-1219.770667	1088.118164	241.992065
20396.185957	-1219.770667	1086.973633	47.330864
20396.185957	-1219.770667	1085.829102	364.534546
20396.185957	-1219.770667	1084.684570	296.401093
20396.185957	-1219.770667	1083.540039	124.928192
20396.185957	-1219.770667	1082.395508	87.398186
20396.185957	-1219.770667	1081.250000	-2.740079
20396.185957	-1219.770667	1080.104492	88.921165
20396.185957	-1219.770667	1078.958984	113.860100
20396.185957	-1219.770667	1077.812500	115.433609
20396.185957	-1219.770667	1076.666016	188.897324
20396.185957	-1219.770667	1075.519531	225.294418
20396.185957	-1219.770667	1074.373047	146.336975
20396.185957	-1219.770667	1073.226563	38.373848
20396.185957	-1219.770667	1072.079102	372.459381
20396.185957	-1219.770667	1070.931641	375.177216
20396.185957	-1219.770667	1069.784180	215.443115
20396.185957	-1219.770667	1068.635742	314.223846
20396.185957	-1219.770667	1067.487305	265.999786
20396.185957	-1219.770667	1066.338867	398.773102
20396.185957	-1219.770667	1065.190430	287.977203
20396.185957	-1219.770667	1064.041992	409.450195
20396.185957	-1219.770667	1062.892578	408.546326
20396.185957	-1219.770667	1061.743164	380.115448
20396.185957	-1219.770667	1060.593750	261.743744
20396.185957	-1219.770667	1059.443359	341.358551
20396.185957	-1219.770667	1058.292969	280.476868
20396.185957	-1219.770667	1057.142578	158.327072
20396.185957	-1219.770667	1055.992188	198.241028
20396.185957	-1219.770667	1054.841797	146.611618
20396.185957	-1219.770667	1053.690430	176.673019
20396.185957	-1219.770667	1052.539063	172.361557
20396.185957	-1219.770667	1051.387695	99.146339
20396.185957	-1219.770667	1050.235352	196.244766
20396.185957	-1219.770667	1049.083984	295.903229
20396.185957	-1219.770667	1047.931641	270.307617
20396.185957	-1219.770667	1046.778320	144.187103
20396.185957	-1219.770667	1045.625977	221.189362
20396.185957	-1219.770667	1044.472656	199.462830
20396.185957	-1219.770667	1043.319336	328.819366
20396.185957	-1219.770667	1042.166016	256.146057
20396.185957	-1219.770667	1041.012695	196.586914
20396.185957	-1219.770667	1039.858398	125.120117
20396.185957	-1219.770667	1038.704102	209.816071
20396.185957	-1219.770667	1037.549805	220.252350
20396.185957	-1219.770667	1036.394531	180.089615
20396.185957	-1219.770667	1035.239258	141.007339
20396.185957	-1219.770667	1034.083984	11.655899
20396.185957	-1219.770667	1032.928711	173.135849
20396.185957	-1219.770667	1031.773438	227.332397
20396.185957	-1219.770667	1030.617188	211.363998
20396.185957	-1219.770667	1029.460938	105.810822
20396.185957	-1219.770667	1028.304688	-49.098637
20396.185957	-1219.770667	1027.147461	30.438494
20396.185957	-1219.770667	1025.991211	83.092331
20396.185957	-1219.770667	1024.833984	-101.174034
20396.185957	-1219.770667	1023.675781	-132.063843
20396.185957	-1219.770667	1022.518555	39.088436
20396.185957	-1219.770667	1021.360352	2.345733
20396.185957	-1219.770667	1020.202148	-35.314358
20396.185957	-1219.770667	1019.043945	18.666309
20396.185957	-1219.770667	1017.884766	49.701077
20396.185957	-1219.770667	1016.726563	154.188446
20396.185957	-1219.770667	1015.567383	-15.278397
20396.185957	-1219.770667	1014.407227	-22.073051
20396.185957	-1219.770667	1013.248047	-36.990574
20396.185957	-1219.770667	1012.087891	18.687948
20396.185957	-1219.770667	1010.927734	-102.980850
20396.185957	-1219.770667	1009.767578	5.003111
20396.185957	-1219.770667	1008.606445	25.429787
20396.185957	-1219.770667	1007.446289	81.793671
20396.185957	-1219.770667	1006.285156	-17.183346
20396.185957	-1219.770667	1005.123047	-41.404133
20396.185957	-1219.770667	1003.961914	44.645115
20396.185957	-1219.770667	1002.799805	-5.773427
20396.185957	-1219.770667	1001.637695	117.186333
20396.185957	-1219.770667	1000.475586	-54.450611
20396.185957	-1219.770667	999.312500	-99.169502
20396.185957	-1219.770667	998.149414	33.433495
20396.185957	-1219.770667	996.986328	73.604591
20396.185957	-1219.770667	995.823242	-25.114603
20396.185957	-1219.770667	994.659180	22.544420
20396.185957	-1219.770667	993.496094	0.094769
20396.185957	-1219.770667	992.332031	171.640198
20396.185957	-1219.770667	991.166992	99.649452
20396.185957	-1219.770667	990.002930	135.040192
20396.185957	-1219.770667	988.837891	-33.517170
20396.185957	-1219.770667	987.672852	171.941650
20396.185957	-1219.770667	986.506836	94.668793
20396.185957	-1219.770667	985.341797	14.456717
20396.185957	-1219.770667	984.175781	-44.569363
20396.185957	-1219.770667	983.009766	175.491028
20396.185957	-1219.770667	981.843750	105.625793
20396.185957	-1219.770667	980.676758	-40.082001
20396.185957	-1219.770667	979.509766	58.968884
20396.185957	-1219.770667	978.342773	-43.878155
20396.185957	-1219.770667	977.175781	16.845285
20396.185957	-1219.770667	976.007813	146.765579
20396.185957	-1219.770667	974.839844	113.180885
20396.185957	-1219.770667	973.671875	180.611847
20396.185957	-1219.770667	972.503906	53.934589
20396.185957	-1219.770667	971.334961	138.366669
20396.185957	-1219.770667	970.166016	209.070633
20396.185957	-1219.770667	968.997070	282.472870
20396.185957	-1219.770667	967.828125	214.453430
20396.185957	-1219.770667	966.658203	283.681885
20396.185957	-1219.770667	965.488281	235.916626
20396.185957	-1219.770667	964.318359	349.540558
20396.185957	-1219.770667	963.148438	90.689117
20396.185957	-1219.770667	961.977539	129.742203
20396.185957	-1219.770667	960.806641	-39.026558
20396.185957	-1219.770667	959.635742	72.544075
20396.185957	-1219.770667	958.463867	172.314453
20396.185957	-1219.770667	957.292969	54.535946
20396.185957	-1219.770667	956.121094	-55.239880
20396.185957	-1219.770667	954.948242	59.550034
20396.185957	-1219.770667	953.776367	158.439392
20396.185957	-1219.770667	952.603516	91.306793
20396.185957	-1219.770667	951.430664	41.005108
20396.185957	-1219.770667	950.257813	54.895767
20396.185957	-1219.770667	949.084961	-74.589470
20396.185957	-1219.770667	947.911133	-212.839005
20396.185957	-1219.770667	946.737305	-16.863176
20396.185957	-1219.770667	945.563477	-6.873808
20396.185957	-1219.770667	944.388672	-42.255444
20396.185957	-1219.770667	943.213867	44.903481
20396.185957	-1219.770667	942.039063	109.953644
20396.185957	-1219.770667	940.864258	-85.317253
20396.185957	-1219.770667	939.688477	137.924896
20396.185957	-1219.770667	938.513672	51.231327
20396.185957	-1219.770667	937.337891	65.165695
20396.185957	-1219.770667	936.161133	92.789055
20396.185957	-1219.770667	934.985352	69.288940
20396.185957	-1219.770667	933.808594	-11.580169
20396.185957	-1219.770667	932.631836	89.005989
20396.185957	-1219.770667	931.454102	144.090897
20396.185957	-1219.770667	930.277344	213.191742
20396.185957	-1219.770667	929.099609	128.355362
20396.185957	-1219.770667	927.921875	254.464188
20396.185957	-1219.770667	926.743164	61.168530
20396.185957	-1219.770667	925.565430	104.458824
20396.185957	-1219.770667	924.386719	104.373489
20396.185957	-1219.770667	923.208008	110.174347
20396.185957	-1219.770667	922.028320	129.765594
20396.185957	-1219.770667	920.849609	115.844734
20396.185957	-1219.770667	919.669922	115.100967
20396.185957	-1219.770667	919.474609	-28.177820
20396.185957	-1219.770667	918.309570	-30.257372
20396.185957	-1219.770667	917.143555	28.678787
20396.185957	-1219.770667	915.977539	-73.803329
20396.185957	-1219.770667	914.810547	-207.736145
20396.185957	-1219.770667	913.644531	67.581284
20396.185957	-1219.770667	912.477539	14.302876
20396.185957	-1219.770667	911.310547	-17.328102
20396.185957	-1219.770667	910.143555	-218.039261
20396.185957	-1219.770667	908.975586	-155.268845
20396.185957	-1219.770667	907.807617	-239.928864
20396.185957	-1219.770667	906.639648	-82.873901
20396.185957	-1219.770667	905.471680	-155.736374
20396.185957	-1219.770667	904.303711	-201.075974
20396.185957	-1219.770667	903.134766	-197.308517
20396.185957	-1219.770667	901.965820	-222.995956
20396.185957	-1219.770667	900.796875	-77.902557
20396.185957	-1219.770667	899.626953	-111.460793
20396.185957	-1219.770667	898.457031	59.052532
20396.185957	-1219.770667	897.287109	41.169014
20396.185957	-1219.770667	896.117188	7.600410
20396.185957	-1219.770667	894.947266	1.496945
20396.185957	-1219.770667	893.776367	179.682953
20396.185957	-1219.770667	892.605469	87.298576
20396.185957	-1219.770667	891.434570	-65.800400
20396.185957	-1219.770667	890.262695	-18.986950
20396.185957	-1219.770667	889.091797	94.411507
20396.185957	-1219.770667	887.919922	211.679977
20396.185957	-1219.770667	886.748047	156.586990
20396.185957	-1219.770667	885.575195	38.868954
20396.185957	-1219.770667	884.403320	-16.164911
20396.185957	-1219.770667	883.230469	-6.597770
20396.185957	-1219.770667	882.057617	-122.249992
20396.185957	-1219.770667	880.883789	-65.715309
20396.185957	-1219.770667	879.710938	-93.297325
20396.185957	-1219.770667	878.537109	-132.598267
20396.185957	-1219.770667	877.362305	-68.271255
20396.185957	-1219.770667	876.188477	-123.192696
20396.185957	-1219.770667	875.013672	-23.714352
20396.185957	-1219.770667	873.839844	79.634033
20396.185957	-1219.770667	872.664063	-39.736790
20396.185957	-1219.770667	871.489258	71.390160
20396.185957	-1219.770667	870.313477	94.610374
20396.185957	-1219.770667	869.138672	149.059067
20396.185957	-1219.770667	867.962891	90.288284
20396.185957	-1219.770667	866.786133	-32.849335
20396.185957	-1219.770667	865.610352	39.160282
20396.185957	-1219.770667	864.433594	-42.947731
20396.185957	-1219.770667	863.256836	83.645203
20396.185957	-1219.770667	862.079102	-47.174759
20396.185957	-1219.770667	860.902344	-84.368225
20396.185957	-1219.770667	859.724609	-211.194229
20396.185957	-1219.770667	858.546875	-102.192131
20396.185957	-1219.770667	857.368164	-119.860115
20396.185957	-1219.770667	856.190430	-225.163239
20396.185957	-1219.770667	855.011719	10.362128
20396.185957	-1219.770667	853.833008	-143.590561
20396.185957	-1219.770667	852.654297	-81.411476
20396.185957	-1219.770667	851.474609	-114.614899
20396.185957	-1219.770667	850.294922	-91.374115
20396.185957	-1219.770667	849.115234	-112.882057
20396.185957	-1219.770667	847.935547	-77.974236
20396.185957	-1219.770667	846.754883	28.869680
20396.185957	-1219.770667	845.575195	52.077034
20396.185957	-1219.770667	844.393555	55.839355
20396.185957	-1219.770667	843.212891	253.937546
20396.185957	-1219.770667	842.032227	269.321594
20396.185957	-1219.770667	840.850586	478.955170
20396.185957	-1219.770667	839.668945	451.565735
20396.185957	-1219.770667	838.486328	474.675049
20396.185957	-1219.770667	837.304688	526.897827
20396.185957	-1219.770667	836.122070	464.585754
20396.185957	-1219.770667	834.939453	283.929169
20396.185957	-1219.770667	833.756836	454.513855
20396.185957	-1219.770667	832.573242	188.588989
20396.185957	-1219.770667	831.389648	105.072891
20396.185957	-1219.770667	830.206055	103.027817
20396.185957	-1219.770667	829.022461	139.755768
20396.185957	-1219.770667	827.838867	15.603658
20396.185957	-1219.770667	826.654297	102.716667
20396.185957	-1219.770667	825.469727	116.175629
20396.185957	-1219.770667	824.284180	168.366928
20396.185957	-1219.770667	823.099609	38.502731
20396.185957	-1219.770667	821.914063	131.346817
20396.185957	-1219.770667	820.728516	77.035614
20396.185957	-1219.770667	819.542969	-15.960996
20396.185957	-1219.770667	818.356445	-54.743015
20396.185957	-1219.770667	817.169922	-132.201874
20396.185957	-1219.770667	815.983398	-39.425838
20396.185957	-1219.770667	814.796875	-8.571039
20396.185957	-1219.770667	813.609375	-37.666245
20396.185957	-1219.770667	812.422852	35.694004
20396.185957	-1219.770667	811.235352	16.257730
20396.185957	-1219.770667	810.046875	-16.701088
20396.185957	-1219.770667	808.859375	-65.103668
20396.185957	-1219.770667	807.670898	-98.041885
20396.185957	-1219.770667	806.482422	-49.871597
20396.185957	-1219.770667	805.293945	-127.213402
20396.185957	-1219.770667	804.104492	-19.235319
20396.185957	-1219.770667	802.915039	38.517303
20396.185957	-1219.770667	801.725586	75.015160
20396.185957	-1219.770667	800.536133	76.768974
20396.185957	-1219.770667	799.345703	-8.271675
20396.185957	-1219.770667	798.155273	-160.771774
20396.185957	-1219.770667	796.964844	22.210510
20396.185957	-1219.770667	795.774414	-55.085609
20396.185957	-1219.770667	794.583008	-9.036315
20396.185957	-1219.770667	793.392578	96.706718
20396.185957	-1219.770667	792.200195	235.137604
20396.185957	-1219.770667	791.008789	261.805023
20396.185957	-1219.770667	789.816406	438.626007
20396.185957	-1219.770667	788.625000	447.888397
20396.185957	-1219.770667	787.432617	337.809479
20396.185957	-1219.770667	786.239258	329.740631
20396.185957	-1219.770667	785.046875	258.176300
20396.185957	-1219.770667	783.853516	386.654449
20396.185957	-1219.770667	782.660156	201.618958
20396.185957	-1219.770667	781.465820	174.292084
20396.185957	-1219.770667	780.272461	189.247391
20396.185957	-1219.770667	779.078125	167.662369
20396.185957	-1219.770667	777.883789	124.931633
20396.185957	-1219.770667	776.688477	78.355919
20396.185957	-1219.770667	775.494141	137.410263
20396.185957	-1219.770667	774.298828	88.887711
20396.185957	-1219.770667	773.103516	51.881649
20396.185957	-1219.770667	771.907227	105.077477
20396.185957	-1219.770667	770.711914	-6.804069
20396.185957	-1219.770667	769.515625	98.134407
20396.185957	-1219.770667	768.318359	-100.069321
20396.185957	-1219.770667	767.122070	75.750893
20396.185957	-1219.770667	765.924805	19.466911
20396.185957	-1219.770667	764.727539	-90.497269
20396.185957	-1219.770667	763.530273	121.541679
20396.185957	-1219.770667	762.333008	149.509232
20396.185957	-1219.770667	761.134766	127.623779
20396.185957	-1219.770667	759.936523	230.216110
20396.185957	-1219.770667	758.738281	238.899216
20396.185957	-1219.770667	757.540039	203.510666
20396.185957	-1219.770667	756.340820	210.214508
20396.185957	-1219.770667	755.141602	50.380688
20396.185957	-1219.770667	753.942383	168.020615
20396.185957	-1219.770667	752.742188	159.316772
20396.185957	-1219.770667	751.541992	244.296402
20396.185957	-1219.770667	750.341797	206.822449
20396.185957	-1219.770667	749.141602	205.649460
20396.185957	-1219.770667	747.941406	238.843018
20396.185957	-1219.770667	746.740234	42.660156
20396.185957	-1219.770667	745.539063	152.215149
20396.185957	-1219.770667	744.337891	112.685875
20396.185957	-1219.770667	743.135742	52.121246
20396.185957	-1219.770667	741.933594	31.635151
20396.185957	-1219.770667	740.731445	-36.612617
20396.185957	-1219.770667	739.529297	21.091450
20396.185957	-1219.770667	738.326172	-10.963161
20396.185957	-1219.770667	737.124023	-29.694916
20396.185957	-1219.770667	735.919922	-0.785538
20396.185957	-1219.770667	734.716797	20.436689
20396.185957	-1219.770667	733.513672	83.545387
20396.185957	-1219.770667	732.309570	-19.266342
20396.185957	-1219.770667	731.105469	81.835915
20396.185957	-1219.770667	729.900391	68.515862
20396.185957	-1219.770667	728.696289	-51.531609
20396.185957	-1219.770667	727.491211	72.206787
20396.185957	-1219.770667	726.286133	96.818573
20396.185957	-1219.770667	725.080078	117.553223
20396.185957	-1219.770667	723.874023	170.580856
20396.185957	-1219.770667	722.668945	76.996582
20396.185957	-1219.770667	721.461914	6.219700
20396.185957	-1219.770667	720.255859	47.646614
20396.185957	-1219.770667	719.048828	106.109825
20396.185957	-1219.770667	717.841797	77.020409
20396.185957	-1219.770667	716.634766	-30.061903
20396.185957	-1219.770667	715.427734	71.907944
20396.185957	-1219.770667	714.219727	198.471512
20396.185957	-1219.770667	713.011719	250.822815
20396.185957	-1219.770667	711.803711	103.644142
20396.185957	-1219.770667	710.594727	47.611656
20396.185957	-1219.770667	709.385742	69.379990
20396.185957	-1219.770667	708.176758	79.680779
20396.185957	-1219.770667	706.967773	55.746120
20396.185957	-1219.770667	705.758789	16.572311
20396.185957	-1219.770667	704.548828	303.634613
20396.185957	-1219.770667	703.338867	146.685562
20396.185957	-1219.770667	702.127930	52.303391
20396.185957	-1219.770667	700.917969	202.457306
20396.185957	-1219.770667	699.707031	130.700363
20396.185957	-1219.770667	698.496094	151.757111
20396.185957	-1219.770667	697.285156	136.729828
20396.185957	-1219.770667	696.073242	76.166153
20396.185957	-1219.770667	694.861328	115.926079
20396.185957	-1219.770667	693.649414	77.958115
20396.185957	-1219.770667	692.436523	138.363464
20396.185957	-1219.770667	691.224609	285.731049
20396.185957	-1219.770667	690.011719	35.572018
20396.185957	-1219.770667	688.798828	167.598282
20396.185957	-1219.770667	687.584961	129.249207
20396.185957	-1219.770667	686.372070	134.332520
20396.185957	-1219.770667	685.158203	216.844757
20396.185957	-1219.770667	683.943359	272.769989
20396.185957	-1219.770667	682.729492	135.821152
20396.185957	-1219.770667	681.514648	267.149719
20396.185957	-1219.770667	680.299805	324.661438
20396.185957	-1219.770667	679.084961	429.280121
20396.185957	-1219.770667	677.869141	435.571136
20396.185957	-1219.770667	676.653320	434.219818
20396.185957	-1219.770667	675.437500	461.092865
20396.185957	-1219.770667	674.221680	433.139008
20396.185957	-1219.770667	673.004883	486.231964
20396.185957	-1219.770667	671.789063	397.742859
20396.185957	-1219.770667	670.571289	477.037933
20396.185957	-1219.770667	669.354492	271.498535
20396.185957	-1219.770667	668.136719	335.522858
20396.185957	-1219.770667	666.919922	467.282867
20396.185957	-1219.770667	665.701172	393.492188
20396.185957	-1219.770667	664.483398	519.341736
20396.185957	-1219.770667	663.264648	428.432739
20396.185957	-1219.770667	662.045898	465.521942
20396.185957	-1219.770667	660.827148	564.631470
20396.185957	-1219.770667	659.608398	460.310822
20396.185957	-1219.770667	658.388672	322.059143
20396.185957	-1219.770667	657.168945	441.542694
20396.185957	-1219.770667	655.949219	344.547333
20396.185957	-1219.770667	654.728516	424.282532
20396.185957	-1219.770667	653.507813	573.461182
20396.185957	-1219.770667	652.287109	637.881897
20396.185957	-1219.770667	651.066406	626.996277
20396.185957	-1219.770667	649.844727	491.987091
20396.185957	-1219.770667	648.623047	557.966614
20396.185957	-1219.770667	647.401367	325.159363
20396.185957	-1219.770667	646.179688	413.487671
20396.185957	-1219.770667	644.957031	285.752808
20396.185957	-1219.770667	643.734375	417.025909
20396.185957	-1219.770667	642.511719	289.149261
20396.185957	-1219.770667	641.289063	270.060425
20396.185957	-1219.770667	640.065430	241.495087
20396.185957	-1219.770667	638.841797	154.700989
20396.185957	-1219.770667	637.618164	300.370178
20396.185957	-1219.770667	636.393555	183.402222
20396.185957	-1219.770667	635.168945	186.347946
20396.185957	-1219.770667	633.944336	65.510780
20396.185957	-1219.770667	632.719727	126.368019
20396.185957	-1219.770667	631.494141	160.870300
20396.185957	-1219.770667	630.269531	217.742584
20396.185957	-1219.770667	629.042969	184.604202
20396.185957	-1219.770667	627.817383	185.086960
20396.185957	-1219.770667	626.590820	198.567749
20396.185957	-1219.770667	625.365234	288.675507
20396.185957	-1219.770667	624.137695	268.255859
20396.185957	-1219.770667	622.911133	199.126236
20396.185957	-1219.770667	621.683594	200.985748
20396.185957	-1219.770667	620.456055	32.613018
20396.185957	-1219.770667	619.228516	-42.319515
20396.185957	-1219.770667	618.000977	-40.689682
20396.185957	-1219.770667	616.772461	11.287131
20396.185957	-1219.770667	615.543945	137.871872
20396.185957	-1219.770667	614.314453	178.392075
20396.185957	-1219.770667	613.085938	114.245964
20396.185957	-1219.770667	611.856445	199.377945
20396.185957	-1219.770667	610.626953	103.337914
20396.185957	-1219.770667	609.397461	24.044676
20396.185957	-1219.770667	608.166992	140.584839
20396.185957	-1219.770667	606.936523	72.326485
20396.185957	-1219.770667	605.706055	-132.125458
20396.185957	-1219.770667	604.474609	-99.794342
20396.185957	-1219.770667	603.244141	68.526047
20396.185957	-1219.770667	602.012695	-67.099113
20396.185957	-1219.770667	600.780273	-89.096710
20396.185957	-1219.770667	599.548828	-19.874809
20396.185957	-1219.770667	598.316406	-55.072109
20396.185957	-1219.770667	597.083984	-75.436447
20396.185957	-1219.770667	595.851563	-64.221054
20396.185957	-1219.770667	594.618164	-12.147222
20396.185957	-1219.770667	593.384766	-79.270615
20396.185957	-1219.770667	592.151367	-109.229126
20396.185957	-1219.770667	590.917969	-27.640594
20396.185957	-1219.770667	589.683594	-106.105301
20396.185957	-1219.770667	588.449219	-67.468590
20396.185957	-1219.770667	587.214844	-80.968323
20396.185957	-1219.770667	585.979492	-98.256584
20396.185957	-1219.770667	584.745117	-39.410637
20396.185957	-1219.770667	583.509766	-164.581284
20396.185957	-1219.770667	582.273438	-213.620178
20396.185957	-1219.770667	581.038086	88.274246
20396.185957	-1219.770667	579.801758	-90.880066
20396.185957	-1219.770667	578.565430	-177.208069
20396.185957	-1219.770667	577.329102	20.375877
20396.185957	-1219.770667	576.091797	73.091194
20396.185957	-1219.770667	574.854492	36.691074
20396.185957	-1219.770667	573.617188	161.603058
20396.185957	-1219.770667	572.378906	151.045593
20396.185957	-1219.770667	571.141602	146.014938
20396.185957	-1219.770667	569.903320	79.767975
20396.185957	-1219.770667	568.664063	-58.772621
20396.185957	-1219.770667	567.425781	-67.604881
20396.185957	-1219.770667	566.186523	32.795525
20396.185957	-1219.770667	564.947266	-2.068161
20396.185957	-1219.770667	563.708008	-5.480054
20396.185957	-1219.770667	562.467773	-51.509792
20396.185957	-1219.770667	561.227539	-86.448891
20396.185957	-1219.770667	559.987305	85.821945
20396.185957	-1219.770667	558.747070	110.003105
20396.185957	-1219.770667	557.505859	15.772534
20396.185957	-1219.770667	556.264648	32.501038
20396.185957	-1219.770667	555.023438	161.966705
20396.185957	-1219.770667	553.781250	-72.758888
20396.185957	-1219.770667	552.539063	60.321640
20396.185957	-1219.770667	551.296875	110.193977
20396.185957	-1219.770667	550.054688	-8.052138
20396.185957	-1219.770667	548.811523	95.332169
20396.185957	-1219.770667	547.569336	218.983139
20396.185957	-1219.770667	546.325195	137.661331
20396.185957	-1219.770667	545.082031	187.410324
20396.185957	-1219.770667	543.837891	69.222687
20396.185957	-1219.770667	542.593750	248.082870
20396.185957	-1219.770667	541.349609	406.582703
20396.185957	-1219.770667	540.105469	244.181686
20396.185957	-1219.770667	538.860352	234.859421
20396.185957	-1219.770667	537.615234	384.060333
20396.185957	-1219.770667	536.369141	367.354889
20396.185957	-1219.770667	535.124023	450.169403
20396.185957	-1219.770667	533.877930	486.908905
20396.185957	-1219.770667	532.631836	455.516876
20396.185957	-1219.770667	531.384766	287.908630
20396.185957	-1219.770667	530.138672	346.819946
20396.185957	-1219.770667	528.891602	293.463684
20396.185957	-1219.770667	527.643555	-13.761411
20396.185957	-1219.770667	526.396484	253.133713
20396.185957	-1219.770667	525.148438	107.968063
20396.185957	-1219.770667	523.900391	27.260702
20396.185957	-1219.770667	522.652344	176.429321
20396.185957	-1219.770667	521.403320	207.938400
20396.185957	-1219.770667	520.154297	217.430420
20396.185957	-1219.770667	518.905273	87.342628
20396.185957	-1219.770667	517.656250	194.312424
20396.185957	-1219.770667	516.406250	159.878723
20396.185957	-1219.770667	515.156250	268.727753
20396.185957	-1219.770667	513.906250	146.303543
20396.185957	-1219.770667	512.655273	251.555313
20396.185957	-1219.770667	511.404297	105.456245
20396.185957	-1219.770667	510.153320	89.735512
20396.185957	-1219.770667	508.902344	202.476776
20396.185957	-1219.770667	507.650391	14.516118
20396.185957	-1219.770667	506.398438	-120.120804
20396.185957	-1219.770667	505.146484	-161.143356
20396.185957	-1219.770667	503.893555	-290.033173
20396.185957	-1219.770667	502.641602	-114.648933
20396.185957	-1219.770667	501.388672	-237.825058
20396.185957	-1219.770667	500.134766	-252.820099
20396.185957	-1219.770667	498.881836	-115.743744
20396.185957	-1219.770667	497.627930	-209.281113
20396.185957	-1219.770667	496.374023	74.321167
20396.185957	-1219.770667	495.119141	59.649704
20396.185957	-1219.770667	493.865234	204.247345
20396.185957	-1219.770667	492.610352	153.184341
20396.185957	-1219.770667	491.355469	215.619858
20396.185957	-1219.770667	490.099609	261.676819
20396.185957	-1219.770667	488.843750	51.942799
20396.185957	-1219.770667	487.587891	-15.054712
20396.185957	-1219.770667	486.332031	67.904060
20396.185957	-1219.770667	485.075195	163.722458
20396.185957	-1219.770667	483.818359	-70.914841
20396.185957	-1219.770667	482.561523	180.325073
20396.185957	-1219.770667	481.304688	42.776951
20396.185957	-1219.770667	480.046875	20.379459
20396.185957	-1219.770667	478.789063	74.752167
20396.185957	-1219.770667	477.531250	81.801903
20396.185957	-1219.770667	476.272461	81.677368
20396.185957	-1219.770667	475.013672	1.454636
20396.185957	-1219.770667	473.754883	72.712158
20396.185957	-1219.770667	472.496094	103.975594
20396.185957	-1219.770667	471.236328	58.821445
20396.185957	-1219.770667	469.976563	155.927551
20396.185957	-1219.770667	468.716797	240.380783
20396.185957	-1219.770667	467.456055	275.762604
20396.185957	-1219.770667	466.196289	214.781769
20396.185957	-1219.770667	464.935547	170.343414
20396.185957	-1219.770667	463.673828	155.178848
20396.185957	-1219.770667	462.413086	232.962616
20396.185957	-1219.770667	461.151367	201.704666
20396.185957	-1219.770667	459.889648	281.542938
20396.185957	-1219.770667	458.626953	1.462191
20396.185957	-1219.770667	457.364258	188.846939
20396.185957	-1219.770667	456.101563	134.565079
20396.185957	-1219.770667	454.838867	93.168976
20396.185957	-1219.770667	453.575195	202.716476
20396.185957	-1219.770667	452.312500	183.403641
20396.185957	-1219.770667	451.047852	75.249924
20396.185957	-1219.770667	449.784180	225.095322
20396.185957	-1219.770667	448.519531	164.452515
20396.185957	-1219.770667	447.254883	238.266403
20396.185957	-1219.770667	445.990234	301.299103
20396.185957	-1219.770667	444.725586	422.486389
20396.185957	-1219.770667	443.459961	284.407135
20396.185957	-1219.770667	442.194336	269.815613
20396.185957	-1219.770667	440.927734	264.420349
20396.185957	-1219.770667	439.662109	357.027710
20396.185957	-1219.770667	438.395508	248.580200
20396.185957	-1219.770667	437.127930	345.011749
20396.185957	-1219.770667	435.861328	180.705551
20396.185957	-1219.770667	434.593750	11.148979
20396.185957	-1219.770667	433.326172	-18.819014
20396.185957	-1219.770667	432.058594	87.088730
20396.185957	-1219.770667	430.790039	17.513266
20396.185957	-1219.770667	429.521484	92.809135
20396.185957	-1219.770667	428.252930	21.647509
20396.185957	-1219.770667	426.984375	50.073296
20396.185957	-1219.770667	425.714844	64.103752
20396.185957	-1219.770667	424.445313	43.861553
20396.185957	-1219.770667	423.174805	179.128143
20396.185957	-1219.770667	421.905273	61.437462
20396.185957	-1219.770667	420.634766	227.481613
20396.185957	-1219.770667	419.364258	140.649399
20396.185957	-1219.770667	418.092773	39.454620
20396.185957	-1219.770667	416.822266	252.479401
20396.185957	-1219.770667	415.550781	46.690277
20396.185957	-1219.770667	414.278320	23.275658
20396.185957	-1219.770667	413.006836	16.128010
20396.185957	-1219.770667	411.734375	70.317436
20396.185957	-1219.770667	410.461914	57.758427
20396.185957	-1219.770667	409.188477	84.857933
20396.185957	-1219.770667	407.916016	-30.478455
20396.185957	-1219.770667	406.642578	-30.454615
20396.185957	-1219.770667	405.368164	92.050644
20396.185957	-1219.770667	404.094727	-79.181190
20396.185957	-1219.770667	402.820313	99.000046
20396.185957	-1219.770667	401.545898	-110.113014
20396.185957	-1219.770667	400.270508	-81.590218
20396.185957	-1219.770667	398.996094	-51.376991
20396.185957	-1219.770667	397.720703	-24.890829
20396.185957	-1219.770667	396.444336	-115.488396
20396.185957	-1219.770667	395.168945	15.056842
20396.185957	-1219.770667	393.892578	-0.278126
20396.185957	-1219.770667	392.616211	-130.844070
20396.185957	-1219.770667	391.339844	-74.596031
20396.185957	-1219.770667	390.062500	-22.174065
20396.185957	-1219.770667	388.785156	-97.563927
20396.185957	-1219.770667	387.507813	94.500427
20396.185957	-1219.770667	386.229492	146.135529
20396.185957	-1219.770667	384.951172	114.877892
20396.185957	-1219.770667	383.672852	13.327797
20396.185957	-1219.770667	382.394531	254.317368
20396.185957	-1219.770667	381.115234	155.720642
20396.185957	-1219.770667	379.835938	44.255211
20396.185957	-1219.770667	378.556641	-11.935149
20396.185957	-1219.770667	377.277344	134.138412
20396.185957	-1219.770667	375.997070	68.165565
20396.185957	-1219.770667	374.716797	270.645630
20396.185957	-1219.770667	373.435547	191.208572
20396.185957	-1219.770667	372.155273	182.986633
20396.185957	-1219.770667	370.874023	176.033356
20396.185957	-1219.770667	369.591797	157.784454
20396.185957	-1219.770667	368.310547	273.266876
20396.185957	-1219.770667	367.028320	-50.489006
20396.185957	-1219.770667	365.746094	94.176743
20396.185957	-1219.770667	364.463867	177.283035
20396.185957	-1219.770667	363.180664	0.256057
20396.185957	-1219.770667	361.897461	140.949142
20396.185957	-1219.770667	360.614258	137.776245
20396.185957	-1219.770667	359.330078	114.141808
20396.185957	-1219.770667	358.045898	150.469543
20396.185957	-1219.770667	356.761719	187.715790
20396.185957	-1219.770667	355.477539	322.321411
20396.185957	-1219.770667	354.192383	323.748169
20396.185957	-1219.770667	352.907227	136.698044
20396.185957	-1219.770667	351.622070	332.600372
20396.185957	-1219.770667	350.336914	172.152100
20396.185957	-1219.770667	349.050781	87.415604
20396.185957	-1219.770667	347.764648	174.671066
20396.185957	-1219.770667	346.477539	246.432175
20396.185957	-1219.770667	345.191406	154.677582
20396.185957	-1219.770667	343.904297	58.124344
20396.185957	-1219.770667	342.616211	345.361908
20396.185957	-1219.770667	341.329102	53.677090
20396.185957	-1219.770667	340.041016	68.980049
20396.185957	-1219.770667	338.752930	-57.906136
20396.185957	-1219.770667	337.463867	15.017587
20396.185957	-1219.770667	336.175781	2.699328
20396.185957	-1219.770667	334.886719	-73.549004
20396.185957	-1219.770667	333.596680	19.437422
20396.185957	-1219.770667	332.307617	-15.640637
20396.185957	-1219.770667	331.017578	-52.493038
20396.185957	-1219.770667	329.727539	-100.040138
20396.185957	-1219.770667	328.436523	23.032627
20396.185957	-1219.770667	327.146484	-126.111198
20396.185957	-1219.770667	325.855469	-181.228851
20396.185957	-1219.770667	324.563477	-135.339050
20396.185957	-1219.770667	323.272461	-13.369020
20396.185957	-1219.770667	321.980469	-26.920330
20396.185957	-1219.770667	320.688477	-87.125526
20396.185957	-1219.770667	319.395508	22.570971
20396.185957	-1219.770667	318.103516	-6.828468
20396.185957	-1219.770667	316.810547	-150.551254
20396.185957	-1219.770667	315.516602	-89.178818
20396.185957	-1219.770667	314.223633	19.283117
20396.185957	-1219.770667	312.929688	25.620523
20396.185957	-1219.770667	311.635742	-57.709301
20396.185957	-1219.770667	310.340820	-87.174232
20396.185957	-1219.770667	309.045898	-14.971502
20396.185957	-1219.770667	307.750977	-18.475504
20396.185957	-1219.770667	306.456055	176.918243
20396.185957	-1219.770667	305.160156	167.027817
20396.185957	-1219.770667	303.865234	123.833931
20396.185957	-1219.770667	302.568359	57.673859
20396.185957	-1219.770667	301.272461	218.303711
20396.185957	-1219.770667	299.975586	274.353302
20396.185957	-1219.770667	298.678711	503.688690
