#X		#Y		#Wave		#Intensity
-7155.244149	6588.556667	1999.946289	33.167347
-7155.244149	6588.556667	1998.981445	-123.187302
-7155.244149	6588.556667	1998.017578	68.197914
-7155.244149	6588.556667	1997.052734	-8.363034
-7155.244149	6588.556667	1996.088867	236.967377
-7155.244149	6588.556667	1995.124023	-60.525425
-7155.244149	6588.556667	1994.159180	-90.638504
-7155.244149	6588.556667	1993.193359	148.960342
-7155.244149	6588.556667	1992.228516	158.014252
-7155.244149	6588.556667	1991.262695	85.177513
-7155.244149	6588.556667	1990.296875	232.439636
-7155.244149	6588.556667	1989.331055	132.016815
-7155.244149	6588.556667	1988.365234	9.183762
-7155.244149	6588.556667	1987.398438	12.368491
-7155.244149	6588.556667	1986.432617	-95.902031
-7155.244149	6588.556667	1985.465820	240.768723
-7155.244149	6588.556667	1984.499023	55.534740
-7155.244149	6588.556667	1983.532227	137.158463
-7155.244149	6588.556667	1982.565430	87.629753
-7155.244149	6588.556667	1981.597656	139.275436
-7155.244149	6588.556667	1980.629883	84.541740
-7155.244149	6588.556667	1979.662109	93.912346
-7155.244149	6588.556667	1978.694336	-170.950439
-7155.244149	6588.556667	1977.726563	136.956375
-7155.244149	6588.556667	1976.758789	126.198227
-7155.244149	6588.556667	1975.790039	-30.285131
-7155.244149	6588.556667	1974.821289	-90.584396
-7155.244149	6588.556667	1973.852539	39.003242
-7155.244149	6588.556667	1972.883789	119.110207
-7155.244149	6588.556667	1971.915039	137.438141
-7155.244149	6588.556667	1970.945313	214.840927
-7155.244149	6588.556667	1969.975586	92.442734
-7155.244149	6588.556667	1969.005859	149.938110
-7155.244149	6588.556667	1968.036133	172.833054
-7155.244149	6588.556667	1967.066406	146.367828
-7155.244149	6588.556667	1966.096680	77.963264
-7155.244149	6588.556667	1965.125977	-121.026764
-7155.244149	6588.556667	1964.155273	17.359793
-7155.244149	6588.556667	1963.184570	-19.171324
-7155.244149	6588.556667	1962.213867	27.949812
-7155.244149	6588.556667	1961.242188	55.306019
-7155.244149	6588.556667	1960.271484	28.472294
-7155.244149	6588.556667	1959.299805	82.784477
-7155.244149	6588.556667	1958.328125	-76.967415
-7155.244149	6588.556667	1957.356445	178.925797
-7155.244149	6588.556667	1956.384766	56.021851
-7155.244149	6588.556667	1955.412109	164.213409
-7155.244149	6588.556667	1954.439453	245.296219
-7155.244149	6588.556667	1953.467773	80.576805
-7155.244149	6588.556667	1952.495117	235.302109
-7155.244149	6588.556667	1951.521484	117.260849
-7155.244149	6588.556667	1950.548828	-8.119485
-7155.244149	6588.556667	1949.575195	55.608860
-7155.244149	6588.556667	1948.601563	33.366364
-7155.244149	6588.556667	1947.627930	-3.609223
-7155.244149	6588.556667	1946.654297	30.591667
-7155.244149	6588.556667	1945.680664	216.909775
-7155.244149	6588.556667	1944.706055	155.355026
-7155.244149	6588.556667	1943.732422	137.977600
-7155.244149	6588.556667	1942.757813	245.673904
-7155.244149	6588.556667	1941.783203	-58.606659
-7155.244149	6588.556667	1940.807617	-58.786076
-7155.244149	6588.556667	1939.833008	-63.857368
-7155.244149	6588.556667	1938.857422	-56.674347
-7155.244149	6588.556667	1937.881836	-10.282987
-7155.244149	6588.556667	1936.906250	-69.238213
-7155.244149	6588.556667	1935.930664	62.882542
-7155.244149	6588.556667	1934.955078	-8.285327
-7155.244149	6588.556667	1933.978516	30.757774
-7155.244149	6588.556667	1933.001953	-81.968063
-7155.244149	6588.556667	1932.025391	57.451694
-7155.244149	6588.556667	1931.048828	169.920776
-7155.244149	6588.556667	1930.072266	233.437622
-7155.244149	6588.556667	1929.094727	81.691086
-7155.244149	6588.556667	1928.118164	-79.753304
-7155.244149	6588.556667	1927.140625	35.184010
-7155.244149	6588.556667	1926.163086	52.314602
-7155.244149	6588.556667	1925.184570	115.900528
-7155.244149	6588.556667	1924.207031	23.091843
-7155.244149	6588.556667	1923.228516	-35.453732
-7155.244149	6588.556667	1922.250000	8.653212
-7155.244149	6588.556667	1921.271484	-0.960434
-7155.244149	6588.556667	1920.292969	-32.517437
-7155.244149	6588.556667	1919.314453	-61.589233
-7155.244149	6588.556667	1918.334961	182.775589
-7155.244149	6588.556667	1917.355469	-78.123764
-7155.244149	6588.556667	1916.375977	29.570816
-7155.244149	6588.556667	1915.396484	81.147110
-7155.244149	6588.556667	1914.416992	54.683853
-7155.244149	6588.556667	1913.436523	-127.821648
-7155.244149	6588.556667	1912.457031	84.792046
-7155.244149	6588.556667	1911.476563	99.890984
-7155.244149	6588.556667	1910.496094	-133.596283
-7155.244149	6588.556667	1909.515625	64.384399
-7155.244149	6588.556667	1908.534180	-108.024155
-7155.244149	6588.556667	1907.552734	192.263611
-7155.244149	6588.556667	1906.572266	-38.476521
-7155.244149	6588.556667	1905.590820	-25.582317
-7155.244149	6588.556667	1904.608398	21.428055
-7155.244149	6588.556667	1903.626953	56.294086
-7155.244149	6588.556667	1902.644531	42.506287
-7155.244149	6588.556667	1901.663086	43.369350
-7155.244149	6588.556667	1900.680664	-18.986458
-7155.244149	6588.556667	1899.698242	86.558006
-7155.244149	6588.556667	1898.714844	-9.754721
-7155.244149	6588.556667	1897.732422	-76.806923
-7155.244149	6588.556667	1896.749023	72.566063
-7155.244149	6588.556667	1895.765625	54.212593
-7155.244149	6588.556667	1894.782227	96.659981
-7155.244149	6588.556667	1893.798828	44.374969
-7155.244149	6588.556667	1892.814453	-134.175217
-7155.244149	6588.556667	1891.831055	-186.315903
-7155.244149	6588.556667	1890.846680	-24.708235
-7155.244149	6588.556667	1889.862305	132.023071
-7155.244149	6588.556667	1888.877930	24.148331
-7155.244149	6588.556667	1887.892578	78.956184
-7155.244149	6588.556667	1886.908203	-36.068714
-7155.244149	6588.556667	1885.922852	16.383505
-7155.244149	6588.556667	1884.937500	-16.039732
-7155.244149	6588.556667	1883.952148	82.545074
-7155.244149	6588.556667	1882.965820	-104.985458
-7155.244149	6588.556667	1881.980469	-59.675510
-7155.244149	6588.556667	1880.994141	12.312440
-7155.244149	6588.556667	1880.007813	-2.928194
-7155.244149	6588.556667	1879.021484	-54.468109
-7155.244149	6588.556667	1878.035156	46.661037
-7155.244149	6588.556667	1877.047852	113.877975
-7155.244149	6588.556667	1876.061523	229.539322
-7155.244149	6588.556667	1875.074219	88.558159
-7155.244149	6588.556667	1874.086914	95.322479
-7155.244149	6588.556667	1873.098633	-21.312382
-7155.244149	6588.556667	1872.111328	-106.410088
-7155.244149	6588.556667	1871.123047	-12.419636
-7155.244149	6588.556667	1870.135742	-111.931229
-7155.244149	6588.556667	1869.147461	-163.008972
-7155.244149	6588.556667	1868.158203	49.511696
-7155.244149	6588.556667	1867.169922	-37.774101
-7155.244149	6588.556667	1866.180664	-4.150052
-7155.244149	6588.556667	1865.192383	77.826439
-7155.244149	6588.556667	1864.203125	-93.888931
-7155.244149	6588.556667	1863.213867	12.286614
-7155.244149	6588.556667	1862.223633	-33.707382
-7155.244149	6588.556667	1861.234375	67.645599
-7155.244149	6588.556667	1860.244141	-48.298153
-7155.244149	6588.556667	1859.253906	-147.274384
-7155.244149	6588.556667	1858.263672	4.802177
-7155.244149	6588.556667	1857.273438	-156.829880
-7155.244149	6588.556667	1856.282227	-33.710377
-7155.244149	6588.556667	1855.291992	38.739296
-7155.244149	6588.556667	1854.300781	132.886459
-7155.244149	6588.556667	1853.309570	-14.086883
-7155.244149	6588.556667	1852.317383	-64.560333
-7155.244149	6588.556667	1851.326172	32.030823
-7155.244149	6588.556667	1850.333984	106.917358
-7155.244149	6588.556667	1849.342773	58.925610
-7155.244149	6588.556667	1848.350586	119.365517
-7155.244149	6588.556667	1847.357422	-29.728434
-7155.244149	6588.556667	1846.365234	86.125229
-7155.244149	6588.556667	1845.372070	50.280491
-7155.244149	6588.556667	1844.379883	-57.742184
-7155.244149	6588.556667	1843.386719	103.824341
-7155.244149	6588.556667	1842.393555	-129.256195
-7155.244149	6588.556667	1841.399414	-145.727493
-7155.244149	6588.556667	1840.406250	80.748138
-7155.244149	6588.556667	1839.412109	25.794401
-7155.244149	6588.556667	1838.417969	-57.978363
-7155.244149	6588.556667	1837.423828	65.022827
-7155.244149	6588.556667	1836.429688	163.954422
-7155.244149	6588.556667	1835.434570	68.218307
-7155.244149	6588.556667	1834.440430	-87.531609
-7155.244149	6588.556667	1833.445313	244.395920
-7155.244149	6588.556667	1832.450195	-65.015831
-7155.244149	6588.556667	1831.454102	-6.934262
-7155.244149	6588.556667	1830.458984	-92.905739
-7155.244149	6588.556667	1829.462891	-46.829784
-7155.244149	6588.556667	1828.466797	16.031763
-7155.244149	6588.556667	1827.470703	107.665436
-7155.244149	6588.556667	1826.474609	31.346819
-7155.244149	6588.556667	1825.478516	50.996052
-7155.244149	6588.556667	1824.481445	-54.056217
-7155.244149	6588.556667	1823.484375	126.234787
-7155.244149	6588.556667	1822.487305	64.355598
-7155.244149	6588.556667	1821.490234	-52.622276
-7155.244149	6588.556667	1820.493164	132.357040
-7155.244149	6588.556667	1819.495117	36.965050
-7155.244149	6588.556667	1818.498047	13.465866
-7155.244149	6588.556667	1817.500000	47.445423
-7155.244149	6588.556667	1816.500977	71.826790
-7155.244149	6588.556667	1815.502930	96.197357
-7155.244149	6588.556667	1814.504883	94.224731
-7155.244149	6588.556667	1813.505859	149.675110
-7155.244149	6588.556667	1812.506836	102.218323
-7155.244149	6588.556667	1811.507813	-76.793839
-7155.244149	6588.556667	1810.508789	57.556858
-7155.244149	6588.556667	1809.508789	-6.622569
-7155.244149	6588.556667	1808.508789	182.628738
-7155.244149	6588.556667	1807.508789	187.745636
-7155.244149	6588.556667	1806.508789	-12.674938
-7155.244149	6588.556667	1805.508789	52.187607
-7155.244149	6588.556667	1804.508789	78.789612
-7155.244149	6588.556667	1803.507813	100.588661
-7155.244149	6588.556667	1802.506836	143.857224
-7155.244149	6588.556667	1801.505859	96.366112
-7155.244149	6588.556667	1800.504883	113.329491
-7155.244149	6588.556667	1799.502930	120.720551
-7155.244149	6588.556667	1798.501953	-103.369019
-7155.244149	6588.556667	1797.500000	51.942352
-7155.244149	6588.556667	1796.498047	214.332535
-7155.244149	6588.556667	1795.496094	145.310669
-7155.244149	6588.556667	1794.493164	-54.850334
-7155.244149	6588.556667	1793.491211	14.434596
-7155.244149	6588.556667	1792.488281	7.396508
-7155.244149	6588.556667	1791.485352	114.726082
-7155.244149	6588.556667	1790.482422	143.366074
-7155.244149	6588.556667	1789.478516	-40.040516
-7155.244149	6588.556667	1788.475586	33.824013
-7155.244149	6588.556667	1787.471680	279.084106
-7155.244149	6588.556667	1786.467773	81.398354
-7155.244149	6588.556667	1785.463867	21.821865
-7155.244149	6588.556667	1784.459961	64.577721
-7155.244149	6588.556667	1783.455078	173.912338
-7155.244149	6588.556667	1782.450195	154.712936
-7155.244149	6588.556667	1781.445313	259.177216
-7155.244149	6588.556667	1780.440430	178.083038
-7155.244149	6588.556667	1779.435547	56.571434
-7155.244149	6588.556667	1778.429688	-10.251865
-7155.244149	6588.556667	1777.424805	-1.019701
-7155.244149	6588.556667	1776.418945	84.216141
-7155.244149	6588.556667	1775.413086	124.248405
-7155.244149	6588.556667	1774.406250	133.350693
-7155.244149	6588.556667	1773.400391	-33.323460
-7155.244149	6588.556667	1772.393555	25.606606
-7155.244149	6588.556667	1771.386719	74.985535
-7155.244149	6588.556667	1770.379883	-48.959553
-7155.244149	6588.556667	1769.373047	204.436935
-7155.244149	6588.556667	1768.365234	37.736549
-7155.244149	6588.556667	1767.358398	18.146004
-7155.244149	6588.556667	1766.350586	5.641336
-7155.244149	6588.556667	1765.342773	47.645561
-7155.244149	6588.556667	1764.334961	77.744247
-7155.244149	6588.556667	1763.326172	-107.916206
-7155.244149	6588.556667	1762.318359	52.476753
-7155.244149	6588.556667	1761.309570	-7.596232
-7155.244149	6588.556667	1760.300781	188.175751
-7155.244149	6588.556667	1759.291016	-44.887142
-7155.244149	6588.556667	1758.282227	209.946869
-7155.244149	6588.556667	1757.272461	171.044922
-7155.244149	6588.556667	1756.262695	56.367527
-7155.244149	6588.556667	1755.252930	-164.812149
-7155.244149	6588.556667	1754.243164	-80.684822
-7155.244149	6588.556667	1753.233398	38.859627
-7155.244149	6588.556667	1752.222656	6.925320
-7155.244149	6588.556667	1751.211914	12.804050
-7155.244149	6588.556667	1750.201172	51.744617
-7155.244149	6588.556667	1749.190430	-79.586205
-7155.244149	6588.556667	1748.179688	-54.905422
-7155.244149	6588.556667	1747.167969	-25.553362
-7155.244149	6588.556667	1746.156250	164.415314
-7155.244149	6588.556667	1745.144531	21.184040
-7155.244149	6588.556667	1744.132813	40.935253
-7155.244149	6588.556667	1743.121094	-151.889786
-7155.244149	6588.556667	1742.108398	21.261023
-7155.244149	6588.556667	1741.095703	-39.386456
-7155.244149	6588.556667	1740.083008	86.392265
-7155.244149	6588.556667	1739.070313	131.854874
-7155.244149	6588.556667	1738.057617	-86.968437
-7155.244149	6588.556667	1737.043945	43.332676
-7155.244149	6588.556667	1736.030273	142.885696
-7155.244149	6588.556667	1735.016602	-151.396362
-7155.244149	6588.556667	1734.002930	84.795990
-7155.244149	6588.556667	1732.989258	78.094559
-7155.244149	6588.556667	1731.974609	92.557030
-7155.244149	6588.556667	1730.959961	-3.762136
-7155.244149	6588.556667	1729.945313	-36.487957
-7155.244149	6588.556667	1728.930664	-12.721027
-7155.244149	6588.556667	1727.916016	10.993731
-7155.244149	6588.556667	1726.900391	-57.162113
-7155.244149	6588.556667	1725.885742	164.180725
-7155.244149	6588.556667	1724.870117	81.816025
-7155.244149	6588.556667	1723.853516	-9.977983
-7155.244149	6588.556667	1722.837891	-115.888374
-7155.244149	6588.556667	1721.822266	55.728302
-7155.244149	6588.556667	1720.805664	34.408909
-7155.244149	6588.556667	1719.789063	-22.211466
-7155.244149	6588.556667	1718.772461	-158.773361
-7155.244149	6588.556667	1717.754883	-41.514400
-7155.244149	6588.556667	1716.738281	132.054626
-7155.244149	6588.556667	1715.720703	9.503237
-7155.244149	6588.556667	1714.703125	-7.346698
-7155.244149	6588.556667	1713.685547	-179.225510
-7155.244149	6588.556667	1712.667969	-20.024662
-7155.244149	6588.556667	1711.649414	68.643051
-7155.244149	6588.556667	1710.630859	-16.443296
-7155.244149	6588.556667	1709.612305	-52.261066
-7155.244149	6588.556667	1708.593750	-62.300308
-7155.244149	6588.556667	1707.575195	96.510468
-7155.244149	6588.556667	1706.555664	30.072969
-7155.244149	6588.556667	1705.536133	-167.686035
-7155.244149	6588.556667	1704.516602	61.253204
-7155.244149	6588.556667	1703.497070	-80.265320
-7155.244149	6588.556667	1702.477539	-123.347801
-7155.244149	6588.556667	1701.457031	-14.166903
-7155.244149	6588.556667	1700.437500	-3.447876
-7155.244149	6588.556667	1699.416992	98.562347
-7155.244149	6588.556667	1698.395508	69.356117
-7155.244149	6588.556667	1697.375000	93.976006
-7155.244149	6588.556667	1696.354492	36.621407
-7155.244149	6588.556667	1695.333008	7.327522
-7155.244149	6588.556667	1694.311523	-52.411003
-7155.244149	6588.556667	1693.290039	-9.233491
-7155.244149	6588.556667	1692.267578	-136.856766
-7155.244149	6588.556667	1691.246094	-28.278822
-7155.244149	6588.556667	1690.223633	-46.037170
-7155.244149	6588.556667	1689.201172	48.375740
-7155.244149	6588.556667	1688.178711	112.334305
-7155.244149	6588.556667	1687.155273	164.541504
-7155.244149	6588.556667	1686.132813	15.784844
-7155.244149	6588.556667	1685.109375	79.598824
-7155.244149	6588.556667	1684.085938	-6.107442
-7155.244149	6588.556667	1683.062500	158.014114
-7155.244149	6588.556667	1682.039063	230.997086
-7155.244149	6588.556667	1681.014648	2.828539
-7155.244149	6588.556667	1679.990234	162.078857
-7155.244149	6588.556667	1678.965820	253.575623
-7155.244149	6588.556667	1677.941406	132.735321
-7155.244149	6588.556667	1676.916992	144.843536
-7155.244149	6588.556667	1675.891602	21.668449
-7155.244149	6588.556667	1674.866211	259.855865
-7155.244149	6588.556667	1673.840820	101.681610
-7155.244149	6588.556667	1672.815430	176.573929
-7155.244149	6588.556667	1671.790039	286.357513
-7155.244149	6588.556667	1670.763672	223.680359
-7155.244149	6588.556667	1669.737305	324.029205
-7155.244149	6588.556667	1668.710938	177.482697
-7155.244149	6588.556667	1667.684570	314.995453
-7155.244149	6588.556667	1666.658203	298.801392
-7155.244149	6588.556667	1665.630859	443.157806
-7155.244149	6588.556667	1664.603516	422.230255
-7155.244149	6588.556667	1663.576172	364.063293
-7155.244149	6588.556667	1662.548828	461.727753
-7155.244149	6588.556667	1661.520508	503.511139
-7155.244149	6588.556667	1660.493164	324.388916
-7155.244149	6588.556667	1659.464844	540.474609
-7155.244149	6588.556667	1658.436523	537.988647
-7155.244149	6588.556667	1657.408203	419.300781
-7155.244149	6588.556667	1656.378906	639.812683
-7155.244149	6588.556667	1655.350586	695.311584
-7155.244149	6588.556667	1654.321289	525.498718
-7155.244149	6588.556667	1653.291992	641.316345
-7155.244149	6588.556667	1652.261719	650.278381
-7155.244149	6588.556667	1651.232422	659.224976
-7155.244149	6588.556667	1650.202148	552.118042
-7155.244149	6588.556667	1649.171875	540.154724
-7155.244149	6588.556667	1648.141602	669.674622
-7155.244149	6588.556667	1647.111328	611.276917
-7155.244149	6588.556667	1646.080078	596.932495
-7155.244149	6588.556667	1645.049805	805.137085
-7155.244149	6588.556667	1644.018555	658.616028
-7155.244149	6588.556667	1642.987305	628.004089
-7155.244149	6588.556667	1641.955078	701.644348
-7155.244149	6588.556667	1640.923828	657.110535
-7155.244149	6588.556667	1639.891602	649.630005
-7155.244149	6588.556667	1638.859375	651.403137
-7155.244149	6588.556667	1637.827148	613.807434
-7155.244149	6588.556667	1636.794922	756.758667
-7155.244149	6588.556667	1635.761719	656.646729
-7155.244149	6588.556667	1634.729492	417.745636
-7155.244149	6588.556667	1633.696289	694.788574
-7155.244149	6588.556667	1632.662109	523.015381
-7155.244149	6588.556667	1631.628906	543.238342
-7155.244149	6588.556667	1630.594727	887.113403
-7155.244149	6588.556667	1629.561523	766.243896
-7155.244149	6588.556667	1628.527344	767.894043
-7155.244149	6588.556667	1627.493164	640.146179
-7155.244149	6588.556667	1626.458008	916.714355
-7155.244149	6588.556667	1625.423828	620.370850
-7155.244149	6588.556667	1624.388672	684.378906
-7155.244149	6588.556667	1623.353516	778.374634
-7155.244149	6588.556667	1622.318359	870.024719
-7155.244149	6588.556667	1621.282227	966.247314
-7155.244149	6588.556667	1620.247070	801.696594
-7155.244149	6588.556667	1619.210938	879.440552
-7155.244149	6588.556667	1618.174805	1074.791992
-7155.244149	6588.556667	1617.137695	940.287231
-7155.244149	6588.556667	1616.101563	951.103821
-7155.244149	6588.556667	1615.064453	1028.763916
-7155.244149	6588.556667	1614.027344	1069.522705
-7155.244149	6588.556667	1612.990234	1048.053833
-7155.244149	6588.556667	1611.953125	1238.557129
-7155.244149	6588.556667	1610.916016	1191.740479
-7155.244149	6588.556667	1609.877930	1262.394165
-7155.244149	6588.556667	1608.839844	1280.071045
-7155.244149	6588.556667	1607.801758	1081.354980
-7155.244149	6588.556667	1606.763672	1053.047607
-7155.244149	6588.556667	1605.724609	1149.019165
-7155.244149	6588.556667	1604.685547	1270.271973
-7155.244149	6588.556667	1603.646484	1297.179688
-7155.244149	6588.556667	1602.607422	1190.698242
-7155.244149	6588.556667	1601.568359	1307.313599
-7155.244149	6588.556667	1600.528320	1433.086914
-7155.244149	6588.556667	1599.489258	1372.656250
-7155.244149	6588.556667	1598.449219	1431.755981
-7155.244149	6588.556667	1597.408203	1651.675171
-7155.244149	6588.556667	1596.368164	1692.354370
-7155.244149	6588.556667	1595.327148	1829.491333
-7155.244149	6588.556667	1594.287109	1718.606567
-7155.244149	6588.556667	1593.246094	1545.790405
-7155.244149	6588.556667	1592.204102	1639.317017
-7155.244149	6588.556667	1591.163086	1771.849609
-7155.244149	6588.556667	1590.121094	1651.953979
-7155.244149	6588.556667	1589.079102	1651.418335
-7155.244149	6588.556667	1588.037109	1593.566528
-7155.244149	6588.556667	1586.995117	1732.970581
-7155.244149	6588.556667	1585.953125	1633.908691
-7155.244149	6588.556667	1584.910156	1514.274048
-7155.244149	6588.556667	1583.867188	1529.927856
-7155.244149	6588.556667	1582.824219	1554.767334
-7155.244149	6588.556667	1581.781250	1384.902588
-7155.244149	6588.556667	1580.737305	1441.878540
-7155.244149	6588.556667	1579.693359	1402.683960
-7155.244149	6588.556667	1578.649414	1407.035522
-7155.244149	6588.556667	1577.605469	1253.470947
-7155.244149	6588.556667	1576.561523	1399.808350
-7155.244149	6588.556667	1575.516602	1241.787231
-7155.244149	6588.556667	1574.472656	1337.806885
-7155.244149	6588.556667	1573.427734	1340.037842
-7155.244149	6588.556667	1572.381836	1122.761230
-7155.244149	6588.556667	1571.336914	1193.696533
-7155.244149	6588.556667	1570.291016	1365.215454
-7155.244149	6588.556667	1569.246094	1443.005371
-7155.244149	6588.556667	1568.200195	1050.079712
-7155.244149	6588.556667	1567.153320	1057.143311
-7155.244149	6588.556667	1566.107422	1217.287720
-7155.244149	6588.556667	1565.060547	1037.133789
-7155.244149	6588.556667	1564.013672	978.103577
-7155.244149	6588.556667	1562.966797	884.896057
-7155.244149	6588.556667	1561.919922	1083.908325
-7155.244149	6588.556667	1560.872070	1218.987793
-7155.244149	6588.556667	1559.825195	1075.726074
-7155.244149	6588.556667	1558.777344	912.030029
-7155.244149	6588.556667	1557.729492	1272.972656
-7155.244149	6588.556667	1556.680664	1118.508789
-7155.244149	6588.556667	1555.632813	1258.234741
-7155.244149	6588.556667	1554.583984	1195.097778
-7155.244149	6588.556667	1553.535156	1430.552368
-7155.244149	6588.556667	1552.486328	1529.264404
-7155.244149	6588.556667	1551.436523	1602.925293
-7155.244149	6588.556667	1550.387695	1710.774170
-7155.244149	6588.556667	1549.337891	1672.900391
-7155.244149	6588.556667	1548.288086	1794.449829
-7155.244149	6588.556667	1547.238281	1875.034424
-7155.244149	6588.556667	1546.187500	1973.839966
-7155.244149	6588.556667	1545.136719	2002.129272
-7155.244149	6588.556667	1544.086914	2107.809570
-7155.244149	6588.556667	1543.035156	2038.371704
-7155.244149	6588.556667	1541.984375	2000.856323
-7155.244149	6588.556667	1540.933594	2033.887939
-7155.244149	6588.556667	1539.881836	1889.668945
-7155.244149	6588.556667	1538.830078	1811.466919
-7155.244149	6588.556667	1537.778320	1821.963135
-7155.244149	6588.556667	1536.725586	1857.498047
-7155.244149	6588.556667	1535.673828	1597.833740
-7155.244149	6588.556667	1534.621094	1710.722290
-7155.244149	6588.556667	1533.568359	1392.280273
-7155.244149	6588.556667	1532.515625	1403.146851
-7155.244149	6588.556667	1531.461914	1048.700073
-7155.244149	6588.556667	1530.409180	1141.435791
-7155.244149	6588.556667	1529.355469	1204.704102
-7155.244149	6588.556667	1528.301758	998.117432
-7155.244149	6588.556667	1527.247070	843.828430
-7155.244149	6588.556667	1526.193359	952.653625
-7155.244149	6588.556667	1525.138672	875.632202
-7155.244149	6588.556667	1524.083984	977.738586
-7155.244149	6588.556667	1523.029297	860.092407
-7155.244149	6588.556667	1521.974609	613.436462
-7155.244149	6588.556667	1520.918945	996.577942
-7155.244149	6588.556667	1519.863281	960.717590
-7155.244149	6588.556667	1518.807617	637.415466
-7155.244149	6588.556667	1517.751953	773.808899
-7155.244149	6588.556667	1516.696289	826.484192
-7155.244149	6588.556667	1515.639648	892.782166
-7155.244149	6588.556667	1514.583008	712.546753
-7155.244149	6588.556667	1513.526367	1032.298950
-7155.244149	6588.556667	1512.469727	1110.040161
-7155.244149	6588.556667	1511.412109	787.650513
-7155.244149	6588.556667	1510.355469	711.848816
-7155.244149	6588.556667	1509.297852	511.850922
-7155.244149	6588.556667	1508.240234	567.330322
-7155.244149	6588.556667	1507.181641	586.715210
-7155.244149	6588.556667	1506.124023	253.829391
-7155.244149	6588.556667	1505.065430	433.750458
-7155.244149	6588.556667	1504.006836	426.286438
-7155.244149	6588.556667	1502.948242	369.243439
-7155.244149	6588.556667	1501.888672	341.635895
-7155.244149	6588.556667	1500.830078	108.791664
-7155.244149	6588.556667	1499.770508	194.199249
-7155.244149	6588.556667	1498.710938	182.668243
-7155.244149	6588.556667	1497.650391	281.714355
-7155.244149	6588.556667	1496.590820	20.071032
-7155.244149	6588.556667	1495.530273	279.313324
-7155.244149	6588.556667	1494.469727	99.065910
-7155.244149	6588.556667	1493.409180	130.775436
-7155.244149	6588.556667	1492.348633	-105.527481
-7155.244149	6588.556667	1491.287109	-159.217377
-7155.244149	6588.556667	1490.225586	-93.453064
-7155.244149	6588.556667	1489.164063	48.917126
-7155.244149	6588.556667	1488.102539	17.987257
-7155.244149	6588.556667	1487.041016	65.921707
-7155.244149	6588.556667	1485.978516	-23.335329
-7155.244149	6588.556667	1484.916016	94.470940
-7155.244149	6588.556667	1483.853516	72.910141
-7155.244149	6588.556667	1482.791016	114.380013
-7155.244149	6588.556667	1481.727539	21.028164
-7155.244149	6588.556667	1480.664063	118.847328
-7155.244149	6588.556667	1479.600586	23.429554
-7155.244149	6588.556667	1478.537109	31.505562
-7155.244149	6588.556667	1477.473633	-9.728116
-7155.244149	6588.556667	1476.409180	25.513212
-7155.244149	6588.556667	1475.344727	-8.809409
-7155.244149	6588.556667	1474.280273	100.604042
-7155.244149	6588.556667	1473.215820	127.003784
-7155.244149	6588.556667	1472.151367	-12.555303
-7155.244149	6588.556667	1471.085938	-15.038147
-7155.244149	6588.556667	1470.020508	117.157448
-7155.244149	6588.556667	1468.955078	58.577568
-7155.244149	6588.556667	1467.888672	49.642265
-7155.244149	6588.556667	1466.823242	-48.834660
-7155.244149	6588.556667	1465.756836	99.317856
-7155.244149	6588.556667	1464.690430	146.698639
-7155.244149	6588.556667	1463.624023	213.893753
-7155.244149	6588.556667	1462.556641	433.320709
-7155.244149	6588.556667	1461.490234	353.485809
-7155.244149	6588.556667	1460.422852	441.432953
-7155.244149	6588.556667	1459.355469	463.857239
-7155.244149	6588.556667	1458.287109	471.387360
-7155.244149	6588.556667	1457.219727	539.125610
-7155.244149	6588.556667	1456.151367	600.761047
-7155.244149	6588.556667	1455.083008	470.088013
-7155.244149	6588.556667	1454.014648	237.421005
-7155.244149	6588.556667	1452.945313	629.717285
-7155.244149	6588.556667	1451.876953	546.426880
-7155.244149	6588.556667	1450.807617	476.893005
-7155.244149	6588.556667	1449.738281	816.062805
-7155.244149	6588.556667	1448.668945	930.447998
-7155.244149	6588.556667	1447.598633	691.216248
-7155.244149	6588.556667	1446.528320	779.391541
-7155.244149	6588.556667	1445.458008	860.203369
-7155.244149	6588.556667	1444.387695	876.080444
-7155.244149	6588.556667	1443.317383	774.405640
-7155.244149	6588.556667	1442.246094	673.746216
-7155.244149	6588.556667	1441.174805	325.162964
-7155.244149	6588.556667	1440.103516	476.528870
-7155.244149	6588.556667	1439.032227	305.631927
-7155.244149	6588.556667	1437.960938	424.378418
-7155.244149	6588.556667	1436.888672	262.051880
-7155.244149	6588.556667	1435.816406	166.083633
-7155.244149	6588.556667	1434.744141	84.623024
-7155.244149	6588.556667	1433.670898	-60.834202
-7155.244149	6588.556667	1432.598633	44.531845
-7155.244149	6588.556667	1431.525391	30.491100
-7155.244149	6588.556667	1430.452148	32.510544
-7155.244149	6588.556667	1429.378906	-16.777117
-7155.244149	6588.556667	1428.304688	28.923059
-7155.244149	6588.556667	1427.231445	-209.149979
-7155.244149	6588.556667	1426.157227	-109.670830
-7155.244149	6588.556667	1425.083008	-135.893646
-7155.244149	6588.556667	1424.007813	-16.026129
-7155.244149	6588.556667	1422.933594	-102.188431
-7155.244149	6588.556667	1421.858398	-180.408981
-7155.244149	6588.556667	1420.783203	37.198307
-7155.244149	6588.556667	1419.708008	-144.145081
-7155.244149	6588.556667	1418.631836	-62.851521
-7155.244149	6588.556667	1417.555664	107.211868
-7155.244149	6588.556667	1416.479492	-119.154343
-7155.244149	6588.556667	1415.403320	37.013512
-7155.244149	6588.556667	1414.327148	71.862679
-7155.244149	6588.556667	1413.250000	134.550476
-7155.244149	6588.556667	1412.173828	50.018509
-7155.244149	6588.556667	1411.096680	172.728195
-7155.244149	6588.556667	1410.018555	203.597504
-7155.244149	6588.556667	1408.941406	316.730591
-7155.244149	6588.556667	1407.863281	385.307159
-7155.244149	6588.556667	1406.785156	196.703278
-7155.244149	6588.556667	1405.707031	212.702881
-7155.244149	6588.556667	1404.628906	630.756836
-7155.244149	6588.556667	1403.549805	461.959717
-7155.244149	6588.556667	1402.470703	524.243835
-7155.244149	6588.556667	1401.391602	507.583588
-7155.244149	6588.556667	1400.312500	467.315552
-7155.244149	6588.556667	1399.233398	590.932556
-7155.244149	6588.556667	1398.153320	551.640747
-7155.244149	6588.556667	1397.073242	454.225739
-7155.244149	6588.556667	1395.993164	418.891235
-7155.244149	6588.556667	1394.913086	700.226685
-7155.244149	6588.556667	1393.832031	263.363464
-7155.244149	6588.556667	1392.750977	338.744873
-7155.244149	6588.556667	1391.669922	430.183044
-7155.244149	6588.556667	1390.588867	123.007706
-7155.244149	6588.556667	1389.506836	187.589661
-7155.244149	6588.556667	1388.425781	443.240906
-7155.244149	6588.556667	1387.343750	79.347054
-7155.244149	6588.556667	1386.261719	196.819733
-7155.244149	6588.556667	1385.178711	146.143295
-7155.244149	6588.556667	1384.096680	271.968964
-7155.244149	6588.556667	1383.013672	138.454391
-7155.244149	6588.556667	1381.930664	286.617340
-7155.244149	6588.556667	1380.846680	401.582092
-7155.244149	6588.556667	1379.763672	376.806824
-7155.244149	6588.556667	1378.679688	577.415649
-7155.244149	6588.556667	1377.595703	458.735474
-7155.244149	6588.556667	1376.511719	495.468048
-7155.244149	6588.556667	1375.427734	878.229065
-7155.244149	6588.556667	1374.342773	660.002686
-7155.244149	6588.556667	1373.257813	1007.785400
-7155.244149	6588.556667	1372.172852	759.459595
-7155.244149	6588.556667	1371.087891	730.796204
-7155.244149	6588.556667	1370.001953	814.003235
-7155.244149	6588.556667	1368.916992	633.870361
-7155.244149	6588.556667	1367.831055	670.336487
-7155.244149	6588.556667	1366.744141	632.190430
-7155.244149	6588.556667	1365.658203	560.268311
-7155.244149	6588.556667	1364.571289	569.390259
-7155.244149	6588.556667	1363.484375	411.089325
-7155.244149	6588.556667	1362.397461	532.663818
-7155.244149	6588.556667	1361.310547	448.100464
-7155.244149	6588.556667	1360.222656	386.147827
-7155.244149	6588.556667	1359.135742	349.369720
-7155.244149	6588.556667	1358.047852	299.876160
-7155.244149	6588.556667	1356.958984	325.620880
-7155.244149	6588.556667	1355.871094	125.362633
-7155.244149	6588.556667	1354.782227	196.041824
-7155.244149	6588.556667	1353.693359	219.863693
-7155.244149	6588.556667	1352.604492	434.467316
-7155.244149	6588.556667	1351.515625	292.520996
-7155.244149	6588.556667	1350.425781	358.841248
-7155.244149	6588.556667	1349.335938	336.796082
-7155.244149	6588.556667	1348.246094	326.450317
-7155.244149	6588.556667	1347.156250	348.563110
-7155.244149	6588.556667	1346.066406	243.844818
-7155.244149	6588.556667	1344.975586	404.161926
-7155.244149	6588.556667	1343.884766	359.120422
-7155.244149	6588.556667	1342.793945	356.041962
-7155.244149	6588.556667	1341.702148	305.781525
-7155.244149	6588.556667	1340.611328	408.205444
-7155.244149	6588.556667	1339.519531	445.785095
-7155.244149	6588.556667	1338.427734	588.156372
-7155.244149	6588.556667	1337.334961	561.112976
-7155.244149	6588.556667	1336.243164	618.619446
-7155.244149	6588.556667	1335.150391	579.395569
-7155.244149	6588.556667	1334.057617	687.414917
-7155.244149	6588.556667	1332.964844	594.683716
-7155.244149	6588.556667	1331.871094	702.733154
-7155.244149	6588.556667	1330.778320	725.158997
-7155.244149	6588.556667	1329.684570	748.926758
-7155.244149	6588.556667	1328.590820	802.661072
-7155.244149	6588.556667	1327.496094	841.446045
-7155.244149	6588.556667	1326.402344	757.757019
-7155.244149	6588.556667	1325.307617	811.459167
-7155.244149	6588.556667	1324.212891	692.970032
-7155.244149	6588.556667	1323.117188	866.981140
-7155.244149	6588.556667	1322.022461	751.761536
-7155.244149	6588.556667	1320.926758	538.935425
-7155.244149	6588.556667	1319.831055	525.142822
-7155.244149	6588.556667	1318.735352	596.309753
-7155.244149	6588.556667	1317.638672	542.802856
-7155.244149	6588.556667	1316.542969	529.892578
-7155.244149	6588.556667	1315.446289	554.867737
-7155.244149	6588.556667	1314.349609	596.117065
-7155.244149	6588.556667	1313.251953	395.125488
-7155.244149	6588.556667	1312.155273	534.356445
-7155.244149	6588.556667	1311.057617	458.009247
-7155.244149	6588.556667	1309.959961	459.082764
-7155.244149	6588.556667	1308.862305	539.983521
-7155.244149	6588.556667	1307.763672	469.946625
-7155.244149	6588.556667	1306.665039	449.619385
-7155.244149	6588.556667	1305.566406	313.559601
-7155.244149	6588.556667	1304.467773	532.596558
-7155.244149	6588.556667	1303.369141	485.887817
-7155.244149	6588.556667	1302.269531	226.719467
-7155.244149	6588.556667	1301.169922	295.927979
-7155.244149	6588.556667	1300.070313	445.920776
-7155.244149	6588.556667	1298.970703	214.846527
-7155.244149	6588.556667	1297.870117	392.910492
-7155.244149	6588.556667	1296.769531	335.773132
-7155.244149	6588.556667	1295.668945	432.468903
-7155.244149	6588.556667	1294.568359	440.343689
-7155.244149	6588.556667	1293.466797	377.211243
-7155.244149	6588.556667	1292.366211	366.268005
-7155.244149	6588.556667	1291.264648	388.672516
-7155.244149	6588.556667	1290.162109	333.575470
-7155.244149	6588.556667	1289.060547	361.641876
-7155.244149	6588.556667	1287.958008	376.061676
-7155.244149	6588.556667	1286.855469	347.157227
-7155.244149	6588.556667	1285.752930	314.469757
-7155.244149	6588.556667	1284.650391	309.432098
-7155.244149	6588.556667	1283.546875	247.115021
-7155.244149	6588.556667	1282.444336	431.874695
-7155.244149	6588.556667	1281.339844	240.027573
-7155.244149	6588.556667	1280.236328	249.785934
-7155.244149	6588.556667	1279.132813	199.618027
-7155.244149	6588.556667	1278.028320	367.084015
-7155.244149	6588.556667	1276.923828	399.036285
-7155.244149	6588.556667	1275.819336	235.291458
-7155.244149	6588.556667	1274.713867	242.523010
-7155.244149	6588.556667	1273.608398	48.173161
-7155.244149	6588.556667	1272.503906	359.969177
-7155.244149	6588.556667	1271.397461	198.391159
-7155.244149	6588.556667	1270.291992	58.170368
-7155.244149	6588.556667	1269.185547	289.279633
-7155.244149	6588.556667	1268.080078	290.516022
-7155.244149	6588.556667	1266.972656	159.930145
-7155.244149	6588.556667	1265.866211	288.337036
-7155.244149	6588.556667	1264.759766	215.577271
-7155.244149	6588.556667	1263.652344	162.177002
-7155.244149	6588.556667	1262.544922	169.399597
-7155.244149	6588.556667	1261.436523	233.431351
-7155.244149	6588.556667	1260.329102	150.818237
-7155.244149	6588.556667	1259.220703	378.120209
-7155.244149	6588.556667	1258.112305	200.369141
-7155.244149	6588.556667	1257.003906	187.274216
-7155.244149	6588.556667	1255.895508	258.446960
-7155.244149	6588.556667	1254.786133	224.425369
-7155.244149	6588.556667	1253.676758	78.910172
-7155.244149	6588.556667	1252.567383	25.612545
-7155.244149	6588.556667	1251.458008	128.646973
-7155.244149	6588.556667	1250.347656	144.336548
-7155.244149	6588.556667	1249.237305	148.310776
-7155.244149	6588.556667	1248.126953	198.121643
-7155.244149	6588.556667	1247.016602	51.751770
-7155.244149	6588.556667	1245.905273	261.119995
-7155.244149	6588.556667	1244.793945	189.233749
-7155.244149	6588.556667	1243.682617	103.104958
-7155.244149	6588.556667	1242.571289	102.802231
-7155.244149	6588.556667	1241.459961	84.608994
-7155.244149	6588.556667	1240.347656	90.731186
-7155.244149	6588.556667	1239.235352	184.977997
-7155.244149	6588.556667	1238.123047	68.654358
-7155.244149	6588.556667	1237.009766	114.446655
-7155.244149	6588.556667	1235.897461	-12.932200
-7155.244149	6588.556667	1234.784180	57.652050
-7155.244149	6588.556667	1233.670898	202.686356
-7155.244149	6588.556667	1232.556641	140.185242
-7155.244149	6588.556667	1231.443359	93.066719
-7155.244149	6588.556667	1230.329102	79.378105
-7155.244149	6588.556667	1229.214844	85.387642
-7155.244149	6588.556667	1228.099609	85.980904
-7155.244149	6588.556667	1226.985352	171.893387
-7155.244149	6588.556667	1225.870117	81.466286
-7155.244149	6588.556667	1224.754883	131.535263
-7155.244149	6588.556667	1223.639648	184.182648
-7155.244149	6588.556667	1222.523438	160.364258
-7155.244149	6588.556667	1221.408203	167.392883
-7155.244149	6588.556667	1220.291992	119.946533
-7155.244149	6588.556667	1219.174805	150.108444
-7155.244149	6588.556667	1218.058594	124.321404
-7155.244149	6588.556667	1216.941406	107.200806
-7155.244149	6588.556667	1215.824219	209.898865
-7155.244149	6588.556667	1214.707031	128.643433
-7155.244149	6588.556667	1213.589844	39.962147
-7155.244149	6588.556667	1212.471680	99.296097
-7155.244149	6588.556667	1211.353516	23.971403
-7155.244149	6588.556667	1210.235352	58.253029
-7155.244149	6588.556667	1209.117188	168.210648
-7155.244149	6588.556667	1207.998047	-47.651276
-7155.244149	6588.556667	1206.878906	19.777668
-7155.244149	6588.556667	1205.759766	10.041757
-7155.244149	6588.556667	1204.640625	-83.792259
-7155.244149	6588.556667	1203.520508	-17.003174
-7155.244149	6588.556667	1202.401367	17.745941
-7155.244149	6588.556667	1201.281250	39.049480
-7155.244149	6588.556667	1200.160156	57.363785
-7155.244149	6588.556667	1199.040039	-46.190861
-7155.244149	6588.556667	1197.918945	80.972000
-7155.244149	6588.556667	1196.797852	35.319447
-7155.244149	6588.556667	1195.676758	-25.500685
-7155.244149	6588.556667	1194.555664	12.928011
-7155.244149	6588.556667	1193.433594	70.497444
-7155.244149	6588.556667	1192.311523	51.686543
-7155.244149	6588.556667	1191.189453	67.418556
-7155.244149	6588.556667	1190.066406	-31.625620
-7155.244149	6588.556667	1188.944336	22.719769
-7155.244149	6588.556667	1187.821289	-91.818665
-7155.244149	6588.556667	1186.698242	-7.469835
-7155.244149	6588.556667	1185.574219	83.482216
-7155.244149	6588.556667	1184.451172	-38.175407
-7155.244149	6588.556667	1183.327148	-74.845222
-7155.244149	6588.556667	1182.203125	-138.416153
-7155.244149	6588.556667	1181.078125	-19.591307
-7155.244149	6588.556667	1179.954102	-48.013954
-7155.244149	6588.556667	1178.829102	-9.849551
-7155.244149	6588.556667	1177.704102	-148.331604
-7155.244149	6588.556667	1176.579102	-77.440094
-7155.244149	6588.556667	1175.453125	-7.256225
-7155.244149	6588.556667	1174.327148	-145.222336
-7155.244149	6588.556667	1173.201172	-243.728104
-7155.244149	6588.556667	1172.075195	-188.782303
-7155.244149	6588.556667	1170.949219	-275.152039
-7155.244149	6588.556667	1169.822266	-184.125626
-7155.244149	6588.556667	1168.695313	-97.710213
-7155.244149	6588.556667	1167.568359	-58.861805
-7155.244149	6588.556667	1166.440430	-27.102266
-7155.244149	6588.556667	1165.313477	-25.324835
-7155.244149	6588.556667	1164.185547	-144.339401
-7155.244149	6588.556667	1163.057617	-78.442398
-7155.244149	6588.556667	1161.928711	26.149853
-7155.244149	6588.556667	1160.800781	-101.837868
-7155.244149	6588.556667	1159.671875	-75.139099
-7155.244149	6588.556667	1158.541992	-15.994118
-7155.244149	6588.556667	1157.413086	-91.811668
-7155.244149	6588.556667	1156.283203	-74.373856
-7155.244149	6588.556667	1155.154297	-33.266972
-7155.244149	6588.556667	1154.023438	39.845005
-7155.244149	6588.556667	1152.893555	-143.571991
-7155.244149	6588.556667	1151.763672	5.594125
-7155.244149	6588.556667	1150.632813	14.993840
-7155.244149	6588.556667	1149.501953	-45.120842
-7155.244149	6588.556667	1148.370117	116.374123
-7155.244149	6588.556667	1147.239258	36.251499
-7155.244149	6588.556667	1146.107422	35.186947
-7155.244149	6588.556667	1144.975586	44.588924
-7155.244149	6588.556667	1143.843750	45.135811
-7155.244149	6588.556667	1142.710938	26.990997
-7155.244149	6588.556667	1141.578125	297.351685
-7155.244149	6588.556667	1140.445313	141.596436
-7155.244149	6588.556667	1139.312500	144.183960
-7155.244149	6588.556667	1138.178711	12.984016
-7155.244149	6588.556667	1137.045898	55.396732
-7155.244149	6588.556667	1135.912109	187.822083
-7155.244149	6588.556667	1134.777344	-16.396597
-7155.244149	6588.556667	1133.643555	-152.018555
-7155.244149	6588.556667	1132.508789	112.739708
-7155.244149	6588.556667	1131.374023	152.199402
-7155.244149	6588.556667	1130.239258	378.060486
-7155.244149	6588.556667	1129.104492	241.804611
-7155.244149	6588.556667	1127.968750	184.549728
-7155.244149	6588.556667	1126.833008	241.985931
-7155.244149	6588.556667	1125.697266	284.278503
-7155.244149	6588.556667	1124.560547	262.958344
-7155.244149	6588.556667	1123.424805	348.534241
-7155.244149	6588.556667	1122.288086	258.939758
-7155.244149	6588.556667	1121.151367	224.009323
-7155.244149	6588.556667	1120.013672	148.455734
-7155.244149	6588.556667	1118.876953	235.267746
-7155.244149	6588.556667	1117.739258	274.765259
-7155.244149	6588.556667	1116.601563	331.930328
-7155.244149	6588.556667	1115.462891	282.266663
-7155.244149	6588.556667	1114.324219	244.320953
-7155.244149	6588.556667	1113.186523	184.341217
-7155.244149	6588.556667	1112.046875	227.526062
-7155.244149	6588.556667	1110.908203	198.044296
-7155.244149	6588.556667	1109.769531	79.142212
-7155.244149	6588.556667	1108.629883	235.912552
-7155.244149	6588.556667	1107.490234	247.434570
-7155.244149	6588.556667	1106.349609	334.163757
-7155.244149	6588.556667	1105.209961	156.753235
-7155.244149	6588.556667	1104.069336	264.703369
-7155.244149	6588.556667	1102.928711	192.947632
-7155.244149	6588.556667	1101.787109	29.716232
-7155.244149	6588.556667	1100.646484	125.830238
-7155.244149	6588.556667	1099.504883	145.772034
-7155.244149	6588.556667	1098.363281	236.883545
-7155.244149	6588.556667	1097.221680	288.686676
-7155.244149	6588.556667	1096.079102	253.481247
-7155.244149	6588.556667	1094.936523	253.425751
-7155.244149	6588.556667	1093.793945	208.851196
-7155.244149	6588.556667	1092.651367	270.964111
-7155.244149	6588.556667	1091.507813	274.577271
-7155.244149	6588.556667	1090.364258	190.629196
-7155.244149	6588.556667	1089.220703	258.015411
-7155.244149	6588.556667	1088.077148	-15.174239
-7155.244149	6588.556667	1086.933594	220.722351
-7155.244149	6588.556667	1085.789063	197.345825
-7155.244149	6588.556667	1084.644531	157.063278
-7155.244149	6588.556667	1083.499023	406.765778
-7155.244149	6588.556667	1082.354492	323.554993
-7155.244149	6588.556667	1081.208984	306.539154
-7155.244149	6588.556667	1080.063477	189.448380
-7155.244149	6588.556667	1078.917969	120.866196
-7155.244149	6588.556667	1077.771484	217.735687
-7155.244149	6588.556667	1076.625977	294.994568
-7155.244149	6588.556667	1075.479492	269.328217
-7155.244149	6588.556667	1074.332031	128.142258
-7155.244149	6588.556667	1073.185547	23.159454
-7155.244149	6588.556667	1072.038086	287.172760
-7155.244149	6588.556667	1070.890625	210.153503
-7155.244149	6588.556667	1069.743164	86.994331
-7155.244149	6588.556667	1068.594727	325.458771
-7155.244149	6588.556667	1067.447266	183.593307
-7155.244149	6588.556667	1066.298828	266.372101
-7155.244149	6588.556667	1065.149414	353.702301
-7155.244149	6588.556667	1064.000977	316.400848
-7155.244149	6588.556667	1062.851563	436.288666
-7155.244149	6588.556667	1061.702148	546.197388
-7155.244149	6588.556667	1060.552734	552.357239
-7155.244149	6588.556667	1059.402344	324.057587
-7155.244149	6588.556667	1058.252930	407.891357
-7155.244149	6588.556667	1057.102539	389.865021
-7155.244149	6588.556667	1055.951172	345.647095
-7155.244149	6588.556667	1054.800781	267.282349
-7155.244149	6588.556667	1053.649414	273.602234
-7155.244149	6588.556667	1052.498047	283.438385
-7155.244149	6588.556667	1051.346680	201.566345
-7155.244149	6588.556667	1050.194336	229.862686
-7155.244149	6588.556667	1049.042969	198.465515
-7155.244149	6588.556667	1047.890625	193.900131
-7155.244149	6588.556667	1046.738281	231.307007
-7155.244149	6588.556667	1045.584961	152.459976
-7155.244149	6588.556667	1044.431641	302.317017
-7155.244149	6588.556667	1043.278320	151.956512
-7155.244149	6588.556667	1042.125000	172.374283
-7155.244149	6588.556667	1040.971680	63.675087
-7155.244149	6588.556667	1039.817383	217.545593
-7155.244149	6588.556667	1038.663086	200.462143
-7155.244149	6588.556667	1037.508789	305.968445
-7155.244149	6588.556667	1036.353516	124.174896
-7155.244149	6588.556667	1035.198242	339.686401
-7155.244149	6588.556667	1034.042969	235.061325
-7155.244149	6588.556667	1032.887695	325.462097
-7155.244149	6588.556667	1031.732422	243.620422
-7155.244149	6588.556667	1030.576172	226.365234
-7155.244149	6588.556667	1029.419922	186.212341
-7155.244149	6588.556667	1028.263672	217.861755
-7155.244149	6588.556667	1027.106445	88.014336
-7155.244149	6588.556667	1025.949219	133.854034
-7155.244149	6588.556667	1024.792969	53.588917
-7155.244149	6588.556667	1023.634766	31.321156
-7155.244149	6588.556667	1022.477539	-16.461906
-7155.244149	6588.556667	1021.319336	114.089561
-7155.244149	6588.556667	1020.161133	34.634865
-7155.244149	6588.556667	1019.002930	52.724632
-7155.244149	6588.556667	1017.843750	93.027657
-7155.244149	6588.556667	1016.684570	141.835709
-7155.244149	6588.556667	1015.525391	96.503143
-7155.244149	6588.556667	1014.366211	90.946823
-7155.244149	6588.556667	1013.207031	-55.810917
-7155.244149	6588.556667	1012.046875	-111.298271
-7155.244149	6588.556667	1010.886719	-19.085033
-7155.244149	6588.556667	1009.726563	93.639709
-7155.244149	6588.556667	1008.565430	-87.016113
-7155.244149	6588.556667	1007.404297	102.585358
-7155.244149	6588.556667	1006.243164	21.178877
-7155.244149	6588.556667	1005.082031	96.452332
-7155.244149	6588.556667	1003.920898	48.241562
-7155.244149	6588.556667	1002.758789	-47.269039
-7155.244149	6588.556667	1001.596680	73.487816
-7155.244149	6588.556667	1000.433594	67.328293
-7155.244149	6588.556667	999.271484	2.761358
-7155.244149	6588.556667	998.108398	97.837852
-7155.244149	6588.556667	996.945313	224.336166
-7155.244149	6588.556667	995.782227	184.046738
-7155.244149	6588.556667	994.618164	-32.526432
-7155.244149	6588.556667	993.454102	-4.450548
-7155.244149	6588.556667	992.290039	184.624908
-7155.244149	6588.556667	991.125977	116.592941
-7155.244149	6588.556667	989.960938	-14.374647
-7155.244149	6588.556667	988.796875	153.529678
-7155.244149	6588.556667	987.630859	202.067429
-7155.244149	6588.556667	986.465820	120.822685
-7155.244149	6588.556667	985.300781	87.748466
-7155.244149	6588.556667	984.134766	153.312302
-7155.244149	6588.556667	982.968750	189.503510
-7155.244149	6588.556667	981.801758	155.773453
-7155.244149	6588.556667	980.635742	194.505859
-7155.244149	6588.556667	979.468750	87.955025
-7155.244149	6588.556667	978.301758	58.256897
-7155.244149	6588.556667	977.133789	61.734295
-7155.244149	6588.556667	975.966797	91.883041
-7155.244149	6588.556667	974.798828	20.842899
-7155.244149	6588.556667	973.630859	126.108376
-7155.244149	6588.556667	972.461914	-59.299614
-7155.244149	6588.556667	971.293945	-15.594930
-7155.244149	6588.556667	970.125000	-58.635612
-7155.244149	6588.556667	968.956055	120.298546
-7155.244149	6588.556667	967.786133	103.514992
-7155.244149	6588.556667	966.617188	174.273712
-7155.244149	6588.556667	965.447266	-4.189303
-7155.244149	6588.556667	964.276367	-8.162271
-7155.244149	6588.556667	963.106445	-45.344967
-7155.244149	6588.556667	961.935547	142.457397
-7155.244149	6588.556667	960.764648	127.159081
-7155.244149	6588.556667	959.593750	54.944149
-7155.244149	6588.556667	958.422852	165.630447
-7155.244149	6588.556667	957.250977	-14.593496
-7155.244149	6588.556667	956.079102	73.047546
-7155.244149	6588.556667	954.907227	63.288906
-7155.244149	6588.556667	953.734375	300.040222
-7155.244149	6588.556667	952.562500	144.520676
-7155.244149	6588.556667	951.389648	84.900146
-7155.244149	6588.556667	950.215820	-96.209648
-7155.244149	6588.556667	949.042969	75.427696
-7155.244149	6588.556667	947.869141	75.352043
-7155.244149	6588.556667	946.695313	223.893494
-7155.244149	6588.556667	945.521484	200.509079
-7155.244149	6588.556667	944.346680	125.078926
-7155.244149	6588.556667	943.172852	0.786466
-7155.244149	6588.556667	941.998047	179.763123
-7155.244149	6588.556667	940.822266	86.256836
-7155.244149	6588.556667	939.647461	-17.609394
-7155.244149	6588.556667	938.471680	138.314285
-7155.244149	6588.556667	937.295898	208.393295
-7155.244149	6588.556667	936.119141	151.196640
-7155.244149	6588.556667	934.943359	-56.839565
-7155.244149	6588.556667	933.766602	117.048630
-7155.244149	6588.556667	932.589844	109.091484
-7155.244149	6588.556667	931.413086	36.163963
-7155.244149	6588.556667	930.235352	197.022430
-7155.244149	6588.556667	929.057617	191.620850
-7155.244149	6588.556667	927.879883	183.561203
-7155.244149	6588.556667	926.702148	84.612000
-7155.244149	6588.556667	925.523438	164.826904
-7155.244149	6588.556667	924.344727	8.789825
-7155.244149	6588.556667	923.166016	151.210648
-7155.244149	6588.556667	921.987305	-54.097202
-7155.244149	6588.556667	920.807617	140.126404
-7155.244149	6588.556667	919.627930	141.225189
-7155.244149	6588.556667	919.497070	43.911957
-7155.244149	6588.556667	918.331055	123.902763
-7155.244149	6588.556667	917.165039	151.996582
-7155.244149	6588.556667	915.999023	94.530731
-7155.244149	6588.556667	914.833008	-131.364029
-7155.244149	6588.556667	913.666016	-67.011650
-7155.244149	6588.556667	912.499023	-28.603046
-7155.244149	6588.556667	911.332031	-5.763789
-7155.244149	6588.556667	910.165039	-122.765961
-7155.244149	6588.556667	908.997070	-40.404278
-7155.244149	6588.556667	907.830078	-59.029079
-7155.244149	6588.556667	906.661133	-72.483353
-7155.244149	6588.556667	905.493164	4.603989
-7155.244149	6588.556667	904.325195	76.473846
-7155.244149	6588.556667	903.156250	3.483269
-7155.244149	6588.556667	901.987305	-46.219688
-7155.244149	6588.556667	900.818359	-88.159081
-7155.244149	6588.556667	899.648438	76.667137
-7155.244149	6588.556667	898.478516	-1.476769
-7155.244149	6588.556667	897.308594	-2.096298
-7155.244149	6588.556667	896.138672	51.515434
-7155.244149	6588.556667	894.968750	6.964732
-7155.244149	6588.556667	893.797852	192.208649
-7155.244149	6588.556667	892.626953	103.746841
-7155.244149	6588.556667	891.456055	159.836960
-7155.244149	6588.556667	890.284180	221.057114
-7155.244149	6588.556667	889.113281	150.676376
-7155.244149	6588.556667	887.941406	217.015671
-7155.244149	6588.556667	886.768555	133.756424
-7155.244149	6588.556667	885.596680	143.337646
-7155.244149	6588.556667	884.423828	209.616364
-7155.244149	6588.556667	883.250977	90.309044
-7155.244149	6588.556667	882.078125	200.360306
-7155.244149	6588.556667	880.905273	132.612732
-7155.244149	6588.556667	879.731445	77.764961
-7155.244149	6588.556667	878.557617	-7.966053
-7155.244149	6588.556667	877.383789	225.567917
-7155.244149	6588.556667	876.209961	72.908661
-7155.244149	6588.556667	875.035156	64.419312
-7155.244149	6588.556667	873.860352	48.210384
-7155.244149	6588.556667	872.685547	13.997476
-7155.244149	6588.556667	871.510742	131.533279
-7155.244149	6588.556667	870.334961	35.597893
-7155.244149	6588.556667	869.159180	317.605042
-7155.244149	6588.556667	867.983398	172.829422
-7155.244149	6588.556667	866.807617	128.329315
-7155.244149	6588.556667	865.630859	86.415100
-7155.244149	6588.556667	864.454102	-24.839840
-7155.244149	6588.556667	863.277344	-30.756580
-7155.244149	6588.556667	862.100586	-98.296341
-7155.244149	6588.556667	860.922852	52.394180
-7155.244149	6588.556667	859.745117	-35.671223
-7155.244149	6588.556667	858.567383	-51.852215
-7155.244149	6588.556667	857.389648	-101.380058
-7155.244149	6588.556667	856.210938	69.702026
-7155.244149	6588.556667	855.032227	-54.202030
-7155.244149	6588.556667	853.853516	34.751686
-7155.244149	6588.556667	852.674805	-4.503067
-7155.244149	6588.556667	851.495117	-25.801525
-7155.244149	6588.556667	850.315430	-80.402382
-7155.244149	6588.556667	849.135742	-152.913895
-7155.244149	6588.556667	847.956055	-30.735817
-7155.244149	6588.556667	846.775391	-77.619431
-7155.244149	6588.556667	845.595703	-119.364037
-7155.244149	6588.556667	844.415039	-81.738449
-7155.244149	6588.556667	843.233398	-51.805038
-7155.244149	6588.556667	842.052734	-57.705910
-7155.244149	6588.556667	840.871094	64.304764
-7155.244149	6588.556667	839.689453	-23.459988
-7155.244149	6588.556667	838.506836	-44.702652
-7155.244149	6588.556667	837.325195	100.241768
-7155.244149	6588.556667	836.142578	153.109818
-7155.244149	6588.556667	834.959961	21.959103
-7155.244149	6588.556667	833.777344	-60.591640
-7155.244149	6588.556667	832.593750	-5.165343
-7155.244149	6588.556667	831.410156	-39.148243
-7155.244149	6588.556667	830.226563	-231.428482
-7155.244149	6588.556667	829.042969	-112.174950
-7155.244149	6588.556667	827.858398	-79.749374
-7155.244149	6588.556667	826.673828	24.116278
-7155.244149	6588.556667	825.489258	199.377106
-7155.244149	6588.556667	824.304688	-69.271080
-7155.244149	6588.556667	823.120117	-85.330711
-7155.244149	6588.556667	821.934570	-131.978455
-7155.244149	6588.556667	820.749023	27.880802
-7155.244149	6588.556667	819.562500	-156.396896
-7155.244149	6588.556667	818.376953	-55.203812
-7155.244149	6588.556667	817.190430	-38.122337
-7155.244149	6588.556667	816.003906	-64.347893
-7155.244149	6588.556667	814.817383	-21.803368
-7155.244149	6588.556667	813.629883	140.390198
-7155.244149	6588.556667	812.442383	-163.314713
-7155.244149	6588.556667	811.254883	-69.871742
-7155.244149	6588.556667	810.067383	-157.124725
-7155.244149	6588.556667	808.878906	-178.196671
-7155.244149	6588.556667	807.690430	-69.544785
-7155.244149	6588.556667	806.501953	-42.309273
-7155.244149	6588.556667	805.313477	17.966311
-7155.244149	6588.556667	804.124023	47.715565
-7155.244149	6588.556667	802.934570	64.746887
-7155.244149	6588.556667	801.745117	-40.186893
-7155.244149	6588.556667	800.555664	-61.247513
-7155.244149	6588.556667	799.365234	16.751041
-7155.244149	6588.556667	798.175781	66.785500
-7155.244149	6588.556667	796.985352	-17.751001
-7155.244149	6588.556667	795.793945	-13.416220
-7155.244149	6588.556667	794.603516	-6.546432
-7155.244149	6588.556667	793.412109	-149.369125
-7155.244149	6588.556667	792.220703	60.452835
-7155.244149	6588.556667	791.028320	6.436979
-7155.244149	6588.556667	789.836914	38.649834
-7155.244149	6588.556667	788.644531	-0.131240
-7155.244149	6588.556667	787.452148	75.154518
-7155.244149	6588.556667	786.258789	140.272156
-7155.244149	6588.556667	785.066406	192.693466
-7155.244149	6588.556667	783.873047	126.044891
-7155.244149	6588.556667	782.679688	44.227024
-7155.244149	6588.556667	781.485352	139.672363
-7155.244149	6588.556667	780.291992	57.880989
-7155.244149	6588.556667	779.097656	21.676117
-7155.244149	6588.556667	777.903320	94.285454
-7155.244149	6588.556667	776.708008	262.993530
-7155.244149	6588.556667	775.512695	257.110535
-7155.244149	6588.556667	774.318359	157.663055
-7155.244149	6588.556667	773.122070	40.556801
-7155.244149	6588.556667	771.926758	135.818649
-7155.244149	6588.556667	770.730469	311.905029
-7155.244149	6588.556667	769.534180	40.702805
-7155.244149	6588.556667	768.337891	231.882614
-7155.244149	6588.556667	767.141602	291.648773
-7155.244149	6588.556667	765.944336	401.885345
-7155.244149	6588.556667	764.747070	287.388824
-7155.244149	6588.556667	763.549805	458.144348
-7155.244149	6588.556667	762.351563	240.210175
-7155.244149	6588.556667	761.154297	173.735397
-7155.244149	6588.556667	759.956055	311.596710
-7155.244149	6588.556667	758.757813	323.299164
-7155.244149	6588.556667	757.558594	191.272141
-7155.244149	6588.556667	756.359375	180.292648
-7155.244149	6588.556667	755.160156	257.519531
-7155.244149	6588.556667	753.960938	165.880722
-7155.244149	6588.556667	752.761719	127.175194
-7155.244149	6588.556667	751.561523	186.707764
-7155.244149	6588.556667	750.361328	223.542084
-7155.244149	6588.556667	749.160156	330.846710
-7155.244149	6588.556667	747.959961	304.685852
-7155.244149	6588.556667	746.758789	213.093719
-7155.244149	6588.556667	745.557617	121.528999
-7155.244149	6588.556667	744.356445	163.316528
-7155.244149	6588.556667	743.154297	202.560379
-7155.244149	6588.556667	741.952148	417.792938
-7155.244149	6588.556667	740.750000	296.046112
-7155.244149	6588.556667	739.547852	274.876617
-7155.244149	6588.556667	738.344727	165.749847
-7155.244149	6588.556667	737.142578	212.425385
-7155.244149	6588.556667	735.939453	203.805450
-7155.244149	6588.556667	734.735352	160.016098
-7155.244149	6588.556667	733.532227	199.088028
-7155.244149	6588.556667	732.328125	162.818848
-7155.244149	6588.556667	731.124023	106.470566
-7155.244149	6588.556667	729.918945	32.565521
-7155.244149	6588.556667	728.714844	214.568588
-7155.244149	6588.556667	727.509766	108.031197
-7155.244149	6588.556667	726.303711	149.476837
-7155.244149	6588.556667	725.098633	238.523773
-7155.244149	6588.556667	723.892578	152.049500
-7155.244149	6588.556667	722.686523	233.504105
-7155.244149	6588.556667	721.480469	91.906685
-7155.244149	6588.556667	720.274414	55.562534
-7155.244149	6588.556667	719.067383	134.424530
-7155.244149	6588.556667	717.860352	52.974499
-7155.244149	6588.556667	716.653320	151.791656
-7155.244149	6588.556667	715.445313	-42.303513
-7155.244149	6588.556667	714.238281	103.996979
-7155.244149	6588.556667	713.030273	85.085976
-7155.244149	6588.556667	711.821289	-31.393896
-7155.244149	6588.556667	710.613281	-125.339645
-7155.244149	6588.556667	709.404297	3.264041
-7155.244149	6588.556667	708.195313	-50.698524
-7155.244149	6588.556667	706.986328	27.802052
-7155.244149	6588.556667	705.776367	93.751648
-7155.244149	6588.556667	704.566406	-2.738790
-7155.244149	6588.556667	703.356445	-34.272690
-7155.244149	6588.556667	702.146484	4.104142
-7155.244149	6588.556667	700.935547	94.869217
-7155.244149	6588.556667	699.724609	115.677017
-7155.244149	6588.556667	698.513672	24.145308
-7155.244149	6588.556667	697.302734	49.895771
-7155.244149	6588.556667	696.090820	-59.100994
-7155.244149	6588.556667	694.878906	83.822273
-7155.244149	6588.556667	693.666992	161.824860
-7155.244149	6588.556667	692.455078	15.393188
-7155.244149	6588.556667	691.242188	48.454330
-7155.244149	6588.556667	690.029297	91.439804
-7155.244149	6588.556667	688.816406	164.275009
-7155.244149	6588.556667	687.602539	85.101784
-7155.244149	6588.556667	686.389648	172.789139
-7155.244149	6588.556667	685.175781	8.929194
-7155.244149	6588.556667	683.960938	66.660202
-7155.244149	6588.556667	682.747070	74.558342
-7155.244149	6588.556667	681.532227	127.210243
-7155.244149	6588.556667	680.317383	45.466583
-7155.244149	6588.556667	679.102539	-11.402961
-7155.244149	6588.556667	677.886719	148.064560
-7155.244149	6588.556667	676.670898	165.716019
-7155.244149	6588.556667	675.455078	116.212692
-7155.244149	6588.556667	674.239258	126.339905
-7155.244149	6588.556667	673.022461	124.004364
-7155.244149	6588.556667	671.805664	4.880211
-7155.244149	6588.556667	670.588867	62.107265
-7155.244149	6588.556667	669.372070	-44.609211
-7155.244149	6588.556667	668.154297	235.960648
-7155.244149	6588.556667	666.936523	94.431038
-7155.244149	6588.556667	665.718750	230.852951
-7155.244149	6588.556667	664.500977	151.334503
-7155.244149	6588.556667	663.282227	111.499016
-7155.244149	6588.556667	662.063477	-64.754013
-7155.244149	6588.556667	660.844727	-47.576694
-7155.244149	6588.556667	659.625000	105.893478
-7155.244149	6588.556667	658.405273	172.517548
-7155.244149	6588.556667	657.185547	132.526718
-7155.244149	6588.556667	655.965820	80.127762
-7155.244149	6588.556667	654.745117	17.802752
-7155.244149	6588.556667	653.525391	257.571228
-7155.244149	6588.556667	652.303711	299.136108
-7155.244149	6588.556667	651.083008	211.932724
-7155.244149	6588.556667	649.861328	144.521957
-7155.244149	6588.556667	648.640625	-46.608059
-7155.244149	6588.556667	647.417969	69.032303
-7155.244149	6588.556667	646.196289	125.228920
-7155.244149	6588.556667	644.973633	107.181129
-7155.244149	6588.556667	643.750977	56.962349
-7155.244149	6588.556667	642.528320	48.739902
-7155.244149	6588.556667	641.305664	84.957993
-7155.244149	6588.556667	640.082031	-113.582283
-7155.244149	6588.556667	638.858398	4.079381
-7155.244149	6588.556667	637.634766	-117.890144
-7155.244149	6588.556667	636.410156	41.608528
-7155.244149	6588.556667	635.185547	13.396648
-7155.244149	6588.556667	633.960938	51.787125
-7155.244149	6588.556667	632.736328	3.760846
-7155.244149	6588.556667	631.510742	42.049904
-7155.244149	6588.556667	630.285156	11.222798
-7155.244149	6588.556667	629.059570	-36.894825
-7155.244149	6588.556667	627.833984	99.861557
-7155.244149	6588.556667	626.607422	31.939268
-7155.244149	6588.556667	625.380859	-63.104233
-7155.244149	6588.556667	624.154297	-106.412018
-7155.244149	6588.556667	622.927734	-48.753601
-7155.244149	6588.556667	621.700195	-1.015725
-7155.244149	6588.556667	620.472656	26.961775
-7155.244149	6588.556667	619.245117	118.886467
-7155.244149	6588.556667	618.016602	144.276810
-7155.244149	6588.556667	616.788086	78.571442
-7155.244149	6588.556667	615.559570	81.732826
-7155.244149	6588.556667	614.331055	170.933914
-7155.244149	6588.556667	613.101563	156.772675
-7155.244149	6588.556667	611.872070	174.535080
-7155.244149	6588.556667	610.642578	44.768612
-7155.244149	6588.556667	609.413086	-60.410862
-7155.244149	6588.556667	608.182617	205.406570
-7155.244149	6588.556667	606.952148	46.109081
-7155.244149	6588.556667	605.721680	-71.413002
-7155.244149	6588.556667	604.491211	127.815125
-7155.244149	6588.556667	603.259766	182.078262
-7155.244149	6588.556667	602.028320	138.103683
-7155.244149	6588.556667	600.796875	22.945787
-7155.244149	6588.556667	599.564453	25.549995
-7155.244149	6588.556667	598.332031	-47.923210
-7155.244149	6588.556667	597.099609	-77.266052
-7155.244149	6588.556667	595.867188	-128.702866
-7155.244149	6588.556667	594.633789	40.446552
-7155.244149	6588.556667	593.400391	57.542084
-7155.244149	6588.556667	592.166992	28.037643
-7155.244149	6588.556667	590.933594	98.940887
-7155.244149	6588.556667	589.699219	-116.773613
-7155.244149	6588.556667	588.464844	-104.717010
-7155.244149	6588.556667	587.230469	-68.223900
-7155.244149	6588.556667	585.995117	41.638733
-7155.244149	6588.556667	584.760742	7.045519
-7155.244149	6588.556667	583.525391	18.909966
-7155.244149	6588.556667	582.289063	86.986313
-7155.244149	6588.556667	581.053711	243.035812
-7155.244149	6588.556667	579.817383	-58.222496
-7155.244149	6588.556667	578.581055	117.271477
-7155.244149	6588.556667	577.343750	62.926723
-7155.244149	6588.556667	576.107422	106.307495
-7155.244149	6588.556667	574.870117	208.260101
-7155.244149	6588.556667	573.631836	70.784019
-7155.244149	6588.556667	572.394531	194.608704
-7155.244149	6588.556667	571.156250	-30.758972
-7155.244149	6588.556667	569.917969	-19.308966
-7155.244149	6588.556667	568.679688	114.115524
-7155.244149	6588.556667	567.440430	-16.041456
-7155.244149	6588.556667	566.202148	-155.927567
-7155.244149	6588.556667	564.961914	16.359455
-7155.244149	6588.556667	563.722656	229.994690
-7155.244149	6588.556667	562.482422	43.733780
-7155.244149	6588.556667	561.243164	137.795486
-7155.244149	6588.556667	560.001953	153.810364
-7155.244149	6588.556667	558.761719	21.194057
-7155.244149	6588.556667	557.520508	122.416893
-7155.244149	6588.556667	556.279297	9.287642
-7155.244149	6588.556667	555.038086	-45.391277
-7155.244149	6588.556667	553.795898	70.304054
-7155.244149	6588.556667	552.554688	173.761688
-7155.244149	6588.556667	551.311523	50.880440
-7155.244149	6588.556667	550.069336	117.760933
-7155.244149	6588.556667	548.826172	77.583305
-7155.244149	6588.556667	547.583984	212.464767
-7155.244149	6588.556667	546.339844	-119.466522
-7155.244149	6588.556667	545.096680	66.391747
-7155.244149	6588.556667	543.852539	152.524307
-7155.244149	6588.556667	542.608398	-35.910702
-7155.244149	6588.556667	541.364258	135.177826
-7155.244149	6588.556667	540.119141	-130.916153
-7155.244149	6588.556667	538.875000	-49.741692
-7155.244149	6588.556667	537.628906	-109.403770
-7155.244149	6588.556667	536.383789	29.938028
-7155.244149	6588.556667	535.137695	91.563713
-7155.244149	6588.556667	533.892578	-40.899384
-7155.244149	6588.556667	532.645508	-54.493858
-7155.244149	6588.556667	531.399414	140.426498
-7155.244149	6588.556667	530.152344	-151.996048
-7155.244149	6588.556667	528.905273	-17.753555
-7155.244149	6588.556667	527.658203	-14.422882
-7155.244149	6588.556667	526.410156	-47.444973
-7155.244149	6588.556667	525.163086	-0.530282
-7155.244149	6588.556667	523.914063	-45.667801
-7155.244149	6588.556667	522.666016	-18.158945
-7155.244149	6588.556667	521.416992	-118.955757
-7155.244149	6588.556667	520.167969	-176.155746
-7155.244149	6588.556667	518.918945	-114.783020
-7155.244149	6588.556667	517.669922	52.991817
-7155.244149	6588.556667	516.419922	-28.405518
-7155.244149	6588.556667	515.169922	-97.680443
-7155.244149	6588.556667	513.919922	19.209311
-7155.244149	6588.556667	512.668945	-52.468258
-7155.244149	6588.556667	511.417969	-54.041149
-7155.244149	6588.556667	510.166992	50.682301
-7155.244149	6588.556667	508.916016	-238.325974
-7155.244149	6588.556667	507.664063	-85.312164
-7155.244149	6588.556667	506.412109	-65.142883
-7155.244149	6588.556667	505.160156	10.537070
-7155.244149	6588.556667	503.907227	54.814011
-7155.244149	6588.556667	502.655273	-31.203327
-7155.244149	6588.556667	501.402344	22.724369
-7155.244149	6588.556667	500.148438	-150.062378
-7155.244149	6588.556667	498.895508	-40.662945
-7155.244149	6588.556667	497.641602	-3.623650
-7155.244149	6588.556667	496.387695	79.199944
-7155.244149	6588.556667	495.132813	24.648508
-7155.244149	6588.556667	493.878906	-0.957545
-7155.244149	6588.556667	492.624023	156.502441
-7155.244149	6588.556667	491.368164	63.468945
-7155.244149	6588.556667	490.113281	-19.879324
-7155.244149	6588.556667	488.857422	154.362457
-7155.244149	6588.556667	487.601563	6.077268
-7155.244149	6588.556667	486.344727	19.063221
-7155.244149	6588.556667	485.088867	214.871368
-7155.244149	6588.556667	483.832031	102.778580
-7155.244149	6588.556667	482.575195	72.497292
-7155.244149	6588.556667	481.317383	181.663406
-7155.244149	6588.556667	480.059570	52.866241
-7155.244149	6588.556667	478.801758	-42.220657
-7155.244149	6588.556667	477.543945	-31.550690
-7155.244149	6588.556667	476.285156	-16.069086
-7155.244149	6588.556667	475.027344	35.443188
-7155.244149	6588.556667	473.767578	-150.732712
-7155.244149	6588.556667	472.508789	4.024521
-7155.244149	6588.556667	471.249023	67.537071
-7155.244149	6588.556667	469.989258	-116.078842
-7155.244149	6588.556667	468.729492	17.025301
-7155.244149	6588.556667	467.469727	171.670654
-7155.244149	6588.556667	466.208984	86.496712
-7155.244149	6588.556667	464.948242	195.541779
-7155.244149	6588.556667	463.686523	91.252907
-7155.244149	6588.556667	462.425781	8.591519
-7155.244149	6588.556667	461.164063	-97.979759
-7155.244149	6588.556667	459.901367	130.813553
-7155.244149	6588.556667	458.639648	21.894049
-7155.244149	6588.556667	457.376953	-19.936878
-7155.244149	6588.556667	456.114258	38.789242
-7155.244149	6588.556667	454.851563	59.212795
-7155.244149	6588.556667	453.587891	-80.660507
-7155.244149	6588.556667	452.324219	71.353874
-7155.244149	6588.556667	451.060547	168.307739
-7155.244149	6588.556667	449.796875	97.863136
-7155.244149	6588.556667	448.532227	41.794090
-7155.244149	6588.556667	447.267578	33.552368
-7155.244149	6588.556667	446.002930	92.220207
-7155.244149	6588.556667	444.737305	95.918541
-7155.244149	6588.556667	443.471680	59.014896
-7155.244149	6588.556667	442.206055	3.024355
-7155.244149	6588.556667	440.940430	104.617676
-7155.244149	6588.556667	439.673828	134.556534
-7155.244149	6588.556667	438.407227	23.687086
-7155.244149	6588.556667	437.140625	-41.812393
-7155.244149	6588.556667	435.873047	26.276983
-7155.244149	6588.556667	434.605469	56.169716
-7155.244149	6588.556667	433.337891	-66.552910
-7155.244149	6588.556667	432.070313	277.963715
-7155.244149	6588.556667	430.801758	164.741241
-7155.244149	6588.556667	429.533203	349.377991
-7155.244149	6588.556667	428.264648	188.501236
-7155.244149	6588.556667	426.996094	122.932365
-7155.244149	6588.556667	425.726563	-18.835850
-7155.244149	6588.556667	424.457031	160.803802
-7155.244149	6588.556667	423.186523	247.503418
-7155.244149	6588.556667	421.916992	227.050186
-7155.244149	6588.556667	420.646484	218.454834
-7155.244149	6588.556667	419.375977	171.760605
-7155.244149	6588.556667	418.104492	246.311813
-7155.244149	6588.556667	416.833008	411.121735
-7155.244149	6588.556667	415.561523	254.909470
-7155.244149	6588.556667	414.290039	284.067322
-7155.244149	6588.556667	413.017578	201.472534
-7155.244149	6588.556667	411.746094	256.621613
-7155.244149	6588.556667	410.472656	133.544479
-7155.244149	6588.556667	409.200195	148.159256
-7155.244149	6588.556667	407.926758	203.033798
-7155.244149	6588.556667	406.653320	-0.904073
-7155.244149	6588.556667	405.379883	27.690409
-7155.244149	6588.556667	404.105469	248.325592
-7155.244149	6588.556667	402.831055	91.636955
-7155.244149	6588.556667	401.556641	172.033157
-7155.244149	6588.556667	400.282227	228.566666
-7155.244149	6588.556667	399.006836	92.951744
-7155.244149	6588.556667	397.731445	-23.779137
-7155.244149	6588.556667	396.456055	165.033813
-7155.244149	6588.556667	395.179688	232.807510
-7155.244149	6588.556667	393.903320	11.474479
-7155.244149	6588.556667	392.626953	97.876953
-7155.244149	6588.556667	391.350586	198.275879
-7155.244149	6588.556667	390.073242	158.814789
-7155.244149	6588.556667	388.795898	41.101067
-7155.244149	6588.556667	387.518555	34.429619
-7155.244149	6588.556667	386.240234	183.651306
-7155.244149	6588.556667	384.961914	1.549431
-7155.244149	6588.556667	383.683594	214.110535
-7155.244149	6588.556667	382.405273	36.356560
-7155.244149	6588.556667	381.125977	16.758690
-7155.244149	6588.556667	379.846680	193.011459
-7155.244149	6588.556667	378.567383	16.981182
-7155.244149	6588.556667	377.287109	119.410103
-7155.244149	6588.556667	376.006836	-42.922596
-7155.244149	6588.556667	374.726563	212.330963
-7155.244149	6588.556667	373.446289	16.409971
-7155.244149	6588.556667	372.165039	11.366584
-7155.244149	6588.556667	370.883789	131.020645
-7155.244149	6588.556667	369.602539	186.603088
-7155.244149	6588.556667	368.320313	69.667747
-7155.244149	6588.556667	367.039063	44.364124
-7155.244149	6588.556667	365.755859	195.440292
-7155.244149	6588.556667	364.473633	124.562805
-7155.244149	6588.556667	363.190430	-48.006874
-7155.244149	6588.556667	361.907227	205.396774
-7155.244149	6588.556667	360.624023	86.183464
-7155.244149	6588.556667	359.340820	48.969559
-7155.244149	6588.556667	358.056641	1.874856
-7155.244149	6588.556667	356.772461	31.974354
-7155.244149	6588.556667	355.487305	82.720284
-7155.244149	6588.556667	354.202148	5.900457
-7155.244149	6588.556667	352.916992	-10.277446
-7155.244149	6588.556667	351.631836	-81.083183
-7155.244149	6588.556667	350.346680	-56.049610
-7155.244149	6588.556667	349.060547	8.321670
-7155.244149	6588.556667	347.774414	55.605980
-7155.244149	6588.556667	346.487305	8.254482
-7155.244149	6588.556667	345.200195	33.082233
-7155.244149	6588.556667	343.913086	-109.493195
-7155.244149	6588.556667	342.625977	-107.143539
-7155.244149	6588.556667	341.338867	124.515640
-7155.244149	6588.556667	340.050781	-175.023499
-7155.244149	6588.556667	338.762695	-118.575638
-7155.244149	6588.556667	337.473633	21.489841
-7155.244149	6588.556667	336.184570	80.956017
-7155.244149	6588.556667	334.895508	22.336668
-7155.244149	6588.556667	333.606445	23.836504
-7155.244149	6588.556667	332.317383	33.832558
-7155.244149	6588.556667	331.027344	-100.027893
-7155.244149	6588.556667	329.736328	-84.859245
-7155.244149	6588.556667	328.446289	-176.023224
-7155.244149	6588.556667	327.155273	-85.514801
-7155.244149	6588.556667	325.864258	-124.814758
-7155.244149	6588.556667	324.573242	-115.986908
-7155.244149	6588.556667	323.281250	4.061197
-7155.244149	6588.556667	321.989258	97.222290
-7155.244149	6588.556667	320.697266	-133.567307
-7155.244149	6588.556667	319.405273	-105.845497
-7155.244149	6588.556667	318.112305	28.188135
-7155.244149	6588.556667	316.819336	-114.881485
-7155.244149	6588.556667	315.526367	96.067917
-7155.244149	6588.556667	314.232422	53.266533
-7155.244149	6588.556667	312.938477	55.875191
-7155.244149	6588.556667	311.644531	-17.612814
-7155.244149	6588.556667	310.349609	101.295158
-7155.244149	6588.556667	309.054688	144.015656
-7155.244149	6588.556667	307.759766	59.215649
-7155.244149	6588.556667	306.464844	-36.389782
-7155.244149	6588.556667	305.168945	55.419022
-7155.244149	6588.556667	303.873047	42.975010
-7155.244149	6588.556667	302.577148	54.558395
-7155.244149	6588.556667	301.281250	174.039474
-7155.244149	6588.556667	299.984375	154.193390
