#X		#Y		#Wave		#Intensity
20388.116862	-1251.588000	1999.980469	-99.967461
20388.116862	-1251.588000	1999.016602	-94.497276
20388.116862	-1251.588000	1998.052734	2.894716
20388.116862	-1251.588000	1997.087891	10.728482
20388.116862	-1251.588000	1996.123047	-95.716774
20388.116862	-1251.588000	1995.158203	52.734909
20388.116862	-1251.588000	1994.193359	-88.932114
20388.116862	-1251.588000	1993.228516	323.866882
20388.116862	-1251.588000	1992.262695	47.968781
20388.116862	-1251.588000	1991.297852	31.827961
20388.116862	-1251.588000	1990.332031	5.546666
20388.116862	-1251.588000	1989.366211	199.262177
20388.116862	-1251.588000	1988.399414	66.109444
20388.116862	-1251.588000	1987.433594	150.452286
20388.116862	-1251.588000	1986.466797	7.027012
20388.116862	-1251.588000	1985.500977	118.125694
20388.116862	-1251.588000	1984.534180	-104.756821
20388.116862	-1251.588000	1983.567383	119.629379
20388.116862	-1251.588000	1982.599609	-155.442444
20388.116862	-1251.588000	1981.632813	137.689819
20388.116862	-1251.588000	1980.665039	64.935791
20388.116862	-1251.588000	1979.697266	137.766190
20388.116862	-1251.588000	1978.729492	89.412460
20388.116862	-1251.588000	1977.761719	-8.453712
20388.116862	-1251.588000	1976.792969	63.899933
20388.116862	-1251.588000	1975.825195	170.639389
20388.116862	-1251.588000	1974.856445	72.399986
20388.116862	-1251.588000	1973.887695	6.143633
20388.116862	-1251.588000	1972.918945	3.925035
20388.116862	-1251.588000	1971.949219	-35.400902
20388.116862	-1251.588000	1970.980469	-69.888374
20388.116862	-1251.588000	1970.010742	33.587196
20388.116862	-1251.588000	1969.041016	95.025696
20388.116862	-1251.588000	1968.071289	131.703766
20388.116862	-1251.588000	1967.101563	151.031693
20388.116862	-1251.588000	1966.130859	-76.075500
20388.116862	-1251.588000	1965.161133	-113.526184
20388.116862	-1251.588000	1964.190430	48.426311
20388.116862	-1251.588000	1963.219727	79.760139
20388.116862	-1251.588000	1962.249023	113.477699
20388.116862	-1251.588000	1961.277344	33.906109
20388.116862	-1251.588000	1960.306641	45.355793
20388.116862	-1251.588000	1959.334961	-68.727646
20388.116862	-1251.588000	1958.363281	-79.506012
20388.116862	-1251.588000	1957.391602	62.152386
20388.116862	-1251.588000	1956.419922	-54.465633
20388.116862	-1251.588000	1955.447266	64.926987
20388.116862	-1251.588000	1954.474609	78.548080
20388.116862	-1251.588000	1953.501953	-28.285587
20388.116862	-1251.588000	1952.529297	-9.799357
20388.116862	-1251.588000	1951.556641	8.653394
20388.116862	-1251.588000	1950.583984	76.200630
20388.116862	-1251.588000	1949.610352	-67.488586
20388.116862	-1251.588000	1948.636719	-58.917580
20388.116862	-1251.588000	1947.663086	-212.378632
20388.116862	-1251.588000	1946.689453	68.618141
20388.116862	-1251.588000	1945.715820	104.115219
20388.116862	-1251.588000	1944.741211	97.881706
20388.116862	-1251.588000	1943.767578	108.818016
20388.116862	-1251.588000	1942.792969	-66.642715
20388.116862	-1251.588000	1941.818359	-87.561066
20388.116862	-1251.588000	1940.842773	38.621754
20388.116862	-1251.588000	1939.868164	-33.778187
20388.116862	-1251.588000	1938.892578	-47.332005
20388.116862	-1251.588000	1937.916992	39.583950
20388.116862	-1251.588000	1936.941406	16.237942
20388.116862	-1251.588000	1935.965820	-7.090145
20388.116862	-1251.588000	1934.990234	138.570908
20388.116862	-1251.588000	1934.013672	-58.582935
20388.116862	-1251.588000	1933.037109	106.642830
20388.116862	-1251.588000	1932.060547	-58.585491
20388.116862	-1251.588000	1931.083984	-3.504030
20388.116862	-1251.588000	1930.107422	-48.734718
20388.116862	-1251.588000	1929.129883	-81.701012
20388.116862	-1251.588000	1928.153320	142.158005
20388.116862	-1251.588000	1927.175781	140.996231
20388.116862	-1251.588000	1926.198242	32.288780
20388.116862	-1251.588000	1925.219727	21.413786
20388.116862	-1251.588000	1924.242188	5.678786
20388.116862	-1251.588000	1923.263672	109.697556
20388.116862	-1251.588000	1922.285156	-211.363708
20388.116862	-1251.588000	1921.306641	193.125381
20388.116862	-1251.588000	1920.328125	62.694584
20388.116862	-1251.588000	1919.349609	186.256409
20388.116862	-1251.588000	1918.370117	9.544220
20388.116862	-1251.588000	1917.391602	120.920425
20388.116862	-1251.588000	1916.412109	117.591545
20388.116862	-1251.588000	1915.431641	153.324432
20388.116862	-1251.588000	1914.452148	89.064201
20388.116862	-1251.588000	1913.472656	-14.166943
20388.116862	-1251.588000	1912.492188	-134.402405
20388.116862	-1251.588000	1911.511719	52.609058
20388.116862	-1251.588000	1910.531250	-38.289852
20388.116862	-1251.588000	1909.550781	-19.463511
20388.116862	-1251.588000	1908.569336	-32.293045
20388.116862	-1251.588000	1907.588867	108.381752
20388.116862	-1251.588000	1906.607422	-18.887808
20388.116862	-1251.588000	1905.625977	14.636382
20388.116862	-1251.588000	1904.644531	-7.824324
20388.116862	-1251.588000	1903.662109	-54.593517
20388.116862	-1251.588000	1902.680664	-25.872789
20388.116862	-1251.588000	1901.698242	-160.172287
20388.116862	-1251.588000	1900.715820	-75.437813
20388.116862	-1251.588000	1899.733398	16.586948
20388.116862	-1251.588000	1898.750000	1.592017
20388.116862	-1251.588000	1897.767578	6.078501
20388.116862	-1251.588000	1896.784180	32.464066
20388.116862	-1251.588000	1895.800781	119.625847
20388.116862	-1251.588000	1894.817383	102.279961
20388.116862	-1251.588000	1893.833984	80.100517
20388.116862	-1251.588000	1892.850586	-121.814598
20388.116862	-1251.588000	1891.866211	45.539028
20388.116862	-1251.588000	1890.881836	8.868362
20388.116862	-1251.588000	1889.897461	-44.766869
20388.116862	-1251.588000	1888.913086	6.013359
20388.116862	-1251.588000	1887.927734	-64.560020
20388.116862	-1251.588000	1886.943359	139.106125
20388.116862	-1251.588000	1885.958008	24.893461
20388.116862	-1251.588000	1884.972656	78.104401
20388.116862	-1251.588000	1883.987305	257.414734
20388.116862	-1251.588000	1883.001953	31.742468
20388.116862	-1251.588000	1882.015625	-96.866112
20388.116862	-1251.588000	1881.029297	-84.836250
20388.116862	-1251.588000	1880.042969	96.830040
20388.116862	-1251.588000	1879.056641	24.031136
20388.116862	-1251.588000	1878.070313	-213.460587
20388.116862	-1251.588000	1877.083984	-223.192123
20388.116862	-1251.588000	1876.096680	-90.046875
20388.116862	-1251.588000	1875.109375	-109.476631
20388.116862	-1251.588000	1874.122070	-53.858471
20388.116862	-1251.588000	1873.134766	-104.749207
20388.116862	-1251.588000	1872.146484	-22.537189
20388.116862	-1251.588000	1871.159180	-15.355392
20388.116862	-1251.588000	1870.170898	-63.812424
20388.116862	-1251.588000	1869.182617	57.028538
20388.116862	-1251.588000	1868.194336	-80.897171
20388.116862	-1251.588000	1867.205078	25.384333
20388.116862	-1251.588000	1866.216797	-223.679855
20388.116862	-1251.588000	1865.227539	3.397258
20388.116862	-1251.588000	1864.238281	3.267333
20388.116862	-1251.588000	1863.249023	-64.512260
20388.116862	-1251.588000	1862.259766	-91.222038
20388.116862	-1251.588000	1861.269531	-33.420471
20388.116862	-1251.588000	1860.279297	-48.084782
20388.116862	-1251.588000	1859.290039	-65.173599
20388.116862	-1251.588000	1858.298828	67.353912
20388.116862	-1251.588000	1857.308594	86.405609
20388.116862	-1251.588000	1856.318359	66.830208
20388.116862	-1251.588000	1855.327148	134.073029
20388.116862	-1251.588000	1854.335938	97.569031
20388.116862	-1251.588000	1853.344727	-208.987717
20388.116862	-1251.588000	1852.353516	-156.269363
20388.116862	-1251.588000	1851.362305	118.141785
20388.116862	-1251.588000	1850.370117	103.250504
20388.116862	-1251.588000	1849.377930	112.428383
20388.116862	-1251.588000	1848.385742	-27.775026
20388.116862	-1251.588000	1847.393555	140.314804
20388.116862	-1251.588000	1846.401367	62.699581
20388.116862	-1251.588000	1845.408203	216.196426
20388.116862	-1251.588000	1844.415039	-39.595367
20388.116862	-1251.588000	1843.421875	121.010475
20388.116862	-1251.588000	1842.428711	122.712929
20388.116862	-1251.588000	1841.435547	-94.540977
20388.116862	-1251.588000	1840.441406	80.296196
20388.116862	-1251.588000	1839.448242	98.716743
20388.116862	-1251.588000	1838.454102	90.638977
20388.116862	-1251.588000	1837.459961	195.500381
20388.116862	-1251.588000	1836.464844	136.844315
20388.116862	-1251.588000	1835.470703	183.894913
20388.116862	-1251.588000	1834.475586	295.745941
20388.116862	-1251.588000	1833.480469	-3.244046
20388.116862	-1251.588000	1832.485352	192.555664
20388.116862	-1251.588000	1831.490234	155.319717
20388.116862	-1251.588000	1830.495117	182.864349
20388.116862	-1251.588000	1829.499023	32.724857
20388.116862	-1251.588000	1828.502930	45.772800
20388.116862	-1251.588000	1827.506836	205.118408
20388.116862	-1251.588000	1826.510742	227.611160
20388.116862	-1251.588000	1825.513672	218.854553
20388.116862	-1251.588000	1824.517578	23.002607
20388.116862	-1251.588000	1823.520508	57.323860
20388.116862	-1251.588000	1822.523438	-37.872246
20388.116862	-1251.588000	1821.526367	46.652515
20388.116862	-1251.588000	1820.529297	-79.782562
20388.116862	-1251.588000	1819.531250	2.191339
20388.116862	-1251.588000	1818.533203	86.463043
20388.116862	-1251.588000	1817.535156	110.765938
20388.116862	-1251.588000	1816.537109	32.034615
20388.116862	-1251.588000	1815.539063	218.986862
20388.116862	-1251.588000	1814.540039	209.533234
20388.116862	-1251.588000	1813.541992	144.974747
20388.116862	-1251.588000	1812.542969	89.937134
20388.116862	-1251.588000	1811.543945	207.078293
20388.116862	-1251.588000	1810.543945	130.375961
20388.116862	-1251.588000	1809.544922	118.192314
20388.116862	-1251.588000	1808.544922	213.517792
20388.116862	-1251.588000	1807.544922	127.068268
20388.116862	-1251.588000	1806.544922	117.049973
20388.116862	-1251.588000	1805.544922	83.061699
20388.116862	-1251.588000	1804.544922	168.455200
20388.116862	-1251.588000	1803.543945	45.935295
20388.116862	-1251.588000	1802.542969	45.169506
20388.116862	-1251.588000	1801.541992	63.423687
20388.116862	-1251.588000	1800.541016	17.135586
20388.116862	-1251.588000	1799.539063	11.351583
20388.116862	-1251.588000	1798.538086	279.906433
20388.116862	-1251.588000	1797.536133	49.643517
20388.116862	-1251.588000	1796.534180	-142.452652
20388.116862	-1251.588000	1795.532227	151.952240
20388.116862	-1251.588000	1794.529297	181.484314
20388.116862	-1251.588000	1793.527344	-118.065697
20388.116862	-1251.588000	1792.524414	-69.602180
20388.116862	-1251.588000	1791.521484	159.868607
20388.116862	-1251.588000	1790.518555	0.796332
20388.116862	-1251.588000	1789.514648	113.255997
20388.116862	-1251.588000	1788.511719	199.388855
20388.116862	-1251.588000	1787.507813	-155.140900
20388.116862	-1251.588000	1786.503906	-81.081169
20388.116862	-1251.588000	1785.500000	9.520689
20388.116862	-1251.588000	1784.496094	138.073410
20388.116862	-1251.588000	1783.491211	149.885986
20388.116862	-1251.588000	1782.486328	173.496063
20388.116862	-1251.588000	1781.481445	80.453049
20388.116862	-1251.588000	1780.476563	-69.723892
20388.116862	-1251.588000	1779.471680	103.421913
20388.116862	-1251.588000	1778.465820	205.084824
20388.116862	-1251.588000	1777.460938	294.735382
20388.116862	-1251.588000	1776.455078	-48.235455
20388.116862	-1251.588000	1775.449219	117.257607
20388.116862	-1251.588000	1774.442383	71.175240
20388.116862	-1251.588000	1773.436523	155.640152
20388.116862	-1251.588000	1772.429688	178.233078
20388.116862	-1251.588000	1771.422852	203.094437
20388.116862	-1251.588000	1770.416016	14.224017
20388.116862	-1251.588000	1769.409180	-48.896889
20388.116862	-1251.588000	1768.402344	32.642696
20388.116862	-1251.588000	1767.394531	114.046082
20388.116862	-1251.588000	1766.386719	26.922024
20388.116862	-1251.588000	1765.378906	93.869041
20388.116862	-1251.588000	1764.371094	179.658539
20388.116862	-1251.588000	1763.362305	-78.404877
20388.116862	-1251.588000	1762.354492	-44.954105
20388.116862	-1251.588000	1761.345703	-35.317451
20388.116862	-1251.588000	1760.336914	-115.810318
20388.116862	-1251.588000	1759.328125	76.021400
20388.116862	-1251.588000	1758.318359	30.854002
20388.116862	-1251.588000	1757.308594	118.196632
20388.116862	-1251.588000	1756.299805	72.846924
20388.116862	-1251.588000	1755.290039	70.008751
20388.116862	-1251.588000	1754.279297	-29.956741
20388.116862	-1251.588000	1753.269531	-58.998936
20388.116862	-1251.588000	1752.258789	304.532806
20388.116862	-1251.588000	1751.249023	-1.469697
20388.116862	-1251.588000	1750.238281	33.036449
20388.116862	-1251.588000	1749.226563	119.432991
20388.116862	-1251.588000	1748.215820	172.613342
20388.116862	-1251.588000	1747.204102	159.495880
20388.116862	-1251.588000	1746.193359	87.223419
20388.116862	-1251.588000	1745.181641	170.784317
20388.116862	-1251.588000	1744.168945	197.521347
20388.116862	-1251.588000	1743.157227	-42.682793
20388.116862	-1251.588000	1742.144531	75.966393
20388.116862	-1251.588000	1741.132813	5.639109
20388.116862	-1251.588000	1740.120117	-86.008186
20388.116862	-1251.588000	1739.106445	-189.526184
20388.116862	-1251.588000	1738.093750	37.193428
20388.116862	-1251.588000	1737.080078	-19.327171
20388.116862	-1251.588000	1736.067383	-52.330849
20388.116862	-1251.588000	1735.053711	-109.004738
20388.116862	-1251.588000	1734.040039	-238.832275
20388.116862	-1251.588000	1733.025391	88.528923
20388.116862	-1251.588000	1732.011719	-164.012817
20388.116862	-1251.588000	1730.997070	184.223862
20388.116862	-1251.588000	1729.982422	96.453201
20388.116862	-1251.588000	1728.967773	-40.835995
20388.116862	-1251.588000	1727.952148	-116.954002
20388.116862	-1251.588000	1726.937500	30.525986
20388.116862	-1251.588000	1725.921875	-85.774994
20388.116862	-1251.588000	1724.906250	94.394905
20388.116862	-1251.588000	1723.890625	-160.875824
20388.116862	-1251.588000	1722.875000	-107.972305
20388.116862	-1251.588000	1721.858398	-76.356575
20388.116862	-1251.588000	1720.841797	105.655235
20388.116862	-1251.588000	1719.825195	-29.886393
20388.116862	-1251.588000	1718.808594	-64.388008
20388.116862	-1251.588000	1717.791992	-56.659466
20388.116862	-1251.588000	1716.774414	-91.327202
20388.116862	-1251.588000	1715.756836	-119.020325
20388.116862	-1251.588000	1714.739258	-76.323067
20388.116862	-1251.588000	1713.721680	-29.030575
20388.116862	-1251.588000	1712.704102	-153.237778
20388.116862	-1251.588000	1711.685547	20.635605
20388.116862	-1251.588000	1710.667969	77.021133
20388.116862	-1251.588000	1709.649414	95.746506
20388.116862	-1251.588000	1708.630859	62.769184
20388.116862	-1251.588000	1707.611328	-28.929426
20388.116862	-1251.588000	1706.592773	-8.090952
20388.116862	-1251.588000	1705.573242	38.442841
20388.116862	-1251.588000	1704.553711	105.979355
20388.116862	-1251.588000	1703.534180	30.436462
20388.116862	-1251.588000	1702.513672	182.145889
20388.116862	-1251.588000	1701.494141	73.664604
20388.116862	-1251.588000	1700.473633	-91.082199
20388.116862	-1251.588000	1699.453125	161.049225
20388.116862	-1251.588000	1698.432617	-29.556383
20388.116862	-1251.588000	1697.412109	147.404663
20388.116862	-1251.588000	1696.390625	195.474686
20388.116862	-1251.588000	1695.369141	86.657135
20388.116862	-1251.588000	1694.347656	172.018417
20388.116862	-1251.588000	1693.326172	205.811508
20388.116862	-1251.588000	1692.304688	-64.534874
20388.116862	-1251.588000	1691.282227	-2.793075
20388.116862	-1251.588000	1690.260742	238.901047
20388.116862	-1251.588000	1689.238281	-33.842037
20388.116862	-1251.588000	1688.214844	8.956105
20388.116862	-1251.588000	1687.192383	196.562317
20388.116862	-1251.588000	1686.168945	80.312370
20388.116862	-1251.588000	1685.146484	263.039734
20388.116862	-1251.588000	1684.123047	412.929626
20388.116862	-1251.588000	1683.099609	294.193268
20388.116862	-1251.588000	1682.075195	107.733757
20388.116862	-1251.588000	1681.051758	187.377167
20388.116862	-1251.588000	1680.027344	376.598389
20388.116862	-1251.588000	1679.002930	381.378418
20388.116862	-1251.588000	1677.978516	446.753601
20388.116862	-1251.588000	1676.953125	222.847488
20388.116862	-1251.588000	1675.928711	276.466187
20388.116862	-1251.588000	1674.903320	535.155396
20388.116862	-1251.588000	1673.877930	141.063477
20388.116862	-1251.588000	1672.852539	502.120270
20388.116862	-1251.588000	1671.826172	459.900391
20388.116862	-1251.588000	1670.800781	319.826569
20388.116862	-1251.588000	1669.774414	347.440308
20388.116862	-1251.588000	1668.748047	531.017090
20388.116862	-1251.588000	1667.721680	400.183075
20388.116862	-1251.588000	1666.694336	236.757889
20388.116862	-1251.588000	1665.667969	357.293518
20388.116862	-1251.588000	1664.640625	384.661255
20388.116862	-1251.588000	1663.613281	260.768616
20388.116862	-1251.588000	1662.585938	299.700836
20388.116862	-1251.588000	1661.557617	359.500000
20388.116862	-1251.588000	1660.530273	609.906921
20388.116862	-1251.588000	1659.501953	560.305359
20388.116862	-1251.588000	1658.473633	266.662476
20388.116862	-1251.588000	1657.444336	705.038940
20388.116862	-1251.588000	1656.416016	560.110352
20388.116862	-1251.588000	1655.386719	454.683075
20388.116862	-1251.588000	1654.358398	446.822479
20388.116862	-1251.588000	1653.328125	666.454651
20388.116862	-1251.588000	1652.298828	690.994995
20388.116862	-1251.588000	1651.269531	683.010742
20388.116862	-1251.588000	1650.239258	777.098694
20388.116862	-1251.588000	1649.208984	414.079742
20388.116862	-1251.588000	1648.178711	566.136841
20388.116862	-1251.588000	1647.148438	544.182434
20388.116862	-1251.588000	1646.117188	640.460571
20388.116862	-1251.588000	1645.086914	637.017395
20388.116862	-1251.588000	1644.055664	1018.305481
20388.116862	-1251.588000	1643.024414	929.011108
20388.116862	-1251.588000	1641.992188	1140.926270
20388.116862	-1251.588000	1640.960938	1021.510010
20388.116862	-1251.588000	1639.928711	1138.352783
20388.116862	-1251.588000	1638.896484	836.026672
20388.116862	-1251.588000	1637.864258	976.001709
20388.116862	-1251.588000	1636.832031	1113.603394
20388.116862	-1251.588000	1635.798828	1417.760376
20388.116862	-1251.588000	1634.766602	1240.549072
20388.116862	-1251.588000	1633.733398	1285.471069
20388.116862	-1251.588000	1632.699219	1274.855713
20388.116862	-1251.588000	1631.666016	1063.082031
20388.116862	-1251.588000	1630.632813	971.616821
20388.116862	-1251.588000	1629.598633	1280.073486
20388.116862	-1251.588000	1628.564453	1287.978027
20388.116862	-1251.588000	1627.530273	1416.041748
20388.116862	-1251.588000	1626.495117	1416.991211
20388.116862	-1251.588000	1625.460938	1468.779663
20388.116862	-1251.588000	1624.425781	1453.578735
20388.116862	-1251.588000	1623.390625	1574.618408
20388.116862	-1251.588000	1622.355469	1577.899170
20388.116862	-1251.588000	1621.319336	1631.956299
20388.116862	-1251.588000	1620.284180	1799.091309
20388.116862	-1251.588000	1619.248047	1820.823853
20388.116862	-1251.588000	1618.211914	1579.618042
20388.116862	-1251.588000	1617.174805	1797.435425
20388.116862	-1251.588000	1616.138672	1925.284058
20388.116862	-1251.588000	1615.101563	1947.052856
20388.116862	-1251.588000	1614.065430	2118.664307
20388.116862	-1251.588000	1613.027344	1886.949585
20388.116862	-1251.588000	1611.990234	2072.372070
20388.116862	-1251.588000	1610.953125	1958.304932
20388.116862	-1251.588000	1609.915039	2270.354248
20388.116862	-1251.588000	1608.876953	2278.378662
20388.116862	-1251.588000	1607.838867	2325.569824
20388.116862	-1251.588000	1606.800781	2259.997559
20388.116862	-1251.588000	1605.761719	2417.689453
20388.116862	-1251.588000	1604.723633	2319.988525
20388.116862	-1251.588000	1603.684570	2316.664795
20388.116862	-1251.588000	1602.644531	2697.444336
20388.116862	-1251.588000	1601.605469	2848.191162
20388.116862	-1251.588000	1600.566406	2677.067871
20388.116862	-1251.588000	1599.526367	2970.341064
20388.116862	-1251.588000	1598.486328	2865.981934
20388.116862	-1251.588000	1597.446289	2678.996094
20388.116862	-1251.588000	1596.405273	2659.811768
20388.116862	-1251.588000	1595.365234	2670.554932
20388.116862	-1251.588000	1594.324219	2454.000977
20388.116862	-1251.588000	1593.283203	2439.615967
20388.116862	-1251.588000	1592.242188	2395.451172
20388.116862	-1251.588000	1591.200195	2661.159180
20388.116862	-1251.588000	1590.159180	2369.275146
20388.116862	-1251.588000	1589.117188	2451.476318
20388.116862	-1251.588000	1588.075195	2425.905518
20388.116862	-1251.588000	1587.032227	2377.460693
20388.116862	-1251.588000	1585.990234	2147.987061
20388.116862	-1251.588000	1584.947266	2280.824707
20388.116862	-1251.588000	1583.904297	1987.402710
20388.116862	-1251.588000	1582.861328	2308.238281
20388.116862	-1251.588000	1581.818359	2289.962158
20388.116862	-1251.588000	1580.775391	2127.463623
20388.116862	-1251.588000	1579.731445	1967.373901
20388.116862	-1251.588000	1578.687500	2084.450684
20388.116862	-1251.588000	1577.643555	2057.340576
20388.116862	-1251.588000	1576.598633	2032.588745
20388.116862	-1251.588000	1575.554688	2051.407959
20388.116862	-1251.588000	1574.509766	1946.743042
20388.116862	-1251.588000	1573.464844	2043.476929
20388.116862	-1251.588000	1572.419922	1991.604614
20388.116862	-1251.588000	1571.374023	1665.450928
20388.116862	-1251.588000	1570.329102	1897.286987
20388.116862	-1251.588000	1569.283203	1690.284180
20388.116862	-1251.588000	1568.237305	1627.401611
20388.116862	-1251.588000	1567.191406	1863.910645
20388.116862	-1251.588000	1566.144531	1707.522949
20388.116862	-1251.588000	1565.098633	1781.946289
20388.116862	-1251.588000	1564.051758	1817.600220
20388.116862	-1251.588000	1563.004883	1675.267212
20388.116862	-1251.588000	1561.957031	1562.737427
20388.116862	-1251.588000	1560.910156	1484.579224
20388.116862	-1251.588000	1559.862305	1563.953003
20388.116862	-1251.588000	1558.814453	1725.503052
20388.116862	-1251.588000	1557.766602	1741.125000
20388.116862	-1251.588000	1556.718750	1417.095215
20388.116862	-1251.588000	1555.669922	1496.778564
20388.116862	-1251.588000	1554.621094	1542.337524
20388.116862	-1251.588000	1553.573242	1560.638550
20388.116862	-1251.588000	1552.523438	1727.100952
20388.116862	-1251.588000	1551.474609	1488.142090
20388.116862	-1251.588000	1550.424805	1488.498413
20388.116862	-1251.588000	1549.375000	1618.740845
20388.116862	-1251.588000	1548.325195	1330.150757
20388.116862	-1251.588000	1547.275391	1405.950562
20388.116862	-1251.588000	1546.225586	1411.277954
20388.116862	-1251.588000	1545.174805	1305.212524
20388.116862	-1251.588000	1544.124023	1156.073853
20388.116862	-1251.588000	1543.073242	1045.761475
20388.116862	-1251.588000	1542.022461	1126.603027
20388.116862	-1251.588000	1540.970703	932.429749
20388.116862	-1251.588000	1539.919922	852.096680
20388.116862	-1251.588000	1538.868164	935.516052
20388.116862	-1251.588000	1537.815430	946.298401
20388.116862	-1251.588000	1536.763672	902.677063
20388.116862	-1251.588000	1535.710938	684.296387
20388.116862	-1251.588000	1534.659180	606.906860
20388.116862	-1251.588000	1533.606445	565.976440
20388.116862	-1251.588000	1532.552734	511.550079
20388.116862	-1251.588000	1531.500000	364.222351
20388.116862	-1251.588000	1530.446289	400.844696
20388.116862	-1251.588000	1529.393555	439.844147
20388.116862	-1251.588000	1528.338867	220.375702
20388.116862	-1251.588000	1527.285156	246.017166
20388.116862	-1251.588000	1526.231445	181.082001
20388.116862	-1251.588000	1525.176758	442.685852
20388.116862	-1251.588000	1524.122070	328.113007
20388.116862	-1251.588000	1523.067383	197.844528
20388.116862	-1251.588000	1522.012695	375.835083
20388.116862	-1251.588000	1520.957031	182.429306
20388.116862	-1251.588000	1519.901367	349.268311
20388.116862	-1251.588000	1518.845703	67.893730
20388.116862	-1251.588000	1517.790039	119.496490
20388.116862	-1251.588000	1516.734375	71.625969
20388.116862	-1251.588000	1515.677734	218.482773
20388.116862	-1251.588000	1514.621094	136.924210
20388.116862	-1251.588000	1513.564453	73.617760
20388.116862	-1251.588000	1512.507813	82.826607
20388.116862	-1251.588000	1511.450195	-27.673019
20388.116862	-1251.588000	1510.393555	63.182194
20388.116862	-1251.588000	1509.335938	-105.770500
20388.116862	-1251.588000	1508.278320	30.507048
20388.116862	-1251.588000	1507.219727	132.968277
20388.116862	-1251.588000	1506.162109	-58.095062
20388.116862	-1251.588000	1505.103516	-9.590851
20388.116862	-1251.588000	1504.044922	-143.850632
20388.116862	-1251.588000	1502.986328	83.239235
20388.116862	-1251.588000	1501.926758	-75.550827
20388.116862	-1251.588000	1500.868164	-24.297558
20388.116862	-1251.588000	1499.808594	-36.101032
20388.116862	-1251.588000	1498.749023	-77.088394
20388.116862	-1251.588000	1497.688477	-27.728046
20388.116862	-1251.588000	1496.628906	-18.831163
20388.116862	-1251.588000	1495.568359	93.883011
20388.116862	-1251.588000	1494.507813	148.092438
20388.116862	-1251.588000	1493.447266	150.590363
20388.116862	-1251.588000	1492.386719	83.386772
20388.116862	-1251.588000	1491.325195	169.502243
20388.116862	-1251.588000	1490.263672	-30.270571
20388.116862	-1251.588000	1489.202148	-11.436361
20388.116862	-1251.588000	1488.140625	237.130066
20388.116862	-1251.588000	1487.079102	240.424026
20388.116862	-1251.588000	1486.016602	43.591644
20388.116862	-1251.588000	1484.954102	107.936584
20388.116862	-1251.588000	1483.891602	413.061523
20388.116862	-1251.588000	1482.829102	9.840644
20388.116862	-1251.588000	1481.765625	2.622669
20388.116862	-1251.588000	1480.702148	11.279063
20388.116862	-1251.588000	1479.638672	107.711288
20388.116862	-1251.588000	1478.575195	100.919418
20388.116862	-1251.588000	1477.511719	98.684776
20388.116862	-1251.588000	1476.447266	-107.656967
20388.116862	-1251.588000	1475.382813	27.419220
20388.116862	-1251.588000	1474.318359	-43.902058
20388.116862	-1251.588000	1473.253906	-83.744804
20388.116862	-1251.588000	1472.189453	-132.108047
20388.116862	-1251.588000	1471.124023	-106.492432
20388.116862	-1251.588000	1470.058594	26.878307
20388.116862	-1251.588000	1468.993164	-104.251717
20388.116862	-1251.588000	1467.927734	-104.931374
20388.116862	-1251.588000	1466.861328	37.548134
20388.116862	-1251.588000	1465.794922	-70.570702
20388.116862	-1251.588000	1464.728516	-8.107281
20388.116862	-1251.588000	1463.662109	139.453918
20388.116862	-1251.588000	1462.594727	45.038948
20388.116862	-1251.588000	1461.528320	65.480064
20388.116862	-1251.588000	1460.460938	5.193071
20388.116862	-1251.588000	1459.393555	86.329781
20388.116862	-1251.588000	1458.326172	231.826569
20388.116862	-1251.588000	1457.257813	370.024139
20388.116862	-1251.588000	1456.189453	276.930298
20388.116862	-1251.588000	1455.121094	267.497040
20388.116862	-1251.588000	1454.052734	484.144043
20388.116862	-1251.588000	1452.984375	291.195374
20388.116862	-1251.588000	1451.915039	591.565491
20388.116862	-1251.588000	1450.845703	355.782074
20388.116862	-1251.588000	1449.776367	576.952271
20388.116862	-1251.588000	1448.707031	474.828735
20388.116862	-1251.588000	1447.636719	540.178101
20388.116862	-1251.588000	1446.567383	493.973267
20388.116862	-1251.588000	1445.497070	597.976318
20388.116862	-1251.588000	1444.425781	435.924591
20388.116862	-1251.588000	1443.355469	582.556885
20388.116862	-1251.588000	1442.285156	518.106812
20388.116862	-1251.588000	1441.213867	646.587708
20388.116862	-1251.588000	1440.142578	780.106812
20388.116862	-1251.588000	1439.070313	601.477478
20388.116862	-1251.588000	1437.999023	655.529114
20388.116862	-1251.588000	1436.926758	793.160339
20388.116862	-1251.588000	1435.854492	817.254272
20388.116862	-1251.588000	1434.782227	792.706970
20388.116862	-1251.588000	1433.709961	397.851074
20388.116862	-1251.588000	1432.636719	702.829712
20388.116862	-1251.588000	1431.563477	341.699280
20388.116862	-1251.588000	1430.490234	542.616516
20388.116862	-1251.588000	1429.416992	350.831024
20388.116862	-1251.588000	1428.343750	509.652832
20388.116862	-1251.588000	1427.269531	416.501984
20388.116862	-1251.588000	1426.195313	233.618851
20388.116862	-1251.588000	1425.121094	487.897400
20388.116862	-1251.588000	1424.046875	285.784393
20388.116862	-1251.588000	1422.971680	564.997253
20388.116862	-1251.588000	1421.896484	558.293274
20388.116862	-1251.588000	1420.821289	397.813538
20388.116862	-1251.588000	1419.746094	441.473511
20388.116862	-1251.588000	1418.669922	524.072998
20388.116862	-1251.588000	1417.594727	506.165070
20388.116862	-1251.588000	1416.518555	521.494568
20388.116862	-1251.588000	1415.442383	395.485992
20388.116862	-1251.588000	1414.365234	327.587189
20388.116862	-1251.588000	1413.289063	374.507355
20388.116862	-1251.588000	1412.211914	557.294006
20388.116862	-1251.588000	1411.134766	705.512817
20388.116862	-1251.588000	1410.057617	769.104614
20388.116862	-1251.588000	1408.979492	704.291931
20388.116862	-1251.588000	1407.902344	654.634521
20388.116862	-1251.588000	1406.824219	741.982666
20388.116862	-1251.588000	1405.746094	690.225708
20388.116862	-1251.588000	1404.666992	913.325928
20388.116862	-1251.588000	1403.588867	927.094971
20388.116862	-1251.588000	1402.509766	599.901611
20388.116862	-1251.588000	1401.430664	510.848572
20388.116862	-1251.588000	1400.351563	646.135254
20388.116862	-1251.588000	1399.271484	605.368103
20388.116862	-1251.588000	1398.192383	454.041138
20388.116862	-1251.588000	1397.112305	321.739105
20388.116862	-1251.588000	1396.031250	428.227142
20388.116862	-1251.588000	1394.951172	512.581726
20388.116862	-1251.588000	1393.871094	418.235535
20388.116862	-1251.588000	1392.790039	383.935211
20388.116862	-1251.588000	1391.708984	291.574341
20388.116862	-1251.588000	1390.626953	442.387054
20388.116862	-1251.588000	1389.545898	573.172363
20388.116862	-1251.588000	1388.463867	402.155151
20388.116862	-1251.588000	1387.381836	480.241333
20388.116862	-1251.588000	1386.299805	426.162506
20388.116862	-1251.588000	1385.217773	605.466614
20388.116862	-1251.588000	1384.134766	641.089478
20388.116862	-1251.588000	1383.051758	618.361389
20388.116862	-1251.588000	1381.968750	610.524597
20388.116862	-1251.588000	1380.885742	780.046021
20388.116862	-1251.588000	1379.802734	592.050720
20388.116862	-1251.588000	1378.718750	681.500366
20388.116862	-1251.588000	1377.634766	607.466919
20388.116862	-1251.588000	1376.550781	577.100769
20388.116862	-1251.588000	1375.465820	468.973267
20388.116862	-1251.588000	1374.381836	337.405975
20388.116862	-1251.588000	1373.296875	579.344177
20388.116862	-1251.588000	1372.211914	493.580994
20388.116862	-1251.588000	1371.126953	217.325455
20388.116862	-1251.588000	1370.041016	160.798676
20388.116862	-1251.588000	1368.955078	452.241699
20388.116862	-1251.588000	1367.869141	292.317596
20388.116862	-1251.588000	1366.783203	565.974731
20388.116862	-1251.588000	1365.697266	448.741333
20388.116862	-1251.588000	1364.610352	443.749115
20388.116862	-1251.588000	1363.523438	343.915405
20388.116862	-1251.588000	1362.436523	271.417969
20388.116862	-1251.588000	1361.349609	667.639587
20388.116862	-1251.588000	1360.261719	496.770844
20388.116862	-1251.588000	1359.174805	621.849609
20388.116862	-1251.588000	1358.086914	591.957214
20388.116862	-1251.588000	1356.998047	482.831207
20388.116862	-1251.588000	1355.910156	557.433838
20388.116862	-1251.588000	1354.821289	641.627136
20388.116862	-1251.588000	1353.732422	593.550415
20388.116862	-1251.588000	1352.643555	537.438904
20388.116862	-1251.588000	1351.554688	605.333679
20388.116862	-1251.588000	1350.464844	649.305725
20388.116862	-1251.588000	1349.375000	540.528137
20388.116862	-1251.588000	1348.285156	493.591766
20388.116862	-1251.588000	1347.195313	327.907593
20388.116862	-1251.588000	1346.105469	651.512756
20388.116862	-1251.588000	1345.014648	505.777344
20388.116862	-1251.588000	1343.923828	627.716980
20388.116862	-1251.588000	1342.833008	611.592346
20388.116862	-1251.588000	1341.741211	613.975952
20388.116862	-1251.588000	1340.650391	396.267395
20388.116862	-1251.588000	1339.558594	510.608093
20388.116862	-1251.588000	1338.466797	628.417480
20388.116862	-1251.588000	1337.374023	447.742920
20388.116862	-1251.588000	1336.282227	389.701385
20388.116862	-1251.588000	1335.189453	359.012756
20388.116862	-1251.588000	1334.096680	446.482025
20388.116862	-1251.588000	1333.003906	335.781952
20388.116862	-1251.588000	1331.910156	528.749268
20388.116862	-1251.588000	1330.817383	346.493439
20388.116862	-1251.588000	1329.723633	332.258392
20388.116862	-1251.588000	1328.629883	377.143738
20388.116862	-1251.588000	1327.535156	239.689499
20388.116862	-1251.588000	1326.441406	520.458862
20388.116862	-1251.588000	1325.346680	367.942322
20388.116862	-1251.588000	1324.251953	348.832886
20388.116862	-1251.588000	1323.156250	529.309509
20388.116862	-1251.588000	1322.061523	596.303162
20388.116862	-1251.588000	1320.965820	520.087830
20388.116862	-1251.588000	1319.870117	467.507782
20388.116862	-1251.588000	1318.774414	550.551208
20388.116862	-1251.588000	1317.678711	594.508057
20388.116862	-1251.588000	1316.582031	482.713684
20388.116862	-1251.588000	1315.485352	669.060120
20388.116862	-1251.588000	1314.388672	525.223999
20388.116862	-1251.588000	1313.291016	552.764404
20388.116862	-1251.588000	1312.194336	667.199524
20388.116862	-1251.588000	1311.096680	608.223938
20388.116862	-1251.588000	1309.999023	567.464783
20388.116862	-1251.588000	1308.901367	586.172974
20388.116862	-1251.588000	1307.802734	371.325745
20388.116862	-1251.588000	1306.705078	715.059998
20388.116862	-1251.588000	1305.606445	539.577576
20388.116862	-1251.588000	1304.506836	420.745605
20388.116862	-1251.588000	1303.408203	392.613892
20388.116862	-1251.588000	1302.308594	550.322937
20388.116862	-1251.588000	1301.208984	437.538605
20388.116862	-1251.588000	1300.109375	555.616333
20388.116862	-1251.588000	1299.009766	481.107697
20388.116862	-1251.588000	1297.909180	626.403381
20388.116862	-1251.588000	1296.808594	577.229797
20388.116862	-1251.588000	1295.708008	353.284058
20388.116862	-1251.588000	1294.607422	327.881470
20388.116862	-1251.588000	1293.506836	445.174316
20388.116862	-1251.588000	1292.405273	375.708649
20388.116862	-1251.588000	1291.303711	273.557373
20388.116862	-1251.588000	1290.202148	392.595398
20388.116862	-1251.588000	1289.099609	213.625717
20388.116862	-1251.588000	1287.998047	219.618286
20388.116862	-1251.588000	1286.895508	355.527771
20388.116862	-1251.588000	1285.792969	159.971970
20388.116862	-1251.588000	1284.689453	212.646439
20388.116862	-1251.588000	1283.586914	260.331635
20388.116862	-1251.588000	1282.483398	235.970627
20388.116862	-1251.588000	1281.379883	273.624481
20388.116862	-1251.588000	1280.276367	345.365387
20388.116862	-1251.588000	1279.171875	282.053131
20388.116862	-1251.588000	1278.067383	336.714508
20388.116862	-1251.588000	1276.962891	285.910004
20388.116862	-1251.588000	1275.858398	393.485321
20388.116862	-1251.588000	1274.753906	272.029236
20388.116862	-1251.588000	1273.648438	480.814636
20388.116862	-1251.588000	1272.542969	462.816589
20388.116862	-1251.588000	1271.437500	666.762634
20388.116862	-1251.588000	1270.331055	716.820129
20388.116862	-1251.588000	1269.225586	739.633606
20388.116862	-1251.588000	1268.119141	930.630798
20388.116862	-1251.588000	1267.012695	880.169556
20388.116862	-1251.588000	1265.906250	763.911011
20388.116862	-1251.588000	1264.798828	641.144714
20388.116862	-1251.588000	1263.691406	669.422852
20388.116862	-1251.588000	1262.583984	610.226807
20388.116862	-1251.588000	1261.476563	643.831116
20388.116862	-1251.588000	1260.368164	608.874878
20388.116862	-1251.588000	1259.260742	449.967438
20388.116862	-1251.588000	1258.152344	501.437927
20388.116862	-1251.588000	1257.043945	372.865936
20388.116862	-1251.588000	1255.934570	473.235352
20388.116862	-1251.588000	1254.825195	399.893372
20388.116862	-1251.588000	1253.716797	429.586700
20388.116862	-1251.588000	1252.606445	259.526550
20388.116862	-1251.588000	1251.497070	398.802582
20388.116862	-1251.588000	1250.387695	414.047089
20388.116862	-1251.588000	1249.277344	217.784866
20388.116862	-1251.588000	1248.166992	269.378876
20388.116862	-1251.588000	1247.055664	175.158615
20388.116862	-1251.588000	1245.945313	207.260223
20388.116862	-1251.588000	1244.833984	266.735168
20388.116862	-1251.588000	1243.722656	217.192566
20388.116862	-1251.588000	1242.611328	153.117905
20388.116862	-1251.588000	1241.499023	94.741936
20388.116862	-1251.588000	1240.387695	-16.455231
20388.116862	-1251.588000	1239.275391	355.087494
20388.116862	-1251.588000	1238.162109	147.092819
20388.116862	-1251.588000	1237.049805	207.148392
20388.116862	-1251.588000	1235.936523	174.002701
20388.116862	-1251.588000	1234.823242	12.023869
20388.116862	-1251.588000	1233.709961	131.378067
20388.116862	-1251.588000	1232.596680	118.807610
20388.116862	-1251.588000	1231.482422	64.227722
20388.116862	-1251.588000	1230.369141	66.369949
20388.116862	-1251.588000	1229.253906	98.895546
20388.116862	-1251.588000	1228.139648	66.440483
20388.116862	-1251.588000	1227.025391	54.187527
20388.116862	-1251.588000	1225.910156	77.473663
20388.116862	-1251.588000	1224.794922	-96.107094
20388.116862	-1251.588000	1223.679688	54.456203
20388.116862	-1251.588000	1222.563477	85.216270
20388.116862	-1251.588000	1221.447266	32.788727
20388.116862	-1251.588000	1220.331055	55.623009
20388.116862	-1251.588000	1219.214844	62.705681
20388.116862	-1251.588000	1218.098633	-55.479614
20388.116862	-1251.588000	1216.981445	33.794510
20388.116862	-1251.588000	1215.864258	12.555982
20388.116862	-1251.588000	1214.747070	-24.845325
20388.116862	-1251.588000	1213.629883	-88.390587
20388.116862	-1251.588000	1212.511719	106.882828
20388.116862	-1251.588000	1211.393555	-51.160072
20388.116862	-1251.588000	1210.275391	-24.548285
20388.116862	-1251.588000	1209.157227	-114.835220
20388.116862	-1251.588000	1208.038086	-69.960716
20388.116862	-1251.588000	1206.918945	-60.491226
20388.116862	-1251.588000	1205.799805	-187.513321
20388.116862	-1251.588000	1204.680664	38.936214
20388.116862	-1251.588000	1203.560547	59.069752
20388.116862	-1251.588000	1202.441406	-88.929993
20388.116862	-1251.588000	1201.321289	-169.451172
20388.116862	-1251.588000	1200.200195	-8.277712
20388.116862	-1251.588000	1199.080078	-87.646538
20388.116862	-1251.588000	1197.958984	95.879158
20388.116862	-1251.588000	1196.837891	15.354485
20388.116862	-1251.588000	1195.716797	-70.680107
20388.116862	-1251.588000	1194.594727	-154.376816
20388.116862	-1251.588000	1193.473633	-49.371464
20388.116862	-1251.588000	1192.351563	-150.348755
20388.116862	-1251.588000	1191.229492	-147.739639
20388.116862	-1251.588000	1190.106445	-127.725754
20388.116862	-1251.588000	1188.984375	-56.986465
20388.116862	-1251.588000	1187.861328	-66.473419
20388.116862	-1251.588000	1186.738281	-83.004066
20388.116862	-1251.588000	1185.614258	48.804260
20388.116862	-1251.588000	1184.491211	61.736481
20388.116862	-1251.588000	1183.367188	-49.620350
20388.116862	-1251.588000	1182.243164	13.263240
20388.116862	-1251.588000	1181.119141	-67.271416
20388.116862	-1251.588000	1179.994141	57.793873
20388.116862	-1251.588000	1178.869141	-66.247581
20388.116862	-1251.588000	1177.744141	-70.015343
20388.116862	-1251.588000	1176.619141	60.133713
20388.116862	-1251.588000	1175.493164	15.586731
20388.116862	-1251.588000	1174.368164	-84.582245
20388.116862	-1251.588000	1173.242188	24.465893
20388.116862	-1251.588000	1172.115234	18.484497
20388.116862	-1251.588000	1170.989258	-56.477421
20388.116862	-1251.588000	1169.862305	-43.696289
20388.116862	-1251.588000	1168.735352	25.623737
20388.116862	-1251.588000	1167.608398	-20.487419
20388.116862	-1251.588000	1166.481445	-43.372875
20388.116862	-1251.588000	1165.353516	-4.929113
20388.116862	-1251.588000	1164.225586	96.689774
20388.116862	-1251.588000	1163.097656	-22.275307
20388.116862	-1251.588000	1161.968750	50.355175
20388.116862	-1251.588000	1160.840820	59.251453
20388.116862	-1251.588000	1159.711914	80.717209
20388.116862	-1251.588000	1158.583008	134.024460
20388.116862	-1251.588000	1157.453125	89.969757
20388.116862	-1251.588000	1156.324219	-141.725403
20388.116862	-1251.588000	1155.194336	34.330116
20388.116862	-1251.588000	1154.064453	-72.647041
20388.116862	-1251.588000	1152.933594	68.800583
20388.116862	-1251.588000	1151.803711	81.082512
20388.116862	-1251.588000	1150.672852	-46.821682
20388.116862	-1251.588000	1149.541992	-56.788849
20388.116862	-1251.588000	1148.411133	-52.476406
20388.116862	-1251.588000	1147.279297	143.544525
20388.116862	-1251.588000	1146.147461	15.587753
20388.116862	-1251.588000	1145.015625	55.899189
20388.116862	-1251.588000	1143.883789	97.837074
20388.116862	-1251.588000	1142.750977	9.243176
20388.116862	-1251.588000	1141.619141	12.082877
20388.116862	-1251.588000	1140.486328	-23.914289
20388.116862	-1251.588000	1139.352539	-14.626563
20388.116862	-1251.588000	1138.219727	-7.177030
20388.116862	-1251.588000	1137.085938	18.592211
20388.116862	-1251.588000	1135.952148	45.221169
20388.116862	-1251.588000	1134.818359	173.502731
20388.116862	-1251.588000	1133.683594	108.870018
20388.116862	-1251.588000	1132.549805	204.184998
20388.116862	-1251.588000	1131.415039	182.634277
20388.116862	-1251.588000	1130.279297	359.440308
20388.116862	-1251.588000	1129.144531	290.566956
20388.116862	-1251.588000	1128.008789	194.939758
20388.116862	-1251.588000	1126.873047	327.346405
20388.116862	-1251.588000	1125.737305	335.950897
20388.116862	-1251.588000	1124.601563	281.722015
20388.116862	-1251.588000	1123.464844	338.147064
20388.116862	-1251.588000	1122.328125	313.833313
20388.116862	-1251.588000	1121.191406	251.502487
20388.116862	-1251.588000	1120.054688	122.466103
20388.116862	-1251.588000	1118.916992	130.194702
20388.116862	-1251.588000	1117.779297	268.026306
20388.116862	-1251.588000	1116.641602	243.662140
20388.116862	-1251.588000	1115.503906	68.778999
20388.116862	-1251.588000	1114.365234	198.260300
20388.116862	-1251.588000	1113.226563	146.256821
20388.116862	-1251.588000	1112.087891	221.334106
20388.116862	-1251.588000	1110.949219	65.963890
20388.116862	-1251.588000	1109.809570	100.986412
20388.116862	-1251.588000	1108.669922	206.047852
20388.116862	-1251.588000	1107.530273	147.303604
20388.116862	-1251.588000	1106.390625	198.021393
20388.116862	-1251.588000	1105.250000	26.054842
20388.116862	-1251.588000	1104.109375	186.857101
20388.116862	-1251.588000	1102.968750	-5.438883
20388.116862	-1251.588000	1101.828125	246.361389
20388.116862	-1251.588000	1100.686523	92.301781
20388.116862	-1251.588000	1099.544922	203.604263
20388.116862	-1251.588000	1098.403320	201.443817
20388.116862	-1251.588000	1097.261719	220.509079
20388.116862	-1251.588000	1096.120117	141.415497
20388.116862	-1251.588000	1094.977539	212.908829
20388.116862	-1251.588000	1093.834961	318.998474
20388.116862	-1251.588000	1092.691406	344.976013
20388.116862	-1251.588000	1091.548828	211.580170
20388.116862	-1251.588000	1090.405273	330.760986
20388.116862	-1251.588000	1089.261719	281.578949
20388.116862	-1251.588000	1088.118164	221.904419
20388.116862	-1251.588000	1086.973633	165.490555
20388.116862	-1251.588000	1085.829102	206.923447
20388.116862	-1251.588000	1084.684570	196.287323
20388.116862	-1251.588000	1083.540039	111.176201
20388.116862	-1251.588000	1082.395508	140.151886
20388.116862	-1251.588000	1081.250000	198.265167
20388.116862	-1251.588000	1080.104492	327.413940
20388.116862	-1251.588000	1078.958984	169.725479
20388.116862	-1251.588000	1077.812500	93.016014
20388.116862	-1251.588000	1076.666016	251.826233
20388.116862	-1251.588000	1075.519531	208.019745
20388.116862	-1251.588000	1074.373047	279.447418
20388.116862	-1251.588000	1073.226563	-25.904062
20388.116862	-1251.588000	1072.079102	299.534241
20388.116862	-1251.588000	1070.931641	246.008377
20388.116862	-1251.588000	1069.784180	157.756012
20388.116862	-1251.588000	1068.635742	290.481659
20388.116862	-1251.588000	1067.487305	230.269485
20388.116862	-1251.588000	1066.338867	247.099335
20388.116862	-1251.588000	1065.190430	201.622925
20388.116862	-1251.588000	1064.041992	181.641418
20388.116862	-1251.588000	1062.892578	476.794647
20388.116862	-1251.588000	1061.743164	296.287201
20388.116862	-1251.588000	1060.593750	220.581329
20388.116862	-1251.588000	1059.443359	171.794281
20388.116862	-1251.588000	1058.292969	175.984329
20388.116862	-1251.588000	1057.142578	174.194824
20388.116862	-1251.588000	1055.992188	263.467194
20388.116862	-1251.588000	1054.841797	289.598724
20388.116862	-1251.588000	1053.690430	259.783539
20388.116862	-1251.588000	1052.539063	332.645660
20388.116862	-1251.588000	1051.387695	215.682495
20388.116862	-1251.588000	1050.235352	228.520752
20388.116862	-1251.588000	1049.083984	69.527496
20388.116862	-1251.588000	1047.931641	162.084457
20388.116862	-1251.588000	1046.778320	77.465340
20388.116862	-1251.588000	1045.625977	126.763168
20388.116862	-1251.588000	1044.472656	158.620087
20388.116862	-1251.588000	1043.319336	16.056997
20388.116862	-1251.588000	1042.166016	65.403435
20388.116862	-1251.588000	1041.012695	158.203812
20388.116862	-1251.588000	1039.858398	106.956436
20388.116862	-1251.588000	1038.704102	111.096436
20388.116862	-1251.588000	1037.549805	70.436790
20388.116862	-1251.588000	1036.394531	71.374115
20388.116862	-1251.588000	1035.239258	202.629822
20388.116862	-1251.588000	1034.083984	49.644840
20388.116862	-1251.588000	1032.928711	181.598343
20388.116862	-1251.588000	1031.773438	141.395126
20388.116862	-1251.588000	1030.617188	45.141533
20388.116862	-1251.588000	1029.460938	146.984055
20388.116862	-1251.588000	1028.304688	148.841125
20388.116862	-1251.588000	1027.147461	225.181320
20388.116862	-1251.588000	1025.991211	-40.351925
20388.116862	-1251.588000	1024.833984	6.543180
20388.116862	-1251.588000	1023.675781	30.600409
20388.116862	-1251.588000	1022.518555	-5.575596
20388.116862	-1251.588000	1021.360352	-82.054375
20388.116862	-1251.588000	1020.202148	59.328480
20388.116862	-1251.588000	1019.043945	-84.888435
20388.116862	-1251.588000	1017.884766	-262.147034
20388.116862	-1251.588000	1016.726563	172.800293
20388.116862	-1251.588000	1015.567383	-80.468918
20388.116862	-1251.588000	1014.407227	-163.512848
20388.116862	-1251.588000	1013.248047	-2.918623
20388.116862	-1251.588000	1012.087891	83.379364
20388.116862	-1251.588000	1010.927734	-15.008842
20388.116862	-1251.588000	1009.767578	-98.706749
20388.116862	-1251.588000	1008.606445	-157.556961
20388.116862	-1251.588000	1007.446289	-130.501678
20388.116862	-1251.588000	1006.285156	-25.609467
20388.116862	-1251.588000	1005.123047	-16.140640
20388.116862	-1251.588000	1003.961914	26.484293
20388.116862	-1251.588000	1002.799805	-83.002655
20388.116862	-1251.588000	1001.637695	44.768616
20388.116862	-1251.588000	1000.475586	-16.791216
20388.116862	-1251.588000	999.312500	39.935917
20388.116862	-1251.588000	998.149414	34.483303
20388.116862	-1251.588000	996.986328	-176.356552
20388.116862	-1251.588000	995.823242	-42.685661
20388.116862	-1251.588000	994.659180	86.135391
20388.116862	-1251.588000	993.496094	62.753094
20388.116862	-1251.588000	992.332031	64.039505
20388.116862	-1251.588000	991.166992	173.054626
20388.116862	-1251.588000	990.002930	-28.505089
20388.116862	-1251.588000	988.837891	126.769356
20388.116862	-1251.588000	987.672852	35.571682
20388.116862	-1251.588000	986.506836	198.668045
20388.116862	-1251.588000	985.341797	-13.212614
20388.116862	-1251.588000	984.175781	-50.785580
20388.116862	-1251.588000	983.009766	-83.922455
20388.116862	-1251.588000	981.843750	-35.099297
20388.116862	-1251.588000	980.676758	21.320044
20388.116862	-1251.588000	979.509766	-110.994949
20388.116862	-1251.588000	978.342773	121.656410
20388.116862	-1251.588000	977.175781	-179.927536
20388.116862	-1251.588000	976.007813	25.851189
20388.116862	-1251.588000	974.839844	-121.650360
20388.116862	-1251.588000	973.671875	64.949173
20388.116862	-1251.588000	972.503906	57.021370
20388.116862	-1251.588000	971.334961	-23.066395
20388.116862	-1251.588000	970.166016	15.773517
20388.116862	-1251.588000	968.997070	38.978104
20388.116862	-1251.588000	967.828125	21.734356
20388.116862	-1251.588000	966.658203	18.312891
20388.116862	-1251.588000	965.488281	-77.198586
20388.116862	-1251.588000	964.318359	-19.346495
20388.116862	-1251.588000	963.148438	-245.368652
20388.116862	-1251.588000	961.977539	1.205668
20388.116862	-1251.588000	960.806641	23.539419
20388.116862	-1251.588000	959.635742	-149.612061
20388.116862	-1251.588000	958.463867	14.076368
20388.116862	-1251.588000	957.292969	65.173515
20388.116862	-1251.588000	956.121094	-231.740143
20388.116862	-1251.588000	954.948242	-185.178879
20388.116862	-1251.588000	953.776367	75.791443
20388.116862	-1251.588000	952.603516	-134.051544
20388.116862	-1251.588000	951.430664	86.040192
20388.116862	-1251.588000	950.257813	-1.107724
20388.116862	-1251.588000	949.084961	-109.735115
20388.116862	-1251.588000	947.911133	58.140194
20388.116862	-1251.588000	946.737305	-18.586235
20388.116862	-1251.588000	945.563477	-5.048773
20388.116862	-1251.588000	944.388672	131.186859
20388.116862	-1251.588000	943.213867	191.818970
20388.116862	-1251.588000	942.039063	-145.395218
20388.116862	-1251.588000	940.864258	28.108162
20388.116862	-1251.588000	939.688477	209.254517
20388.116862	-1251.588000	938.513672	99.771278
20388.116862	-1251.588000	937.337891	150.675858
20388.116862	-1251.588000	936.161133	213.980301
20388.116862	-1251.588000	934.985352	212.080078
20388.116862	-1251.588000	933.808594	227.797195
20388.116862	-1251.588000	932.631836	130.927689
20388.116862	-1251.588000	931.454102	88.929092
20388.116862	-1251.588000	930.277344	67.011383
20388.116862	-1251.588000	929.099609	182.766006
20388.116862	-1251.588000	927.921875	105.729248
20388.116862	-1251.588000	926.743164	198.865402
20388.116862	-1251.588000	925.565430	89.339600
20388.116862	-1251.588000	924.386719	127.413094
20388.116862	-1251.588000	923.208008	137.948364
20388.116862	-1251.588000	922.028320	98.470192
20388.116862	-1251.588000	920.849609	223.955261
20388.116862	-1251.588000	919.669922	226.391312
20388.116862	-1251.588000	919.474609	-85.009209
20388.116862	-1251.588000	918.309570	95.377632
20388.116862	-1251.588000	917.143555	93.345123
20388.116862	-1251.588000	915.977539	121.271400
20388.116862	-1251.588000	914.810547	161.664520
20388.116862	-1251.588000	913.644531	-25.131565
20388.116862	-1251.588000	912.477539	95.122658
20388.116862	-1251.588000	911.310547	145.452789
20388.116862	-1251.588000	910.143555	-36.258148
20388.116862	-1251.588000	908.975586	-118.130066
20388.116862	-1251.588000	907.807617	24.461252
20388.116862	-1251.588000	906.639648	22.379292
20388.116862	-1251.588000	905.471680	-9.621855
20388.116862	-1251.588000	904.303711	-44.108406
20388.116862	-1251.588000	903.134766	55.967628
20388.116862	-1251.588000	901.965820	-105.581055
20388.116862	-1251.588000	900.796875	-62.832420
20388.116862	-1251.588000	899.626953	-102.281471
20388.116862	-1251.588000	898.457031	-14.746384
20388.116862	-1251.588000	897.287109	-186.128372
20388.116862	-1251.588000	896.117188	90.516045
20388.116862	-1251.588000	894.947266	-26.088383
20388.116862	-1251.588000	893.776367	11.586712
20388.116862	-1251.588000	892.605469	81.573738
20388.116862	-1251.588000	891.434570	144.067139
20388.116862	-1251.588000	890.262695	97.141144
20388.116862	-1251.588000	889.091797	85.027473
20388.116862	-1251.588000	887.919922	65.459419
20388.116862	-1251.588000	886.748047	125.402008
20388.116862	-1251.588000	885.575195	100.858139
20388.116862	-1251.588000	884.403320	121.022408
20388.116862	-1251.588000	883.230469	-42.573101
20388.116862	-1251.588000	882.057617	-124.180191
20388.116862	-1251.588000	880.883789	-2.227647
20388.116862	-1251.588000	879.710938	-29.224957
20388.116862	-1251.588000	878.537109	-103.353973
20388.116862	-1251.588000	877.362305	197.108948
20388.116862	-1251.588000	876.188477	11.352547
20388.116862	-1251.588000	875.013672	48.828732
20388.116862	-1251.588000	873.839844	118.510429
20388.116862	-1251.588000	872.664063	76.628647
20388.116862	-1251.588000	871.489258	260.258026
20388.116862	-1251.588000	870.313477	104.390442
20388.116862	-1251.588000	869.138672	339.947052
20388.116862	-1251.588000	867.962891	72.675591
20388.116862	-1251.588000	866.786133	48.158009
20388.116862	-1251.588000	865.610352	159.794983
20388.116862	-1251.588000	864.433594	130.309753
20388.116862	-1251.588000	863.256836	68.664352
20388.116862	-1251.588000	862.079102	29.306751
20388.116862	-1251.588000	860.902344	135.891541
20388.116862	-1251.588000	859.724609	-44.431335
20388.116862	-1251.588000	858.546875	-54.087574
20388.116862	-1251.588000	857.368164	-1.945636
20388.116862	-1251.588000	856.190430	-184.616562
20388.116862	-1251.588000	855.011719	-122.595970
20388.116862	-1251.588000	853.833008	-26.020510
20388.116862	-1251.588000	852.654297	-90.033859
20388.116862	-1251.588000	851.474609	211.445663
20388.116862	-1251.588000	850.294922	-3.202000
20388.116862	-1251.588000	849.115234	93.247627
20388.116862	-1251.588000	847.935547	-49.731972
20388.116862	-1251.588000	846.754883	71.350983
20388.116862	-1251.588000	845.575195	98.634499
20388.116862	-1251.588000	844.393555	83.976059
20388.116862	-1251.588000	843.212891	106.302986
20388.116862	-1251.588000	842.032227	133.543564
20388.116862	-1251.588000	840.850586	118.865280
20388.116862	-1251.588000	839.668945	84.470367
20388.116862	-1251.588000	838.486328	-70.642662
20388.116862	-1251.588000	837.304688	40.335152
20388.116862	-1251.588000	836.122070	60.138359
20388.116862	-1251.588000	834.939453	-87.512276
20388.116862	-1251.588000	833.756836	-65.247833
20388.116862	-1251.588000	832.573242	-3.617713
20388.116862	-1251.588000	831.389648	87.506088
20388.116862	-1251.588000	830.206055	171.202423
20388.116862	-1251.588000	829.022461	168.763016
20388.116862	-1251.588000	827.838867	126.965950
20388.116862	-1251.588000	826.654297	149.105515
20388.116862	-1251.588000	825.469727	-57.391483
20388.116862	-1251.588000	824.284180	43.404987
20388.116862	-1251.588000	823.099609	-0.829803
20388.116862	-1251.588000	821.914063	149.026123
20388.116862	-1251.588000	820.728516	117.047089
20388.116862	-1251.588000	819.542969	60.513054
20388.116862	-1251.588000	818.356445	-47.568901
20388.116862	-1251.588000	817.169922	-20.609804
20388.116862	-1251.588000	815.983398	-79.570908
20388.116862	-1251.588000	814.796875	97.031837
20388.116862	-1251.588000	813.609375	-52.722282
20388.116862	-1251.588000	812.422852	-47.911762
20388.116862	-1251.588000	811.235352	155.508972
20388.116862	-1251.588000	810.046875	30.310074
20388.116862	-1251.588000	808.859375	-18.868162
20388.116862	-1251.588000	807.670898	-70.489998
20388.116862	-1251.588000	806.482422	-21.650009
20388.116862	-1251.588000	805.293945	-105.127838
20388.116862	-1251.588000	804.104492	41.633186
20388.116862	-1251.588000	802.915039	158.932083
20388.116862	-1251.588000	801.725586	58.283138
20388.116862	-1251.588000	800.536133	-74.159737
20388.116862	-1251.588000	799.345703	-111.128006
20388.116862	-1251.588000	798.155273	-106.507187
20388.116862	-1251.588000	796.964844	-145.937317
20388.116862	-1251.588000	795.774414	-26.407068
20388.116862	-1251.588000	794.583008	-34.088409
20388.116862	-1251.588000	793.392578	68.217880
20388.116862	-1251.588000	792.200195	199.791504
20388.116862	-1251.588000	791.008789	140.692780
20388.116862	-1251.588000	789.816406	-64.985435
20388.116862	-1251.588000	788.625000	81.125153
20388.116862	-1251.588000	787.432617	-73.215675
20388.116862	-1251.588000	786.239258	-46.841400
20388.116862	-1251.588000	785.046875	64.934738
20388.116862	-1251.588000	783.853516	54.615555
20388.116862	-1251.588000	782.660156	-87.484093
20388.116862	-1251.588000	781.465820	-29.508095
20388.116862	-1251.588000	780.272461	113.783188
20388.116862	-1251.588000	779.078125	-101.466957
20388.116862	-1251.588000	777.883789	92.927475
20388.116862	-1251.588000	776.688477	-105.217522
20388.116862	-1251.588000	775.494141	-37.677769
20388.116862	-1251.588000	774.298828	-65.214470
20388.116862	-1251.588000	773.103516	-26.995029
20388.116862	-1251.588000	771.907227	176.791565
20388.116862	-1251.588000	770.711914	-9.127427
20388.116862	-1251.588000	769.515625	123.915352
20388.116862	-1251.588000	768.318359	84.064903
20388.116862	-1251.588000	767.122070	156.139465
20388.116862	-1251.588000	765.924805	-20.004305
20388.116862	-1251.588000	764.727539	22.812035
20388.116862	-1251.588000	763.530273	277.156433
20388.116862	-1251.588000	762.333008	-69.193245
20388.116862	-1251.588000	761.134766	56.163670
20388.116862	-1251.588000	759.936523	-32.438030
20388.116862	-1251.588000	758.738281	2.888927
20388.116862	-1251.588000	757.540039	9.016196
20388.116862	-1251.588000	756.340820	114.690994
20388.116862	-1251.588000	755.141602	11.448419
20388.116862	-1251.588000	753.942383	44.173805
20388.116862	-1251.588000	752.742188	42.869175
20388.116862	-1251.588000	751.541992	-26.422474
20388.116862	-1251.588000	750.341797	-93.294319
20388.116862	-1251.588000	749.141602	-109.232109
20388.116862	-1251.588000	747.941406	83.378014
20388.116862	-1251.588000	746.740234	-32.081219
20388.116862	-1251.588000	745.539063	43.991966
20388.116862	-1251.588000	744.337891	-27.856936
20388.116862	-1251.588000	743.135742	157.156113
20388.116862	-1251.588000	741.933594	165.188629
20388.116862	-1251.588000	740.731445	30.263664
20388.116862	-1251.588000	739.529297	-19.882818
20388.116862	-1251.588000	738.326172	140.604385
20388.116862	-1251.588000	737.124023	56.485390
20388.116862	-1251.588000	735.919922	-90.566093
20388.116862	-1251.588000	734.716797	-87.572151
20388.116862	-1251.588000	733.513672	-19.300627
20388.116862	-1251.588000	732.309570	99.694359
20388.116862	-1251.588000	731.105469	-107.866844
20388.116862	-1251.588000	729.900391	95.633469
20388.116862	-1251.588000	728.696289	18.605335
20388.116862	-1251.588000	727.491211	-36.684273
20388.116862	-1251.588000	726.286133	91.640419
20388.116862	-1251.588000	725.080078	-96.594009
20388.116862	-1251.588000	723.874023	-62.592751
20388.116862	-1251.588000	722.668945	164.526047
20388.116862	-1251.588000	721.461914	70.414444
20388.116862	-1251.588000	720.255859	212.840698
20388.116862	-1251.588000	719.048828	-50.256783
20388.116862	-1251.588000	717.841797	2.772499
20388.116862	-1251.588000	716.634766	-28.692823
20388.116862	-1251.588000	715.427734	-60.192070
20388.116862	-1251.588000	714.219727	-137.537598
20388.116862	-1251.588000	713.011719	-89.542610
20388.116862	-1251.588000	711.803711	98.173515
20388.116862	-1251.588000	710.594727	-94.963387
20388.116862	-1251.588000	709.385742	-95.334740
20388.116862	-1251.588000	708.176758	-139.110687
20388.116862	-1251.588000	706.967773	81.980087
20388.116862	-1251.588000	705.758789	81.426620
20388.116862	-1251.588000	704.548828	-10.648113
20388.116862	-1251.588000	703.338867	-61.820629
20388.116862	-1251.588000	702.127930	-88.960220
20388.116862	-1251.588000	700.917969	-29.534853
20388.116862	-1251.588000	699.707031	121.209206
20388.116862	-1251.588000	698.496094	36.187828
20388.116862	-1251.588000	697.285156	141.077667
20388.116862	-1251.588000	696.073242	82.426262
20388.116862	-1251.588000	694.861328	-50.746834
20388.116862	-1251.588000	693.649414	-147.876282
20388.116862	-1251.588000	692.436523	-182.561096
20388.116862	-1251.588000	691.224609	42.089848
20388.116862	-1251.588000	690.011719	187.358078
20388.116862	-1251.588000	688.798828	106.861053
20388.116862	-1251.588000	687.584961	208.750610
20388.116862	-1251.588000	686.372070	132.979782
20388.116862	-1251.588000	685.158203	328.282928
20388.116862	-1251.588000	683.943359	317.174591
20388.116862	-1251.588000	682.729492	416.331696
20388.116862	-1251.588000	681.514648	337.975739
20388.116862	-1251.588000	680.299805	331.513580
20388.116862	-1251.588000	679.084961	444.829071
20388.116862	-1251.588000	677.869141	397.510345
20388.116862	-1251.588000	676.653320	484.310181
20388.116862	-1251.588000	675.437500	283.619263
20388.116862	-1251.588000	674.221680	317.625214
20388.116862	-1251.588000	673.004883	327.624115
20388.116862	-1251.588000	671.789063	263.370819
20388.116862	-1251.588000	670.571289	282.845001
20388.116862	-1251.588000	669.354492	340.541962
20388.116862	-1251.588000	668.136719	271.387512
20388.116862	-1251.588000	666.919922	317.005066
20388.116862	-1251.588000	665.701172	266.909058
20388.116862	-1251.588000	664.483398	276.549377
20388.116862	-1251.588000	663.264648	343.493195
20388.116862	-1251.588000	662.045898	250.264420
20388.116862	-1251.588000	660.827148	264.529327
20388.116862	-1251.588000	659.608398	355.169037
20388.116862	-1251.588000	658.388672	261.847504
20388.116862	-1251.588000	657.168945	357.125916
20388.116862	-1251.588000	655.949219	385.481171
20388.116862	-1251.588000	654.728516	308.769531
20388.116862	-1251.588000	653.507813	473.023987
20388.116862	-1251.588000	652.287109	284.116058
20388.116862	-1251.588000	651.066406	302.730682
20388.116862	-1251.588000	649.844727	368.976959
20388.116862	-1251.588000	648.623047	313.568787
20388.116862	-1251.588000	647.401367	255.754654
20388.116862	-1251.588000	646.179688	271.789886
20388.116862	-1251.588000	644.957031	256.799133
20388.116862	-1251.588000	643.734375	287.026794
20388.116862	-1251.588000	642.511719	391.021179
20388.116862	-1251.588000	641.289063	313.979126
20388.116862	-1251.588000	640.065430	360.704895
20388.116862	-1251.588000	638.841797	209.836578
20388.116862	-1251.588000	637.618164	296.929474
20388.116862	-1251.588000	636.393555	269.754578
20388.116862	-1251.588000	635.168945	54.657219
20388.116862	-1251.588000	633.944336	158.246384
20388.116862	-1251.588000	632.719727	242.733627
20388.116862	-1251.588000	631.494141	27.656504
20388.116862	-1251.588000	630.269531	-97.063080
20388.116862	-1251.588000	629.042969	-26.953434
20388.116862	-1251.588000	627.817383	62.096149
20388.116862	-1251.588000	626.590820	101.195221
20388.116862	-1251.588000	625.365234	50.019871
20388.116862	-1251.588000	624.137695	93.778824
20388.116862	-1251.588000	622.911133	294.128113
20388.116862	-1251.588000	621.683594	136.056030
20388.116862	-1251.588000	620.456055	8.858639
20388.116862	-1251.588000	619.228516	7.390231
20388.116862	-1251.588000	618.000977	3.519775
20388.116862	-1251.588000	616.772461	47.032745
20388.116862	-1251.588000	615.543945	-127.572502
20388.116862	-1251.588000	614.314453	88.885002
20388.116862	-1251.588000	613.085938	122.788033
20388.116862	-1251.588000	611.856445	64.262344
20388.116862	-1251.588000	610.626953	128.886520
20388.116862	-1251.588000	609.397461	122.423164
20388.116862	-1251.588000	608.166992	101.730965
20388.116862	-1251.588000	606.936523	76.289963
20388.116862	-1251.588000	605.706055	109.993683
20388.116862	-1251.588000	604.474609	138.926376
20388.116862	-1251.588000	603.244141	75.582550
20388.116862	-1251.588000	602.012695	2.783100
20388.116862	-1251.588000	600.780273	107.313148
20388.116862	-1251.588000	599.548828	48.682949
20388.116862	-1251.588000	598.316406	200.390106
20388.116862	-1251.588000	597.083984	56.667824
20388.116862	-1251.588000	595.851563	184.653839
20388.116862	-1251.588000	594.618164	97.646309
20388.116862	-1251.588000	593.384766	50.804253
20388.116862	-1251.588000	592.151367	-99.904457
20388.116862	-1251.588000	590.917969	-57.016823
20388.116862	-1251.588000	589.683594	89.668617
20388.116862	-1251.588000	588.449219	-39.751530
20388.116862	-1251.588000	587.214844	-145.535919
20388.116862	-1251.588000	585.979492	-83.849274
20388.116862	-1251.588000	584.745117	138.137314
20388.116862	-1251.588000	583.509766	-68.999512
20388.116862	-1251.588000	582.273438	-63.947067
20388.116862	-1251.588000	581.038086	-80.101044
20388.116862	-1251.588000	579.801758	-84.474586
20388.116862	-1251.588000	578.565430	52.469418
20388.116862	-1251.588000	577.329102	104.585648
20388.116862	-1251.588000	576.091797	53.092251
20388.116862	-1251.588000	574.854492	20.454096
20388.116862	-1251.588000	573.617188	-59.229988
20388.116862	-1251.588000	572.378906	357.550171
20388.116862	-1251.588000	571.141602	150.821716
20388.116862	-1251.588000	569.903320	242.855774
20388.116862	-1251.588000	568.664063	85.626236
20388.116862	-1251.588000	567.425781	-38.610325
20388.116862	-1251.588000	566.186523	-78.178421
20388.116862	-1251.588000	564.947266	93.759827
20388.116862	-1251.588000	563.708008	80.050323
20388.116862	-1251.588000	562.467773	85.148651
20388.116862	-1251.588000	561.227539	261.681702
20388.116862	-1251.588000	559.987305	-38.428474
20388.116862	-1251.588000	558.747070	55.940426
20388.116862	-1251.588000	557.505859	-53.878056
20388.116862	-1251.588000	556.264648	68.647202
20388.116862	-1251.588000	555.023438	73.857185
20388.116862	-1251.588000	553.781250	4.039605
20388.116862	-1251.588000	552.539063	37.444248
20388.116862	-1251.588000	551.296875	274.805634
20388.116862	-1251.588000	550.054688	251.943283
20388.116862	-1251.588000	548.811523	170.534561
20388.116862	-1251.588000	547.569336	119.649879
20388.116862	-1251.588000	546.325195	148.446274
20388.116862	-1251.588000	545.082031	245.174149
20388.116862	-1251.588000	543.837891	28.170698
20388.116862	-1251.588000	542.593750	54.726440
20388.116862	-1251.588000	541.349609	29.820919
20388.116862	-1251.588000	540.105469	311.462952
20388.116862	-1251.588000	538.860352	174.303711
20388.116862	-1251.588000	537.615234	345.947968
20388.116862	-1251.588000	536.369141	239.310562
20388.116862	-1251.588000	535.124023	333.802948
20388.116862	-1251.588000	533.877930	234.306625
20388.116862	-1251.588000	532.631836	153.589218
20388.116862	-1251.588000	531.384766	112.660362
20388.116862	-1251.588000	530.138672	214.273895
20388.116862	-1251.588000	528.891602	40.333942
20388.116862	-1251.588000	527.643555	22.934162
20388.116862	-1251.588000	526.396484	124.634727
20388.116862	-1251.588000	525.148438	53.643608
20388.116862	-1251.588000	523.900391	258.046356
20388.116862	-1251.588000	522.652344	-81.104630
20388.116862	-1251.588000	521.403320	132.663239
20388.116862	-1251.588000	520.154297	66.587624
20388.116862	-1251.588000	518.905273	-81.000854
20388.116862	-1251.588000	517.656250	-53.673965
20388.116862	-1251.588000	516.406250	-166.120255
20388.116862	-1251.588000	515.156250	-115.389481
20388.116862	-1251.588000	513.906250	14.564610
20388.116862	-1251.588000	512.655273	-118.628166
20388.116862	-1251.588000	511.404297	-14.236592
20388.116862	-1251.588000	510.153320	-154.241882
20388.116862	-1251.588000	508.902344	-100.978851
20388.116862	-1251.588000	507.650391	-180.306946
20388.116862	-1251.588000	506.398438	-222.328354
20388.116862	-1251.588000	505.146484	-189.856537
20388.116862	-1251.588000	503.893555	49.592735
20388.116862	-1251.588000	502.641602	-175.938431
20388.116862	-1251.588000	501.388672	-154.960114
20388.116862	-1251.588000	500.134766	-140.908951
20388.116862	-1251.588000	498.881836	56.720573
20388.116862	-1251.588000	497.627930	-161.440918
20388.116862	-1251.588000	496.374023	-161.173203
20388.116862	-1251.588000	495.119141	-72.630905
20388.116862	-1251.588000	493.865234	-227.797394
20388.116862	-1251.588000	492.610352	48.797829
20388.116862	-1251.588000	491.355469	114.188965
20388.116862	-1251.588000	490.099609	107.688049
20388.116862	-1251.588000	488.843750	194.006790
20388.116862	-1251.588000	487.587891	208.456696
20388.116862	-1251.588000	486.332031	253.082565
20388.116862	-1251.588000	485.075195	290.780273
20388.116862	-1251.588000	483.818359	214.964081
20388.116862	-1251.588000	482.561523	187.873871
20388.116862	-1251.588000	481.304688	274.329468
20388.116862	-1251.588000	480.046875	-67.613358
20388.116862	-1251.588000	478.789063	95.337067
20388.116862	-1251.588000	477.531250	165.667282
20388.116862	-1251.588000	476.272461	-48.643383
20388.116862	-1251.588000	475.013672	391.943451
20388.116862	-1251.588000	473.754883	288.772339
20388.116862	-1251.588000	472.496094	0.659468
20388.116862	-1251.588000	471.236328	-51.461109
20388.116862	-1251.588000	469.976563	111.451324
20388.116862	-1251.588000	468.716797	24.707676
20388.116862	-1251.588000	467.456055	102.076645
20388.116862	-1251.588000	466.196289	68.539993
20388.116862	-1251.588000	464.935547	159.753769
20388.116862	-1251.588000	463.673828	142.404358
20388.116862	-1251.588000	462.413086	85.822678
20388.116862	-1251.588000	461.151367	248.545242
20388.116862	-1251.588000	459.889648	168.889923
20388.116862	-1251.588000	458.626953	137.715271
20388.116862	-1251.588000	457.364258	164.212860
20388.116862	-1251.588000	456.101563	211.444153
20388.116862	-1251.588000	454.838867	355.478241
20388.116862	-1251.588000	453.575195	172.090057
20388.116862	-1251.588000	452.312500	34.850521
20388.116862	-1251.588000	451.047852	22.067141
20388.116862	-1251.588000	449.784180	145.174957
20388.116862	-1251.588000	448.519531	102.358131
20388.116862	-1251.588000	447.254883	-44.107105
20388.116862	-1251.588000	445.990234	315.929199
20388.116862	-1251.588000	444.725586	102.627563
20388.116862	-1251.588000	443.459961	384.116638
20388.116862	-1251.588000	442.194336	322.610565
20388.116862	-1251.588000	440.927734	90.840042
20388.116862	-1251.588000	439.662109	102.862190
20388.116862	-1251.588000	438.395508	158.477081
20388.116862	-1251.588000	437.127930	262.247101
20388.116862	-1251.588000	435.861328	108.471367
20388.116862	-1251.588000	434.593750	405.010345
20388.116862	-1251.588000	433.326172	379.692322
20388.116862	-1251.588000	432.058594	453.023407
20388.116862	-1251.588000	430.790039	517.005310
20388.116862	-1251.588000	429.521484	355.836975
20388.116862	-1251.588000	428.252930	323.126312
20388.116862	-1251.588000	426.984375	526.634277
20388.116862	-1251.588000	425.714844	523.404175
20388.116862	-1251.588000	424.445313	400.726196
20388.116862	-1251.588000	423.174805	365.058777
20388.116862	-1251.588000	421.905273	303.996613
20388.116862	-1251.588000	420.634766	426.136230
20388.116862	-1251.588000	419.364258	305.082703
20388.116862	-1251.588000	418.092773	451.933411
20388.116862	-1251.588000	416.822266	319.013641
20388.116862	-1251.588000	415.550781	396.608917
20388.116862	-1251.588000	414.278320	558.630249
20388.116862	-1251.588000	413.006836	457.048615
20388.116862	-1251.588000	411.734375	398.712891
20388.116862	-1251.588000	410.461914	395.027100
20388.116862	-1251.588000	409.188477	304.095856
20388.116862	-1251.588000	407.916016	281.508759
20388.116862	-1251.588000	406.642578	468.978851
20388.116862	-1251.588000	405.368164	498.259430
20388.116862	-1251.588000	404.094727	264.304901
20388.116862	-1251.588000	402.820313	304.307129
20388.116862	-1251.588000	401.545898	229.661621
20388.116862	-1251.588000	400.270508	223.166885
20388.116862	-1251.588000	398.996094	182.001907
20388.116862	-1251.588000	397.720703	371.028503
20388.116862	-1251.588000	396.444336	516.136902
20388.116862	-1251.588000	395.168945	455.309692
20388.116862	-1251.588000	393.892578	273.076324
20388.116862	-1251.588000	392.616211	355.052673
20388.116862	-1251.588000	391.339844	525.424316
20388.116862	-1251.588000	390.062500	255.063782
20388.116862	-1251.588000	388.785156	355.876831
20388.116862	-1251.588000	387.507813	280.555664
20388.116862	-1251.588000	386.229492	500.910614
20388.116862	-1251.588000	384.951172	488.156036
20388.116862	-1251.588000	383.672852	399.597015
20388.116862	-1251.588000	382.394531	465.277527
20388.116862	-1251.588000	381.115234	427.775635
20388.116862	-1251.588000	379.835938	476.087952
20388.116862	-1251.588000	378.556641	373.442596
20388.116862	-1251.588000	377.277344	390.689270
20388.116862	-1251.588000	375.997070	418.514252
20388.116862	-1251.588000	374.716797	311.340118
20388.116862	-1251.588000	373.435547	364.821594
20388.116862	-1251.588000	372.155273	203.747452
20388.116862	-1251.588000	370.874023	378.248138
20388.116862	-1251.588000	369.591797	229.068726
20388.116862	-1251.588000	368.310547	313.056976
20388.116862	-1251.588000	367.028320	218.865021
20388.116862	-1251.588000	365.746094	230.466995
20388.116862	-1251.588000	364.463867	118.450577
20388.116862	-1251.588000	363.180664	198.369659
20388.116862	-1251.588000	361.897461	43.431286
20388.116862	-1251.588000	360.614258	243.690155
20388.116862	-1251.588000	359.330078	184.103134
20388.116862	-1251.588000	358.045898	114.309502
20388.116862	-1251.588000	356.761719	29.747889
20388.116862	-1251.588000	355.477539	157.096573
20388.116862	-1251.588000	354.192383	196.976242
20388.116862	-1251.588000	352.907227	450.816254
20388.116862	-1251.588000	351.622070	200.275360
20388.116862	-1251.588000	350.336914	258.789093
20388.116862	-1251.588000	349.050781	21.459742
20388.116862	-1251.588000	347.764648	22.784334
20388.116862	-1251.588000	346.477539	-29.459715
20388.116862	-1251.588000	345.191406	-19.792305
20388.116862	-1251.588000	343.904297	4.123162
20388.116862	-1251.588000	342.616211	46.758469
20388.116862	-1251.588000	341.329102	6.367086
20388.116862	-1251.588000	340.041016	111.250908
20388.116862	-1251.588000	338.752930	19.966446
20388.116862	-1251.588000	337.463867	-39.175701
20388.116862	-1251.588000	336.175781	67.160294
20388.116862	-1251.588000	334.886719	117.343987
20388.116862	-1251.588000	333.596680	-218.395096
20388.116862	-1251.588000	332.307617	-20.703495
20388.116862	-1251.588000	331.017578	10.065558
20388.116862	-1251.588000	329.727539	-164.351822
20388.116862	-1251.588000	328.436523	-207.683289
20388.116862	-1251.588000	327.146484	80.837593
20388.116862	-1251.588000	325.855469	112.112534
20388.116862	-1251.588000	324.563477	-41.583710
20388.116862	-1251.588000	323.272461	-46.374027
20388.116862	-1251.588000	321.980469	25.337700
20388.116862	-1251.588000	320.688477	-22.561947
20388.116862	-1251.588000	319.395508	-57.179146
20388.116862	-1251.588000	318.103516	-4.107749
20388.116862	-1251.588000	316.810547	12.533062
20388.116862	-1251.588000	315.516602	-218.955963
20388.116862	-1251.588000	314.223633	-25.216768
20388.116862	-1251.588000	312.929688	-149.471954
20388.116862	-1251.588000	311.635742	49.814854
20388.116862	-1251.588000	310.340820	-84.633690
20388.116862	-1251.588000	309.045898	-149.970596
20388.116862	-1251.588000	307.750977	-11.379727
20388.116862	-1251.588000	306.456055	72.389641
20388.116862	-1251.588000	305.160156	-4.425659
20388.116862	-1251.588000	303.865234	232.564560
20388.116862	-1251.588000	302.568359	248.075714
20388.116862	-1251.588000	301.272461	449.037689
20388.116862	-1251.588000	299.975586	709.304382
20388.116862	-1251.588000	298.678711	433.849609
