#X		#Y		#Wave		#Intensity
12359.869681	-1214.408167	1999.980469	-42.051167
12359.869681	-1214.408167	1999.016602	-173.568771
12359.869681	-1214.408167	1998.052734	-378.395416
12359.869681	-1214.408167	1997.087891	-78.408684
12359.869681	-1214.408167	1996.123047	15.025919
12359.869681	-1214.408167	1995.158203	-40.975712
12359.869681	-1214.408167	1994.193359	135.113937
12359.869681	-1214.408167	1993.228516	109.833641
12359.869681	-1214.408167	1992.262695	59.114155
12359.869681	-1214.408167	1991.297852	114.164719
12359.869681	-1214.408167	1990.332031	20.053114
12359.869681	-1214.408167	1989.366211	-20.222628
12359.869681	-1214.408167	1988.399414	79.924072
12359.869681	-1214.408167	1987.433594	-65.450241
12359.869681	-1214.408167	1986.466797	33.494682
12359.869681	-1214.408167	1985.500977	27.986832
12359.869681	-1214.408167	1984.534180	66.447304
12359.869681	-1214.408167	1983.567383	-113.136345
12359.869681	-1214.408167	1982.599609	-110.279015
12359.869681	-1214.408167	1981.632813	292.355438
12359.869681	-1214.408167	1980.665039	-155.415237
12359.869681	-1214.408167	1979.697266	139.957581
12359.869681	-1214.408167	1978.729492	61.906818
12359.869681	-1214.408167	1977.761719	109.384537
12359.869681	-1214.408167	1976.792969	205.814255
12359.869681	-1214.408167	1975.825195	-51.109295
12359.869681	-1214.408167	1974.856445	232.090210
12359.869681	-1214.408167	1973.887695	169.434509
12359.869681	-1214.408167	1972.918945	165.657074
12359.869681	-1214.408167	1971.949219	173.884933
12359.869681	-1214.408167	1970.980469	265.631073
12359.869681	-1214.408167	1970.010742	179.540497
12359.869681	-1214.408167	1969.041016	-5.398238
12359.869681	-1214.408167	1968.071289	228.400208
12359.869681	-1214.408167	1967.101563	15.880199
12359.869681	-1214.408167	1966.130859	-93.346596
12359.869681	-1214.408167	1965.161133	117.419823
12359.869681	-1214.408167	1964.190430	298.329010
12359.869681	-1214.408167	1963.219727	331.230713
12359.869681	-1214.408167	1962.249023	418.071655
12359.869681	-1214.408167	1961.277344	108.437477
12359.869681	-1214.408167	1960.306641	39.886303
12359.869681	-1214.408167	1959.334961	-151.826431
12359.869681	-1214.408167	1958.363281	35.175903
12359.869681	-1214.408167	1957.391602	-26.438700
12359.869681	-1214.408167	1956.419922	118.372437
12359.869681	-1214.408167	1955.447266	90.903320
12359.869681	-1214.408167	1954.474609	70.692314
12359.869681	-1214.408167	1953.501953	293.664124
12359.869681	-1214.408167	1952.529297	332.165100
12359.869681	-1214.408167	1951.556641	142.086212
12359.869681	-1214.408167	1950.583984	-195.382935
12359.869681	-1214.408167	1949.610352	44.270229
12359.869681	-1214.408167	1948.636719	79.971924
12359.869681	-1214.408167	1947.663086	307.061401
12359.869681	-1214.408167	1946.689453	151.129654
12359.869681	-1214.408167	1945.715820	100.712700
12359.869681	-1214.408167	1944.741211	432.991638
12359.869681	-1214.408167	1943.767578	252.441956
12359.869681	-1214.408167	1942.792969	35.127823
12359.869681	-1214.408167	1941.818359	239.612976
12359.869681	-1214.408167	1940.842773	120.382195
12359.869681	-1214.408167	1939.868164	37.945599
12359.869681	-1214.408167	1938.892578	41.292030
12359.869681	-1214.408167	1937.916992	262.691589
12359.869681	-1214.408167	1936.941406	67.549553
12359.869681	-1214.408167	1935.965820	-34.451702
12359.869681	-1214.408167	1934.990234	106.022392
12359.869681	-1214.408167	1934.013672	-162.429550
12359.869681	-1214.408167	1933.037109	97.979225
12359.869681	-1214.408167	1932.060547	-28.393820
12359.869681	-1214.408167	1931.083984	227.031250
12359.869681	-1214.408167	1930.107422	71.365417
12359.869681	-1214.408167	1929.129883	189.739746
12359.869681	-1214.408167	1928.153320	129.572159
12359.869681	-1214.408167	1927.175781	-258.197327
12359.869681	-1214.408167	1926.198242	-132.396530
12359.869681	-1214.408167	1925.219727	-106.822647
12359.869681	-1214.408167	1924.242188	60.525318
12359.869681	-1214.408167	1923.263672	86.137856
12359.869681	-1214.408167	1922.285156	-76.317528
12359.869681	-1214.408167	1921.306641	-219.125778
12359.869681	-1214.408167	1920.328125	77.726860
12359.869681	-1214.408167	1919.349609	13.173896
12359.869681	-1214.408167	1918.370117	87.835449
12359.869681	-1214.408167	1917.391602	30.734266
12359.869681	-1214.408167	1916.412109	61.553932
12359.869681	-1214.408167	1915.431641	63.141685
12359.869681	-1214.408167	1914.452148	-25.462879
12359.869681	-1214.408167	1913.472656	-270.058136
12359.869681	-1214.408167	1912.492188	-141.434555
12359.869681	-1214.408167	1911.511719	-59.118046
12359.869681	-1214.408167	1910.531250	-64.516068
12359.869681	-1214.408167	1909.550781	100.739212
12359.869681	-1214.408167	1908.569336	-196.943634
12359.869681	-1214.408167	1907.588867	26.869780
12359.869681	-1214.408167	1906.607422	-0.205223
12359.869681	-1214.408167	1905.625977	-15.029609
12359.869681	-1214.408167	1904.644531	-192.907944
12359.869681	-1214.408167	1903.662109	18.824020
12359.869681	-1214.408167	1902.680664	-153.996185
12359.869681	-1214.408167	1901.698242	-114.985504
12359.869681	-1214.408167	1900.715820	91.943520
12359.869681	-1214.408167	1899.733398	201.563980
12359.869681	-1214.408167	1898.750000	55.846642
12359.869681	-1214.408167	1897.767578	-75.159187
12359.869681	-1214.408167	1896.784180	-16.431538
12359.869681	-1214.408167	1895.800781	-71.901291
12359.869681	-1214.408167	1894.817383	-10.641465
12359.869681	-1214.408167	1893.833984	159.993576
12359.869681	-1214.408167	1892.850586	-62.913078
12359.869681	-1214.408167	1891.866211	61.640491
12359.869681	-1214.408167	1890.881836	6.507877
12359.869681	-1214.408167	1889.897461	82.561005
12359.869681	-1214.408167	1888.913086	100.382690
12359.869681	-1214.408167	1887.927734	125.533401
12359.869681	-1214.408167	1886.943359	-101.631081
12359.869681	-1214.408167	1885.958008	-69.066750
12359.869681	-1214.408167	1884.972656	-51.018391
12359.869681	-1214.408167	1883.987305	-176.010910
12359.869681	-1214.408167	1883.001953	-225.743118
12359.869681	-1214.408167	1882.015625	-125.107689
12359.869681	-1214.408167	1881.029297	-179.586151
12359.869681	-1214.408167	1880.042969	-13.477077
12359.869681	-1214.408167	1879.056641	201.069382
12359.869681	-1214.408167	1878.070313	11.028012
12359.869681	-1214.408167	1877.083984	-123.196754
12359.869681	-1214.408167	1876.096680	-267.023010
12359.869681	-1214.408167	1875.109375	-120.231644
12359.869681	-1214.408167	1874.122070	-121.119530
12359.869681	-1214.408167	1873.134766	1.451999
12359.869681	-1214.408167	1872.146484	-21.177374
12359.869681	-1214.408167	1871.159180	236.863602
12359.869681	-1214.408167	1870.170898	-25.212505
12359.869681	-1214.408167	1869.182617	-76.768997
12359.869681	-1214.408167	1868.194336	-309.630280
12359.869681	-1214.408167	1867.205078	-136.253601
12359.869681	-1214.408167	1866.216797	-71.691895
12359.869681	-1214.408167	1865.227539	14.609294
12359.869681	-1214.408167	1864.238281	-227.697983
12359.869681	-1214.408167	1863.249023	71.198456
12359.869681	-1214.408167	1862.259766	17.370584
12359.869681	-1214.408167	1861.269531	-2.623290
12359.869681	-1214.408167	1860.279297	139.148056
12359.869681	-1214.408167	1859.290039	82.932228
12359.869681	-1214.408167	1858.298828	164.299362
12359.869681	-1214.408167	1857.308594	21.229294
12359.869681	-1214.408167	1856.318359	-66.307602
12359.869681	-1214.408167	1855.327148	5.371895
12359.869681	-1214.408167	1854.335938	122.833679
12359.869681	-1214.408167	1853.344727	-37.041840
12359.869681	-1214.408167	1852.353516	80.352310
12359.869681	-1214.408167	1851.362305	120.556686
12359.869681	-1214.408167	1850.370117	247.477036
12359.869681	-1214.408167	1849.377930	294.817963
12359.869681	-1214.408167	1848.385742	72.325073
12359.869681	-1214.408167	1847.393555	52.191257
12359.869681	-1214.408167	1846.401367	-32.978489
12359.869681	-1214.408167	1845.408203	132.225327
12359.869681	-1214.408167	1844.415039	311.775024
12359.869681	-1214.408167	1843.421875	163.923981
12359.869681	-1214.408167	1842.428711	239.857300
12359.869681	-1214.408167	1841.435547	-28.292683
12359.869681	-1214.408167	1840.441406	191.871643
12359.869681	-1214.408167	1839.448242	94.475517
12359.869681	-1214.408167	1838.454102	90.834091
12359.869681	-1214.408167	1837.459961	178.486374
12359.869681	-1214.408167	1836.464844	68.970383
12359.869681	-1214.408167	1835.470703	98.810257
12359.869681	-1214.408167	1834.475586	246.299271
12359.869681	-1214.408167	1833.480469	403.279388
12359.869681	-1214.408167	1832.485352	-6.642343
12359.869681	-1214.408167	1831.490234	296.662567
12359.869681	-1214.408167	1830.495117	146.053162
12359.869681	-1214.408167	1829.499023	55.432327
12359.869681	-1214.408167	1828.502930	-102.423988
12359.869681	-1214.408167	1827.506836	-92.342293
12359.869681	-1214.408167	1826.510742	107.165398
12359.869681	-1214.408167	1825.513672	112.243927
12359.869681	-1214.408167	1824.517578	141.217896
12359.869681	-1214.408167	1823.520508	186.875290
12359.869681	-1214.408167	1822.523438	143.734787
12359.869681	-1214.408167	1821.526367	-31.293676
12359.869681	-1214.408167	1820.529297	153.076813
12359.869681	-1214.408167	1819.531250	136.039551
12359.869681	-1214.408167	1818.533203	123.701485
12359.869681	-1214.408167	1817.535156	221.431656
12359.869681	-1214.408167	1816.537109	261.556091
12359.869681	-1214.408167	1815.539063	21.477060
12359.869681	-1214.408167	1814.540039	185.871841
12359.869681	-1214.408167	1813.541992	340.530121
12359.869681	-1214.408167	1812.542969	160.058441
12359.869681	-1214.408167	1811.543945	266.593903
12359.869681	-1214.408167	1810.543945	212.733368
12359.869681	-1214.408167	1809.544922	-77.949287
12359.869681	-1214.408167	1808.544922	9.095031
12359.869681	-1214.408167	1807.544922	43.400459
12359.869681	-1214.408167	1806.544922	192.283554
12359.869681	-1214.408167	1805.544922	147.445633
12359.869681	-1214.408167	1804.544922	174.168167
12359.869681	-1214.408167	1803.543945	205.525894
12359.869681	-1214.408167	1802.542969	227.190384
12359.869681	-1214.408167	1801.541992	43.382633
12359.869681	-1214.408167	1800.541016	110.161545
12359.869681	-1214.408167	1799.539063	176.777252
12359.869681	-1214.408167	1798.538086	2.226499
12359.869681	-1214.408167	1797.536133	185.466187
12359.869681	-1214.408167	1796.534180	-37.006958
12359.869681	-1214.408167	1795.532227	105.346596
12359.869681	-1214.408167	1794.529297	82.975677
12359.869681	-1214.408167	1793.527344	270.263306
12359.869681	-1214.408167	1792.524414	-71.813347
12359.869681	-1214.408167	1791.521484	36.493282
12359.869681	-1214.408167	1790.518555	68.367416
12359.869681	-1214.408167	1789.514648	-264.396942
12359.869681	-1214.408167	1788.511719	62.551556
12359.869681	-1214.408167	1787.507813	-65.600204
12359.869681	-1214.408167	1786.503906	227.544647
12359.869681	-1214.408167	1785.500000	-19.919363
12359.869681	-1214.408167	1784.496094	139.520325
12359.869681	-1214.408167	1783.491211	8.440216
12359.869681	-1214.408167	1782.486328	110.394157
12359.869681	-1214.408167	1781.481445	2.838156
12359.869681	-1214.408167	1780.476563	118.700905
12359.869681	-1214.408167	1779.471680	108.344719
12359.869681	-1214.408167	1778.465820	-2.021651
12359.869681	-1214.408167	1777.460938	89.519325
12359.869681	-1214.408167	1776.455078	176.102737
12359.869681	-1214.408167	1775.449219	-17.864683
12359.869681	-1214.408167	1774.442383	-74.159081
12359.869681	-1214.408167	1773.436523	7.156064
12359.869681	-1214.408167	1772.429688	323.335815
12359.869681	-1214.408167	1771.422852	211.898987
12359.869681	-1214.408167	1770.416016	14.885955
12359.869681	-1214.408167	1769.409180	-11.358186
12359.869681	-1214.408167	1768.402344	208.996078
12359.869681	-1214.408167	1767.394531	101.716644
12359.869681	-1214.408167	1766.386719	-86.336845
12359.869681	-1214.408167	1765.378906	157.091003
12359.869681	-1214.408167	1764.371094	-26.506083
12359.869681	-1214.408167	1763.362305	-18.214247
12359.869681	-1214.408167	1762.354492	1.760502
12359.869681	-1214.408167	1761.345703	286.929810
12359.869681	-1214.408167	1760.336914	128.795135
12359.869681	-1214.408167	1759.328125	27.391384
12359.869681	-1214.408167	1758.318359	-33.901424
12359.869681	-1214.408167	1757.308594	25.407053
12359.869681	-1214.408167	1756.299805	155.544189
12359.869681	-1214.408167	1755.290039	22.724915
12359.869681	-1214.408167	1754.279297	249.456482
12359.869681	-1214.408167	1753.269531	64.262741
12359.869681	-1214.408167	1752.258789	80.015930
12359.869681	-1214.408167	1751.249023	149.992615
12359.869681	-1214.408167	1750.238281	-40.349644
12359.869681	-1214.408167	1749.226563	26.877451
12359.869681	-1214.408167	1748.215820	122.279655
12359.869681	-1214.408167	1747.204102	-77.950005
12359.869681	-1214.408167	1746.193359	9.988344
12359.869681	-1214.408167	1745.181641	17.384775
12359.869681	-1214.408167	1744.168945	-84.057816
12359.869681	-1214.408167	1743.157227	-29.774788
12359.869681	-1214.408167	1742.144531	71.517189
12359.869681	-1214.408167	1741.132813	52.219406
12359.869681	-1214.408167	1740.120117	-151.346329
12359.869681	-1214.408167	1739.106445	-102.545303
12359.869681	-1214.408167	1738.093750	-285.125519
12359.869681	-1214.408167	1737.080078	-281.486786
12359.869681	-1214.408167	1736.067383	-153.022842
12359.869681	-1214.408167	1735.053711	177.975281
12359.869681	-1214.408167	1734.040039	-73.599014
12359.869681	-1214.408167	1733.025391	-91.929550
12359.869681	-1214.408167	1732.011719	19.192905
12359.869681	-1214.408167	1730.997070	-143.215225
12359.869681	-1214.408167	1729.982422	-15.996127
12359.869681	-1214.408167	1728.967773	-16.176374
12359.869681	-1214.408167	1727.952148	7.004896
12359.869681	-1214.408167	1726.937500	100.649284
12359.869681	-1214.408167	1725.921875	85.797180
12359.869681	-1214.408167	1724.906250	209.628830
12359.869681	-1214.408167	1723.890625	-236.151718
12359.869681	-1214.408167	1722.875000	103.780701
12359.869681	-1214.408167	1721.858398	161.162750
12359.869681	-1214.408167	1720.841797	-146.129242
12359.869681	-1214.408167	1719.825195	-110.211433
12359.869681	-1214.408167	1718.808594	43.059811
12359.869681	-1214.408167	1717.791992	-299.777313
12359.869681	-1214.408167	1716.774414	-48.182034
12359.869681	-1214.408167	1715.756836	-8.279093
12359.869681	-1214.408167	1714.739258	-55.457943
12359.869681	-1214.408167	1713.721680	183.724030
12359.869681	-1214.408167	1712.704102	-244.153824
12359.869681	-1214.408167	1711.685547	-162.641174
12359.869681	-1214.408167	1710.667969	99.423538
12359.869681	-1214.408167	1709.649414	70.240456
12359.869681	-1214.408167	1708.630859	-264.079590
12359.869681	-1214.408167	1707.611328	-124.616020
12359.869681	-1214.408167	1706.592773	-330.084930
12359.869681	-1214.408167	1705.573242	-52.621227
12359.869681	-1214.408167	1704.553711	123.781158
12359.869681	-1214.408167	1703.534180	117.149063
12359.869681	-1214.408167	1702.513672	42.396687
12359.869681	-1214.408167	1701.494141	47.207798
12359.869681	-1214.408167	1700.473633	-318.262665
12359.869681	-1214.408167	1699.453125	-119.294952
12359.869681	-1214.408167	1698.432617	-84.455887
12359.869681	-1214.408167	1697.412109	-197.263382
12359.869681	-1214.408167	1696.390625	239.887558
12359.869681	-1214.408167	1695.369141	140.812927
12359.869681	-1214.408167	1694.347656	83.758553
12359.869681	-1214.408167	1693.326172	5.540574
12359.869681	-1214.408167	1692.304688	-117.216248
12359.869681	-1214.408167	1691.282227	162.141418
12359.869681	-1214.408167	1690.260742	291.653809
12359.869681	-1214.408167	1689.238281	114.746887
12359.869681	-1214.408167	1688.214844	194.847900
12359.869681	-1214.408167	1687.192383	260.796631
12359.869681	-1214.408167	1686.168945	247.147354
12359.869681	-1214.408167	1685.146484	118.953201
12359.869681	-1214.408167	1684.123047	126.119644
12359.869681	-1214.408167	1683.099609	280.267029
12359.869681	-1214.408167	1682.075195	137.747147
12359.869681	-1214.408167	1681.051758	258.932373
12359.869681	-1214.408167	1680.027344	265.596588
12359.869681	-1214.408167	1679.002930	323.479767
12359.869681	-1214.408167	1677.978516	245.943222
12359.869681	-1214.408167	1676.953125	361.881409
12359.869681	-1214.408167	1675.928711	491.685211
12359.869681	-1214.408167	1674.903320	215.674622
12359.869681	-1214.408167	1673.877930	270.652588
12359.869681	-1214.408167	1672.852539	542.238403
12359.869681	-1214.408167	1671.826172	457.122986
12359.869681	-1214.408167	1670.800781	146.010666
12359.869681	-1214.408167	1669.774414	396.205017
12359.869681	-1214.408167	1668.748047	150.226364
12359.869681	-1214.408167	1667.721680	390.836548
12359.869681	-1214.408167	1666.694336	556.763306
12359.869681	-1214.408167	1665.667969	543.368103
12359.869681	-1214.408167	1664.640625	297.199921
12359.869681	-1214.408167	1663.613281	579.127136
12359.869681	-1214.408167	1662.585938	623.628418
12359.869681	-1214.408167	1661.557617	686.622803
12359.869681	-1214.408167	1660.530273	923.917542
12359.869681	-1214.408167	1659.501953	868.137390
12359.869681	-1214.408167	1658.473633	726.320923
12359.869681	-1214.408167	1657.444336	712.271667
12359.869681	-1214.408167	1656.416016	995.557251
12359.869681	-1214.408167	1655.386719	1129.997314
12359.869681	-1214.408167	1654.358398	1171.456421
12359.869681	-1214.408167	1653.328125	1080.453613
12359.869681	-1214.408167	1652.298828	894.277344
12359.869681	-1214.408167	1651.269531	1139.820679
12359.869681	-1214.408167	1650.239258	1143.863403
12359.869681	-1214.408167	1649.208984	1259.220337
12359.869681	-1214.408167	1648.178711	1300.262695
12359.869681	-1214.408167	1647.148438	1329.651001
12359.869681	-1214.408167	1646.117188	1618.659180
12359.869681	-1214.408167	1645.086914	1708.172241
12359.869681	-1214.408167	1644.055664	1748.917114
12359.869681	-1214.408167	1643.024414	1854.501709
12359.869681	-1214.408167	1641.992188	1883.531738
12359.869681	-1214.408167	1640.960938	1970.456787
12359.869681	-1214.408167	1639.928711	2339.853516
12359.869681	-1214.408167	1638.896484	2343.224121
12359.869681	-1214.408167	1637.864258	2723.936279
12359.869681	-1214.408167	1636.832031	3030.412354
12359.869681	-1214.408167	1635.798828	2468.898682
12359.869681	-1214.408167	1634.766602	2800.725830
12359.869681	-1214.408167	1633.733398	2933.442871
12359.869681	-1214.408167	1632.699219	2918.054199
12359.869681	-1214.408167	1631.666016	2937.370850
12359.869681	-1214.408167	1630.632813	2780.967529
12359.869681	-1214.408167	1629.598633	3110.018311
12359.869681	-1214.408167	1628.564453	2664.732666
12359.869681	-1214.408167	1627.530273	2623.980225
12359.869681	-1214.408167	1626.495117	2691.804199
12359.869681	-1214.408167	1625.460938	2524.039063
12359.869681	-1214.408167	1624.425781	2608.036621
12359.869681	-1214.408167	1623.390625	2636.602539
12359.869681	-1214.408167	1622.355469	2397.398682
12359.869681	-1214.408167	1621.319336	2813.734619
12359.869681	-1214.408167	1620.284180	2503.092529
12359.869681	-1214.408167	1619.248047	2614.756836
12359.869681	-1214.408167	1618.211914	2251.244873
12359.869681	-1214.408167	1617.174805	2139.245117
12359.869681	-1214.408167	1616.138672	2518.452637
12359.869681	-1214.408167	1615.101563	2496.409424
12359.869681	-1214.408167	1614.065430	2545.878662
12359.869681	-1214.408167	1613.027344	2535.405273
12359.869681	-1214.408167	1611.990234	2315.343750
12359.869681	-1214.408167	1610.953125	2546.880371
12359.869681	-1214.408167	1609.915039	2589.504150
12359.869681	-1214.408167	1608.876953	2521.631348
12359.869681	-1214.408167	1607.838867	2642.605713
12359.869681	-1214.408167	1606.800781	2795.804932
12359.869681	-1214.408167	1605.761719	2661.323242
12359.869681	-1214.408167	1604.723633	2853.677734
12359.869681	-1214.408167	1603.684570	2972.379883
12359.869681	-1214.408167	1602.644531	2976.080322
12359.869681	-1214.408167	1601.605469	3074.138916
12359.869681	-1214.408167	1600.566406	2900.945801
12359.869681	-1214.408167	1599.526367	3155.386963
12359.869681	-1214.408167	1598.486328	3120.239014
12359.869681	-1214.408167	1597.446289	3082.879150
12359.869681	-1214.408167	1596.405273	3550.959473
12359.869681	-1214.408167	1595.365234	3240.365967
12359.869681	-1214.408167	1594.324219	3531.572998
12359.869681	-1214.408167	1593.283203	3724.022217
12359.869681	-1214.408167	1592.242188	3441.338867
12359.869681	-1214.408167	1591.200195	3340.125000
12359.869681	-1214.408167	1590.159180	3521.279297
12359.869681	-1214.408167	1589.117188	3436.323242
12359.869681	-1214.408167	1588.075195	3461.581299
12359.869681	-1214.408167	1587.032227	3560.280762
12359.869681	-1214.408167	1585.990234	3427.495361
12359.869681	-1214.408167	1584.947266	3031.233643
12359.869681	-1214.408167	1583.904297	2946.907471
12359.869681	-1214.408167	1582.861328	3220.161865
12359.869681	-1214.408167	1581.818359	3147.490723
12359.869681	-1214.408167	1580.775391	2749.710449
12359.869681	-1214.408167	1579.731445	2860.551025
12359.869681	-1214.408167	1578.687500	2824.925537
12359.869681	-1214.408167	1577.643555	2961.109619
12359.869681	-1214.408167	1576.598633	2948.569336
12359.869681	-1214.408167	1575.554688	3103.210205
12359.869681	-1214.408167	1574.509766	2926.164063
12359.869681	-1214.408167	1573.464844	2781.329834
12359.869681	-1214.408167	1572.419922	3048.307373
12359.869681	-1214.408167	1571.374023	3070.639404
12359.869681	-1214.408167	1570.329102	2841.654297
12359.869681	-1214.408167	1569.283203	2841.416260
12359.869681	-1214.408167	1568.237305	2610.519287
12359.869681	-1214.408167	1567.191406	2393.550781
12359.869681	-1214.408167	1566.144531	2306.978516
12359.869681	-1214.408167	1565.098633	2542.599609
12359.869681	-1214.408167	1564.051758	2394.657715
12359.869681	-1214.408167	1563.004883	2292.571777
12359.869681	-1214.408167	1561.957031	2060.552002
12359.869681	-1214.408167	1560.910156	2079.797119
12359.869681	-1214.408167	1559.862305	1893.828857
12359.869681	-1214.408167	1558.814453	2189.374268
12359.869681	-1214.408167	1557.766602	2222.688965
12359.869681	-1214.408167	1556.718750	1827.475830
12359.869681	-1214.408167	1555.669922	2043.508179
12359.869681	-1214.408167	1554.621094	1885.813110
12359.869681	-1214.408167	1553.573242	2033.712158
12359.869681	-1214.408167	1552.523438	1666.772705
12359.869681	-1214.408167	1551.474609	1837.733398
12359.869681	-1214.408167	1550.424805	2115.811768
12359.869681	-1214.408167	1549.375000	2143.473877
12359.869681	-1214.408167	1548.325195	1786.554932
12359.869681	-1214.408167	1547.275391	1798.669922
12359.869681	-1214.408167	1546.225586	1430.914063
12359.869681	-1214.408167	1545.174805	1786.966431
12359.869681	-1214.408167	1544.124023	1440.154907
12359.869681	-1214.408167	1543.073242	1127.766357
12359.869681	-1214.408167	1542.022461	1395.507080
12359.869681	-1214.408167	1540.970703	1126.777588
12359.869681	-1214.408167	1539.919922	1067.459106
12359.869681	-1214.408167	1538.868164	917.427185
12359.869681	-1214.408167	1537.815430	944.840027
12359.869681	-1214.408167	1536.763672	829.325989
12359.869681	-1214.408167	1535.710938	523.249817
12359.869681	-1214.408167	1534.659180	873.727478
12359.869681	-1214.408167	1533.606445	670.294373
12359.869681	-1214.408167	1532.552734	998.250977
12359.869681	-1214.408167	1531.500000	931.411438
12359.869681	-1214.408167	1530.446289	860.235901
12359.869681	-1214.408167	1529.393555	802.902832
12359.869681	-1214.408167	1528.338867	1054.209717
12359.869681	-1214.408167	1527.285156	1053.923950
12359.869681	-1214.408167	1526.231445	1031.160156
12359.869681	-1214.408167	1525.176758	843.122009
12359.869681	-1214.408167	1524.122070	866.116211
12359.869681	-1214.408167	1523.067383	689.907532
12359.869681	-1214.408167	1522.012695	822.055603
12359.869681	-1214.408167	1520.957031	437.946136
12359.869681	-1214.408167	1519.901367	638.416443
12359.869681	-1214.408167	1518.845703	764.297485
12359.869681	-1214.408167	1517.790039	390.088226
12359.869681	-1214.408167	1516.734375	670.268127
12359.869681	-1214.408167	1515.677734	611.135925
12359.869681	-1214.408167	1514.621094	355.422272
12359.869681	-1214.408167	1513.564453	568.200317
12359.869681	-1214.408167	1512.507813	193.164230
12359.869681	-1214.408167	1511.450195	189.257980
12359.869681	-1214.408167	1510.393555	106.459373
12359.869681	-1214.408167	1509.335938	326.730011
12359.869681	-1214.408167	1508.278320	251.129349
12359.869681	-1214.408167	1507.219727	65.068886
12359.869681	-1214.408167	1506.162109	-330.744812
12359.869681	-1214.408167	1505.103516	-5.838844
12359.869681	-1214.408167	1504.044922	82.093376
12359.869681	-1214.408167	1502.986328	43.798546
12359.869681	-1214.408167	1501.926758	-57.461300
12359.869681	-1214.408167	1500.868164	-309.632141
12359.869681	-1214.408167	1499.808594	13.770580
12359.869681	-1214.408167	1498.749023	156.827744
12359.869681	-1214.408167	1497.688477	-63.022099
12359.869681	-1214.408167	1496.628906	98.470573
12359.869681	-1214.408167	1495.568359	82.036064
12359.869681	-1214.408167	1494.507813	162.738663
12359.869681	-1214.408167	1493.447266	83.653000
12359.869681	-1214.408167	1492.386719	387.795044
12359.869681	-1214.408167	1491.325195	180.752930
12359.869681	-1214.408167	1490.263672	332.068542
12359.869681	-1214.408167	1489.202148	224.632767
12359.869681	-1214.408167	1488.140625	198.500610
12359.869681	-1214.408167	1487.079102	352.648895
12359.869681	-1214.408167	1486.016602	5.182243
12359.869681	-1214.408167	1484.954102	335.229309
12359.869681	-1214.408167	1483.891602	334.737518
12359.869681	-1214.408167	1482.829102	273.753937
12359.869681	-1214.408167	1481.765625	-175.938293
12359.869681	-1214.408167	1480.702148	94.077576
12359.869681	-1214.408167	1479.638672	-83.014793
12359.869681	-1214.408167	1478.575195	41.272972
12359.869681	-1214.408167	1477.511719	217.401855
12359.869681	-1214.408167	1476.447266	157.872757
12359.869681	-1214.408167	1475.382813	29.060225
12359.869681	-1214.408167	1474.318359	-23.281853
12359.869681	-1214.408167	1473.253906	288.291779
12359.869681	-1214.408167	1472.189453	-52.894695
12359.869681	-1214.408167	1471.124023	81.752357
12359.869681	-1214.408167	1470.058594	68.848495
12359.869681	-1214.408167	1468.993164	436.934601
12359.869681	-1214.408167	1467.927734	397.254669
12359.869681	-1214.408167	1466.861328	237.156998
12359.869681	-1214.408167	1465.794922	296.183960
12359.869681	-1214.408167	1464.728516	571.181030
12359.869681	-1214.408167	1463.662109	456.089386
12359.869681	-1214.408167	1462.594727	603.297180
12359.869681	-1214.408167	1461.528320	498.244232
12359.869681	-1214.408167	1460.460938	520.433899
12359.869681	-1214.408167	1459.393555	460.912994
12359.869681	-1214.408167	1458.326172	550.585449
12359.869681	-1214.408167	1457.257813	816.793457
12359.869681	-1214.408167	1456.189453	612.723755
12359.869681	-1214.408167	1455.121094	621.202087
12359.869681	-1214.408167	1454.052734	793.673340
12359.869681	-1214.408167	1452.984375	431.389069
12359.869681	-1214.408167	1451.915039	527.983337
12359.869681	-1214.408167	1450.845703	549.323425
12359.869681	-1214.408167	1449.776367	435.801392
12359.869681	-1214.408167	1448.707031	620.676453
12359.869681	-1214.408167	1447.636719	604.376465
12359.869681	-1214.408167	1446.567383	557.825378
12359.869681	-1214.408167	1445.497070	580.965698
12359.869681	-1214.408167	1444.425781	479.791565
12359.869681	-1214.408167	1443.355469	737.057617
12359.869681	-1214.408167	1442.285156	723.557312
12359.869681	-1214.408167	1441.213867	680.670776
12359.869681	-1214.408167	1440.142578	511.280640
12359.869681	-1214.408167	1439.070313	554.113037
12359.869681	-1214.408167	1437.999023	532.805359
12359.869681	-1214.408167	1436.926758	691.400818
12359.869681	-1214.408167	1435.854492	524.849304
12359.869681	-1214.408167	1434.782227	406.286804
12359.869681	-1214.408167	1433.709961	300.687103
12359.869681	-1214.408167	1432.636719	372.527496
12359.869681	-1214.408167	1431.563477	380.020813
12359.869681	-1214.408167	1430.490234	301.500092
12359.869681	-1214.408167	1429.416992	139.595322
12359.869681	-1214.408167	1428.343750	164.909119
12359.869681	-1214.408167	1427.269531	525.400146
12359.869681	-1214.408167	1426.195313	394.893372
12359.869681	-1214.408167	1425.121094	234.153473
12359.869681	-1214.408167	1424.046875	352.531006
12359.869681	-1214.408167	1422.971680	101.719711
12359.869681	-1214.408167	1421.896484	647.580872
12359.869681	-1214.408167	1420.821289	236.406357
12359.869681	-1214.408167	1419.746094	224.794754
12359.869681	-1214.408167	1418.669922	467.114319
12359.869681	-1214.408167	1417.594727	426.475067
12359.869681	-1214.408167	1416.518555	430.560059
12359.869681	-1214.408167	1415.442383	201.885590
12359.869681	-1214.408167	1414.365234	342.972900
12359.869681	-1214.408167	1413.289063	353.561310
12359.869681	-1214.408167	1412.211914	394.841187
12359.869681	-1214.408167	1411.134766	397.257660
12359.869681	-1214.408167	1410.057617	322.670837
12359.869681	-1214.408167	1408.979492	305.493469
12359.869681	-1214.408167	1407.902344	410.212982
12359.869681	-1214.408167	1406.824219	337.011658
12359.869681	-1214.408167	1405.746094	359.321960
12359.869681	-1214.408167	1404.666992	275.863861
12359.869681	-1214.408167	1403.588867	589.633179
12359.869681	-1214.408167	1402.509766	615.569275
12359.869681	-1214.408167	1401.430664	176.400803
12359.869681	-1214.408167	1400.351563	480.950623
12359.869681	-1214.408167	1399.271484	346.556671
12359.869681	-1214.408167	1398.192383	779.892639
12359.869681	-1214.408167	1397.112305	633.391846
12359.869681	-1214.408167	1396.031250	484.287689
12359.869681	-1214.408167	1394.951172	639.192261
12359.869681	-1214.408167	1393.871094	495.354034
12359.869681	-1214.408167	1392.790039	398.600098
12359.869681	-1214.408167	1391.708984	591.139771
12359.869681	-1214.408167	1390.626953	590.505615
12359.869681	-1214.408167	1389.545898	661.985779
12359.869681	-1214.408167	1388.463867	742.791443
12359.869681	-1214.408167	1387.381836	1106.326538
12359.869681	-1214.408167	1386.299805	1719.985962
12359.869681	-1214.408167	1385.217773	976.422668
12359.869681	-1214.408167	1384.134766	738.984314
12359.869681	-1214.408167	1383.051758	735.988342
12359.869681	-1214.408167	1381.968750	663.853149
12359.869681	-1214.408167	1380.885742	953.989258
12359.869681	-1214.408167	1379.802734	742.984863
12359.869681	-1214.408167	1378.718750	715.157288
12359.869681	-1214.408167	1377.634766	628.977356
12359.869681	-1214.408167	1376.550781	488.935699
12359.869681	-1214.408167	1375.465820	415.937805
12359.869681	-1214.408167	1374.381836	944.314392
12359.869681	-1214.408167	1373.296875	616.604797
12359.869681	-1214.408167	1372.211914	632.870972
12359.869681	-1214.408167	1371.126953	1119.370972
12359.869681	-1214.408167	1370.041016	926.085266
12359.869681	-1214.408167	1368.955078	931.637695
12359.869681	-1214.408167	1367.869141	937.413330
12359.869681	-1214.408167	1366.783203	950.766052
12359.869681	-1214.408167	1365.697266	1184.514404
12359.869681	-1214.408167	1364.610352	891.033875
12359.869681	-1214.408167	1363.523438	1218.016113
12359.869681	-1214.408167	1362.436523	945.416382
12359.869681	-1214.408167	1361.349609	951.063171
12359.869681	-1214.408167	1360.261719	835.928040
12359.869681	-1214.408167	1359.174805	802.136780
12359.869681	-1214.408167	1358.086914	894.829956
12359.869681	-1214.408167	1356.998047	488.138855
12359.869681	-1214.408167	1355.910156	738.596863
12359.869681	-1214.408167	1354.821289	397.499359
12359.869681	-1214.408167	1353.732422	653.589600
12359.869681	-1214.408167	1352.643555	400.096313
12359.869681	-1214.408167	1351.554688	713.949341
12359.869681	-1214.408167	1350.464844	573.078247
12359.869681	-1214.408167	1349.375000	621.727844
12359.869681	-1214.408167	1348.285156	597.796692
12359.869681	-1214.408167	1347.195313	758.536865
12359.869681	-1214.408167	1346.105469	823.858765
12359.869681	-1214.408167	1345.014648	618.237366
12359.869681	-1214.408167	1343.923828	1040.399292
12359.869681	-1214.408167	1342.833008	1019.416870
12359.869681	-1214.408167	1341.741211	894.781128
12359.869681	-1214.408167	1340.650391	770.616150
12359.869681	-1214.408167	1339.558594	924.515076
12359.869681	-1214.408167	1338.466797	597.051636
12359.869681	-1214.408167	1337.374023	860.728821
12359.869681	-1214.408167	1336.282227	913.406433
12359.869681	-1214.408167	1335.189453	1020.242615
12359.869681	-1214.408167	1334.096680	1047.580444
12359.869681	-1214.408167	1333.003906	1003.582092
12359.869681	-1214.408167	1331.910156	932.088745
12359.869681	-1214.408167	1330.817383	931.775879
12359.869681	-1214.408167	1329.723633	1061.239990
12359.869681	-1214.408167	1328.629883	1088.001221
12359.869681	-1214.408167	1327.535156	1195.473511
12359.869681	-1214.408167	1326.441406	882.230042
12359.869681	-1214.408167	1325.346680	799.227234
12359.869681	-1214.408167	1324.251953	802.018311
12359.869681	-1214.408167	1323.156250	774.251770
12359.869681	-1214.408167	1322.061523	955.045105
12359.869681	-1214.408167	1320.965820	1039.154175
12359.869681	-1214.408167	1319.870117	749.202271
12359.869681	-1214.408167	1318.774414	1126.740234
12359.869681	-1214.408167	1317.678711	817.170593
12359.869681	-1214.408167	1316.582031	707.149841
12359.869681	-1214.408167	1315.485352	769.250305
12359.869681	-1214.408167	1314.388672	658.839294
12359.869681	-1214.408167	1313.291016	716.593018
12359.869681	-1214.408167	1312.194336	651.382141
12359.869681	-1214.408167	1311.096680	629.180054
12359.869681	-1214.408167	1309.999023	623.390991
12359.869681	-1214.408167	1308.901367	744.667297
12359.869681	-1214.408167	1307.802734	767.683533
12359.869681	-1214.408167	1306.705078	972.598938
12359.869681	-1214.408167	1305.606445	855.809326
12359.869681	-1214.408167	1304.506836	625.145081
12359.869681	-1214.408167	1303.408203	592.110779
12359.869681	-1214.408167	1302.308594	536.340881
12359.869681	-1214.408167	1301.208984	561.895386
12359.869681	-1214.408167	1300.109375	386.561554
12359.869681	-1214.408167	1299.009766	335.202820
12359.869681	-1214.408167	1297.909180	571.986267
12359.869681	-1214.408167	1296.808594	416.977631
12359.869681	-1214.408167	1295.708008	492.831390
12359.869681	-1214.408167	1294.607422	637.844666
12359.869681	-1214.408167	1293.506836	488.996094
12359.869681	-1214.408167	1292.405273	265.667725
12359.869681	-1214.408167	1291.303711	375.190857
12359.869681	-1214.408167	1290.202148	444.624359
12359.869681	-1214.408167	1289.099609	228.451782
12359.869681	-1214.408167	1287.998047	205.730011
12359.869681	-1214.408167	1286.895508	222.801117
12359.869681	-1214.408167	1285.792969	9.265889
12359.869681	-1214.408167	1284.689453	13.975240
12359.869681	-1214.408167	1283.586914	-59.685944
12359.869681	-1214.408167	1282.483398	35.253433
12359.869681	-1214.408167	1281.379883	14.441035
12359.869681	-1214.408167	1280.276367	9.793151
12359.869681	-1214.408167	1279.171875	81.371666
12359.869681	-1214.408167	1278.067383	-28.972626
12359.869681	-1214.408167	1276.962891	-57.954266
12359.869681	-1214.408167	1275.858398	-48.090530
12359.869681	-1214.408167	1274.753906	136.843506
12359.869681	-1214.408167	1273.648438	-1.930090
12359.869681	-1214.408167	1272.542969	-47.736256
12359.869681	-1214.408167	1271.437500	-175.834412
12359.869681	-1214.408167	1270.331055	-105.697823
12359.869681	-1214.408167	1269.225586	-246.525391
12359.869681	-1214.408167	1268.119141	-137.306961
12359.869681	-1214.408167	1267.012695	-26.511906
12359.869681	-1214.408167	1265.906250	-99.020683
12359.869681	-1214.408167	1264.798828	-217.169861
12359.869681	-1214.408167	1263.691406	-196.178741
12359.869681	-1214.408167	1262.583984	-52.068394
12359.869681	-1214.408167	1261.476563	-103.809082
12359.869681	-1214.408167	1260.368164	-109.559700
12359.869681	-1214.408167	1259.260742	-110.331238
12359.869681	-1214.408167	1258.152344	-37.771984
12359.869681	-1214.408167	1257.043945	79.928246
12359.869681	-1214.408167	1255.934570	-43.496914
12359.869681	-1214.408167	1254.825195	72.676857
12359.869681	-1214.408167	1253.716797	-48.949032
12359.869681	-1214.408167	1252.606445	-83.442383
12359.869681	-1214.408167	1251.497070	-11.126928
12359.869681	-1214.408167	1250.387695	-30.796375
12359.869681	-1214.408167	1249.277344	-66.377380
12359.869681	-1214.408167	1248.166992	124.053864
12359.869681	-1214.408167	1247.055664	-97.597321
12359.869681	-1214.408167	1245.945313	-66.460197
12359.869681	-1214.408167	1244.833984	-41.455162
12359.869681	-1214.408167	1243.722656	157.564423
12359.869681	-1214.408167	1242.611328	100.167564
12359.869681	-1214.408167	1241.499023	193.653961
12359.869681	-1214.408167	1240.387695	-117.327820
12359.869681	-1214.408167	1239.275391	5.098324
12359.869681	-1214.408167	1238.162109	-139.391281
12359.869681	-1214.408167	1237.049805	58.504601
12359.869681	-1214.408167	1235.936523	28.470407
12359.869681	-1214.408167	1234.823242	47.559505
12359.869681	-1214.408167	1233.709961	105.442551
12359.869681	-1214.408167	1232.596680	-96.198067
12359.869681	-1214.408167	1231.482422	53.683117
12359.869681	-1214.408167	1230.369141	94.065788
12359.869681	-1214.408167	1229.253906	-74.804001
12359.869681	-1214.408167	1228.139648	-7.575004
12359.869681	-1214.408167	1227.025391	73.868553
12359.869681	-1214.408167	1225.910156	36.702785
12359.869681	-1214.408167	1224.794922	62.216034
12359.869681	-1214.408167	1223.679688	41.758778
12359.869681	-1214.408167	1222.563477	33.126114
12359.869681	-1214.408167	1221.447266	165.573425
12359.869681	-1214.408167	1220.331055	-69.540985
12359.869681	-1214.408167	1219.214844	-4.401719
12359.869681	-1214.408167	1218.098633	-174.189484
12359.869681	-1214.408167	1216.981445	64.421806
12359.869681	-1214.408167	1215.864258	41.000431
12359.869681	-1214.408167	1214.747070	79.816902
12359.869681	-1214.408167	1213.629883	201.815567
12359.869681	-1214.408167	1212.511719	-90.017532
12359.869681	-1214.408167	1211.393555	17.712372
12359.869681	-1214.408167	1210.275391	-180.907730
12359.869681	-1214.408167	1209.157227	124.912262
12359.869681	-1214.408167	1208.038086	107.343719
12359.869681	-1214.408167	1206.918945	92.613777
12359.869681	-1214.408167	1205.799805	68.967697
12359.869681	-1214.408167	1204.680664	140.719086
12359.869681	-1214.408167	1203.560547	170.554688
12359.869681	-1214.408167	1202.441406	98.582878
12359.869681	-1214.408167	1201.321289	57.845886
12359.869681	-1214.408167	1200.200195	-18.063540
12359.869681	-1214.408167	1199.080078	86.522087
12359.869681	-1214.408167	1197.958984	264.902374
12359.869681	-1214.408167	1196.837891	170.049438
12359.869681	-1214.408167	1195.716797	216.304367
12359.869681	-1214.408167	1194.594727	297.408081
12359.869681	-1214.408167	1193.473633	223.909790
12359.869681	-1214.408167	1192.351563	-38.047836
12359.869681	-1214.408167	1191.229492	-45.679729
12359.869681	-1214.408167	1190.106445	-4.200315
12359.869681	-1214.408167	1188.984375	64.620064
12359.869681	-1214.408167	1187.861328	39.700768
12359.869681	-1214.408167	1186.738281	132.710098
12359.869681	-1214.408167	1185.614258	-180.064682
12359.869681	-1214.408167	1184.491211	-24.744753
12359.869681	-1214.408167	1183.367188	105.414803
12359.869681	-1214.408167	1182.243164	-98.612602
12359.869681	-1214.408167	1181.119141	-115.919273
12359.869681	-1214.408167	1179.994141	-114.661674
12359.869681	-1214.408167	1178.869141	-92.217667
12359.869681	-1214.408167	1177.744141	44.349808
12359.869681	-1214.408167	1176.619141	-72.074913
12359.869681	-1214.408167	1175.493164	-195.332199
12359.869681	-1214.408167	1174.368164	-145.703568
12359.869681	-1214.408167	1173.242188	53.280979
12359.869681	-1214.408167	1172.115234	53.167694
12359.869681	-1214.408167	1170.989258	27.783058
12359.869681	-1214.408167	1169.862305	-75.440521
12359.869681	-1214.408167	1168.735352	-23.991257
12359.869681	-1214.408167	1167.608398	-163.763992
12359.869681	-1214.408167	1166.481445	-80.509003
12359.869681	-1214.408167	1165.353516	41.452190
12359.869681	-1214.408167	1164.225586	-100.387733
12359.869681	-1214.408167	1163.097656	98.426064
12359.869681	-1214.408167	1161.968750	53.651913
12359.869681	-1214.408167	1160.840820	-85.174850
12359.869681	-1214.408167	1159.711914	-22.601868
12359.869681	-1214.408167	1158.583008	17.522299
12359.869681	-1214.408167	1157.453125	-119.632233
12359.869681	-1214.408167	1156.324219	-86.652359
12359.869681	-1214.408167	1155.194336	167.425323
12359.869681	-1214.408167	1154.064453	-59.432888
12359.869681	-1214.408167	1152.933594	112.745567
12359.869681	-1214.408167	1151.803711	-77.547256
12359.869681	-1214.408167	1150.672852	171.971634
12359.869681	-1214.408167	1149.541992	102.290489
12359.869681	-1214.408167	1148.411133	78.295998
12359.869681	-1214.408167	1147.279297	58.089207
12359.869681	-1214.408167	1146.147461	55.043468
12359.869681	-1214.408167	1145.015625	6.137302
12359.869681	-1214.408167	1143.883789	378.925415
12359.869681	-1214.408167	1142.750977	255.561310
12359.869681	-1214.408167	1141.619141	287.943146
12359.869681	-1214.408167	1140.486328	302.295685
12359.869681	-1214.408167	1139.352539	97.419579
12359.869681	-1214.408167	1138.219727	47.147190
12359.869681	-1214.408167	1137.085938	68.376610
12359.869681	-1214.408167	1135.952148	41.177502
12359.869681	-1214.408167	1134.818359	-18.055470
12359.869681	-1214.408167	1133.683594	-29.593307
12359.869681	-1214.408167	1132.549805	248.159134
12359.869681	-1214.408167	1131.415039	151.538528
12359.869681	-1214.408167	1130.279297	243.601425
12359.869681	-1214.408167	1129.144531	399.302948
12359.869681	-1214.408167	1128.008789	362.012482
12359.869681	-1214.408167	1126.873047	349.343445
12359.869681	-1214.408167	1125.737305	264.593048
12359.869681	-1214.408167	1124.601563	499.261505
12359.869681	-1214.408167	1123.464844	429.956055
12359.869681	-1214.408167	1122.328125	519.382324
12359.869681	-1214.408167	1121.191406	493.398163
12359.869681	-1214.408167	1120.054688	584.851440
12359.869681	-1214.408167	1118.916992	532.774841
12359.869681	-1214.408167	1117.779297	525.730042
12359.869681	-1214.408167	1116.641602	450.945831
12359.869681	-1214.408167	1115.503906	227.994888
12359.869681	-1214.408167	1114.365234	337.169281
12359.869681	-1214.408167	1113.226563	181.980316
12359.869681	-1214.408167	1112.087891	221.606094
12359.869681	-1214.408167	1110.949219	362.213074
12359.869681	-1214.408167	1109.809570	313.712158
12359.869681	-1214.408167	1108.669922	267.435364
12359.869681	-1214.408167	1107.530273	104.650688
12359.869681	-1214.408167	1106.390625	456.893799
12359.869681	-1214.408167	1105.250000	279.174896
12359.869681	-1214.408167	1104.109375	326.453308
12359.869681	-1214.408167	1102.968750	335.149475
12359.869681	-1214.408167	1101.828125	374.504150
12359.869681	-1214.408167	1100.686523	368.910095
12359.869681	-1214.408167	1099.544922	487.557465
12359.869681	-1214.408167	1098.403320	546.292542
12359.869681	-1214.408167	1097.261719	401.531860
12359.869681	-1214.408167	1096.120117	477.121765
12359.869681	-1214.408167	1094.977539	327.847168
12359.869681	-1214.408167	1093.834961	133.822556
12359.869681	-1214.408167	1092.691406	195.098389
12359.869681	-1214.408167	1091.548828	95.384125
12359.869681	-1214.408167	1090.405273	300.360046
12359.869681	-1214.408167	1089.261719	233.164429
12359.869681	-1214.408167	1088.118164	244.104599
12359.869681	-1214.408167	1086.973633	302.855621
12359.869681	-1214.408167	1085.829102	288.591187
12359.869681	-1214.408167	1084.684570	307.669464
12359.869681	-1214.408167	1083.540039	99.208260
12359.869681	-1214.408167	1082.395508	34.770790
12359.869681	-1214.408167	1081.250000	238.740753
12359.869681	-1214.408167	1080.104492	268.917328
12359.869681	-1214.408167	1078.958984	219.422333
12359.869681	-1214.408167	1077.812500	231.059189
12359.869681	-1214.408167	1076.666016	302.515991
12359.869681	-1214.408167	1075.519531	178.816940
12359.869681	-1214.408167	1074.373047	238.013535
12359.869681	-1214.408167	1073.226563	129.145599
12359.869681	-1214.408167	1072.079102	332.621704
12359.869681	-1214.408167	1070.931641	126.927223
12359.869681	-1214.408167	1069.784180	283.973114
12359.869681	-1214.408167	1068.635742	355.154053
12359.869681	-1214.408167	1067.487305	422.135345
12359.869681	-1214.408167	1066.338867	389.460785
12359.869681	-1214.408167	1065.190430	347.453430
12359.869681	-1214.408167	1064.041992	191.410965
12359.869681	-1214.408167	1062.892578	631.626160
12359.869681	-1214.408167	1061.743164	253.499176
12359.869681	-1214.408167	1060.593750	521.979980
12359.869681	-1214.408167	1059.443359	281.462799
12359.869681	-1214.408167	1058.292969	370.822510
12359.869681	-1214.408167	1057.142578	390.140076
12359.869681	-1214.408167	1055.992188	265.881165
12359.869681	-1214.408167	1054.841797	196.187225
12359.869681	-1214.408167	1053.690430	382.762726
12359.869681	-1214.408167	1052.539063	278.549316
12359.869681	-1214.408167	1051.387695	56.791988
12359.869681	-1214.408167	1050.235352	22.605204
12359.869681	-1214.408167	1049.083984	275.034058
12359.869681	-1214.408167	1047.931641	284.533112
12359.869681	-1214.408167	1046.778320	287.011261
12359.869681	-1214.408167	1045.625977	-12.679374
12359.869681	-1214.408167	1044.472656	-53.664677
12359.869681	-1214.408167	1043.319336	-19.113819
12359.869681	-1214.408167	1042.166016	115.575645
12359.869681	-1214.408167	1041.012695	139.146790
12359.869681	-1214.408167	1039.858398	285.965515
12359.869681	-1214.408167	1038.704102	193.806290
12359.869681	-1214.408167	1037.549805	223.910172
12359.869681	-1214.408167	1036.394531	81.111717
12359.869681	-1214.408167	1035.239258	110.129837
12359.869681	-1214.408167	1034.083984	2.453702
12359.869681	-1214.408167	1032.928711	202.398651
12359.869681	-1214.408167	1031.773438	222.264420
12359.869681	-1214.408167	1030.617188	410.280792
12359.869681	-1214.408167	1029.460938	-21.518623
12359.869681	-1214.408167	1028.304688	459.825104
12359.869681	-1214.408167	1027.147461	383.623627
12359.869681	-1214.408167	1025.991211	147.749374
12359.869681	-1214.408167	1024.833984	166.795502
12359.869681	-1214.408167	1023.675781	143.426834
12359.869681	-1214.408167	1022.518555	-55.463455
12359.869681	-1214.408167	1021.360352	40.721439
12359.869681	-1214.408167	1020.202148	79.816261
12359.869681	-1214.408167	1019.043945	-114.774773
12359.869681	-1214.408167	1017.884766	21.462799
12359.869681	-1214.408167	1016.726563	-398.312775
12359.869681	-1214.408167	1015.567383	-67.267838
12359.869681	-1214.408167	1014.407227	23.279081
12359.869681	-1214.408167	1013.248047	5.623128
12359.869681	-1214.408167	1012.087891	81.340935
12359.869681	-1214.408167	1010.927734	-11.334994
12359.869681	-1214.408167	1009.767578	118.164566
12359.869681	-1214.408167	1008.606445	116.950478
12359.869681	-1214.408167	1007.446289	137.410019
12359.869681	-1214.408167	1006.285156	-8.164701
12359.869681	-1214.408167	1005.123047	72.453629
12359.869681	-1214.408167	1003.961914	-88.209824
12359.869681	-1214.408167	1002.799805	137.158325
12359.869681	-1214.408167	1001.637695	159.039825
12359.869681	-1214.408167	1000.475586	110.258774
12359.869681	-1214.408167	999.312500	-120.933632
12359.869681	-1214.408167	998.149414	-77.822144
12359.869681	-1214.408167	996.986328	59.786423
12359.869681	-1214.408167	995.823242	-57.386398
12359.869681	-1214.408167	994.659180	107.417305
12359.869681	-1214.408167	993.496094	50.248550
12359.869681	-1214.408167	992.332031	-107.520256
12359.869681	-1214.408167	991.166992	-349.655945
12359.869681	-1214.408167	990.002930	43.872063
12359.869681	-1214.408167	988.837891	-233.502411
12359.869681	-1214.408167	987.672852	151.425308
12359.869681	-1214.408167	986.506836	33.740059
12359.869681	-1214.408167	985.341797	-82.992210
12359.869681	-1214.408167	984.175781	-255.227554
12359.869681	-1214.408167	983.009766	-182.918488
12359.869681	-1214.408167	981.843750	-203.317184
12359.869681	-1214.408167	980.676758	-311.592834
12359.869681	-1214.408167	979.509766	-161.545532
12359.869681	-1214.408167	978.342773	133.122284
12359.869681	-1214.408167	977.175781	-198.162888
12359.869681	-1214.408167	976.007813	27.492207
12359.869681	-1214.408167	974.839844	71.474960
12359.869681	-1214.408167	973.671875	86.551689
12359.869681	-1214.408167	972.503906	-103.421478
12359.869681	-1214.408167	971.334961	-21.336536
12359.869681	-1214.408167	970.166016	-28.595116
12359.869681	-1214.408167	968.997070	-209.964157
12359.869681	-1214.408167	967.828125	-64.612930
12359.869681	-1214.408167	966.658203	27.601618
12359.869681	-1214.408167	965.488281	-116.845169
12359.869681	-1214.408167	964.318359	-72.142143
12359.869681	-1214.408167	963.148438	-88.093399
12359.869681	-1214.408167	961.977539	-87.178001
12359.869681	-1214.408167	960.806641	54.550079
12359.869681	-1214.408167	959.635742	141.797470
12359.869681	-1214.408167	958.463867	-38.839775
12359.869681	-1214.408167	957.292969	-16.444717
12359.869681	-1214.408167	956.121094	2.015994
12359.869681	-1214.408167	954.948242	-13.411237
12359.869681	-1214.408167	953.776367	50.160244
12359.869681	-1214.408167	952.603516	53.772514
12359.869681	-1214.408167	951.430664	116.873528
12359.869681	-1214.408167	950.257813	135.998932
12359.869681	-1214.408167	949.084961	28.208738
12359.869681	-1214.408167	947.911133	21.995377
12359.869681	-1214.408167	946.737305	-158.721558
12359.869681	-1214.408167	945.563477	37.282993
12359.869681	-1214.408167	944.388672	87.977943
12359.869681	-1214.408167	943.213867	76.305336
12359.869681	-1214.408167	942.039063	348.022400
12359.869681	-1214.408167	940.864258	-12.278671
12359.869681	-1214.408167	939.688477	186.662003
12359.869681	-1214.408167	938.513672	81.024933
12359.869681	-1214.408167	937.337891	246.283630
12359.869681	-1214.408167	936.161133	39.391541
12359.869681	-1214.408167	934.985352	103.011574
12359.869681	-1214.408167	933.808594	223.813477
12359.869681	-1214.408167	932.631836	204.186462
12359.869681	-1214.408167	931.454102	371.911804
12359.869681	-1214.408167	930.277344	443.288086
12359.869681	-1214.408167	929.099609	174.031921
12359.869681	-1214.408167	927.921875	352.012878
12359.869681	-1214.408167	926.743164	316.822784
12359.869681	-1214.408167	925.565430	117.862709
12359.869681	-1214.408167	924.386719	293.167511
12359.869681	-1214.408167	923.208008	-261.645172
12359.869681	-1214.408167	922.028320	15.000733
12359.869681	-1214.408167	920.849609	-165.555252
12359.869681	-1214.408167	919.669922	-161.101547
12359.869681	-1214.408167	919.474609	257.115631
12359.869681	-1214.408167	918.309570	50.579262
12359.869681	-1214.408167	917.143555	-39.067329
12359.869681	-1214.408167	915.977539	120.447655
12359.869681	-1214.408167	914.810547	-360.930603
12359.869681	-1214.408167	913.644531	-198.812943
12359.869681	-1214.408167	912.477539	-67.874519
12359.869681	-1214.408167	911.310547	-38.107277
12359.869681	-1214.408167	910.143555	-114.636185
12359.869681	-1214.408167	908.975586	-17.472160
12359.869681	-1214.408167	907.807617	17.465075
12359.869681	-1214.408167	906.639648	122.343475
12359.869681	-1214.408167	905.471680	-213.161209
12359.869681	-1214.408167	904.303711	10.858232
12359.869681	-1214.408167	903.134766	294.345886
12359.869681	-1214.408167	901.965820	186.831161
12359.869681	-1214.408167	900.796875	333.002472
12359.869681	-1214.408167	899.626953	326.453308
12359.869681	-1214.408167	898.457031	262.993317
12359.869681	-1214.408167	897.287109	15.917250
12359.869681	-1214.408167	896.117188	76.684006
12359.869681	-1214.408167	894.947266	62.449673
12359.869681	-1214.408167	893.776367	-18.981371
12359.869681	-1214.408167	892.605469	251.110580
12359.869681	-1214.408167	891.434570	198.103271
12359.869681	-1214.408167	890.262695	67.621353
12359.869681	-1214.408167	889.091797	117.994011
12359.869681	-1214.408167	887.919922	31.486353
12359.869681	-1214.408167	886.748047	-101.455429
12359.869681	-1214.408167	885.575195	18.628225
12359.869681	-1214.408167	884.403320	89.626991
12359.869681	-1214.408167	883.230469	-102.583717
12359.869681	-1214.408167	882.057617	146.416840
12359.869681	-1214.408167	880.883789	21.338177
12359.869681	-1214.408167	879.710938	-224.890045
12359.869681	-1214.408167	878.537109	-37.887600
12359.869681	-1214.408167	877.362305	-0.459510
12359.869681	-1214.408167	876.188477	147.763290
12359.869681	-1214.408167	875.013672	146.488159
12359.869681	-1214.408167	873.839844	163.240387
12359.869681	-1214.408167	872.664063	-8.019937
12359.869681	-1214.408167	871.489258	-9.268349
12359.869681	-1214.408167	870.313477	118.207314
12359.869681	-1214.408167	869.138672	50.006531
12359.869681	-1214.408167	867.962891	15.286755
12359.869681	-1214.408167	866.786133	116.943993
12359.869681	-1214.408167	865.610352	-48.972084
12359.869681	-1214.408167	864.433594	289.252533
12359.869681	-1214.408167	863.256836	305.923218
12359.869681	-1214.408167	862.079102	389.424988
12359.869681	-1214.408167	860.902344	113.049713
12359.869681	-1214.408167	859.724609	98.894112
12359.869681	-1214.408167	858.546875	69.321136
12359.869681	-1214.408167	857.368164	-83.538155
12359.869681	-1214.408167	856.190430	33.304390
12359.869681	-1214.408167	855.011719	-88.692284
12359.869681	-1214.408167	853.833008	-7.850809
12359.869681	-1214.408167	852.654297	206.407318
12359.869681	-1214.408167	851.474609	-20.783985
12359.869681	-1214.408167	850.294922	-11.869446
12359.869681	-1214.408167	849.115234	17.548756
12359.869681	-1214.408167	847.935547	-355.673584
12359.869681	-1214.408167	846.754883	-341.603790
12359.869681	-1214.408167	845.575195	159.484634
12359.869681	-1214.408167	844.393555	86.281464
12359.869681	-1214.408167	843.212891	61.772331
12359.869681	-1214.408167	842.032227	-72.900200
12359.869681	-1214.408167	840.850586	99.821404
12359.869681	-1214.408167	839.668945	70.155525
12359.869681	-1214.408167	838.486328	58.408669
12359.869681	-1214.408167	837.304688	-124.855606
12359.869681	-1214.408167	836.122070	-39.348816
12359.869681	-1214.408167	834.939453	53.778320
12359.869681	-1214.408167	833.756836	256.843414
12359.869681	-1214.408167	832.573242	63.381371
12359.869681	-1214.408167	831.389648	-63.540741
12359.869681	-1214.408167	830.206055	72.887840
12359.869681	-1214.408167	829.022461	452.056000
12359.869681	-1214.408167	827.838867	-99.150345
12359.869681	-1214.408167	826.654297	-116.168098
12359.869681	-1214.408167	825.469727	-13.148874
12359.869681	-1214.408167	824.284180	79.588501
12359.869681	-1214.408167	823.099609	-98.401787
12359.869681	-1214.408167	821.914063	68.289253
12359.869681	-1214.408167	820.728516	153.207367
12359.869681	-1214.408167	819.542969	-98.778160
12359.869681	-1214.408167	818.356445	-31.780249
12359.869681	-1214.408167	817.169922	75.969543
12359.869681	-1214.408167	815.983398	15.326837
12359.869681	-1214.408167	814.796875	173.947037
12359.869681	-1214.408167	813.609375	131.086212
12359.869681	-1214.408167	812.422852	57.619324
12359.869681	-1214.408167	811.235352	-102.485611
12359.869681	-1214.408167	810.046875	15.124957
12359.869681	-1214.408167	808.859375	0.199187
12359.869681	-1214.408167	807.670898	102.382652
12359.869681	-1214.408167	806.482422	255.403015
12359.869681	-1214.408167	805.293945	23.951811
12359.869681	-1214.408167	804.104492	187.023102
12359.869681	-1214.408167	802.915039	-95.290131
12359.869681	-1214.408167	801.725586	54.931187
12359.869681	-1214.408167	800.536133	179.611969
12359.869681	-1214.408167	799.345703	116.026398
12359.869681	-1214.408167	798.155273	9.201205
12359.869681	-1214.408167	796.964844	154.008575
12359.869681	-1214.408167	795.774414	-77.399048
12359.869681	-1214.408167	794.583008	143.492615
12359.869681	-1214.408167	793.392578	-26.952120
12359.869681	-1214.408167	792.200195	-65.310898
12359.869681	-1214.408167	791.008789	48.641621
12359.869681	-1214.408167	789.816406	-68.519470
12359.869681	-1214.408167	788.625000	2.131047
12359.869681	-1214.408167	787.432617	-36.416859
12359.869681	-1214.408167	786.239258	-36.947380
12359.869681	-1214.408167	785.046875	-83.193222
12359.869681	-1214.408167	783.853516	88.619499
12359.869681	-1214.408167	782.660156	85.354012
12359.869681	-1214.408167	781.465820	239.199905
12359.869681	-1214.408167	780.272461	98.925827
12359.869681	-1214.408167	779.078125	42.268200
12359.869681	-1214.408167	777.883789	-47.360714
12359.869681	-1214.408167	776.688477	-10.372102
12359.869681	-1214.408167	775.494141	-100.080849
12359.869681	-1214.408167	774.298828	-30.312475
12359.869681	-1214.408167	773.103516	82.392403
12359.869681	-1214.408167	771.907227	-17.597322
12359.869681	-1214.408167	770.711914	183.482040
12359.869681	-1214.408167	769.515625	88.436409
12359.869681	-1214.408167	768.318359	132.466995
12359.869681	-1214.408167	767.122070	67.676720
12359.869681	-1214.408167	765.924805	331.497162
12359.869681	-1214.408167	764.727539	271.606873
12359.869681	-1214.408167	763.530273	-190.134506
12359.869681	-1214.408167	762.333008	-108.551933
12359.869681	-1214.408167	761.134766	311.409576
12359.869681	-1214.408167	759.936523	114.902466
12359.869681	-1214.408167	758.738281	130.499313
12359.869681	-1214.408167	757.540039	214.172058
12359.869681	-1214.408167	756.340820	254.828049
12359.869681	-1214.408167	755.141602	58.192284
12359.869681	-1214.408167	753.942383	154.210403
12359.869681	-1214.408167	752.742188	65.980019
12359.869681	-1214.408167	751.541992	345.889435
12359.869681	-1214.408167	750.341797	23.017155
12359.869681	-1214.408167	749.141602	7.729770
12359.869681	-1214.408167	747.941406	27.649748
12359.869681	-1214.408167	746.740234	198.661530
12359.869681	-1214.408167	745.539063	170.504425
12359.869681	-1214.408167	744.337891	268.207184
12359.869681	-1214.408167	743.135742	-62.295101
12359.869681	-1214.408167	741.933594	-90.633011
12359.869681	-1214.408167	740.731445	37.014252
12359.869681	-1214.408167	739.529297	-1.569596
12359.869681	-1214.408167	738.326172	80.544441
12359.869681	-1214.408167	737.124023	74.495979
12359.869681	-1214.408167	735.919922	-251.039566
12359.869681	-1214.408167	734.716797	-169.186661
12359.869681	-1214.408167	733.513672	-105.053436
12359.869681	-1214.408167	732.309570	172.601364
12359.869681	-1214.408167	731.105469	-72.624519
12359.869681	-1214.408167	729.900391	337.883118
12359.869681	-1214.408167	728.696289	135.245438
12359.869681	-1214.408167	727.491211	123.460663
12359.869681	-1214.408167	726.286133	41.288036
12359.869681	-1214.408167	725.080078	-221.679962
12359.869681	-1214.408167	723.874023	105.154999
12359.869681	-1214.408167	722.668945	37.819260
12359.869681	-1214.408167	721.461914	211.249588
12359.869681	-1214.408167	720.255859	-39.359287
12359.869681	-1214.408167	719.048828	-289.957306
12359.869681	-1214.408167	717.841797	-119.350922
12359.869681	-1214.408167	716.634766	-51.677956
12359.869681	-1214.408167	715.427734	55.970726
12359.869681	-1214.408167	714.219727	0.620756
12359.869681	-1214.408167	713.011719	-104.898224
12359.869681	-1214.408167	711.803711	42.485081
12359.869681	-1214.408167	710.594727	-8.099343
12359.869681	-1214.408167	709.385742	-103.817657
12359.869681	-1214.408167	708.176758	45.695469
12359.869681	-1214.408167	706.967773	432.777069
12359.869681	-1214.408167	705.758789	-131.097153
12359.869681	-1214.408167	704.548828	-84.507401
12359.869681	-1214.408167	703.338867	62.000790
12359.869681	-1214.408167	702.127930	-114.181221
12359.869681	-1214.408167	700.917969	109.579506
12359.869681	-1214.408167	699.707031	-246.666977
12359.869681	-1214.408167	698.496094	49.302773
12359.869681	-1214.408167	697.285156	-142.086121
12359.869681	-1214.408167	696.073242	-236.080200
12359.869681	-1214.408167	694.861328	-217.755554
12359.869681	-1214.408167	693.649414	-309.380310
12359.869681	-1214.408167	692.436523	50.729538
12359.869681	-1214.408167	691.224609	43.755146
12359.869681	-1214.408167	690.011719	156.452713
12359.869681	-1214.408167	688.798828	99.388275
12359.869681	-1214.408167	687.584961	-137.310013
12359.869681	-1214.408167	686.372070	-42.365551
12359.869681	-1214.408167	685.158203	259.361206
12359.869681	-1214.408167	683.943359	162.087494
12359.869681	-1214.408167	682.729492	156.970306
12359.869681	-1214.408167	681.514648	141.801239
12359.869681	-1214.408167	680.299805	186.332520
12359.869681	-1214.408167	679.084961	410.063995
12359.869681	-1214.408167	677.869141	173.004395
12359.869681	-1214.408167	676.653320	157.504929
12359.869681	-1214.408167	675.437500	480.398499
12359.869681	-1214.408167	674.221680	131.259293
12359.869681	-1214.408167	673.004883	267.280487
12359.869681	-1214.408167	671.789063	171.863647
12359.869681	-1214.408167	670.571289	81.374474
12359.869681	-1214.408167	669.354492	154.932739
12359.869681	-1214.408167	668.136719	111.557510
12359.869681	-1214.408167	666.919922	207.292603
12359.869681	-1214.408167	665.701172	233.338043
12359.869681	-1214.408167	664.483398	-108.330048
12359.869681	-1214.408167	663.264648	86.503357
12359.869681	-1214.408167	662.045898	62.682766
12359.869681	-1214.408167	660.827148	115.758278
12359.869681	-1214.408167	659.608398	-19.882067
12359.869681	-1214.408167	658.388672	52.899967
12359.869681	-1214.408167	657.168945	80.930679
12359.869681	-1214.408167	655.949219	371.801331
12359.869681	-1214.408167	654.728516	74.764374
12359.869681	-1214.408167	653.507813	330.673706
12359.869681	-1214.408167	652.287109	224.515198
12359.869681	-1214.408167	651.066406	172.864624
12359.869681	-1214.408167	649.844727	359.034943
12359.869681	-1214.408167	648.623047	460.847168
12359.869681	-1214.408167	647.401367	116.760956
12359.869681	-1214.408167	646.179688	240.760391
12359.869681	-1214.408167	644.957031	94.807816
12359.869681	-1214.408167	643.734375	159.252869
12359.869681	-1214.408167	642.511719	104.844376
12359.869681	-1214.408167	641.289063	141.953293
12359.869681	-1214.408167	640.065430	359.565399
12359.869681	-1214.408167	638.841797	-18.950836
12359.869681	-1214.408167	637.618164	-164.933395
12359.869681	-1214.408167	636.393555	52.481468
12359.869681	-1214.408167	635.168945	346.383087
12359.869681	-1214.408167	633.944336	168.180664
12359.869681	-1214.408167	632.719727	333.407471
12359.869681	-1214.408167	631.494141	347.865784
12359.869681	-1214.408167	630.269531	65.974831
12359.869681	-1214.408167	629.042969	-13.390109
12359.869681	-1214.408167	627.817383	122.002487
12359.869681	-1214.408167	626.590820	27.807804
12359.869681	-1214.408167	625.365234	34.795948
12359.869681	-1214.408167	624.137695	-88.983070
12359.869681	-1214.408167	622.911133	46.232830
12359.869681	-1214.408167	621.683594	233.152557
12359.869681	-1214.408167	620.456055	-26.211130
12359.869681	-1214.408167	619.228516	318.362854
12359.869681	-1214.408167	618.000977	51.685417
12359.869681	-1214.408167	616.772461	198.994598
12359.869681	-1214.408167	615.543945	43.283737
12359.869681	-1214.408167	614.314453	-191.166153
12359.869681	-1214.408167	613.085938	-272.861969
12359.869681	-1214.408167	611.856445	152.546982
12359.869681	-1214.408167	610.626953	-389.379456
12359.869681	-1214.408167	609.397461	-50.221817
12359.869681	-1214.408167	608.166992	-153.986969
12359.869681	-1214.408167	606.936523	49.734562
12359.869681	-1214.408167	605.706055	-253.142563
12359.869681	-1214.408167	604.474609	4.633666
12359.869681	-1214.408167	603.244141	136.980118
12359.869681	-1214.408167	602.012695	239.803543
12359.869681	-1214.408167	600.780273	-89.788849
12359.869681	-1214.408167	599.548828	0.820877
12359.869681	-1214.408167	598.316406	10.380506
12359.869681	-1214.408167	597.083984	329.333649
12359.869681	-1214.408167	595.851563	34.514988
12359.869681	-1214.408167	594.618164	-193.876785
12359.869681	-1214.408167	593.384766	12.172163
12359.869681	-1214.408167	592.151367	41.556145
12359.869681	-1214.408167	590.917969	88.148003
12359.869681	-1214.408167	589.683594	-76.111229
12359.869681	-1214.408167	588.449219	12.268742
12359.869681	-1214.408167	587.214844	-115.021858
12359.869681	-1214.408167	585.979492	88.621262
12359.869681	-1214.408167	584.745117	150.148163
12359.869681	-1214.408167	583.509766	-28.337782
12359.869681	-1214.408167	582.273438	-201.783859
12359.869681	-1214.408167	581.038086	-44.538212
12359.869681	-1214.408167	579.801758	-48.848679
12359.869681	-1214.408167	578.565430	-23.710762
12359.869681	-1214.408167	577.329102	72.459305
12359.869681	-1214.408167	576.091797	-95.538391
12359.869681	-1214.408167	574.854492	-160.650742
12359.869681	-1214.408167	573.617188	229.181580
12359.869681	-1214.408167	572.378906	156.873108
12359.869681	-1214.408167	571.141602	-132.844437
12359.869681	-1214.408167	569.903320	147.048767
12359.869681	-1214.408167	568.664063	-122.805748
12359.869681	-1214.408167	567.425781	-128.625046
12359.869681	-1214.408167	566.186523	-80.610535
12359.869681	-1214.408167	564.947266	67.600670
12359.869681	-1214.408167	563.708008	-57.546516
12359.869681	-1214.408167	562.467773	59.091480
12359.869681	-1214.408167	561.227539	146.515884
12359.869681	-1214.408167	559.987305	175.473282
12359.869681	-1214.408167	558.747070	143.563721
12359.869681	-1214.408167	557.505859	187.384186
12359.869681	-1214.408167	556.264648	-46.620296
12359.869681	-1214.408167	555.023438	-26.895672
12359.869681	-1214.408167	553.781250	-102.092819
12359.869681	-1214.408167	552.539063	90.885216
12359.869681	-1214.408167	551.296875	76.864807
12359.869681	-1214.408167	550.054688	-41.733967
12359.869681	-1214.408167	548.811523	37.082802
12359.869681	-1214.408167	547.569336	264.506378
12359.869681	-1214.408167	546.325195	-41.037140
12359.869681	-1214.408167	545.082031	-183.267868
12359.869681	-1214.408167	543.837891	-281.500458
12359.869681	-1214.408167	542.593750	350.141937
12359.869681	-1214.408167	541.349609	120.827034
12359.869681	-1214.408167	540.105469	183.512527
12359.869681	-1214.408167	538.860352	39.714268
12359.869681	-1214.408167	537.615234	58.959721
12359.869681	-1214.408167	536.369141	-52.847466
12359.869681	-1214.408167	535.124023	-64.849197
12359.869681	-1214.408167	533.877930	49.603161
12359.869681	-1214.408167	532.631836	-44.646374
12359.869681	-1214.408167	531.384766	43.378292
12359.869681	-1214.408167	530.138672	19.885435
12359.869681	-1214.408167	528.891602	35.394466
12359.869681	-1214.408167	527.643555	220.886047
12359.869681	-1214.408167	526.396484	11.109366
12359.869681	-1214.408167	525.148438	-57.758457
12359.869681	-1214.408167	523.900391	278.458984
12359.869681	-1214.408167	522.652344	115.369453
12359.869681	-1214.408167	521.403320	88.233444
12359.869681	-1214.408167	520.154297	211.500061
12359.869681	-1214.408167	518.905273	121.715164
12359.869681	-1214.408167	517.656250	63.624714
12359.869681	-1214.408167	516.406250	146.167953
12359.869681	-1214.408167	515.156250	233.689407
12359.869681	-1214.408167	513.906250	253.575226
12359.869681	-1214.408167	512.655273	276.042999
12359.869681	-1214.408167	511.404297	424.472473
12359.869681	-1214.408167	510.153320	505.281677
12359.869681	-1214.408167	508.902344	225.906937
12359.869681	-1214.408167	507.650391	265.958282
12359.869681	-1214.408167	506.398438	361.752869
12359.869681	-1214.408167	505.146484	346.501923
12359.869681	-1214.408167	503.893555	471.559540
12359.869681	-1214.408167	502.641602	227.129089
12359.869681	-1214.408167	501.388672	383.871460
12359.869681	-1214.408167	500.134766	337.880310
12359.869681	-1214.408167	498.881836	352.410553
12359.869681	-1214.408167	497.627930	429.839966
12359.869681	-1214.408167	496.374023	606.318176
12359.869681	-1214.408167	495.119141	331.728973
12359.869681	-1214.408167	493.865234	508.439758
12359.869681	-1214.408167	492.610352	680.390869
12359.869681	-1214.408167	491.355469	688.458252
12359.869681	-1214.408167	490.099609	583.365967
12359.869681	-1214.408167	488.843750	707.387695
12359.869681	-1214.408167	487.587891	867.618530
12359.869681	-1214.408167	486.332031	830.370178
12359.869681	-1214.408167	485.075195	617.444336
12359.869681	-1214.408167	483.818359	900.732422
12359.869681	-1214.408167	482.561523	750.682068
12359.869681	-1214.408167	481.304688	1156.764038
12359.869681	-1214.408167	480.046875	980.445313
12359.869681	-1214.408167	478.789063	1092.977295
12359.869681	-1214.408167	477.531250	1159.839600
12359.869681	-1214.408167	476.272461	1027.156860
12359.869681	-1214.408167	475.013672	1144.632446
12359.869681	-1214.408167	473.754883	899.155334
12359.869681	-1214.408167	472.496094	918.182556
12359.869681	-1214.408167	471.236328	1047.769165
12359.869681	-1214.408167	469.976563	1155.711060
12359.869681	-1214.408167	468.716797	1414.932861
12359.869681	-1214.408167	467.456055	1453.160645
12359.869681	-1214.408167	466.196289	1244.112183
12359.869681	-1214.408167	464.935547	1299.161987
12359.869681	-1214.408167	463.673828	1562.936523
12359.869681	-1214.408167	462.413086	1421.133057
12359.869681	-1214.408167	461.151367	1802.232178
12359.869681	-1214.408167	459.889648	1442.144043
12359.869681	-1214.408167	458.626953	1448.966919
12359.869681	-1214.408167	457.364258	1592.342285
12359.869681	-1214.408167	456.101563	1680.455322
12359.869681	-1214.408167	454.838867	1605.511841
12359.869681	-1214.408167	453.575195	1587.983154
12359.869681	-1214.408167	452.312500	1364.376709
12359.869681	-1214.408167	451.047852	1485.524536
12359.869681	-1214.408167	449.784180	1436.501587
12359.869681	-1214.408167	448.519531	1528.540894
12359.869681	-1214.408167	447.254883	1780.677734
12359.869681	-1214.408167	445.990234	1723.900269
12359.869681	-1214.408167	444.725586	1707.592407
12359.869681	-1214.408167	443.459961	1564.326538
12359.869681	-1214.408167	442.194336	1903.800659
12359.869681	-1214.408167	440.927734	1829.356934
12359.869681	-1214.408167	439.662109	1998.403320
12359.869681	-1214.408167	438.395508	1877.984619
12359.869681	-1214.408167	437.127930	1845.674438
12359.869681	-1214.408167	435.861328	1610.038940
12359.869681	-1214.408167	434.593750	1753.773926
12359.869681	-1214.408167	433.326172	1877.963867
12359.869681	-1214.408167	432.058594	2156.819824
12359.869681	-1214.408167	430.790039	2029.489990
12359.869681	-1214.408167	429.521484	2123.618652
12359.869681	-1214.408167	428.252930	2002.572876
12359.869681	-1214.408167	426.984375	1871.540161
12359.869681	-1214.408167	425.714844	2071.414551
12359.869681	-1214.408167	424.445313	2032.298096
12359.869681	-1214.408167	423.174805	2226.151611
12359.869681	-1214.408167	421.905273	2347.840820
12359.869681	-1214.408167	420.634766	1951.959351
12359.869681	-1214.408167	419.364258	2203.338867
12359.869681	-1214.408167	418.092773	2149.155518
12359.869681	-1214.408167	416.822266	2072.855469
12359.869681	-1214.408167	415.550781	2326.639648
12359.869681	-1214.408167	414.278320	2063.200928
12359.869681	-1214.408167	413.006836	1877.571777
12359.869681	-1214.408167	411.734375	2181.106445
12359.869681	-1214.408167	410.461914	2264.871826
12359.869681	-1214.408167	409.188477	2281.113037
12359.869681	-1214.408167	407.916016	2258.376953
12359.869681	-1214.408167	406.642578	2310.700195
12359.869681	-1214.408167	405.368164	2233.676025
12359.869681	-1214.408167	404.094727	2027.374390
12359.869681	-1214.408167	402.820313	2494.475830
12359.869681	-1214.408167	401.545898	2224.233887
12359.869681	-1214.408167	400.270508	2249.630859
12359.869681	-1214.408167	398.996094	2269.066162
12359.869681	-1214.408167	397.720703	2106.895752
12359.869681	-1214.408167	396.444336	2394.187744
12359.869681	-1214.408167	395.168945	2476.064453
12359.869681	-1214.408167	393.892578	2286.188721
12359.869681	-1214.408167	392.616211	2296.463135
12359.869681	-1214.408167	391.339844	2103.791748
12359.869681	-1214.408167	390.062500	2284.044678
12359.869681	-1214.408167	388.785156	2152.295166
12359.869681	-1214.408167	387.507813	2502.156738
12359.869681	-1214.408167	386.229492	2310.252930
12359.869681	-1214.408167	384.951172	2182.989014
12359.869681	-1214.408167	383.672852	2181.816162
12359.869681	-1214.408167	382.394531	2230.871094
12359.869681	-1214.408167	381.115234	2327.666260
12359.869681	-1214.408167	379.835938	2259.254395
12359.869681	-1214.408167	378.556641	2373.332031
12359.869681	-1214.408167	377.277344	2279.592773
12359.869681	-1214.408167	375.997070	2245.196289
12359.869681	-1214.408167	374.716797	2267.714600
12359.869681	-1214.408167	373.435547	2186.335205
12359.869681	-1214.408167	372.155273	2497.236816
12359.869681	-1214.408167	370.874023	2311.961182
12359.869681	-1214.408167	369.591797	2235.263672
12359.869681	-1214.408167	368.310547	2215.162354
12359.869681	-1214.408167	367.028320	2197.166748
12359.869681	-1214.408167	365.746094	2244.969482
12359.869681	-1214.408167	364.463867	2120.170410
12359.869681	-1214.408167	363.180664	2275.636475
12359.869681	-1214.408167	361.897461	2164.048828
12359.869681	-1214.408167	360.614258	2117.950439
12359.869681	-1214.408167	359.330078	2047.584473
12359.869681	-1214.408167	358.045898	1990.655884
12359.869681	-1214.408167	356.761719	2010.693604
12359.869681	-1214.408167	355.477539	1900.270264
12359.869681	-1214.408167	354.192383	2036.141113
12359.869681	-1214.408167	352.907227	1857.721924
12359.869681	-1214.408167	351.622070	1760.633667
12359.869681	-1214.408167	350.336914	1827.109253
12359.869681	-1214.408167	349.050781	1955.689941
12359.869681	-1214.408167	347.764648	1619.339111
12359.869681	-1214.408167	346.477539	1305.063599
12359.869681	-1214.408167	345.191406	1313.937866
12359.869681	-1214.408167	343.904297	1581.993896
12359.869681	-1214.408167	342.616211	1298.016113
12359.869681	-1214.408167	341.329102	1447.131470
12359.869681	-1214.408167	340.041016	1366.186279
12359.869681	-1214.408167	338.752930	1353.660645
12359.869681	-1214.408167	337.463867	1181.484985
12359.869681	-1214.408167	336.175781	943.802063
12359.869681	-1214.408167	334.886719	997.139221
12359.869681	-1214.408167	333.596680	834.240662
12359.869681	-1214.408167	332.307617	896.514832
12359.869681	-1214.408167	331.017578	923.055969
12359.869681	-1214.408167	329.727539	651.203918
12359.869681	-1214.408167	328.436523	779.692322
12359.869681	-1214.408167	327.146484	715.275452
12359.869681	-1214.408167	325.855469	708.479553
12359.869681	-1214.408167	324.563477	611.497009
12359.869681	-1214.408167	323.272461	586.222290
12359.869681	-1214.408167	321.980469	688.392700
12359.869681	-1214.408167	320.688477	276.280762
12359.869681	-1214.408167	319.395508	153.007736
12359.869681	-1214.408167	318.103516	23.638508
12359.869681	-1214.408167	316.810547	112.375671
12359.869681	-1214.408167	315.516602	304.270691
12359.869681	-1214.408167	314.223633	-1.714051
12359.869681	-1214.408167	312.929688	-59.694832
12359.869681	-1214.408167	311.635742	352.343567
12359.869681	-1214.408167	310.340820	-220.343964
12359.869681	-1214.408167	309.045898	-96.578308
12359.869681	-1214.408167	307.750977	14.998199
12359.869681	-1214.408167	306.456055	-147.413254
12359.869681	-1214.408167	305.160156	-53.806084
12359.869681	-1214.408167	303.865234	-42.661175
12359.869681	-1214.408167	302.568359	-124.119614
12359.869681	-1214.408167	301.272461	-12.814244
12359.869681	-1214.408167	299.975586	666.205200
12359.869681	-1214.408167	298.678711	433.410156
