#X		#Y		#Wave		#Intensity
12358.423617	-1213.673667	1999.980469	-152.420395
12358.423617	-1213.673667	1999.016602	-236.456787
12358.423617	-1213.673667	1998.052734	-101.984489
12358.423617	-1213.673667	1997.087891	-347.967255
12358.423617	-1213.673667	1996.123047	170.508667
12358.423617	-1213.673667	1995.158203	291.241760
12358.423617	-1213.673667	1994.193359	-82.104988
12358.423617	-1213.673667	1993.228516	-174.144653
12358.423617	-1213.673667	1992.262695	116.524689
12358.423617	-1213.673667	1991.297852	-32.128727
12358.423617	-1213.673667	1990.332031	-25.822416
12358.423617	-1213.673667	1989.366211	162.595352
12358.423617	-1213.673667	1988.399414	112.486664
12358.423617	-1213.673667	1987.433594	261.805847
12358.423617	-1213.673667	1986.466797	7.065120
12358.423617	-1213.673667	1985.500977	260.895081
12358.423617	-1213.673667	1984.534180	81.164436
12358.423617	-1213.673667	1983.567383	194.816055
12358.423617	-1213.673667	1982.599609	154.423859
12358.423617	-1213.673667	1981.632813	273.880615
12358.423617	-1213.673667	1980.665039	439.497345
12358.423617	-1213.673667	1979.697266	102.958122
12358.423617	-1213.673667	1978.729492	274.558533
12358.423617	-1213.673667	1977.761719	99.782990
12358.423617	-1213.673667	1976.792969	-117.524818
12358.423617	-1213.673667	1975.825195	103.945061
12358.423617	-1213.673667	1974.856445	457.994080
12358.423617	-1213.673667	1973.887695	234.041565
12358.423617	-1213.673667	1972.918945	308.094666
12358.423617	-1213.673667	1971.949219	263.220184
12358.423617	-1213.673667	1970.980469	380.604156
12358.423617	-1213.673667	1970.010742	125.206039
12358.423617	-1213.673667	1969.041016	244.097763
12358.423617	-1213.673667	1968.071289	475.867950
12358.423617	-1213.673667	1967.101563	411.466095
12358.423617	-1213.673667	1966.130859	161.922104
12358.423617	-1213.673667	1965.161133	57.412827
12358.423617	-1213.673667	1964.190430	245.616241
12358.423617	-1213.673667	1963.219727	374.315063
12358.423617	-1213.673667	1962.249023	377.093140
12358.423617	-1213.673667	1961.277344	652.742126
12358.423617	-1213.673667	1960.306641	295.600189
12358.423617	-1213.673667	1959.334961	334.404358
12358.423617	-1213.673667	1958.363281	-94.430374
12358.423617	-1213.673667	1957.391602	140.667984
12358.423617	-1213.673667	1956.419922	328.726074
12358.423617	-1213.673667	1955.447266	482.068634
12358.423617	-1213.673667	1954.474609	300.866028
12358.423617	-1213.673667	1953.501953	321.055786
12358.423617	-1213.673667	1952.529297	14.270479
12358.423617	-1213.673667	1951.556641	198.753540
12358.423617	-1213.673667	1950.583984	314.244141
12358.423617	-1213.673667	1949.610352	247.819626
12358.423617	-1213.673667	1948.636719	230.397232
12358.423617	-1213.673667	1947.663086	97.488518
12358.423617	-1213.673667	1946.689453	124.053886
12358.423617	-1213.673667	1945.715820	368.904968
12358.423617	-1213.673667	1944.741211	292.175446
12358.423617	-1213.673667	1943.767578	122.199348
12358.423617	-1213.673667	1942.792969	94.453560
12358.423617	-1213.673667	1941.818359	191.716980
12358.423617	-1213.673667	1940.842773	14.311282
12358.423617	-1213.673667	1939.868164	8.520815
12358.423617	-1213.673667	1938.892578	71.313042
12358.423617	-1213.673667	1937.916992	146.311554
12358.423617	-1213.673667	1936.941406	81.633728
12358.423617	-1213.673667	1935.965820	21.873222
12358.423617	-1213.673667	1934.990234	-52.556301
12358.423617	-1213.673667	1934.013672	15.047529
12358.423617	-1213.673667	1933.037109	9.205378
12358.423617	-1213.673667	1932.060547	71.917992
12358.423617	-1213.673667	1931.083984	137.080368
12358.423617	-1213.673667	1930.107422	21.212275
12358.423617	-1213.673667	1929.129883	22.829370
12358.423617	-1213.673667	1928.153320	342.435120
12358.423617	-1213.673667	1927.175781	155.812439
12358.423617	-1213.673667	1926.198242	199.120621
12358.423617	-1213.673667	1925.219727	39.591385
12358.423617	-1213.673667	1924.242188	29.269753
12358.423617	-1213.673667	1923.263672	-105.596947
12358.423617	-1213.673667	1922.285156	33.266590
12358.423617	-1213.673667	1921.306641	103.768585
12358.423617	-1213.673667	1920.328125	66.879555
12358.423617	-1213.673667	1919.349609	232.739731
12358.423617	-1213.673667	1918.370117	-16.365402
12358.423617	-1213.673667	1917.391602	-9.008760
12358.423617	-1213.673667	1916.412109	-57.691322
12358.423617	-1213.673667	1915.431641	335.322327
12358.423617	-1213.673667	1914.452148	72.137817
12358.423617	-1213.673667	1913.472656	174.977325
12358.423617	-1213.673667	1912.492188	-31.794102
12358.423617	-1213.673667	1911.511719	-162.804749
12358.423617	-1213.673667	1910.531250	93.894417
12358.423617	-1213.673667	1909.550781	131.283539
12358.423617	-1213.673667	1908.569336	-96.819450
12358.423617	-1213.673667	1907.588867	-20.204340
12358.423617	-1213.673667	1906.607422	-201.686127
12358.423617	-1213.673667	1905.625977	-129.726822
12358.423617	-1213.673667	1904.644531	103.016190
12358.423617	-1213.673667	1903.662109	-192.449905
12358.423617	-1213.673667	1902.680664	-295.410980
12358.423617	-1213.673667	1901.698242	22.750063
12358.423617	-1213.673667	1900.715820	24.634319
12358.423617	-1213.673667	1899.733398	16.909863
12358.423617	-1213.673667	1898.750000	-214.439621
12358.423617	-1213.673667	1897.767578	123.399612
12358.423617	-1213.673667	1896.784180	62.529625
12358.423617	-1213.673667	1895.800781	-32.225143
12358.423617	-1213.673667	1894.817383	18.984381
12358.423617	-1213.673667	1893.833984	-39.043625
12358.423617	-1213.673667	1892.850586	-281.556030
12358.423617	-1213.673667	1891.866211	-225.123810
12358.423617	-1213.673667	1890.881836	-243.872925
12358.423617	-1213.673667	1889.897461	-204.234161
12358.423617	-1213.673667	1888.913086	-300.429382
12358.423617	-1213.673667	1887.927734	35.519241
12358.423617	-1213.673667	1886.943359	-281.275604
12358.423617	-1213.673667	1885.958008	-224.229996
12358.423617	-1213.673667	1884.972656	126.399925
12358.423617	-1213.673667	1883.987305	-88.055466
12358.423617	-1213.673667	1883.001953	83.202858
12358.423617	-1213.673667	1882.015625	-206.112717
12358.423617	-1213.673667	1881.029297	-61.356781
12358.423617	-1213.673667	1880.042969	-144.349655
12358.423617	-1213.673667	1879.056641	53.842133
12358.423617	-1213.673667	1878.070313	-55.596046
12358.423617	-1213.673667	1877.083984	-186.695679
12358.423617	-1213.673667	1876.096680	118.216675
12358.423617	-1213.673667	1875.109375	-17.530987
12358.423617	-1213.673667	1874.122070	-15.165667
12358.423617	-1213.673667	1873.134766	127.651978
12358.423617	-1213.673667	1872.146484	-31.968962
12358.423617	-1213.673667	1871.159180	-31.775671
12358.423617	-1213.673667	1870.170898	-12.156841
12358.423617	-1213.673667	1869.182617	-130.318558
12358.423617	-1213.673667	1868.194336	5.515752
12358.423617	-1213.673667	1867.205078	-363.882568
12358.423617	-1213.673667	1866.216797	103.208961
12358.423617	-1213.673667	1865.227539	-174.111511
12358.423617	-1213.673667	1864.238281	-383.615112
12358.423617	-1213.673667	1863.249023	20.589775
12358.423617	-1213.673667	1862.259766	-58.339695
12358.423617	-1213.673667	1861.269531	10.108179
12358.423617	-1213.673667	1860.279297	-90.420158
12358.423617	-1213.673667	1859.290039	171.211731
12358.423617	-1213.673667	1858.298828	-131.945114
12358.423617	-1213.673667	1857.308594	163.456345
12358.423617	-1213.673667	1856.318359	-79.195274
12358.423617	-1213.673667	1855.327148	322.281708
12358.423617	-1213.673667	1854.335938	127.984474
12358.423617	-1213.673667	1853.344727	49.519184
12358.423617	-1213.673667	1852.353516	-209.691605
12358.423617	-1213.673667	1851.362305	-27.717531
12358.423617	-1213.673667	1850.370117	28.896561
12358.423617	-1213.673667	1849.377930	177.056213
12358.423617	-1213.673667	1848.385742	103.556961
12358.423617	-1213.673667	1847.393555	-39.749001
12358.423617	-1213.673667	1846.401367	-16.849352
12358.423617	-1213.673667	1845.408203	-97.480347
12358.423617	-1213.673667	1844.415039	117.980247
12358.423617	-1213.673667	1843.421875	107.134567
12358.423617	-1213.673667	1842.428711	-4.770686
12358.423617	-1213.673667	1841.435547	-104.617744
12358.423617	-1213.673667	1840.441406	74.558266
12358.423617	-1213.673667	1839.448242	-49.348354
12358.423617	-1213.673667	1838.454102	-98.701454
12358.423617	-1213.673667	1837.459961	87.519669
12358.423617	-1213.673667	1836.464844	167.887222
12358.423617	-1213.673667	1835.470703	-150.694519
12358.423617	-1213.673667	1834.475586	64.160400
12358.423617	-1213.673667	1833.480469	151.588058
12358.423617	-1213.673667	1832.485352	106.850815
12358.423617	-1213.673667	1831.490234	88.500099
12358.423617	-1213.673667	1830.495117	221.349091
12358.423617	-1213.673667	1829.499023	-77.948181
12358.423617	-1213.673667	1828.502930	93.170380
12358.423617	-1213.673667	1827.506836	182.588303
12358.423617	-1213.673667	1826.510742	84.798500
12358.423617	-1213.673667	1825.513672	293.976318
12358.423617	-1213.673667	1824.517578	313.570190
12358.423617	-1213.673667	1823.520508	203.617462
12358.423617	-1213.673667	1822.523438	129.586990
12358.423617	-1213.673667	1821.526367	525.243225
12358.423617	-1213.673667	1820.529297	103.579285
12358.423617	-1213.673667	1819.531250	58.111958
12358.423617	-1213.673667	1818.533203	201.802612
12358.423617	-1213.673667	1817.535156	201.659988
12358.423617	-1213.673667	1816.537109	88.890137
12358.423617	-1213.673667	1815.539063	351.910065
12358.423617	-1213.673667	1814.540039	-24.322329
12358.423617	-1213.673667	1813.541992	341.319183
12358.423617	-1213.673667	1812.542969	58.331432
12358.423617	-1213.673667	1811.543945	138.944153
12358.423617	-1213.673667	1810.543945	-5.404544
12358.423617	-1213.673667	1809.544922	175.396835
12358.423617	-1213.673667	1808.544922	226.908890
12358.423617	-1213.673667	1807.544922	328.479065
12358.423617	-1213.673667	1806.544922	-31.350336
12358.423617	-1213.673667	1805.544922	-20.810434
12358.423617	-1213.673667	1804.544922	187.877457
12358.423617	-1213.673667	1803.543945	303.203613
12358.423617	-1213.673667	1802.542969	179.549454
12358.423617	-1213.673667	1801.541992	218.164459
12358.423617	-1213.673667	1800.541016	41.786476
12358.423617	-1213.673667	1799.539063	89.676865
12358.423617	-1213.673667	1798.538086	1.397436
12358.423617	-1213.673667	1797.536133	39.449837
12358.423617	-1213.673667	1796.534180	182.292648
12358.423617	-1213.673667	1795.532227	84.062332
12358.423617	-1213.673667	1794.529297	7.170152
12358.423617	-1213.673667	1793.527344	35.056458
12358.423617	-1213.673667	1792.524414	248.682617
12358.423617	-1213.673667	1791.521484	42.650711
12358.423617	-1213.673667	1790.518555	339.269257
12358.423617	-1213.673667	1789.514648	397.388458
12358.423617	-1213.673667	1788.511719	119.508942
12358.423617	-1213.673667	1787.507813	279.711884
12358.423617	-1213.673667	1786.503906	18.281937
12358.423617	-1213.673667	1785.500000	137.639206
12358.423617	-1213.673667	1784.496094	-81.167290
12358.423617	-1213.673667	1783.491211	140.127930
12358.423617	-1213.673667	1782.486328	6.689284
12358.423617	-1213.673667	1781.481445	-0.811039
12358.423617	-1213.673667	1780.476563	253.103912
12358.423617	-1213.673667	1779.471680	216.666962
12358.423617	-1213.673667	1778.465820	58.814869
12358.423617	-1213.673667	1777.460938	364.316071
12358.423617	-1213.673667	1776.455078	141.967285
12358.423617	-1213.673667	1775.449219	76.323097
12358.423617	-1213.673667	1774.442383	172.030670
12358.423617	-1213.673667	1773.436523	288.897125
12358.423617	-1213.673667	1772.429688	65.966019
12358.423617	-1213.673667	1771.422852	-111.966942
12358.423617	-1213.673667	1770.416016	73.134232
12358.423617	-1213.673667	1769.409180	89.477455
12358.423617	-1213.673667	1768.402344	240.862488
12358.423617	-1213.673667	1767.394531	116.800758
12358.423617	-1213.673667	1766.386719	229.766846
12358.423617	-1213.673667	1765.378906	138.554779
12358.423617	-1213.673667	1764.371094	-379.580414
12358.423617	-1213.673667	1763.362305	74.145592
12358.423617	-1213.673667	1762.354492	254.960495
12358.423617	-1213.673667	1761.345703	248.298813
12358.423617	-1213.673667	1760.336914	298.294739
12358.423617	-1213.673667	1759.328125	416.756287
12358.423617	-1213.673667	1758.318359	40.006062
12358.423617	-1213.673667	1757.308594	51.499294
12358.423617	-1213.673667	1756.299805	-50.833363
12358.423617	-1213.673667	1755.290039	180.376114
12358.423617	-1213.673667	1754.279297	16.089666
12358.423617	-1213.673667	1753.269531	140.314316
12358.423617	-1213.673667	1752.258789	285.559631
12358.423617	-1213.673667	1751.249023	56.880375
12358.423617	-1213.673667	1750.238281	-110.456741
12358.423617	-1213.673667	1749.226563	-36.811817
12358.423617	-1213.673667	1748.215820	372.252075
12358.423617	-1213.673667	1747.204102	308.287720
12358.423617	-1213.673667	1746.193359	263.057159
12358.423617	-1213.673667	1745.181641	151.471802
12358.423617	-1213.673667	1744.168945	214.482361
12358.423617	-1213.673667	1743.157227	-166.673218
12358.423617	-1213.673667	1742.144531	339.815887
12358.423617	-1213.673667	1741.132813	281.752930
12358.423617	-1213.673667	1740.120117	67.719490
12358.423617	-1213.673667	1739.106445	-92.185051
12358.423617	-1213.673667	1738.093750	96.933716
12358.423617	-1213.673667	1737.080078	42.806744
12358.423617	-1213.673667	1736.067383	269.143768
12358.423617	-1213.673667	1735.053711	153.282486
12358.423617	-1213.673667	1734.040039	74.974648
12358.423617	-1213.673667	1733.025391	-93.091713
12358.423617	-1213.673667	1732.011719	-148.171921
12358.423617	-1213.673667	1730.997070	-5.550778
12358.423617	-1213.673667	1729.982422	-94.038055
12358.423617	-1213.673667	1728.967773	-15.482627
12358.423617	-1213.673667	1727.952148	39.271549
12358.423617	-1213.673667	1726.937500	-191.042419
12358.423617	-1213.673667	1725.921875	-18.996149
12358.423617	-1213.673667	1724.906250	159.841949
12358.423617	-1213.673667	1723.890625	-89.814293
12358.423617	-1213.673667	1722.875000	119.147469
12358.423617	-1213.673667	1721.858398	-29.691835
12358.423617	-1213.673667	1720.841797	0.041716
12358.423617	-1213.673667	1719.825195	-146.766006
12358.423617	-1213.673667	1718.808594	77.683037
12358.423617	-1213.673667	1717.791992	172.589233
12358.423617	-1213.673667	1716.774414	-99.312859
12358.423617	-1213.673667	1715.756836	-42.406052
12358.423617	-1213.673667	1714.739258	94.142998
12358.423617	-1213.673667	1713.721680	89.546562
12358.423617	-1213.673667	1712.704102	-18.547501
12358.423617	-1213.673667	1711.685547	-312.262756
12358.423617	-1213.673667	1710.667969	-42.746407
12358.423617	-1213.673667	1709.649414	-29.317413
12358.423617	-1213.673667	1708.630859	-166.232086
12358.423617	-1213.673667	1707.611328	-207.128220
12358.423617	-1213.673667	1706.592773	0.424693
12358.423617	-1213.673667	1705.573242	8.387703
12358.423617	-1213.673667	1704.553711	-61.193897
12358.423617	-1213.673667	1703.534180	7.361272
12358.423617	-1213.673667	1702.513672	122.559319
12358.423617	-1213.673667	1701.494141	-273.208496
12358.423617	-1213.673667	1700.473633	-55.277481
12358.423617	-1213.673667	1699.453125	-6.234179
12358.423617	-1213.673667	1698.432617	133.946701
12358.423617	-1213.673667	1697.412109	79.585381
12358.423617	-1213.673667	1696.390625	-110.705315
12358.423617	-1213.673667	1695.369141	-163.013153
12358.423617	-1213.673667	1694.347656	18.519285
12358.423617	-1213.673667	1693.326172	-211.908722
12358.423617	-1213.673667	1692.304688	-26.078341
12358.423617	-1213.673667	1691.282227	-338.596100
12358.423617	-1213.673667	1690.260742	-234.955795
12358.423617	-1213.673667	1689.238281	-61.405807
12358.423617	-1213.673667	1688.214844	-114.799850
12358.423617	-1213.673667	1687.192383	212.580078
12358.423617	-1213.673667	1686.168945	-2.343223
12358.423617	-1213.673667	1685.146484	100.363686
12358.423617	-1213.673667	1684.123047	44.060631
12358.423617	-1213.673667	1683.099609	78.696999
12358.423617	-1213.673667	1682.075195	276.567719
12358.423617	-1213.673667	1681.051758	203.509628
12358.423617	-1213.673667	1680.027344	368.340668
12358.423617	-1213.673667	1679.002930	353.329224
12358.423617	-1213.673667	1677.978516	263.549866
12358.423617	-1213.673667	1676.953125	280.931885
12358.423617	-1213.673667	1675.928711	277.221558
12358.423617	-1213.673667	1674.903320	294.347168
12358.423617	-1213.673667	1673.877930	64.276947
12358.423617	-1213.673667	1672.852539	549.607117
12358.423617	-1213.673667	1671.826172	480.080963
12358.423617	-1213.673667	1670.800781	522.313110
12358.423617	-1213.673667	1669.774414	603.984863
12358.423617	-1213.673667	1668.748047	527.172424
12358.423617	-1213.673667	1667.721680	706.380310
12358.423617	-1213.673667	1666.694336	529.251892
12358.423617	-1213.673667	1665.667969	398.664490
12358.423617	-1213.673667	1664.640625	633.308350
12358.423617	-1213.673667	1663.613281	646.762146
12358.423617	-1213.673667	1662.585938	755.481750
12358.423617	-1213.673667	1661.557617	698.934387
12358.423617	-1213.673667	1660.530273	932.974731
12358.423617	-1213.673667	1659.501953	885.540527
12358.423617	-1213.673667	1658.473633	877.554565
12358.423617	-1213.673667	1657.444336	1018.175354
12358.423617	-1213.673667	1656.416016	919.404724
12358.423617	-1213.673667	1655.386719	778.759888
12358.423617	-1213.673667	1654.358398	858.744934
12358.423617	-1213.673667	1653.328125	1203.266724
12358.423617	-1213.673667	1652.298828	1238.869141
12358.423617	-1213.673667	1651.269531	1197.804443
12358.423617	-1213.673667	1650.239258	1263.410400
12358.423617	-1213.673667	1649.208984	1138.688721
12358.423617	-1213.673667	1648.178711	1122.982178
12358.423617	-1213.673667	1647.148438	1053.889038
12358.423617	-1213.673667	1646.117188	1550.509033
12358.423617	-1213.673667	1645.086914	1363.032471
12358.423617	-1213.673667	1644.055664	1697.065674
12358.423617	-1213.673667	1643.024414	1488.665161
12358.423617	-1213.673667	1641.992188	1683.420532
12358.423617	-1213.673667	1640.960938	1544.524658
12358.423617	-1213.673667	1639.928711	1470.470215
12358.423617	-1213.673667	1638.896484	1780.800171
12358.423617	-1213.673667	1637.864258	1711.302734
12358.423617	-1213.673667	1636.832031	1336.273804
12358.423617	-1213.673667	1635.798828	1669.490234
12358.423617	-1213.673667	1634.766602	1812.861938
12358.423617	-1213.673667	1633.733398	1676.221191
12358.423617	-1213.673667	1632.699219	1942.031860
12358.423617	-1213.673667	1631.666016	1805.399048
12358.423617	-1213.673667	1630.632813	2031.793213
12358.423617	-1213.673667	1629.598633	1915.960083
12358.423617	-1213.673667	1628.564453	2181.501465
12358.423617	-1213.673667	1627.530273	2153.490723
12358.423617	-1213.673667	1626.495117	2097.747803
12358.423617	-1213.673667	1625.460938	2217.602051
12358.423617	-1213.673667	1624.425781	2586.794922
12358.423617	-1213.673667	1623.390625	2295.532959
12358.423617	-1213.673667	1622.355469	2526.096680
12358.423617	-1213.673667	1621.319336	2878.880615
12358.423617	-1213.673667	1620.284180	2906.225586
12358.423617	-1213.673667	1619.248047	2802.056396
12358.423617	-1213.673667	1618.211914	3316.121094
12358.423617	-1213.673667	1617.174805	3380.294678
12358.423617	-1213.673667	1616.138672	3608.206787
12358.423617	-1213.673667	1615.101563	3898.284668
12358.423617	-1213.673667	1614.065430	3960.141846
12358.423617	-1213.673667	1613.027344	3918.267334
12358.423617	-1213.673667	1611.990234	3676.045410
12358.423617	-1213.673667	1610.953125	3864.710205
12358.423617	-1213.673667	1609.915039	3390.063232
12358.423617	-1213.673667	1608.876953	3313.996582
12358.423617	-1213.673667	1607.838867	3049.247314
12358.423617	-1213.673667	1606.800781	3261.101563
12358.423617	-1213.673667	1605.761719	3348.645996
12358.423617	-1213.673667	1604.723633	3256.790039
12358.423617	-1213.673667	1603.684570	3234.022461
12358.423617	-1213.673667	1602.644531	3459.692139
12358.423617	-1213.673667	1601.605469	3478.430664
12358.423617	-1213.673667	1600.566406	3648.971191
12358.423617	-1213.673667	1599.526367	3249.467529
12358.423617	-1213.673667	1598.486328	3555.708984
12358.423617	-1213.673667	1597.446289	3606.882080
12358.423617	-1213.673667	1596.405273	3359.466553
12358.423617	-1213.673667	1595.365234	3277.628418
12358.423617	-1213.673667	1594.324219	3253.299316
12358.423617	-1213.673667	1593.283203	3208.414551
12358.423617	-1213.673667	1592.242188	3698.467529
12358.423617	-1213.673667	1591.200195	3665.164795
12358.423617	-1213.673667	1590.159180	3570.055908
12358.423617	-1213.673667	1589.117188	3548.476074
12358.423617	-1213.673667	1588.075195	3451.326904
12358.423617	-1213.673667	1587.032227	3526.290283
12358.423617	-1213.673667	1585.990234	3578.438232
12358.423617	-1213.673667	1584.947266	3087.401855
12358.423617	-1213.673667	1583.904297	3061.911865
12358.423617	-1213.673667	1582.861328	3068.633789
12358.423617	-1213.673667	1581.818359	3006.754883
12358.423617	-1213.673667	1580.775391	2745.760742
12358.423617	-1213.673667	1579.731445	2716.267334
12358.423617	-1213.673667	1578.687500	2389.279053
12358.423617	-1213.673667	1577.643555	2213.637939
12358.423617	-1213.673667	1576.598633	2159.478271
12358.423617	-1213.673667	1575.554688	2334.326416
12358.423617	-1213.673667	1574.509766	1923.563477
12358.423617	-1213.673667	1573.464844	2130.681152
12358.423617	-1213.673667	1572.419922	2150.346191
12358.423617	-1213.673667	1571.374023	1799.736084
12358.423617	-1213.673667	1570.329102	2046.076660
12358.423617	-1213.673667	1569.283203	2157.608154
12358.423617	-1213.673667	1568.237305	2166.430664
12358.423617	-1213.673667	1567.191406	2323.909912
12358.423617	-1213.673667	1566.144531	2109.152100
12358.423617	-1213.673667	1565.098633	2408.504395
12358.423617	-1213.673667	1564.051758	2653.087158
12358.423617	-1213.673667	1563.004883	2683.159912
12358.423617	-1213.673667	1561.957031	3048.882568
12358.423617	-1213.673667	1560.910156	2752.903320
12358.423617	-1213.673667	1559.862305	2667.092041
12358.423617	-1213.673667	1558.814453	2656.770020
12358.423617	-1213.673667	1557.766602	2913.462646
12358.423617	-1213.673667	1556.718750	2629.849854
12358.423617	-1213.673667	1555.669922	2501.533447
12358.423617	-1213.673667	1554.621094	2562.632813
12358.423617	-1213.673667	1553.573242	2231.971436
12358.423617	-1213.673667	1552.523438	2578.256836
12358.423617	-1213.673667	1551.474609	2412.097656
12358.423617	-1213.673667	1550.424805	2528.585938
12358.423617	-1213.673667	1549.375000	2590.580078
12358.423617	-1213.673667	1548.325195	2584.455078
12358.423617	-1213.673667	1547.275391	2662.753906
12358.423617	-1213.673667	1546.225586	2588.759277
12358.423617	-1213.673667	1545.174805	2207.831055
12358.423617	-1213.673667	1544.124023	2236.718750
12358.423617	-1213.673667	1543.073242	2090.684326
12358.423617	-1213.673667	1542.022461	2022.235229
12358.423617	-1213.673667	1540.970703	1424.305786
12358.423617	-1213.673667	1539.919922	1206.430664
12358.423617	-1213.673667	1538.868164	902.489319
12358.423617	-1213.673667	1537.815430	926.046326
12358.423617	-1213.673667	1536.763672	847.613586
12358.423617	-1213.673667	1535.710938	699.012878
12358.423617	-1213.673667	1534.659180	1032.106689
12358.423617	-1213.673667	1533.606445	947.551636
12358.423617	-1213.673667	1532.552734	826.924133
12358.423617	-1213.673667	1531.500000	1142.313721
12358.423617	-1213.673667	1530.446289	1022.161560
12358.423617	-1213.673667	1529.393555	924.993713
12358.423617	-1213.673667	1528.338867	1027.654419
12358.423617	-1213.673667	1527.285156	876.557922
12358.423617	-1213.673667	1526.231445	750.701538
12358.423617	-1213.673667	1525.176758	1044.454224
12358.423617	-1213.673667	1524.122070	891.887451
12358.423617	-1213.673667	1523.067383	1029.645020
12358.423617	-1213.673667	1522.012695	716.790588
12358.423617	-1213.673667	1520.957031	984.102356
12358.423617	-1213.673667	1519.901367	712.621399
12358.423617	-1213.673667	1518.845703	599.975769
12358.423617	-1213.673667	1517.790039	397.084564
12358.423617	-1213.673667	1516.734375	316.731995
12358.423617	-1213.673667	1515.677734	315.843781
12358.423617	-1213.673667	1514.621094	758.602234
12358.423617	-1213.673667	1513.564453	355.545471
12358.423617	-1213.673667	1512.507813	90.844322
12358.423617	-1213.673667	1511.450195	120.405830
12358.423617	-1213.673667	1510.393555	274.547852
12358.423617	-1213.673667	1509.335938	178.021194
12358.423617	-1213.673667	1508.278320	-46.997360
12358.423617	-1213.673667	1507.219727	40.073895
12358.423617	-1213.673667	1506.162109	305.816376
12358.423617	-1213.673667	1505.103516	634.935852
12358.423617	-1213.673667	1504.044922	837.756409
12358.423617	-1213.673667	1502.986328	476.444855
12358.423617	-1213.673667	1501.926758	675.226501
12358.423617	-1213.673667	1500.868164	1000.562988
12358.423617	-1213.673667	1499.808594	1001.176086
12358.423617	-1213.673667	1498.749023	1053.933472
12358.423617	-1213.673667	1497.688477	1492.541870
12358.423617	-1213.673667	1496.628906	1529.939209
12358.423617	-1213.673667	1495.568359	1515.739990
12358.423617	-1213.673667	1494.507813	1817.335938
12358.423617	-1213.673667	1493.447266	1817.147583
12358.423617	-1213.673667	1492.386719	1837.509155
12358.423617	-1213.673667	1491.325195	2036.066284
12358.423617	-1213.673667	1490.263672	2142.489258
12358.423617	-1213.673667	1489.202148	2089.291748
12358.423617	-1213.673667	1488.140625	1487.146240
12358.423617	-1213.673667	1487.079102	1560.681763
12358.423617	-1213.673667	1486.016602	1715.464966
12358.423617	-1213.673667	1484.954102	1775.974976
12358.423617	-1213.673667	1483.891602	1492.610596
12358.423617	-1213.673667	1482.829102	1652.643433
12358.423617	-1213.673667	1481.765625	1527.353760
12358.423617	-1213.673667	1480.702148	1155.139771
12358.423617	-1213.673667	1479.638672	1351.925293
12358.423617	-1213.673667	1478.575195	1247.813965
12358.423617	-1213.673667	1477.511719	1096.889526
12358.423617	-1213.673667	1476.447266	1150.683838
12358.423617	-1213.673667	1475.382813	1108.148071
12358.423617	-1213.673667	1474.318359	1216.291992
12358.423617	-1213.673667	1473.253906	1288.818359
12358.423617	-1213.673667	1472.189453	1363.793701
12358.423617	-1213.673667	1471.124023	1310.963623
12358.423617	-1213.673667	1470.058594	1357.207642
12358.423617	-1213.673667	1468.993164	1157.048950
12358.423617	-1213.673667	1467.927734	1300.133667
12358.423617	-1213.673667	1466.861328	1121.083618
12358.423617	-1213.673667	1465.794922	1255.569946
12358.423617	-1213.673667	1464.728516	1298.504517
12358.423617	-1213.673667	1463.662109	1230.025513
12358.423617	-1213.673667	1462.594727	1145.703003
12358.423617	-1213.673667	1461.528320	859.236023
12358.423617	-1213.673667	1460.460938	972.698486
12358.423617	-1213.673667	1459.393555	1126.654541
12358.423617	-1213.673667	1458.326172	996.849670
12358.423617	-1213.673667	1457.257813	1097.897949
12358.423617	-1213.673667	1456.189453	789.514893
12358.423617	-1213.673667	1455.121094	1109.901123
12358.423617	-1213.673667	1454.052734	815.944641
12358.423617	-1213.673667	1452.984375	620.605896
12358.423617	-1213.673667	1451.915039	466.577972
12358.423617	-1213.673667	1450.845703	600.782166
12358.423617	-1213.673667	1449.776367	456.131775
12358.423617	-1213.673667	1448.707031	364.479645
12358.423617	-1213.673667	1447.636719	438.316742
12358.423617	-1213.673667	1446.567383	371.881714
12358.423617	-1213.673667	1445.497070	390.137939
12358.423617	-1213.673667	1444.425781	292.788513
12358.423617	-1213.673667	1443.355469	275.699371
12358.423617	-1213.673667	1442.285156	408.953674
12358.423617	-1213.673667	1441.213867	371.061371
12358.423617	-1213.673667	1440.142578	282.220184
12358.423617	-1213.673667	1439.070313	521.774475
12358.423617	-1213.673667	1437.999023	748.013306
12358.423617	-1213.673667	1436.926758	647.712585
12358.423617	-1213.673667	1435.854492	615.502502
12358.423617	-1213.673667	1434.782227	1014.016724
12358.423617	-1213.673667	1433.709961	818.107727
12358.423617	-1213.673667	1432.636719	965.689575
12358.423617	-1213.673667	1431.563477	166.951981
12358.423617	-1213.673667	1430.490234	215.280487
12358.423617	-1213.673667	1429.416992	181.316528
12358.423617	-1213.673667	1428.343750	347.262054
12358.423617	-1213.673667	1427.269531	360.164978
12358.423617	-1213.673667	1426.195313	284.662903
12358.423617	-1213.673667	1425.121094	318.110077
12358.423617	-1213.673667	1424.046875	481.770874
12358.423617	-1213.673667	1422.971680	337.174438
12358.423617	-1213.673667	1421.896484	391.709412
12358.423617	-1213.673667	1420.821289	131.095123
12358.423617	-1213.673667	1419.746094	427.923981
12358.423617	-1213.673667	1418.669922	-85.586502
12358.423617	-1213.673667	1417.594727	153.327835
12358.423617	-1213.673667	1416.518555	82.828224
12358.423617	-1213.673667	1415.442383	-318.616241
12358.423617	-1213.673667	1414.365234	-83.787193
12358.423617	-1213.673667	1413.289063	61.624504
12358.423617	-1213.673667	1412.211914	-88.382294
12358.423617	-1213.673667	1411.134766	-182.282791
12358.423617	-1213.673667	1410.057617	79.681236
12358.423617	-1213.673667	1408.979492	171.959579
12358.423617	-1213.673667	1407.902344	-5.287327
12358.423617	-1213.673667	1406.824219	50.832031
12358.423617	-1213.673667	1405.746094	-6.098172
12358.423617	-1213.673667	1404.666992	206.314026
12358.423617	-1213.673667	1403.588867	-79.780540
12358.423617	-1213.673667	1402.509766	177.128479
12358.423617	-1213.673667	1401.430664	-302.945984
12358.423617	-1213.673667	1400.351563	-266.169708
12358.423617	-1213.673667	1399.271484	141.988892
12358.423617	-1213.673667	1398.192383	-191.891754
12358.423617	-1213.673667	1397.112305	-56.088478
12358.423617	-1213.673667	1396.031250	-299.407104
12358.423617	-1213.673667	1394.951172	-306.313446
12358.423617	-1213.673667	1393.871094	-150.373276
12358.423617	-1213.673667	1392.790039	-35.577377
12358.423617	-1213.673667	1391.708984	-176.360077
12358.423617	-1213.673667	1390.626953	-166.981369
12358.423617	-1213.673667	1389.545898	58.776531
12358.423617	-1213.673667	1388.463867	132.530396
12358.423617	-1213.673667	1387.381836	450.171265
12358.423617	-1213.673667	1386.299805	375.607391
12358.423617	-1213.673667	1385.217773	382.315399
12358.423617	-1213.673667	1384.134766	665.485535
12358.423617	-1213.673667	1383.051758	598.734619
12358.423617	-1213.673667	1381.968750	480.484497
12358.423617	-1213.673667	1380.885742	328.004730
12358.423617	-1213.673667	1379.802734	-53.780884
12358.423617	-1213.673667	1378.718750	137.461288
12358.423617	-1213.673667	1377.634766	63.288517
12358.423617	-1213.673667	1376.550781	432.116760
12358.423617	-1213.673667	1375.465820	-10.618314
12358.423617	-1213.673667	1374.381836	150.045929
12358.423617	-1213.673667	1373.296875	111.490768
12358.423617	-1213.673667	1372.211914	176.419052
12358.423617	-1213.673667	1371.126953	23.547499
12358.423617	-1213.673667	1370.041016	42.962864
12358.423617	-1213.673667	1368.955078	77.178055
12358.423617	-1213.673667	1367.869141	191.349197
12358.423617	-1213.673667	1366.783203	71.230042
12358.423617	-1213.673667	1365.697266	132.904434
12358.423617	-1213.673667	1364.610352	72.118042
12358.423617	-1213.673667	1363.523438	3.287268
12358.423617	-1213.673667	1362.436523	108.683418
12358.423617	-1213.673667	1361.349609	90.732086
12358.423617	-1213.673667	1360.261719	191.034958
12358.423617	-1213.673667	1359.174805	209.245636
12358.423617	-1213.673667	1358.086914	342.267029
12358.423617	-1213.673667	1356.998047	129.353241
12358.423617	-1213.673667	1355.910156	604.782043
12358.423617	-1213.673667	1354.821289	68.498100
12358.423617	-1213.673667	1353.732422	48.049324
12358.423617	-1213.673667	1352.643555	78.615158
12358.423617	-1213.673667	1351.554688	48.396538
12358.423617	-1213.673667	1350.464844	43.734505
12358.423617	-1213.673667	1349.375000	264.676422
12358.423617	-1213.673667	1348.285156	5.149769
12358.423617	-1213.673667	1347.195313	-118.470726
12358.423617	-1213.673667	1346.105469	-73.206802
12358.423617	-1213.673667	1345.014648	2.601502
12358.423617	-1213.673667	1343.923828	-387.606506
12358.423617	-1213.673667	1342.833008	-7.807625
12358.423617	-1213.673667	1341.741211	-138.726395
12358.423617	-1213.673667	1340.650391	-10.078596
12358.423617	-1213.673667	1339.558594	-215.586304
12358.423617	-1213.673667	1338.466797	-235.041183
12358.423617	-1213.673667	1337.374023	-234.374420
12358.423617	-1213.673667	1336.282227	-196.576035
12358.423617	-1213.673667	1335.189453	-49.757942
12358.423617	-1213.673667	1334.096680	-42.753258
12358.423617	-1213.673667	1333.003906	237.554901
12358.423617	-1213.673667	1331.910156	162.103058
12358.423617	-1213.673667	1330.817383	22.962690
12358.423617	-1213.673667	1329.723633	255.208374
12358.423617	-1213.673667	1328.629883	124.647141
12358.423617	-1213.673667	1327.535156	59.862309
12358.423617	-1213.673667	1326.441406	227.444260
12358.423617	-1213.673667	1325.346680	296.817810
12358.423617	-1213.673667	1324.251953	296.729095
12358.423617	-1213.673667	1323.156250	323.002014
12358.423617	-1213.673667	1322.061523	176.573959
12358.423617	-1213.673667	1320.965820	198.489502
12358.423617	-1213.673667	1319.870117	-13.942994
12358.423617	-1213.673667	1318.774414	197.879715
12358.423617	-1213.673667	1317.678711	111.396790
12358.423617	-1213.673667	1316.582031	293.352386
12358.423617	-1213.673667	1315.485352	311.357391
12358.423617	-1213.673667	1314.388672	38.265053
12358.423617	-1213.673667	1313.291016	81.436867
12358.423617	-1213.673667	1312.194336	32.234982
12358.423617	-1213.673667	1311.096680	254.246048
12358.423617	-1213.673667	1309.999023	217.510361
12358.423617	-1213.673667	1308.901367	171.695648
12358.423617	-1213.673667	1307.802734	168.237885
12358.423617	-1213.673667	1306.705078	8.289773
12358.423617	-1213.673667	1305.606445	80.366196
12358.423617	-1213.673667	1304.506836	223.269760
12358.423617	-1213.673667	1303.408203	220.354126
12358.423617	-1213.673667	1302.308594	116.517212
12358.423617	-1213.673667	1301.208984	249.552902
12358.423617	-1213.673667	1300.109375	409.330109
12358.423617	-1213.673667	1299.009766	361.063538
12358.423617	-1213.673667	1297.909180	579.947266
12358.423617	-1213.673667	1296.808594	380.939209
12358.423617	-1213.673667	1295.708008	437.007904
12358.423617	-1213.673667	1294.607422	592.684448
12358.423617	-1213.673667	1293.506836	806.630737
12358.423617	-1213.673667	1292.405273	896.978638
12358.423617	-1213.673667	1291.303711	794.924133
12358.423617	-1213.673667	1290.202148	746.838196
12358.423617	-1213.673667	1289.099609	448.936707
12358.423617	-1213.673667	1287.998047	593.879395
12358.423617	-1213.673667	1286.895508	574.363647
12358.423617	-1213.673667	1285.792969	177.206696
12358.423617	-1213.673667	1284.689453	401.015015
12358.423617	-1213.673667	1283.586914	389.573303
12358.423617	-1213.673667	1282.483398	258.280304
12358.423617	-1213.673667	1281.379883	53.072289
12358.423617	-1213.673667	1280.276367	414.414032
12358.423617	-1213.673667	1279.171875	413.537140
12358.423617	-1213.673667	1278.067383	389.161072
12358.423617	-1213.673667	1276.962891	116.371765
12358.423617	-1213.673667	1275.858398	134.606705
12358.423617	-1213.673667	1274.753906	94.352211
12358.423617	-1213.673667	1273.648438	135.898453
12358.423617	-1213.673667	1272.542969	-121.509567
12358.423617	-1213.673667	1271.437500	-43.010502
12358.423617	-1213.673667	1270.331055	-26.872789
12358.423617	-1213.673667	1269.225586	174.862442
12358.423617	-1213.673667	1268.119141	141.476654
12358.423617	-1213.673667	1267.012695	73.673935
12358.423617	-1213.673667	1265.906250	188.364548
12358.423617	-1213.673667	1264.798828	104.309280
12358.423617	-1213.673667	1263.691406	354.944794
12358.423617	-1213.673667	1262.583984	514.380554
12358.423617	-1213.673667	1261.476563	431.253479
12358.423617	-1213.673667	1260.368164	318.498108
12358.423617	-1213.673667	1259.260742	414.425446
12358.423617	-1213.673667	1258.152344	603.642700
12358.423617	-1213.673667	1257.043945	395.401337
12358.423617	-1213.673667	1255.934570	287.336884
12358.423617	-1213.673667	1254.825195	220.359039
12358.423617	-1213.673667	1253.716797	277.354156
12358.423617	-1213.673667	1252.606445	524.019592
12358.423617	-1213.673667	1251.497070	543.920227
12358.423617	-1213.673667	1250.387695	787.441711
12358.423617	-1213.673667	1249.277344	593.676636
12358.423617	-1213.673667	1248.166992	588.558289
12358.423617	-1213.673667	1247.055664	723.919373
12358.423617	-1213.673667	1245.945313	557.187378
12358.423617	-1213.673667	1244.833984	651.585815
12358.423617	-1213.673667	1243.722656	668.954590
12358.423617	-1213.673667	1242.611328	343.175079
12358.423617	-1213.673667	1241.499023	98.042511
12358.423617	-1213.673667	1240.387695	225.356125
12358.423617	-1213.673667	1239.275391	259.729584
12358.423617	-1213.673667	1238.162109	145.335052
12358.423617	-1213.673667	1237.049805	281.339294
12358.423617	-1213.673667	1235.936523	179.191650
12358.423617	-1213.673667	1234.823242	365.808807
12358.423617	-1213.673667	1233.709961	320.341644
12358.423617	-1213.673667	1232.596680	429.320068
12358.423617	-1213.673667	1231.482422	317.583862
12358.423617	-1213.673667	1230.369141	706.482361
12358.423617	-1213.673667	1229.253906	471.969330
12358.423617	-1213.673667	1228.139648	371.646912
12358.423617	-1213.673667	1227.025391	310.665497
12358.423617	-1213.673667	1225.910156	418.618500
12358.423617	-1213.673667	1224.794922	225.935181
12358.423617	-1213.673667	1223.679688	296.436493
12358.423617	-1213.673667	1222.563477	72.914970
12358.423617	-1213.673667	1221.447266	-1.104239
12358.423617	-1213.673667	1220.331055	79.918678
12358.423617	-1213.673667	1219.214844	2.380975
12358.423617	-1213.673667	1218.098633	94.386940
12358.423617	-1213.673667	1216.981445	-57.181423
12358.423617	-1213.673667	1215.864258	31.346109
12358.423617	-1213.673667	1214.747070	257.153961
12358.423617	-1213.673667	1213.629883	-129.049988
12358.423617	-1213.673667	1212.511719	21.143343
12358.423617	-1213.673667	1211.393555	9.959270
12358.423617	-1213.673667	1210.275391	175.529556
12358.423617	-1213.673667	1209.157227	64.111000
12358.423617	-1213.673667	1208.038086	140.440491
12358.423617	-1213.673667	1206.918945	-15.230801
12358.423617	-1213.673667	1205.799805	-102.321838
12358.423617	-1213.673667	1204.680664	68.586357
12358.423617	-1213.673667	1203.560547	-11.791089
12358.423617	-1213.673667	1202.441406	63.524803
12358.423617	-1213.673667	1201.321289	13.078449
12358.423617	-1213.673667	1200.200195	-191.719208
12358.423617	-1213.673667	1199.080078	-180.484268
12358.423617	-1213.673667	1197.958984	-7.317356
12358.423617	-1213.673667	1196.837891	-5.421405
12358.423617	-1213.673667	1195.716797	-209.471039
12358.423617	-1213.673667	1194.594727	79.328316
12358.423617	-1213.673667	1193.473633	-6.036777
12358.423617	-1213.673667	1192.351563	-70.529198
12358.423617	-1213.673667	1191.229492	272.039368
12358.423617	-1213.673667	1190.106445	28.836166
12358.423617	-1213.673667	1188.984375	159.745193
12358.423617	-1213.673667	1187.861328	-84.820267
12358.423617	-1213.673667	1186.738281	81.117676
12358.423617	-1213.673667	1185.614258	-73.488914
12358.423617	-1213.673667	1184.491211	-200.325455
12358.423617	-1213.673667	1183.367188	-156.008713
12358.423617	-1213.673667	1182.243164	-361.954865
12358.423617	-1213.673667	1181.119141	-163.527710
12358.423617	-1213.673667	1179.994141	-150.439697
12358.423617	-1213.673667	1178.869141	-184.258926
12358.423617	-1213.673667	1177.744141	-166.839447
12358.423617	-1213.673667	1176.619141	-387.285217
12358.423617	-1213.673667	1175.493164	-170.527771
12358.423617	-1213.673667	1174.368164	-479.867615
12358.423617	-1213.673667	1173.242188	-292.378357
12358.423617	-1213.673667	1172.115234	-231.738464
12358.423617	-1213.673667	1170.989258	-125.235977
12358.423617	-1213.673667	1169.862305	-24.513500
12358.423617	-1213.673667	1168.735352	11.117855
12358.423617	-1213.673667	1167.608398	-17.527773
12358.423617	-1213.673667	1166.481445	53.674320
12358.423617	-1213.673667	1165.353516	90.512459
12358.423617	-1213.673667	1164.225586	4.463169
12358.423617	-1213.673667	1163.097656	88.879730
12358.423617	-1213.673667	1161.968750	349.692749
12358.423617	-1213.673667	1160.840820	64.866409
12358.423617	-1213.673667	1159.711914	140.033569
12358.423617	-1213.673667	1158.583008	-120.605919
12358.423617	-1213.673667	1157.453125	265.315674
12358.423617	-1213.673667	1156.324219	-40.609535
12358.423617	-1213.673667	1155.194336	-102.671402
12358.423617	-1213.673667	1154.064453	-147.275009
12358.423617	-1213.673667	1152.933594	-44.920208
12358.423617	-1213.673667	1151.803711	32.029079
12358.423617	-1213.673667	1150.672852	-58.178780
12358.423617	-1213.673667	1149.541992	42.989159
12358.423617	-1213.673667	1148.411133	107.009445
12358.423617	-1213.673667	1147.279297	142.411057
12358.423617	-1213.673667	1146.147461	191.541794
12358.423617	-1213.673667	1145.015625	482.536438
12358.423617	-1213.673667	1143.883789	213.684174
12358.423617	-1213.673667	1142.750977	439.111206
12358.423617	-1213.673667	1141.619141	136.836670
12358.423617	-1213.673667	1140.486328	115.618782
12358.423617	-1213.673667	1139.352539	241.004181
12358.423617	-1213.673667	1138.219727	304.264740
12358.423617	-1213.673667	1137.085938	113.333748
12358.423617	-1213.673667	1135.952148	230.812164
12358.423617	-1213.673667	1134.818359	388.266571
12358.423617	-1213.673667	1133.683594	394.685760
12358.423617	-1213.673667	1132.549805	442.698212
12358.423617	-1213.673667	1131.415039	529.144470
12358.423617	-1213.673667	1130.279297	660.702087
12358.423617	-1213.673667	1129.144531	860.627380
12358.423617	-1213.673667	1128.008789	839.621460
12358.423617	-1213.673667	1126.873047	813.559753
12358.423617	-1213.673667	1125.737305	1027.440674
12358.423617	-1213.673667	1124.601563	820.789978
12358.423617	-1213.673667	1123.464844	1032.984009
12358.423617	-1213.673667	1122.328125	1240.201782
12358.423617	-1213.673667	1121.191406	1382.505859
12358.423617	-1213.673667	1120.054688	1082.635010
12358.423617	-1213.673667	1118.916992	1259.180420
12358.423617	-1213.673667	1117.779297	915.514343
12358.423617	-1213.673667	1116.641602	753.074951
12358.423617	-1213.673667	1115.503906	659.223938
12358.423617	-1213.673667	1114.365234	395.991364
12358.423617	-1213.673667	1113.226563	471.845978
12358.423617	-1213.673667	1112.087891	386.735596
12358.423617	-1213.673667	1110.949219	431.065002
12358.423617	-1213.673667	1109.809570	531.008362
12358.423617	-1213.673667	1108.669922	577.913940
12358.423617	-1213.673667	1107.530273	616.538086
12358.423617	-1213.673667	1106.390625	460.830536
12358.423617	-1213.673667	1105.250000	312.695709
12358.423617	-1213.673667	1104.109375	421.097382
12358.423617	-1213.673667	1102.968750	746.877991
12358.423617	-1213.673667	1101.828125	552.206177
12358.423617	-1213.673667	1100.686523	826.542480
12358.423617	-1213.673667	1099.544922	640.081665
12358.423617	-1213.673667	1098.403320	605.252197
12358.423617	-1213.673667	1097.261719	685.197266
12358.423617	-1213.673667	1096.120117	698.513306
12358.423617	-1213.673667	1094.977539	509.906555
12358.423617	-1213.673667	1093.834961	649.507874
12358.423617	-1213.673667	1092.691406	524.568237
12358.423617	-1213.673667	1091.548828	558.740234
12358.423617	-1213.673667	1090.405273	601.341248
12358.423617	-1213.673667	1089.261719	492.426605
12358.423617	-1213.673667	1088.118164	517.122009
12358.423617	-1213.673667	1086.973633	542.418152
12358.423617	-1213.673667	1085.829102	587.396118
12358.423617	-1213.673667	1084.684570	386.978424
12358.423617	-1213.673667	1083.540039	546.365173
12358.423617	-1213.673667	1082.395508	463.551300
12358.423617	-1213.673667	1081.250000	288.308380
12358.423617	-1213.673667	1080.104492	576.686584
12358.423617	-1213.673667	1078.958984	790.102783
12358.423617	-1213.673667	1077.812500	655.689697
12358.423617	-1213.673667	1076.666016	662.417664
12358.423617	-1213.673667	1075.519531	717.885254
12358.423617	-1213.673667	1074.373047	617.306213
12358.423617	-1213.673667	1073.226563	538.747803
12358.423617	-1213.673667	1072.079102	971.750549
12358.423617	-1213.673667	1070.931641	668.560669
12358.423617	-1213.673667	1069.784180	843.909607
12358.423617	-1213.673667	1068.635742	557.609009
12358.423617	-1213.673667	1067.487305	592.259033
12358.423617	-1213.673667	1066.338867	750.001221
12358.423617	-1213.673667	1065.190430	1072.092407
12358.423617	-1213.673667	1064.041992	1144.000122
12358.423617	-1213.673667	1062.892578	1080.039795
12358.423617	-1213.673667	1061.743164	1085.987793
12358.423617	-1213.673667	1060.593750	1033.225708
12358.423617	-1213.673667	1059.443359	1009.984741
12358.423617	-1213.673667	1058.292969	922.746521
12358.423617	-1213.673667	1057.142578	854.683899
12358.423617	-1213.673667	1055.992188	590.297852
12358.423617	-1213.673667	1054.841797	625.147949
12358.423617	-1213.673667	1053.690430	313.996033
12358.423617	-1213.673667	1052.539063	712.209045
12358.423617	-1213.673667	1051.387695	411.635620
12358.423617	-1213.673667	1050.235352	367.830353
12358.423617	-1213.673667	1049.083984	702.395935
12358.423617	-1213.673667	1047.931641	534.026428
12358.423617	-1213.673667	1046.778320	597.597717
12358.423617	-1213.673667	1045.625977	622.874878
12358.423617	-1213.673667	1044.472656	745.815369
12358.423617	-1213.673667	1043.319336	406.860931
12358.423617	-1213.673667	1042.166016	359.774231
12358.423617	-1213.673667	1041.012695	527.997742
12358.423617	-1213.673667	1039.858398	505.388184
12358.423617	-1213.673667	1038.704102	449.959900
12358.423617	-1213.673667	1037.549805	324.409149
12358.423617	-1213.673667	1036.394531	599.832764
12358.423617	-1213.673667	1035.239258	388.362457
12358.423617	-1213.673667	1034.083984	572.942566
12358.423617	-1213.673667	1032.928711	621.443176
12358.423617	-1213.673667	1031.773438	926.568542
12358.423617	-1213.673667	1030.617188	937.143677
12358.423617	-1213.673667	1029.460938	986.671631
12358.423617	-1213.673667	1028.304688	1185.260742
12358.423617	-1213.673667	1027.147461	1424.710693
12358.423617	-1213.673667	1025.991211	1484.110840
12358.423617	-1213.673667	1024.833984	1020.039795
12358.423617	-1213.673667	1023.675781	610.642700
12358.423617	-1213.673667	1022.518555	675.511536
12358.423617	-1213.673667	1021.360352	484.890289
12358.423617	-1213.673667	1020.202148	401.944611
12358.423617	-1213.673667	1019.043945	149.198914
12358.423617	-1213.673667	1017.884766	144.661255
12358.423617	-1213.673667	1016.726563	247.482544
12358.423617	-1213.673667	1015.567383	119.484489
12358.423617	-1213.673667	1014.407227	345.533142
12358.423617	-1213.673667	1013.248047	228.920364
12358.423617	-1213.673667	1012.087891	159.502670
12358.423617	-1213.673667	1010.927734	121.369850
12358.423617	-1213.673667	1009.767578	180.317825
12358.423617	-1213.673667	1008.606445	289.047607
12358.423617	-1213.673667	1007.446289	314.435394
12358.423617	-1213.673667	1006.285156	260.130310
12358.423617	-1213.673667	1005.123047	197.316711
12358.423617	-1213.673667	1003.961914	308.224640
12358.423617	-1213.673667	1002.799805	405.614197
12358.423617	-1213.673667	1001.637695	297.649719
12358.423617	-1213.673667	1000.475586	280.699280
12358.423617	-1213.673667	999.312500	342.319061
12358.423617	-1213.673667	998.149414	382.919556
12358.423617	-1213.673667	996.986328	211.097366
12358.423617	-1213.673667	995.823242	267.892487
12358.423617	-1213.673667	994.659180	473.214417
12358.423617	-1213.673667	993.496094	180.463654
12358.423617	-1213.673667	992.332031	55.512901
12358.423617	-1213.673667	991.166992	108.599281
12358.423617	-1213.673667	990.002930	110.320755
12358.423617	-1213.673667	988.837891	-58.825199
12358.423617	-1213.673667	987.672852	-75.029388
12358.423617	-1213.673667	986.506836	34.201385
12358.423617	-1213.673667	985.341797	30.066851
12358.423617	-1213.673667	984.175781	299.808380
12358.423617	-1213.673667	983.009766	229.953964
12358.423617	-1213.673667	981.843750	69.191971
12358.423617	-1213.673667	980.676758	313.781036
12358.423617	-1213.673667	979.509766	246.108582
12358.423617	-1213.673667	978.342773	211.819977
12358.423617	-1213.673667	977.175781	236.152328
12358.423617	-1213.673667	976.007813	-72.985458
12358.423617	-1213.673667	974.839844	199.497269
12358.423617	-1213.673667	973.671875	201.646164
12358.423617	-1213.673667	972.503906	196.674896
12358.423617	-1213.673667	971.334961	211.111374
12358.423617	-1213.673667	970.166016	140.813889
12358.423617	-1213.673667	968.997070	182.761658
12358.423617	-1213.673667	967.828125	30.842100
12358.423617	-1213.673667	966.658203	62.071335
12358.423617	-1213.673667	965.488281	74.338898
12358.423617	-1213.673667	964.318359	-63.592819
12358.423617	-1213.673667	963.148438	-51.744633
12358.423617	-1213.673667	961.977539	114.088913
12358.423617	-1213.673667	960.806641	-81.288559
12358.423617	-1213.673667	959.635742	243.533737
12358.423617	-1213.673667	958.463867	220.938904
12358.423617	-1213.673667	957.292969	179.795364
12358.423617	-1213.673667	956.121094	-175.437943
12358.423617	-1213.673667	954.948242	12.036406
12358.423617	-1213.673667	953.776367	-310.706116
12358.423617	-1213.673667	952.603516	-232.726212
12358.423617	-1213.673667	951.430664	-55.696808
12358.423617	-1213.673667	950.257813	-42.576359
12358.423617	-1213.673667	949.084961	78.282143
12358.423617	-1213.673667	947.911133	138.460815
12358.423617	-1213.673667	946.737305	32.150021
12358.423617	-1213.673667	945.563477	-20.538452
12358.423617	-1213.673667	944.388672	-55.276443
12358.423617	-1213.673667	943.213867	143.399826
12358.423617	-1213.673667	942.039063	-91.638130
12358.423617	-1213.673667	940.864258	-66.446495
12358.423617	-1213.673667	939.688477	126.800835
12358.423617	-1213.673667	938.513672	143.593475
12358.423617	-1213.673667	937.337891	79.903519
12358.423617	-1213.673667	936.161133	64.307503
12358.423617	-1213.673667	934.985352	289.916138
12358.423617	-1213.673667	933.808594	36.168228
12358.423617	-1213.673667	932.631836	20.564604
12358.423617	-1213.673667	931.454102	-21.689852
12358.423617	-1213.673667	930.277344	208.999939
12358.423617	-1213.673667	929.099609	276.416443
12358.423617	-1213.673667	927.921875	408.052612
12358.423617	-1213.673667	926.743164	290.761719
12358.423617	-1213.673667	925.565430	-53.894386
12358.423617	-1213.673667	924.386719	-101.531776
12358.423617	-1213.673667	923.208008	94.205772
12358.423617	-1213.673667	922.028320	220.362839
12358.423617	-1213.673667	920.849609	20.321556
12358.423617	-1213.673667	919.669922	24.381792
12358.423617	-1213.673667	919.474609	-39.987316
12358.423617	-1213.673667	918.309570	147.518799
12358.423617	-1213.673667	917.143555	94.499878
12358.423617	-1213.673667	915.977539	-132.125443
12358.423617	-1213.673667	914.810547	-35.515816
12358.423617	-1213.673667	913.644531	151.831924
12358.423617	-1213.673667	912.477539	261.686279
12358.423617	-1213.673667	911.310547	85.917007
12358.423617	-1213.673667	910.143555	-71.104736
12358.423617	-1213.673667	908.975586	-273.416595
12358.423617	-1213.673667	907.807617	-139.562897
12358.423617	-1213.673667	906.639648	-256.445953
12358.423617	-1213.673667	905.471680	26.654894
12358.423617	-1213.673667	904.303711	72.392006
12358.423617	-1213.673667	903.134766	150.090942
12358.423617	-1213.673667	901.965820	-225.228241
12358.423617	-1213.673667	900.796875	-67.581215
12358.423617	-1213.673667	899.626953	-67.146378
12358.423617	-1213.673667	898.457031	274.149017
12358.423617	-1213.673667	897.287109	202.623260
12358.423617	-1213.673667	896.117188	-4.631988
12358.423617	-1213.673667	894.947266	208.687836
12358.423617	-1213.673667	893.776367	222.359360
12358.423617	-1213.673667	892.605469	209.420105
12358.423617	-1213.673667	891.434570	36.899200
12358.423617	-1213.673667	890.262695	2.727517
12358.423617	-1213.673667	889.091797	104.152153
12358.423617	-1213.673667	887.919922	378.312317
12358.423617	-1213.673667	886.748047	150.075562
12358.423617	-1213.673667	885.575195	54.782848
12358.423617	-1213.673667	884.403320	12.651954
12358.423617	-1213.673667	883.230469	-101.174095
12358.423617	-1213.673667	882.057617	217.869492
12358.423617	-1213.673667	880.883789	173.066956
12358.423617	-1213.673667	879.710938	152.161453
12358.423617	-1213.673667	878.537109	213.528336
12358.423617	-1213.673667	877.362305	51.997349
12358.423617	-1213.673667	876.188477	-61.729389
12358.423617	-1213.673667	875.013672	182.625763
12358.423617	-1213.673667	873.839844	135.192673
12358.423617	-1213.673667	872.664063	140.800980
12358.423617	-1213.673667	871.489258	241.811676
12358.423617	-1213.673667	870.313477	-224.316071
12358.423617	-1213.673667	869.138672	107.211693
12358.423617	-1213.673667	867.962891	-88.530693
12358.423617	-1213.673667	866.786133	232.227798
12358.423617	-1213.673667	865.610352	-222.964996
12358.423617	-1213.673667	864.433594	95.019897
12358.423617	-1213.673667	863.256836	18.503023
12358.423617	-1213.673667	862.079102	-31.528572
12358.423617	-1213.673667	860.902344	-123.884430
12358.423617	-1213.673667	859.724609	87.970535
12358.423617	-1213.673667	858.546875	-239.760315
12358.423617	-1213.673667	857.368164	-70.297066
12358.423617	-1213.673667	856.190430	-17.230461
12358.423617	-1213.673667	855.011719	-257.562653
12358.423617	-1213.673667	853.833008	-67.105919
12358.423617	-1213.673667	852.654297	147.033722
12358.423617	-1213.673667	851.474609	25.630196
12358.423617	-1213.673667	850.294922	99.672050
12358.423617	-1213.673667	849.115234	313.596191
12358.423617	-1213.673667	847.935547	110.347282
12358.423617	-1213.673667	846.754883	-26.855471
12358.423617	-1213.673667	845.575195	-71.674934
12358.423617	-1213.673667	844.393555	20.688145
12358.423617	-1213.673667	843.212891	-100.648796
12358.423617	-1213.673667	842.032227	-87.472504
12358.423617	-1213.673667	840.850586	-29.503424
12358.423617	-1213.673667	839.668945	17.875954
12358.423617	-1213.673667	838.486328	36.226391
12358.423617	-1213.673667	837.304688	-40.310074
12358.423617	-1213.673667	836.122070	-145.816345
12358.423617	-1213.673667	834.939453	-72.211998
12358.423617	-1213.673667	833.756836	146.158524
12358.423617	-1213.673667	832.573242	-96.292595
12358.423617	-1213.673667	831.389648	-141.266144
12358.423617	-1213.673667	830.206055	-99.411263
12358.423617	-1213.673667	829.022461	281.792786
12358.423617	-1213.673667	827.838867	110.419487
12358.423617	-1213.673667	826.654297	159.996094
12358.423617	-1213.673667	825.469727	109.607101
12358.423617	-1213.673667	824.284180	32.920319
12358.423617	-1213.673667	823.099609	24.562651
12358.423617	-1213.673667	821.914063	310.483734
12358.423617	-1213.673667	820.728516	186.410736
12358.423617	-1213.673667	819.542969	-37.461845
12358.423617	-1213.673667	818.356445	53.857891
12358.423617	-1213.673667	817.169922	124.097145
12358.423617	-1213.673667	815.983398	-81.358131
12358.423617	-1213.673667	814.796875	104.278366
12358.423617	-1213.673667	813.609375	-95.915688
12358.423617	-1213.673667	812.422852	-112.435921
12358.423617	-1213.673667	811.235352	20.516329
12358.423617	-1213.673667	810.046875	371.024139
12358.423617	-1213.673667	808.859375	-54.700863
12358.423617	-1213.673667	807.670898	-121.186432
12358.423617	-1213.673667	806.482422	-25.205065
12358.423617	-1213.673667	805.293945	-112.720459
12358.423617	-1213.673667	804.104492	250.329132
12358.423617	-1213.673667	802.915039	97.224022
12358.423617	-1213.673667	801.725586	-92.524864
12358.423617	-1213.673667	800.536133	0.497692
12358.423617	-1213.673667	799.345703	258.329834
12358.423617	-1213.673667	798.155273	235.998123
12358.423617	-1213.673667	796.964844	-8.765811
12358.423617	-1213.673667	795.774414	73.494270
12358.423617	-1213.673667	794.583008	126.902283
12358.423617	-1213.673667	793.392578	52.108353
12358.423617	-1213.673667	792.200195	60.948578
12358.423617	-1213.673667	791.008789	328.477844
12358.423617	-1213.673667	789.816406	-73.112045
12358.423617	-1213.673667	788.625000	24.403605
12358.423617	-1213.673667	787.432617	-42.734783
12358.423617	-1213.673667	786.239258	20.669138
12358.423617	-1213.673667	785.046875	245.863831
12358.423617	-1213.673667	783.853516	188.983963
12358.423617	-1213.673667	782.660156	98.136803
12358.423617	-1213.673667	781.465820	2.047351
12358.423617	-1213.673667	780.272461	-148.849976
12358.423617	-1213.673667	779.078125	141.042023
12358.423617	-1213.673667	777.883789	16.125738
12358.423617	-1213.673667	776.688477	-56.659164
12358.423617	-1213.673667	775.494141	-48.676651
12358.423617	-1213.673667	774.298828	131.236481
12358.423617	-1213.673667	773.103516	-126.722214
12358.423617	-1213.673667	771.907227	42.576199
12358.423617	-1213.673667	770.711914	180.479156
12358.423617	-1213.673667	769.515625	-238.977524
12358.423617	-1213.673667	768.318359	57.594009
12358.423617	-1213.673667	767.122070	5.189978
12358.423617	-1213.673667	765.924805	-172.171677
12358.423617	-1213.673667	764.727539	-42.529243
12358.423617	-1213.673667	763.530273	84.384209
12358.423617	-1213.673667	762.333008	83.737976
12358.423617	-1213.673667	761.134766	36.217175
12358.423617	-1213.673667	759.936523	-180.333405
12358.423617	-1213.673667	758.738281	8.577827
12358.423617	-1213.673667	757.540039	-44.325096
12358.423617	-1213.673667	756.340820	-55.718590
12358.423617	-1213.673667	755.141602	114.635002
12358.423617	-1213.673667	753.942383	-50.159389
12358.423617	-1213.673667	752.742188	153.713852
12358.423617	-1213.673667	751.541992	367.805115
12358.423617	-1213.673667	750.341797	5.582649
12358.423617	-1213.673667	749.141602	318.051819
12358.423617	-1213.673667	747.941406	-54.547611
12358.423617	-1213.673667	746.740234	6.056750
12358.423617	-1213.673667	745.539063	-26.795246
12358.423617	-1213.673667	744.337891	-70.088409
12358.423617	-1213.673667	743.135742	-183.433304
12358.423617	-1213.673667	741.933594	-156.874603
12358.423617	-1213.673667	740.731445	-125.231049
12358.423617	-1213.673667	739.529297	-218.024490
12358.423617	-1213.673667	738.326172	-98.500481
12358.423617	-1213.673667	737.124023	-178.485428
12358.423617	-1213.673667	735.919922	72.835373
12358.423617	-1213.673667	734.716797	-30.620983
12358.423617	-1213.673667	733.513672	-56.490639
12358.423617	-1213.673667	732.309570	-43.630718
12358.423617	-1213.673667	731.105469	18.280107
12358.423617	-1213.673667	729.900391	276.613129
12358.423617	-1213.673667	728.696289	-158.160095
12358.423617	-1213.673667	727.491211	154.209061
12358.423617	-1213.673667	726.286133	-1.418645
12358.423617	-1213.673667	725.080078	101.314201
12358.423617	-1213.673667	723.874023	180.665009
12358.423617	-1213.673667	722.668945	120.422768
12358.423617	-1213.673667	721.461914	-4.443874
12358.423617	-1213.673667	720.255859	87.520119
12358.423617	-1213.673667	719.048828	42.548874
12358.423617	-1213.673667	717.841797	72.347534
12358.423617	-1213.673667	716.634766	-212.730377
12358.423617	-1213.673667	715.427734	-144.378189
12358.423617	-1213.673667	714.219727	83.749374
12358.423617	-1213.673667	713.011719	-136.960541
12358.423617	-1213.673667	711.803711	13.552728
12358.423617	-1213.673667	710.594727	-117.023918
12358.423617	-1213.673667	709.385742	30.663774
12358.423617	-1213.673667	708.176758	121.520271
12358.423617	-1213.673667	706.967773	-60.782356
12358.423617	-1213.673667	705.758789	40.176044
12358.423617	-1213.673667	704.548828	-175.685410
12358.423617	-1213.673667	703.338867	-36.312805
12358.423617	-1213.673667	702.127930	-236.808594
12358.423617	-1213.673667	700.917969	38.712700
12358.423617	-1213.673667	699.707031	293.448181
12358.423617	-1213.673667	698.496094	-244.186554
12358.423617	-1213.673667	697.285156	-56.532837
12358.423617	-1213.673667	696.073242	94.958961
12358.423617	-1213.673667	694.861328	251.439148
12358.423617	-1213.673667	693.649414	240.728531
12358.423617	-1213.673667	692.436523	137.439148
12358.423617	-1213.673667	691.224609	260.158936
12358.423617	-1213.673667	690.011719	297.990356
12358.423617	-1213.673667	688.798828	78.951424
12358.423617	-1213.673667	687.584961	244.987961
12358.423617	-1213.673667	686.372070	238.911224
12358.423617	-1213.673667	685.158203	504.754913
12358.423617	-1213.673667	683.943359	480.494141
12358.423617	-1213.673667	682.729492	384.348816
12358.423617	-1213.673667	681.514648	559.987122
12358.423617	-1213.673667	680.299805	312.431549
12358.423617	-1213.673667	679.084961	485.288391
12358.423617	-1213.673667	677.869141	358.139984
12358.423617	-1213.673667	676.653320	448.761017
12358.423617	-1213.673667	675.437500	311.271576
12358.423617	-1213.673667	674.221680	529.770203
12358.423617	-1213.673667	673.004883	422.895782
12358.423617	-1213.673667	671.789063	492.640991
12358.423617	-1213.673667	670.571289	173.221130
12358.423617	-1213.673667	669.354492	196.778442
12358.423617	-1213.673667	668.136719	417.253540
12358.423617	-1213.673667	666.919922	274.338898
12358.423617	-1213.673667	665.701172	359.016907
12358.423617	-1213.673667	664.483398	236.487137
12358.423617	-1213.673667	663.264648	131.832520
12358.423617	-1213.673667	662.045898	430.971344
12358.423617	-1213.673667	660.827148	300.637329
12358.423617	-1213.673667	659.608398	313.357056
12358.423617	-1213.673667	658.388672	129.331635
12358.423617	-1213.673667	657.168945	244.100769
12358.423617	-1213.673667	655.949219	44.728313
12358.423617	-1213.673667	654.728516	80.212151
12358.423617	-1213.673667	653.507813	79.896927
12358.423617	-1213.673667	652.287109	84.627815
12358.423617	-1213.673667	651.066406	165.830093
12358.423617	-1213.673667	649.844727	356.607086
12358.423617	-1213.673667	648.623047	287.166931
12358.423617	-1213.673667	647.401367	64.745605
12358.423617	-1213.673667	646.179688	326.639557
12358.423617	-1213.673667	644.957031	443.119995
12358.423617	-1213.673667	643.734375	516.194275
12358.423617	-1213.673667	642.511719	362.496735
12358.423617	-1213.673667	641.289063	499.136536
12358.423617	-1213.673667	640.065430	322.504028
12358.423617	-1213.673667	638.841797	357.188721
12358.423617	-1213.673667	637.618164	389.274414
12358.423617	-1213.673667	636.393555	344.973663
12358.423617	-1213.673667	635.168945	303.200470
12358.423617	-1213.673667	633.944336	60.483921
12358.423617	-1213.673667	632.719727	270.470398
12358.423617	-1213.673667	631.494141	160.001404
12358.423617	-1213.673667	630.269531	166.479538
12358.423617	-1213.673667	629.042969	68.728401
12358.423617	-1213.673667	627.817383	-46.784718
12358.423617	-1213.673667	626.590820	406.724915
12358.423617	-1213.673667	625.365234	179.406174
12358.423617	-1213.673667	624.137695	140.049393
12358.423617	-1213.673667	622.911133	306.323273
12358.423617	-1213.673667	621.683594	429.360199
12358.423617	-1213.673667	620.456055	22.002247
12358.423617	-1213.673667	619.228516	53.698765
12358.423617	-1213.673667	618.000977	98.057266
12358.423617	-1213.673667	616.772461	162.673325
12358.423617	-1213.673667	615.543945	67.533646
12358.423617	-1213.673667	614.314453	18.054165
12358.423617	-1213.673667	613.085938	161.204300
12358.423617	-1213.673667	611.856445	0.249345
12358.423617	-1213.673667	610.626953	-249.294617
12358.423617	-1213.673667	609.397461	12.869494
12358.423617	-1213.673667	608.166992	125.530746
12358.423617	-1213.673667	606.936523	141.959122
12358.423617	-1213.673667	605.706055	-74.460373
12358.423617	-1213.673667	604.474609	-166.782349
12358.423617	-1213.673667	603.244141	135.630508
12358.423617	-1213.673667	602.012695	179.932449
12358.423617	-1213.673667	600.780273	-64.057831
12358.423617	-1213.673667	599.548828	-39.912132
12358.423617	-1213.673667	598.316406	135.914597
12358.423617	-1213.673667	597.083984	5.899282
12358.423617	-1213.673667	595.851563	262.559784
12358.423617	-1213.673667	594.618164	-41.671932
12358.423617	-1213.673667	593.384766	-90.647133
12358.423617	-1213.673667	592.151367	72.546577
12358.423617	-1213.673667	590.917969	-107.627647
12358.423617	-1213.673667	589.683594	-113.530640
12358.423617	-1213.673667	588.449219	-20.966959
12358.423617	-1213.673667	587.214844	-233.672653
12358.423617	-1213.673667	585.979492	-27.522144
12358.423617	-1213.673667	584.745117	9.634605
12358.423617	-1213.673667	583.509766	-26.295212
12358.423617	-1213.673667	582.273438	41.196594
12358.423617	-1213.673667	581.038086	-289.478546
12358.423617	-1213.673667	579.801758	-78.213936
12358.423617	-1213.673667	578.565430	-184.392685
12358.423617	-1213.673667	577.329102	19.335009
12358.423617	-1213.673667	576.091797	107.204422
12358.423617	-1213.673667	574.854492	13.842023
12358.423617	-1213.673667	573.617188	-84.441505
12358.423617	-1213.673667	572.378906	149.563843
12358.423617	-1213.673667	571.141602	18.737225
12358.423617	-1213.673667	569.903320	189.891174
12358.423617	-1213.673667	568.664063	265.484894
12358.423617	-1213.673667	567.425781	210.385345
12358.423617	-1213.673667	566.186523	-58.284058
12358.423617	-1213.673667	564.947266	135.692291
12358.423617	-1213.673667	563.708008	-97.490379
12358.423617	-1213.673667	562.467773	-64.193977
12358.423617	-1213.673667	561.227539	52.066338
12358.423617	-1213.673667	559.987305	145.770844
12358.423617	-1213.673667	558.747070	73.833359
12358.423617	-1213.673667	557.505859	102.423409
12358.423617	-1213.673667	556.264648	193.839798
12358.423617	-1213.673667	555.023438	222.591965
12358.423617	-1213.673667	553.781250	126.011612
12358.423617	-1213.673667	552.539063	-40.645767
12358.423617	-1213.673667	551.296875	166.474792
12358.423617	-1213.673667	550.054688	-172.877274
12358.423617	-1213.673667	548.811523	-105.957970
12358.423617	-1213.673667	547.569336	-8.882056
12358.423617	-1213.673667	546.325195	-67.066597
12358.423617	-1213.673667	545.082031	-135.129242
12358.423617	-1213.673667	543.837891	7.299675
12358.423617	-1213.673667	542.593750	-200.724762
12358.423617	-1213.673667	541.349609	-210.799225
12358.423617	-1213.673667	540.105469	-5.532175
12358.423617	-1213.673667	538.860352	-107.986046
12358.423617	-1213.673667	537.615234	-82.700142
12358.423617	-1213.673667	536.369141	130.265121
12358.423617	-1213.673667	535.124023	-109.313057
12358.423617	-1213.673667	533.877930	-63.683212
12358.423617	-1213.673667	532.631836	-2.953716
12358.423617	-1213.673667	531.384766	17.889284
12358.423617	-1213.673667	530.138672	-83.565620
12358.423617	-1213.673667	528.891602	14.960810
12358.423617	-1213.673667	527.643555	138.539261
12358.423617	-1213.673667	526.396484	-42.400761
12358.423617	-1213.673667	525.148438	86.377327
12358.423617	-1213.673667	523.900391	-76.759651
12358.423617	-1213.673667	522.652344	-45.089348
12358.423617	-1213.673667	521.403320	-100.617439
12358.423617	-1213.673667	520.154297	-81.180824
12358.423617	-1213.673667	518.905273	75.508896
12358.423617	-1213.673667	517.656250	-124.234589
12358.423617	-1213.673667	516.406250	-86.995140
12358.423617	-1213.673667	515.156250	-164.276550
12358.423617	-1213.673667	513.906250	177.130981
12358.423617	-1213.673667	512.655273	-17.004938
12358.423617	-1213.673667	511.404297	170.065140
12358.423617	-1213.673667	510.153320	130.607254
12358.423617	-1213.673667	508.902344	404.912720
12358.423617	-1213.673667	507.650391	505.008698
12358.423617	-1213.673667	506.398438	236.932755
12358.423617	-1213.673667	505.146484	272.561737
12358.423617	-1213.673667	503.893555	144.137466
12358.423617	-1213.673667	502.641602	443.548340
12358.423617	-1213.673667	501.388672	506.764404
12358.423617	-1213.673667	500.134766	547.683533
12358.423617	-1213.673667	498.881836	951.472534
12358.423617	-1213.673667	497.627930	413.613129
12358.423617	-1213.673667	496.374023	653.508118
12358.423617	-1213.673667	495.119141	563.109680
12358.423617	-1213.673667	493.865234	668.967957
12358.423617	-1213.673667	492.610352	648.267761
12358.423617	-1213.673667	491.355469	578.016357
12358.423617	-1213.673667	490.099609	555.009094
12358.423617	-1213.673667	488.843750	415.491028
12358.423617	-1213.673667	487.587891	615.861938
12358.423617	-1213.673667	486.332031	766.615051
12358.423617	-1213.673667	485.075195	773.572571
12358.423617	-1213.673667	483.818359	867.322144
12358.423617	-1213.673667	482.561523	624.071350
12358.423617	-1213.673667	481.304688	873.966919
12358.423617	-1213.673667	480.046875	1007.371216
12358.423617	-1213.673667	478.789063	952.542908
12358.423617	-1213.673667	477.531250	1172.569336
12358.423617	-1213.673667	476.272461	1080.628662
12358.423617	-1213.673667	475.013672	1006.056824
12358.423617	-1213.673667	473.754883	877.083191
12358.423617	-1213.673667	472.496094	1022.731689
12358.423617	-1213.673667	471.236328	1099.052490
12358.423617	-1213.673667	469.976563	861.296570
12358.423617	-1213.673667	468.716797	1142.742920
12358.423617	-1213.673667	467.456055	981.624512
12358.423617	-1213.673667	466.196289	1223.297974
12358.423617	-1213.673667	464.935547	1158.471069
12358.423617	-1213.673667	463.673828	1310.958862
12358.423617	-1213.673667	462.413086	1436.138794
12358.423617	-1213.673667	461.151367	1252.571167
12358.423617	-1213.673667	459.889648	967.784180
12358.423617	-1213.673667	458.626953	1334.510254
12358.423617	-1213.673667	457.364258	1256.851196
12358.423617	-1213.673667	456.101563	1260.499268
12358.423617	-1213.673667	454.838867	1187.552734
12358.423617	-1213.673667	453.575195	1400.501831
12358.423617	-1213.673667	452.312500	1455.426270
12358.423617	-1213.673667	451.047852	1751.680908
12358.423617	-1213.673667	449.784180	1301.005127
12358.423617	-1213.673667	448.519531	1458.815186
12358.423617	-1213.673667	447.254883	1399.593994
12358.423617	-1213.673667	445.990234	1446.056641
12358.423617	-1213.673667	444.725586	1285.450806
12358.423617	-1213.673667	443.459961	1644.010864
12358.423617	-1213.673667	442.194336	1667.464966
12358.423617	-1213.673667	440.927734	2096.571777
12358.423617	-1213.673667	439.662109	1821.686401
12358.423617	-1213.673667	438.395508	1839.250000
12358.423617	-1213.673667	437.127930	1866.302124
12358.423617	-1213.673667	435.861328	1861.032104
12358.423617	-1213.673667	434.593750	1752.167603
12358.423617	-1213.673667	433.326172	1760.902466
12358.423617	-1213.673667	432.058594	1769.226685
12358.423617	-1213.673667	430.790039	1691.152954
12358.423617	-1213.673667	429.521484	1607.755859
12358.423617	-1213.673667	428.252930	1563.209351
12358.423617	-1213.673667	426.984375	1918.279053
12358.423617	-1213.673667	425.714844	1853.056519
12358.423617	-1213.673667	424.445313	1944.354004
12358.423617	-1213.673667	423.174805	2003.169556
12358.423617	-1213.673667	421.905273	1958.396362
12358.423617	-1213.673667	420.634766	1932.657349
12358.423617	-1213.673667	419.364258	1918.569336
12358.423617	-1213.673667	418.092773	1663.665527
12358.423617	-1213.673667	416.822266	1621.387695
12358.423617	-1213.673667	415.550781	2085.519043
12358.423617	-1213.673667	414.278320	1689.067017
12358.423617	-1213.673667	413.006836	1936.050781
12358.423617	-1213.673667	411.734375	1575.022461
12358.423617	-1213.673667	410.461914	1646.577026
12358.423617	-1213.673667	409.188477	1842.072388
12358.423617	-1213.673667	407.916016	1765.083130
12358.423617	-1213.673667	406.642578	1811.986450
12358.423617	-1213.673667	405.368164	1691.660034
12358.423617	-1213.673667	404.094727	1726.941040
12358.423617	-1213.673667	402.820313	1719.672974
12358.423617	-1213.673667	401.545898	1686.975098
12358.423617	-1213.673667	400.270508	1487.102295
12358.423617	-1213.673667	398.996094	1635.596191
12358.423617	-1213.673667	397.720703	1902.587036
12358.423617	-1213.673667	396.444336	1606.721680
12358.423617	-1213.673667	395.168945	1780.995972
12358.423617	-1213.673667	393.892578	1702.593750
12358.423617	-1213.673667	392.616211	1925.576660
12358.423617	-1213.673667	391.339844	1817.849487
12358.423617	-1213.673667	390.062500	1789.336426
12358.423617	-1213.673667	388.785156	2005.791626
12358.423617	-1213.673667	387.507813	1957.470947
12358.423617	-1213.673667	386.229492	1883.354492
12358.423617	-1213.673667	384.951172	1885.800415
12358.423617	-1213.673667	383.672852	1708.891113
12358.423617	-1213.673667	382.394531	1703.471680
12358.423617	-1213.673667	381.115234	1696.450195
12358.423617	-1213.673667	379.835938	1777.899292
12358.423617	-1213.673667	378.556641	1524.152588
12358.423617	-1213.673667	377.277344	1461.079590
12358.423617	-1213.673667	375.997070	1517.912354
12358.423617	-1213.673667	374.716797	1641.040161
12358.423617	-1213.673667	373.435547	1584.682739
12358.423617	-1213.673667	372.155273	1421.938354
12358.423617	-1213.673667	370.874023	1237.838867
12358.423617	-1213.673667	369.591797	1127.139771
12358.423617	-1213.673667	368.310547	1233.205078
12358.423617	-1213.673667	367.028320	1448.852539
12358.423617	-1213.673667	365.746094	1397.507080
12358.423617	-1213.673667	364.463867	1283.282593
12358.423617	-1213.673667	363.180664	1198.380005
12358.423617	-1213.673667	361.897461	1181.615234
12358.423617	-1213.673667	360.614258	1065.431763
12358.423617	-1213.673667	359.330078	1223.442627
12358.423617	-1213.673667	358.045898	1034.452393
12358.423617	-1213.673667	356.761719	1126.788818
12358.423617	-1213.673667	355.477539	1361.993286
12358.423617	-1213.673667	354.192383	1031.968628
12358.423617	-1213.673667	352.907227	965.999817
12358.423617	-1213.673667	351.622070	1246.243042
12358.423617	-1213.673667	350.336914	692.568237
12358.423617	-1213.673667	349.050781	1088.086670
12358.423617	-1213.673667	347.764648	683.769653
12358.423617	-1213.673667	346.477539	891.497437
12358.423617	-1213.673667	345.191406	708.844177
12358.423617	-1213.673667	343.904297	726.329834
12358.423617	-1213.673667	342.616211	469.524384
12358.423617	-1213.673667	341.329102	572.480164
12358.423617	-1213.673667	340.041016	732.412476
12358.423617	-1213.673667	338.752930	448.788177
12358.423617	-1213.673667	337.463867	415.523743
12358.423617	-1213.673667	336.175781	514.144836
12358.423617	-1213.673667	334.886719	449.502167
12358.423617	-1213.673667	333.596680	233.700714
12358.423617	-1213.673667	332.307617	130.234299
12358.423617	-1213.673667	331.017578	95.275734
12358.423617	-1213.673667	329.727539	85.349892
12358.423617	-1213.673667	328.436523	54.383118
12358.423617	-1213.673667	327.146484	376.585602
12358.423617	-1213.673667	325.855469	18.787643
12358.423617	-1213.673667	324.563477	-15.209544
12358.423617	-1213.673667	323.272461	-22.080751
12358.423617	-1213.673667	321.980469	-62.459572
12358.423617	-1213.673667	320.688477	155.387711
12358.423617	-1213.673667	319.395508	-132.905014
12358.423617	-1213.673667	318.103516	17.695213
12358.423617	-1213.673667	316.810547	206.646042
12358.423617	-1213.673667	315.516602	94.227661
12358.423617	-1213.673667	314.223633	282.820953
12358.423617	-1213.673667	312.929688	-106.868355
12358.423617	-1213.673667	311.635742	-200.711563
12358.423617	-1213.673667	310.340820	-121.886581
12358.423617	-1213.673667	309.045898	83.839951
12358.423617	-1213.673667	307.750977	-127.306885
12358.423617	-1213.673667	306.456055	38.416348
12358.423617	-1213.673667	305.160156	-66.258049
12358.423617	-1213.673667	303.865234	-123.608582
12358.423617	-1213.673667	302.568359	387.165039
12358.423617	-1213.673667	301.272461	483.453461
12358.423617	-1213.673667	299.975586	275.533875
12358.423617	-1213.673667	298.678711	268.027832
