#X		#Y		#Wave		#Intensity
20472.240426	-749.822333	1999.980469	-147.994720
20472.240426	-749.822333	1999.016602	-116.956429
20472.240426	-749.822333	1998.052734	-116.162933
20472.240426	-749.822333	1997.087891	-140.714874
20472.240426	-749.822333	1996.123047	54.697479
20472.240426	-749.822333	1995.158203	51.321301
20472.240426	-749.822333	1994.193359	72.191483
20472.240426	-749.822333	1993.228516	104.929474
20472.240426	-749.822333	1992.262695	18.334518
20472.240426	-749.822333	1991.297852	166.449860
20472.240426	-749.822333	1990.332031	46.769321
20472.240426	-749.822333	1989.366211	-8.974126
20472.240426	-749.822333	1988.399414	6.625971
20472.240426	-749.822333	1987.433594	120.743126
20472.240426	-749.822333	1986.466797	199.800903
20472.240426	-749.822333	1985.500977	-82.562309
20472.240426	-749.822333	1984.534180	-31.445694
20472.240426	-749.822333	1983.567383	105.803337
20472.240426	-749.822333	1982.599609	-113.199051
20472.240426	-749.822333	1981.632813	-1.370360
20472.240426	-749.822333	1980.665039	-13.415365
20472.240426	-749.822333	1979.697266	-72.691971
20472.240426	-749.822333	1978.729492	109.761253
20472.240426	-749.822333	1977.761719	79.532364
20472.240426	-749.822333	1976.792969	81.135384
20472.240426	-749.822333	1975.825195	183.664505
20472.240426	-749.822333	1974.856445	105.773987
20472.240426	-749.822333	1973.887695	153.495712
20472.240426	-749.822333	1972.918945	-65.428329
20472.240426	-749.822333	1971.949219	208.749664
20472.240426	-749.822333	1970.980469	95.496101
20472.240426	-749.822333	1970.010742	258.196014
20472.240426	-749.822333	1969.041016	322.052032
20472.240426	-749.822333	1968.071289	252.628159
20472.240426	-749.822333	1967.101563	264.366028
20472.240426	-749.822333	1966.130859	-103.435379
20472.240426	-749.822333	1965.161133	235.625626
20472.240426	-749.822333	1964.190430	35.116074
20472.240426	-749.822333	1963.219727	-17.732420
20472.240426	-749.822333	1962.249023	10.542132
20472.240426	-749.822333	1961.277344	151.893112
20472.240426	-749.822333	1960.306641	59.311398
20472.240426	-749.822333	1959.334961	143.791245
20472.240426	-749.822333	1958.363281	19.055111
20472.240426	-749.822333	1957.391602	36.910564
20472.240426	-749.822333	1956.419922	66.966759
20472.240426	-749.822333	1955.447266	244.431107
20472.240426	-749.822333	1954.474609	161.210220
20472.240426	-749.822333	1953.501953	195.909714
20472.240426	-749.822333	1952.529297	117.508080
20472.240426	-749.822333	1951.556641	-19.882624
20472.240426	-749.822333	1950.583984	24.479393
20472.240426	-749.822333	1949.610352	137.532486
20472.240426	-749.822333	1948.636719	-142.335052
20472.240426	-749.822333	1947.663086	95.819214
20472.240426	-749.822333	1946.689453	-44.112289
20472.240426	-749.822333	1945.715820	174.240234
20472.240426	-749.822333	1944.741211	7.302416
20472.240426	-749.822333	1943.767578	115.137375
20472.240426	-749.822333	1942.792969	323.465637
20472.240426	-749.822333	1941.818359	-0.385927
20472.240426	-749.822333	1940.842773	-130.455307
20472.240426	-749.822333	1939.868164	9.144342
20472.240426	-749.822333	1938.892578	-59.618118
20472.240426	-749.822333	1937.916992	128.917572
20472.240426	-749.822333	1936.941406	-25.576471
20472.240426	-749.822333	1935.965820	30.634214
20472.240426	-749.822333	1934.990234	81.936302
20472.240426	-749.822333	1934.013672	-8.775523
20472.240426	-749.822333	1933.037109	20.509832
20472.240426	-749.822333	1932.060547	91.411064
20472.240426	-749.822333	1931.083984	130.494003
20472.240426	-749.822333	1930.107422	125.548950
20472.240426	-749.822333	1929.129883	54.583347
20472.240426	-749.822333	1928.153320	30.141260
20472.240426	-749.822333	1927.175781	172.007706
20472.240426	-749.822333	1926.198242	-77.304291
20472.240426	-749.822333	1925.219727	-111.397034
20472.240426	-749.822333	1924.242188	248.013077
20472.240426	-749.822333	1923.263672	-69.488350
20472.240426	-749.822333	1922.285156	-79.027550
20472.240426	-749.822333	1921.306641	-66.543762
20472.240426	-749.822333	1920.328125	-137.053467
20472.240426	-749.822333	1919.349609	-112.276398
20472.240426	-749.822333	1918.370117	137.109512
20472.240426	-749.822333	1917.391602	-77.271614
20472.240426	-749.822333	1916.412109	69.611969
20472.240426	-749.822333	1915.431641	55.461208
20472.240426	-749.822333	1914.452148	60.876217
20472.240426	-749.822333	1913.472656	-4.392591
20472.240426	-749.822333	1912.492188	-145.182617
20472.240426	-749.822333	1911.511719	57.867657
20472.240426	-749.822333	1910.531250	-153.476944
20472.240426	-749.822333	1909.550781	-94.191917
20472.240426	-749.822333	1908.569336	74.758247
20472.240426	-749.822333	1907.588867	-12.095895
20472.240426	-749.822333	1906.607422	-223.089691
20472.240426	-749.822333	1905.625977	89.599556
20472.240426	-749.822333	1904.644531	88.139526
20472.240426	-749.822333	1903.662109	-47.159985
20472.240426	-749.822333	1902.680664	-104.482132
20472.240426	-749.822333	1901.698242	-242.041061
20472.240426	-749.822333	1900.715820	-41.334938
20472.240426	-749.822333	1899.733398	-71.741348
20472.240426	-749.822333	1898.750000	82.734962
20472.240426	-749.822333	1897.767578	30.515554
20472.240426	-749.822333	1896.784180	14.820992
20472.240426	-749.822333	1895.800781	154.731674
20472.240426	-749.822333	1894.817383	190.132462
20472.240426	-749.822333	1893.833984	113.790955
20472.240426	-749.822333	1892.850586	1.076280
20472.240426	-749.822333	1891.866211	-145.564270
20472.240426	-749.822333	1890.881836	91.562531
20472.240426	-749.822333	1889.897461	68.850082
20472.240426	-749.822333	1888.913086	-152.870773
20472.240426	-749.822333	1887.927734	-192.453552
20472.240426	-749.822333	1886.943359	0.954530
20472.240426	-749.822333	1885.958008	80.294075
20472.240426	-749.822333	1884.972656	38.349636
20472.240426	-749.822333	1883.987305	-139.361603
20472.240426	-749.822333	1883.001953	56.423595
20472.240426	-749.822333	1882.015625	244.885803
20472.240426	-749.822333	1881.029297	23.676521
20472.240426	-749.822333	1880.042969	144.262009
20472.240426	-749.822333	1879.056641	-120.417862
20472.240426	-749.822333	1878.070313	63.169514
20472.240426	-749.822333	1877.083984	-80.264580
20472.240426	-749.822333	1876.096680	93.590263
20472.240426	-749.822333	1875.109375	-44.927265
20472.240426	-749.822333	1874.122070	-147.072739
20472.240426	-749.822333	1873.134766	-89.439644
20472.240426	-749.822333	1872.146484	62.547966
20472.240426	-749.822333	1871.159180	-22.602924
20472.240426	-749.822333	1870.170898	-47.248478
20472.240426	-749.822333	1869.182617	-67.046280
20472.240426	-749.822333	1868.194336	55.820244
20472.240426	-749.822333	1867.205078	81.941620
20472.240426	-749.822333	1866.216797	45.207516
20472.240426	-749.822333	1865.227539	35.063469
20472.240426	-749.822333	1864.238281	3.172123
20472.240426	-749.822333	1863.249023	82.402710
20472.240426	-749.822333	1862.259766	77.060974
20472.240426	-749.822333	1861.269531	-20.050751
20472.240426	-749.822333	1860.279297	155.672531
20472.240426	-749.822333	1859.290039	85.103477
20472.240426	-749.822333	1858.298828	-130.259415
20472.240426	-749.822333	1857.308594	6.723137
20472.240426	-749.822333	1856.318359	59.196163
20472.240426	-749.822333	1855.327148	239.461838
20472.240426	-749.822333	1854.335938	57.899654
20472.240426	-749.822333	1853.344727	-58.522587
20472.240426	-749.822333	1852.353516	-6.184747
20472.240426	-749.822333	1851.362305	-4.513549
20472.240426	-749.822333	1850.370117	-10.106388
20472.240426	-749.822333	1849.377930	167.373383
20472.240426	-749.822333	1848.385742	118.317390
20472.240426	-749.822333	1847.393555	129.450272
20472.240426	-749.822333	1846.401367	159.800400
20472.240426	-749.822333	1845.408203	74.535820
20472.240426	-749.822333	1844.415039	-58.883583
20472.240426	-749.822333	1843.421875	127.774658
20472.240426	-749.822333	1842.428711	97.762558
20472.240426	-749.822333	1841.435547	-38.139542
20472.240426	-749.822333	1840.441406	68.882683
20472.240426	-749.822333	1839.448242	55.571854
20472.240426	-749.822333	1838.454102	128.762573
20472.240426	-749.822333	1837.459961	146.579163
20472.240426	-749.822333	1836.464844	94.626762
20472.240426	-749.822333	1835.470703	314.167053
20472.240426	-749.822333	1834.475586	19.423861
20472.240426	-749.822333	1833.480469	8.166300
20472.240426	-749.822333	1832.485352	-51.187496
20472.240426	-749.822333	1831.490234	117.519875
20472.240426	-749.822333	1830.495117	-9.192843
20472.240426	-749.822333	1829.499023	-25.523613
20472.240426	-749.822333	1828.502930	75.667206
20472.240426	-749.822333	1827.506836	25.583954
20472.240426	-749.822333	1826.510742	-46.150082
20472.240426	-749.822333	1825.513672	181.864563
20472.240426	-749.822333	1824.517578	45.219345
20472.240426	-749.822333	1823.520508	-137.012711
20472.240426	-749.822333	1822.523438	9.135734
20472.240426	-749.822333	1821.526367	-36.586945
20472.240426	-749.822333	1820.529297	169.215118
20472.240426	-749.822333	1819.531250	214.332581
20472.240426	-749.822333	1818.533203	343.175568
20472.240426	-749.822333	1817.535156	232.393936
20472.240426	-749.822333	1816.537109	-182.525604
20472.240426	-749.822333	1815.539063	8.272909
20472.240426	-749.822333	1814.540039	55.290695
20472.240426	-749.822333	1813.541992	-58.138393
20472.240426	-749.822333	1812.542969	34.129181
20472.240426	-749.822333	1811.543945	-24.442930
20472.240426	-749.822333	1810.543945	-13.743448
20472.240426	-749.822333	1809.544922	82.931488
20472.240426	-749.822333	1808.544922	169.895615
20472.240426	-749.822333	1807.544922	20.078884
20472.240426	-749.822333	1806.544922	137.869659
20472.240426	-749.822333	1805.544922	-33.611286
20472.240426	-749.822333	1804.544922	167.533264
20472.240426	-749.822333	1803.543945	-32.782280
20472.240426	-749.822333	1802.542969	208.648071
20472.240426	-749.822333	1801.541992	208.723526
20472.240426	-749.822333	1800.541016	218.230057
20472.240426	-749.822333	1799.539063	234.768265
20472.240426	-749.822333	1798.538086	322.771179
20472.240426	-749.822333	1797.536133	16.961586
20472.240426	-749.822333	1796.534180	-45.553341
20472.240426	-749.822333	1795.532227	6.306450
20472.240426	-749.822333	1794.529297	110.472137
20472.240426	-749.822333	1793.527344	221.630051
20472.240426	-749.822333	1792.524414	-96.420982
20472.240426	-749.822333	1791.521484	59.751198
20472.240426	-749.822333	1790.518555	106.133987
20472.240426	-749.822333	1789.514648	-45.355587
20472.240426	-749.822333	1788.511719	343.734802
20472.240426	-749.822333	1787.507813	-46.133011
20472.240426	-749.822333	1786.503906	99.696503
20472.240426	-749.822333	1785.500000	-23.643612
20472.240426	-749.822333	1784.496094	109.959213
20472.240426	-749.822333	1783.491211	-104.032684
20472.240426	-749.822333	1782.486328	238.608154
20472.240426	-749.822333	1781.481445	-11.277102
20472.240426	-749.822333	1780.476563	-66.201767
20472.240426	-749.822333	1779.471680	-145.020889
20472.240426	-749.822333	1778.465820	120.739044
20472.240426	-749.822333	1777.460938	10.738596
20472.240426	-749.822333	1776.455078	154.897003
20472.240426	-749.822333	1775.449219	49.394966
20472.240426	-749.822333	1774.442383	257.336487
20472.240426	-749.822333	1773.436523	-64.547394
20472.240426	-749.822333	1772.429688	67.068840
20472.240426	-749.822333	1771.422852	207.987640
20472.240426	-749.822333	1770.416016	71.000687
20472.240426	-749.822333	1769.409180	90.548111
20472.240426	-749.822333	1768.402344	121.809341
20472.240426	-749.822333	1767.394531	1.080958
20472.240426	-749.822333	1766.386719	-86.540787
20472.240426	-749.822333	1765.378906	-81.792397
20472.240426	-749.822333	1764.371094	190.720505
20472.240426	-749.822333	1763.362305	7.849745
20472.240426	-749.822333	1762.354492	-132.427170
20472.240426	-749.822333	1761.345703	196.362015
20472.240426	-749.822333	1760.336914	-86.343681
20472.240426	-749.822333	1759.328125	85.690117
20472.240426	-749.822333	1758.318359	-107.198013
20472.240426	-749.822333	1757.308594	0.541811
20472.240426	-749.822333	1756.299805	141.248123
20472.240426	-749.822333	1755.290039	104.230553
20472.240426	-749.822333	1754.279297	168.825745
20472.240426	-749.822333	1753.269531	133.890884
20472.240426	-749.822333	1752.258789	82.254387
20472.240426	-749.822333	1751.249023	-35.718143
20472.240426	-749.822333	1750.238281	73.196747
20472.240426	-749.822333	1749.226563	229.195190
20472.240426	-749.822333	1748.215820	77.722801
20472.240426	-749.822333	1747.204102	108.118484
20472.240426	-749.822333	1746.193359	15.505202
20472.240426	-749.822333	1745.181641	-124.474899
20472.240426	-749.822333	1744.168945	-82.694878
20472.240426	-749.822333	1743.157227	190.356812
20472.240426	-749.822333	1742.144531	172.748322
20472.240426	-749.822333	1741.132813	-189.620499
20472.240426	-749.822333	1740.120117	130.054352
20472.240426	-749.822333	1739.106445	31.798409
20472.240426	-749.822333	1738.093750	75.000633
20472.240426	-749.822333	1737.080078	-70.666527
20472.240426	-749.822333	1736.067383	-34.818401
20472.240426	-749.822333	1735.053711	3.218940
20472.240426	-749.822333	1734.040039	-76.766548
20472.240426	-749.822333	1733.025391	74.104019
20472.240426	-749.822333	1732.011719	66.907837
20472.240426	-749.822333	1730.997070	31.289577
20472.240426	-749.822333	1729.982422	40.303452
20472.240426	-749.822333	1728.967773	221.100632
20472.240426	-749.822333	1727.952148	-175.216904
20472.240426	-749.822333	1726.937500	-41.803947
20472.240426	-749.822333	1725.921875	157.314087
20472.240426	-749.822333	1724.906250	10.282964
20472.240426	-749.822333	1723.890625	11.406323
20472.240426	-749.822333	1722.875000	78.264183
20472.240426	-749.822333	1721.858398	48.519459
20472.240426	-749.822333	1720.841797	-171.818207
20472.240426	-749.822333	1719.825195	-65.402130
20472.240426	-749.822333	1718.808594	3.233546
20472.240426	-749.822333	1717.791992	-130.399414
20472.240426	-749.822333	1716.774414	-47.950092
20472.240426	-749.822333	1715.756836	-193.537048
20472.240426	-749.822333	1714.739258	1.384756
20472.240426	-749.822333	1713.721680	-34.032204
20472.240426	-749.822333	1712.704102	50.184883
20472.240426	-749.822333	1711.685547	197.614029
20472.240426	-749.822333	1710.667969	-0.130823
20472.240426	-749.822333	1709.649414	24.987946
20472.240426	-749.822333	1708.630859	-158.826019
20472.240426	-749.822333	1707.611328	9.147527
20472.240426	-749.822333	1706.592773	87.836937
20472.240426	-749.822333	1705.573242	20.990002
20472.240426	-749.822333	1704.553711	254.127274
20472.240426	-749.822333	1703.534180	219.860397
20472.240426	-749.822333	1702.513672	309.679749
20472.240426	-749.822333	1701.494141	193.189545
20472.240426	-749.822333	1700.473633	306.184540
20472.240426	-749.822333	1699.453125	236.347015
20472.240426	-749.822333	1698.432617	72.765274
20472.240426	-749.822333	1697.412109	164.328430
20472.240426	-749.822333	1696.390625	-76.647491
20472.240426	-749.822333	1695.369141	145.741943
20472.240426	-749.822333	1694.347656	21.649548
20472.240426	-749.822333	1693.326172	239.054352
20472.240426	-749.822333	1692.304688	369.737122
20472.240426	-749.822333	1691.282227	142.467667
20472.240426	-749.822333	1690.260742	228.503815
20472.240426	-749.822333	1689.238281	157.778107
20472.240426	-749.822333	1688.214844	14.517450
20472.240426	-749.822333	1687.192383	182.017319
20472.240426	-749.822333	1686.168945	293.275238
20472.240426	-749.822333	1685.146484	138.141754
20472.240426	-749.822333	1684.123047	172.125824
20472.240426	-749.822333	1683.099609	215.350815
20472.240426	-749.822333	1682.075195	6.338894
20472.240426	-749.822333	1681.051758	107.763474
20472.240426	-749.822333	1680.027344	120.377151
20472.240426	-749.822333	1679.002930	41.915943
20472.240426	-749.822333	1677.978516	63.712589
20472.240426	-749.822333	1676.953125	94.734283
20472.240426	-749.822333	1675.928711	326.218628
20472.240426	-749.822333	1674.903320	70.284843
20472.240426	-749.822333	1673.877930	-80.733032
20472.240426	-749.822333	1672.852539	250.628647
20472.240426	-749.822333	1671.826172	101.808533
20472.240426	-749.822333	1670.800781	-28.363340
20472.240426	-749.822333	1669.774414	23.096941
20472.240426	-749.822333	1668.748047	-156.054352
20472.240426	-749.822333	1667.721680	216.572266
20472.240426	-749.822333	1666.694336	195.596848
20472.240426	-749.822333	1665.667969	97.794350
20472.240426	-749.822333	1664.640625	-174.553940
20472.240426	-749.822333	1663.613281	178.935532
20472.240426	-749.822333	1662.585938	-51.561626
20472.240426	-749.822333	1661.557617	187.701462
20472.240426	-749.822333	1660.530273	238.518753
20472.240426	-749.822333	1659.501953	219.513947
20472.240426	-749.822333	1658.473633	363.159668
20472.240426	-749.822333	1657.444336	165.112854
20472.240426	-749.822333	1656.416016	245.904037
20472.240426	-749.822333	1655.386719	282.474121
20472.240426	-749.822333	1654.358398	337.591064
20472.240426	-749.822333	1653.328125	176.680710
20472.240426	-749.822333	1652.298828	419.742828
20472.240426	-749.822333	1651.269531	391.128693
20472.240426	-749.822333	1650.239258	385.681519
20472.240426	-749.822333	1649.208984	421.969025
20472.240426	-749.822333	1648.178711	516.207947
20472.240426	-749.822333	1647.148438	499.066132
20472.240426	-749.822333	1646.117188	692.892761
20472.240426	-749.822333	1645.086914	886.643738
20472.240426	-749.822333	1644.055664	681.617859
20472.240426	-749.822333	1643.024414	933.175903
20472.240426	-749.822333	1641.992188	883.403381
20472.240426	-749.822333	1640.960938	1032.874268
20472.240426	-749.822333	1639.928711	1029.399170
20472.240426	-749.822333	1638.896484	1153.272583
20472.240426	-749.822333	1637.864258	888.152466
20472.240426	-749.822333	1636.832031	1051.343506
20472.240426	-749.822333	1635.798828	1297.759521
20472.240426	-749.822333	1634.766602	1116.051392
20472.240426	-749.822333	1633.733398	1075.509521
20472.240426	-749.822333	1632.699219	1536.858276
20472.240426	-749.822333	1631.666016	1244.202148
20472.240426	-749.822333	1630.632813	1305.397949
20472.240426	-749.822333	1629.598633	1391.986450
20472.240426	-749.822333	1628.564453	1485.485474
20472.240426	-749.822333	1627.530273	1290.131226
20472.240426	-749.822333	1626.495117	1480.648193
20472.240426	-749.822333	1625.460938	1511.755493
20472.240426	-749.822333	1624.425781	1545.157593
20472.240426	-749.822333	1623.390625	1592.421265
20472.240426	-749.822333	1622.355469	1692.780762
20472.240426	-749.822333	1621.319336	1700.786743
20472.240426	-749.822333	1620.284180	1858.822021
20472.240426	-749.822333	1619.248047	1917.603394
20472.240426	-749.822333	1618.211914	1784.943115
20472.240426	-749.822333	1617.174805	1709.999634
20472.240426	-749.822333	1616.138672	1978.686646
20472.240426	-749.822333	1615.101563	1931.467285
20472.240426	-749.822333	1614.065430	1879.712280
20472.240426	-749.822333	1613.027344	1740.414185
20472.240426	-749.822333	1611.990234	1780.933716
20472.240426	-749.822333	1610.953125	1846.817871
20472.240426	-749.822333	1609.915039	1760.703491
20472.240426	-749.822333	1608.876953	1953.277832
20472.240426	-749.822333	1607.838867	2044.534912
20472.240426	-749.822333	1606.800781	1850.400391
20472.240426	-749.822333	1605.761719	2112.013184
20472.240426	-749.822333	1604.723633	2157.325439
20472.240426	-749.822333	1603.684570	1970.326294
20472.240426	-749.822333	1602.644531	1877.734619
20472.240426	-749.822333	1601.605469	2056.585938
20472.240426	-749.822333	1600.566406	2072.203125
20472.240426	-749.822333	1599.526367	2092.455811
20472.240426	-749.822333	1598.486328	2220.774658
20472.240426	-749.822333	1597.446289	2077.991699
20472.240426	-749.822333	1596.405273	2357.994629
20472.240426	-749.822333	1595.365234	2040.829590
20472.240426	-749.822333	1594.324219	1994.801636
20472.240426	-749.822333	1593.283203	2274.870361
20472.240426	-749.822333	1592.242188	2098.128906
20472.240426	-749.822333	1591.200195	1988.067383
20472.240426	-749.822333	1590.159180	2027.287720
20472.240426	-749.822333	1589.117188	1724.745850
20472.240426	-749.822333	1588.075195	1807.725342
20472.240426	-749.822333	1587.032227	1794.428711
20472.240426	-749.822333	1585.990234	2033.436035
20472.240426	-749.822333	1584.947266	1969.844727
20472.240426	-749.822333	1583.904297	1947.621216
20472.240426	-749.822333	1582.861328	1650.536743
20472.240426	-749.822333	1581.818359	1869.110352
20472.240426	-749.822333	1580.775391	1920.492188
20472.240426	-749.822333	1579.731445	1974.221558
20472.240426	-749.822333	1578.687500	1824.260376
20472.240426	-749.822333	1577.643555	1720.237427
20472.240426	-749.822333	1576.598633	1902.422485
20472.240426	-749.822333	1575.554688	1949.651489
20472.240426	-749.822333	1574.509766	1900.863281
20472.240426	-749.822333	1573.464844	1971.140625
20472.240426	-749.822333	1572.419922	2059.791748
20472.240426	-749.822333	1571.374023	2091.342773
20472.240426	-749.822333	1570.329102	2184.728027
20472.240426	-749.822333	1569.283203	2303.313232
20472.240426	-749.822333	1568.237305	2170.610352
20472.240426	-749.822333	1567.191406	2273.388184
20472.240426	-749.822333	1566.144531	2227.757568
20472.240426	-749.822333	1565.098633	2070.376465
20472.240426	-749.822333	1564.051758	1703.101440
20472.240426	-749.822333	1563.004883	1950.168579
20472.240426	-749.822333	1561.957031	2254.306396
20472.240426	-749.822333	1560.910156	1645.696533
20472.240426	-749.822333	1559.862305	1626.054688
20472.240426	-749.822333	1558.814453	1665.856323
20472.240426	-749.822333	1557.766602	1678.401367
20472.240426	-749.822333	1556.718750	1554.265503
20472.240426	-749.822333	1555.669922	1339.107422
20472.240426	-749.822333	1554.621094	1192.544678
20472.240426	-749.822333	1553.573242	1160.125610
20472.240426	-749.822333	1552.523438	1057.197998
20472.240426	-749.822333	1551.474609	1214.141113
20472.240426	-749.822333	1550.424805	1084.190308
20472.240426	-749.822333	1549.375000	874.733704
20472.240426	-749.822333	1548.325195	822.582947
20472.240426	-749.822333	1547.275391	1052.829102
20472.240426	-749.822333	1546.225586	707.389160
20472.240426	-749.822333	1545.174805	860.483887
20472.240426	-749.822333	1544.124023	831.686157
20472.240426	-749.822333	1543.073242	859.903259
20472.240426	-749.822333	1542.022461	626.763306
20472.240426	-749.822333	1540.970703	575.725586
20472.240426	-749.822333	1539.919922	524.868835
20472.240426	-749.822333	1538.868164	815.048340
20472.240426	-749.822333	1537.815430	491.798798
20472.240426	-749.822333	1536.763672	566.373657
20472.240426	-749.822333	1535.710938	559.299072
20472.240426	-749.822333	1534.659180	577.372803
20472.240426	-749.822333	1533.606445	568.342224
20472.240426	-749.822333	1532.552734	282.544617
20472.240426	-749.822333	1531.500000	178.579620
20472.240426	-749.822333	1530.446289	351.611420
20472.240426	-749.822333	1529.393555	347.807373
20472.240426	-749.822333	1528.338867	507.442719
20472.240426	-749.822333	1527.285156	488.050537
20472.240426	-749.822333	1526.231445	371.343567
20472.240426	-749.822333	1525.176758	413.503906
20472.240426	-749.822333	1524.122070	417.286896
20472.240426	-749.822333	1523.067383	335.136627
20472.240426	-749.822333	1522.012695	15.325398
20472.240426	-749.822333	1520.957031	551.926453
20472.240426	-749.822333	1519.901367	198.561646
20472.240426	-749.822333	1518.845703	406.973846
20472.240426	-749.822333	1517.790039	128.814148
20472.240426	-749.822333	1516.734375	328.450378
20472.240426	-749.822333	1515.677734	211.399902
20472.240426	-749.822333	1514.621094	350.195770
20472.240426	-749.822333	1513.564453	317.219482
20472.240426	-749.822333	1512.507813	117.094650
20472.240426	-749.822333	1511.450195	319.647827
20472.240426	-749.822333	1510.393555	63.442604
20472.240426	-749.822333	1509.335938	180.399246
20472.240426	-749.822333	1508.278320	220.666885
20472.240426	-749.822333	1507.219727	349.189880
20472.240426	-749.822333	1506.162109	482.366302
20472.240426	-749.822333	1505.103516	475.656799
20472.240426	-749.822333	1504.044922	557.178467
20472.240426	-749.822333	1502.986328	489.869263
20472.240426	-749.822333	1501.926758	619.105957
20472.240426	-749.822333	1500.868164	807.144165
20472.240426	-749.822333	1499.808594	821.578979
20472.240426	-749.822333	1498.749023	457.266815
20472.240426	-749.822333	1497.688477	575.854614
20472.240426	-749.822333	1496.628906	690.075012
20472.240426	-749.822333	1495.568359	723.280334
20472.240426	-749.822333	1494.507813	630.451233
20472.240426	-749.822333	1493.447266	312.517578
20472.240426	-749.822333	1492.386719	402.651550
20472.240426	-749.822333	1491.325195	58.227562
20472.240426	-749.822333	1490.263672	175.766510
20472.240426	-749.822333	1489.202148	268.678741
20472.240426	-749.822333	1488.140625	118.632408
20472.240426	-749.822333	1487.079102	-98.684837
20472.240426	-749.822333	1486.016602	-61.470066
20472.240426	-749.822333	1484.954102	63.656052
20472.240426	-749.822333	1483.891602	-11.261460
20472.240426	-749.822333	1482.829102	93.939598
20472.240426	-749.822333	1481.765625	-275.107147
20472.240426	-749.822333	1480.702148	-32.407909
20472.240426	-749.822333	1479.638672	174.429932
20472.240426	-749.822333	1478.575195	-74.734215
20472.240426	-749.822333	1477.511719	40.306648
20472.240426	-749.822333	1476.447266	-28.734915
20472.240426	-749.822333	1475.382813	-95.237175
20472.240426	-749.822333	1474.318359	-80.729477
20472.240426	-749.822333	1473.253906	-54.790020
20472.240426	-749.822333	1472.189453	101.487350
20472.240426	-749.822333	1471.124023	-255.816833
20472.240426	-749.822333	1470.058594	3.754143
20472.240426	-749.822333	1468.993164	-83.723701
20472.240426	-749.822333	1467.927734	82.112762
20472.240426	-749.822333	1466.861328	171.903275
20472.240426	-749.822333	1465.794922	286.597931
20472.240426	-749.822333	1464.728516	201.503159
20472.240426	-749.822333	1463.662109	242.472244
20472.240426	-749.822333	1462.594727	467.542053
20472.240426	-749.822333	1461.528320	474.954712
20472.240426	-749.822333	1460.460938	530.100708
20472.240426	-749.822333	1459.393555	732.436768
20472.240426	-749.822333	1458.326172	570.919678
20472.240426	-749.822333	1457.257813	816.268738
20472.240426	-749.822333	1456.189453	806.367737
20472.240426	-749.822333	1455.121094	739.046509
20472.240426	-749.822333	1454.052734	716.712891
20472.240426	-749.822333	1452.984375	788.174988
20472.240426	-749.822333	1451.915039	612.813110
20472.240426	-749.822333	1450.845703	912.228943
20472.240426	-749.822333	1449.776367	959.234497
20472.240426	-749.822333	1448.707031	865.989563
20472.240426	-749.822333	1447.636719	897.255859
20472.240426	-749.822333	1446.567383	831.561340
20472.240426	-749.822333	1445.497070	819.793396
20472.240426	-749.822333	1444.425781	822.682495
20472.240426	-749.822333	1443.355469	737.423584
20472.240426	-749.822333	1442.285156	817.802002
20472.240426	-749.822333	1441.213867	773.162537
20472.240426	-749.822333	1440.142578	747.731995
20472.240426	-749.822333	1439.070313	883.823975
20472.240426	-749.822333	1437.999023	583.914917
20472.240426	-749.822333	1436.926758	557.189697
20472.240426	-749.822333	1435.854492	599.538391
20472.240426	-749.822333	1434.782227	868.606934
20472.240426	-749.822333	1433.709961	988.105408
20472.240426	-749.822333	1432.636719	931.735352
20472.240426	-749.822333	1431.563477	558.427063
20472.240426	-749.822333	1430.490234	502.509979
20472.240426	-749.822333	1429.416992	652.543945
20472.240426	-749.822333	1428.343750	613.987122
20472.240426	-749.822333	1427.269531	803.797546
20472.240426	-749.822333	1426.195313	747.941772
20472.240426	-749.822333	1425.121094	440.024628
20472.240426	-749.822333	1424.046875	362.887024
20472.240426	-749.822333	1422.971680	234.596863
20472.240426	-749.822333	1421.896484	226.397476
20472.240426	-749.822333	1420.821289	141.668900
20472.240426	-749.822333	1419.746094	276.101685
20472.240426	-749.822333	1418.669922	288.641235
20472.240426	-749.822333	1417.594727	13.343585
20472.240426	-749.822333	1416.518555	103.504784
20472.240426	-749.822333	1415.442383	181.177689
20472.240426	-749.822333	1414.365234	163.077820
20472.240426	-749.822333	1413.289063	-61.359272
20472.240426	-749.822333	1412.211914	192.472290
20472.240426	-749.822333	1411.134766	180.579758
20472.240426	-749.822333	1410.057617	417.790314
20472.240426	-749.822333	1408.979492	306.894379
20472.240426	-749.822333	1407.902344	250.538864
20472.240426	-749.822333	1406.824219	624.600586
20472.240426	-749.822333	1405.746094	533.115234
20472.240426	-749.822333	1404.666992	313.826996
20472.240426	-749.822333	1403.588867	430.485046
20472.240426	-749.822333	1402.509766	731.568848
20472.240426	-749.822333	1401.430664	774.502258
20472.240426	-749.822333	1400.351563	579.008789
20472.240426	-749.822333	1399.271484	825.536316
20472.240426	-749.822333	1398.192383	788.990784
20472.240426	-749.822333	1397.112305	664.671448
20472.240426	-749.822333	1396.031250	845.321716
20472.240426	-749.822333	1394.951172	890.063477
20472.240426	-749.822333	1393.871094	909.344849
20472.240426	-749.822333	1392.790039	719.821411
20472.240426	-749.822333	1391.708984	753.374695
20472.240426	-749.822333	1390.626953	623.547241
20472.240426	-749.822333	1389.545898	1048.791626
20472.240426	-749.822333	1388.463867	848.295776
20472.240426	-749.822333	1387.381836	631.151611
20472.240426	-749.822333	1386.299805	1027.238770
20472.240426	-749.822333	1385.217773	865.423279
20472.240426	-749.822333	1384.134766	1017.892944
20472.240426	-749.822333	1383.051758	1042.274292
20472.240426	-749.822333	1381.968750	658.890259
20472.240426	-749.822333	1380.885742	857.979858
20472.240426	-749.822333	1379.802734	930.180603
20472.240426	-749.822333	1378.718750	969.108643
20472.240426	-749.822333	1377.634766	1089.625977
20472.240426	-749.822333	1376.550781	763.128052
20472.240426	-749.822333	1375.465820	1003.531921
20472.240426	-749.822333	1374.381836	964.038635
20472.240426	-749.822333	1373.296875	1013.909729
20472.240426	-749.822333	1372.211914	921.217712
20472.240426	-749.822333	1371.126953	744.937866
20472.240426	-749.822333	1370.041016	634.835632
20472.240426	-749.822333	1368.955078	956.611938
20472.240426	-749.822333	1367.869141	879.509644
20472.240426	-749.822333	1366.783203	643.824341
20472.240426	-749.822333	1365.697266	542.511780
20472.240426	-749.822333	1364.610352	610.931641
20472.240426	-749.822333	1363.523438	462.913177
20472.240426	-749.822333	1362.436523	410.177795
20472.240426	-749.822333	1361.349609	442.142151
20472.240426	-749.822333	1360.261719	311.054932
20472.240426	-749.822333	1359.174805	570.119873
20472.240426	-749.822333	1358.086914	310.039032
20472.240426	-749.822333	1356.998047	302.584778
20472.240426	-749.822333	1355.910156	396.438690
20472.240426	-749.822333	1354.821289	195.158890
20472.240426	-749.822333	1353.732422	416.349121
20472.240426	-749.822333	1352.643555	123.957207
20472.240426	-749.822333	1351.554688	365.694702
20472.240426	-749.822333	1350.464844	94.590508
20472.240426	-749.822333	1349.375000	20.572144
20472.240426	-749.822333	1348.285156	21.370680
20472.240426	-749.822333	1347.195313	72.293335
20472.240426	-749.822333	1346.105469	211.858276
20472.240426	-749.822333	1345.014648	282.360413
20472.240426	-749.822333	1343.923828	163.500275
20472.240426	-749.822333	1342.833008	140.126099
20472.240426	-749.822333	1341.741211	-200.185699
20472.240426	-749.822333	1340.650391	78.995888
20472.240426	-749.822333	1339.558594	185.067307
20472.240426	-749.822333	1338.466797	203.238449
20472.240426	-749.822333	1337.374023	311.992249
20472.240426	-749.822333	1336.282227	183.645844
20472.240426	-749.822333	1335.189453	261.895081
20472.240426	-749.822333	1334.096680	214.369492
20472.240426	-749.822333	1333.003906	336.055939
20472.240426	-749.822333	1331.910156	254.869385
20472.240426	-749.822333	1330.817383	29.069561
20472.240426	-749.822333	1329.723633	41.083523
20472.240426	-749.822333	1328.629883	83.956421
20472.240426	-749.822333	1327.535156	96.005821
20472.240426	-749.822333	1326.441406	397.934265
20472.240426	-749.822333	1325.346680	437.421326
20472.240426	-749.822333	1324.251953	174.058716
20472.240426	-749.822333	1323.156250	387.619354
20472.240426	-749.822333	1322.061523	214.957642
20472.240426	-749.822333	1320.965820	302.460632
20472.240426	-749.822333	1319.870117	282.292114
20472.240426	-749.822333	1318.774414	288.587402
20472.240426	-749.822333	1317.678711	321.360748
20472.240426	-749.822333	1316.582031	367.119720
20472.240426	-749.822333	1315.485352	286.402893
20472.240426	-749.822333	1314.388672	192.455002
20472.240426	-749.822333	1313.291016	337.647034
20472.240426	-749.822333	1312.194336	520.894958
20472.240426	-749.822333	1311.096680	281.834869
20472.240426	-749.822333	1309.999023	237.538254
20472.240426	-749.822333	1308.901367	235.676590
20472.240426	-749.822333	1307.802734	403.536194
20472.240426	-749.822333	1306.705078	471.010101
20472.240426	-749.822333	1305.606445	255.519043
20472.240426	-749.822333	1304.506836	519.323425
20472.240426	-749.822333	1303.408203	557.906982
20472.240426	-749.822333	1302.308594	512.480652
20472.240426	-749.822333	1301.208984	450.197662
20472.240426	-749.822333	1300.109375	518.046936
20472.240426	-749.822333	1299.009766	708.527039
20472.240426	-749.822333	1297.909180	381.077026
20472.240426	-749.822333	1296.808594	732.909607
20472.240426	-749.822333	1295.708008	527.471619
20472.240426	-749.822333	1294.607422	643.184692
20472.240426	-749.822333	1293.506836	532.062988
20472.240426	-749.822333	1292.405273	368.681488
20472.240426	-749.822333	1291.303711	426.187317
20472.240426	-749.822333	1290.202148	558.245178
20472.240426	-749.822333	1289.099609	268.956360
20472.240426	-749.822333	1287.998047	264.337006
20472.240426	-749.822333	1286.895508	441.636993
20472.240426	-749.822333	1285.792969	402.605927
20472.240426	-749.822333	1284.689453	367.632355
20472.240426	-749.822333	1283.586914	687.193115
20472.240426	-749.822333	1282.483398	554.485596
20472.240426	-749.822333	1281.379883	578.671448
20472.240426	-749.822333	1280.276367	546.357788
20472.240426	-749.822333	1279.171875	534.213501
20472.240426	-749.822333	1278.067383	631.320129
20472.240426	-749.822333	1276.962891	545.668640
20472.240426	-749.822333	1275.858398	718.624939
20472.240426	-749.822333	1274.753906	418.268921
20472.240426	-749.822333	1273.648438	603.843750
20472.240426	-749.822333	1272.542969	644.742432
20472.240426	-749.822333	1271.437500	460.476471
20472.240426	-749.822333	1270.331055	484.878967
20472.240426	-749.822333	1269.225586	381.762543
20472.240426	-749.822333	1268.119141	98.487976
20472.240426	-749.822333	1267.012695	261.722687
20472.240426	-749.822333	1265.906250	103.665733
20472.240426	-749.822333	1264.798828	45.935368
20472.240426	-749.822333	1263.691406	-8.043124
20472.240426	-749.822333	1262.583984	-86.580467
20472.240426	-749.822333	1261.476563	45.585873
20472.240426	-749.822333	1260.368164	226.014603
20472.240426	-749.822333	1259.260742	79.465744
20472.240426	-749.822333	1258.152344	-38.578850
20472.240426	-749.822333	1257.043945	-26.679165
20472.240426	-749.822333	1255.934570	-107.715942
20472.240426	-749.822333	1254.825195	-15.262814
20472.240426	-749.822333	1253.716797	-153.015457
20472.240426	-749.822333	1252.606445	-43.775005
20472.240426	-749.822333	1251.497070	29.679396
20472.240426	-749.822333	1250.387695	-52.697994
20472.240426	-749.822333	1249.277344	19.241365
20472.240426	-749.822333	1248.166992	1.903442
20472.240426	-749.822333	1247.055664	35.017811
20472.240426	-749.822333	1245.945313	41.207161
20472.240426	-749.822333	1244.833984	10.290080
20472.240426	-749.822333	1243.722656	120.521271
20472.240426	-749.822333	1242.611328	95.631180
20472.240426	-749.822333	1241.499023	75.095413
20472.240426	-749.822333	1240.387695	276.032043
20472.240426	-749.822333	1239.275391	328.842468
20472.240426	-749.822333	1238.162109	199.359665
20472.240426	-749.822333	1237.049805	251.860031
20472.240426	-749.822333	1235.936523	282.094543
20472.240426	-749.822333	1234.823242	325.158905
20472.240426	-749.822333	1233.709961	263.181152
20472.240426	-749.822333	1232.596680	373.167175
20472.240426	-749.822333	1231.482422	228.957687
20472.240426	-749.822333	1230.369141	372.712311
20472.240426	-749.822333	1229.253906	154.137482
20472.240426	-749.822333	1228.139648	223.975204
20472.240426	-749.822333	1227.025391	160.453857
20472.240426	-749.822333	1225.910156	226.712875
20472.240426	-749.822333	1224.794922	160.378662
20472.240426	-749.822333	1223.679688	225.487488
20472.240426	-749.822333	1222.563477	135.156219
20472.240426	-749.822333	1221.447266	168.289719
20472.240426	-749.822333	1220.331055	112.002419
20472.240426	-749.822333	1219.214844	247.054260
20472.240426	-749.822333	1218.098633	209.382950
20472.240426	-749.822333	1216.981445	156.987061
20472.240426	-749.822333	1215.864258	341.965027
20472.240426	-749.822333	1214.747070	467.252655
20472.240426	-749.822333	1213.629883	266.666534
20472.240426	-749.822333	1212.511719	161.140732
20472.240426	-749.822333	1211.393555	332.985779
20472.240426	-749.822333	1210.275391	320.795685
20472.240426	-749.822333	1209.157227	170.481888
20472.240426	-749.822333	1208.038086	305.248749
20472.240426	-749.822333	1206.918945	383.540833
20472.240426	-749.822333	1205.799805	331.360413
20472.240426	-749.822333	1204.680664	317.742981
20472.240426	-749.822333	1203.560547	112.123230
20472.240426	-749.822333	1202.441406	297.894440
20472.240426	-749.822333	1201.321289	219.464706
20472.240426	-749.822333	1200.200195	39.785480
20472.240426	-749.822333	1199.080078	129.361633
20472.240426	-749.822333	1197.958984	-45.079624
20472.240426	-749.822333	1196.837891	10.654843
20472.240426	-749.822333	1195.716797	-72.042961
20472.240426	-749.822333	1194.594727	17.009432
20472.240426	-749.822333	1193.473633	58.433678
20472.240426	-749.822333	1192.351563	-61.938957
20472.240426	-749.822333	1191.229492	-51.778328
20472.240426	-749.822333	1190.106445	-86.448036
20472.240426	-749.822333	1188.984375	-4.324992
20472.240426	-749.822333	1187.861328	-155.131027
20472.240426	-749.822333	1186.738281	-9.653920
20472.240426	-749.822333	1185.614258	-148.301376
20472.240426	-749.822333	1184.491211	-47.079731
20472.240426	-749.822333	1183.367188	111.896233
20472.240426	-749.822333	1182.243164	-117.954956
20472.240426	-749.822333	1181.119141	-98.070229
20472.240426	-749.822333	1179.994141	-31.262808
20472.240426	-749.822333	1178.869141	1.880196
20472.240426	-749.822333	1177.744141	-22.662115
20472.240426	-749.822333	1176.619141	43.621605
20472.240426	-749.822333	1175.493164	71.018547
20472.240426	-749.822333	1174.368164	58.538155
20472.240426	-749.822333	1173.242188	212.775650
20472.240426	-749.822333	1172.115234	239.118225
20472.240426	-749.822333	1170.989258	192.760254
20472.240426	-749.822333	1169.862305	218.352325
20472.240426	-749.822333	1168.735352	279.272766
20472.240426	-749.822333	1167.608398	213.420715
20472.240426	-749.822333	1166.481445	218.280258
20472.240426	-749.822333	1165.353516	174.388153
20472.240426	-749.822333	1164.225586	205.856445
20472.240426	-749.822333	1163.097656	1.300087
20472.240426	-749.822333	1161.968750	64.862160
20472.240426	-749.822333	1160.840820	142.094666
20472.240426	-749.822333	1159.711914	204.084702
20472.240426	-749.822333	1158.583008	27.047157
20472.240426	-749.822333	1157.453125	88.531158
20472.240426	-749.822333	1156.324219	111.324577
20472.240426	-749.822333	1155.194336	-45.923435
20472.240426	-749.822333	1154.064453	-130.811157
20472.240426	-749.822333	1152.933594	-53.209618
20472.240426	-749.822333	1151.803711	-230.113602
20472.240426	-749.822333	1150.672852	-21.055058
20472.240426	-749.822333	1149.541992	-156.240402
20472.240426	-749.822333	1148.411133	-108.701958
20472.240426	-749.822333	1147.279297	-90.228966
20472.240426	-749.822333	1146.147461	-205.879181
20472.240426	-749.822333	1145.015625	-255.972977
20472.240426	-749.822333	1143.883789	-209.192078
20472.240426	-749.822333	1142.750977	-31.771223
20472.240426	-749.822333	1141.619141	4.764740
20472.240426	-749.822333	1140.486328	-112.421867
20472.240426	-749.822333	1139.352539	57.104282
20472.240426	-749.822333	1138.219727	-125.720284
20472.240426	-749.822333	1137.085938	97.124794
20472.240426	-749.822333	1135.952148	-18.175390
20472.240426	-749.822333	1134.818359	178.290314
20472.240426	-749.822333	1133.683594	203.017181
20472.240426	-749.822333	1132.549805	113.779335
20472.240426	-749.822333	1131.415039	318.612152
20472.240426	-749.822333	1130.279297	484.516510
20472.240426	-749.822333	1129.144531	572.476868
20472.240426	-749.822333	1128.008789	605.813416
20472.240426	-749.822333	1126.873047	608.782104
20472.240426	-749.822333	1125.737305	383.048187
20472.240426	-749.822333	1124.601563	625.429077
20472.240426	-749.822333	1123.464844	475.526947
20472.240426	-749.822333	1122.328125	499.907684
20472.240426	-749.822333	1121.191406	552.547974
20472.240426	-749.822333	1120.054688	537.496765
20472.240426	-749.822333	1118.916992	491.894135
20472.240426	-749.822333	1117.779297	449.653870
20472.240426	-749.822333	1116.641602	315.442169
20472.240426	-749.822333	1115.503906	346.609772
20472.240426	-749.822333	1114.365234	301.328735
20472.240426	-749.822333	1113.226563	389.671356
20472.240426	-749.822333	1112.087891	304.793121
20472.240426	-749.822333	1110.949219	248.115082
20472.240426	-749.822333	1109.809570	246.356018
20472.240426	-749.822333	1108.669922	251.103134
20472.240426	-749.822333	1107.530273	460.346863
20472.240426	-749.822333	1106.390625	568.120605
20472.240426	-749.822333	1105.250000	337.015076
20472.240426	-749.822333	1104.109375	402.530731
20472.240426	-749.822333	1102.968750	313.889526
20472.240426	-749.822333	1101.828125	280.840759
20472.240426	-749.822333	1100.686523	405.463104
20472.240426	-749.822333	1099.544922	521.948792
20472.240426	-749.822333	1098.403320	429.273651
20472.240426	-749.822333	1097.261719	516.960449
20472.240426	-749.822333	1096.120117	325.237061
20472.240426	-749.822333	1094.977539	328.485535
20472.240426	-749.822333	1093.834961	372.545959
20472.240426	-749.822333	1092.691406	186.458527
20472.240426	-749.822333	1091.548828	475.377075
20472.240426	-749.822333	1090.405273	406.834778
20472.240426	-749.822333	1089.261719	583.335083
20472.240426	-749.822333	1088.118164	310.919281
20472.240426	-749.822333	1086.973633	328.590271
20472.240426	-749.822333	1085.829102	465.849609
20472.240426	-749.822333	1084.684570	192.089294
20472.240426	-749.822333	1083.540039	352.501038
20472.240426	-749.822333	1082.395508	394.225861
20472.240426	-749.822333	1081.250000	171.351349
20472.240426	-749.822333	1080.104492	275.846161
20472.240426	-749.822333	1078.958984	348.230225
20472.240426	-749.822333	1077.812500	396.603668
20472.240426	-749.822333	1076.666016	445.088715
20472.240426	-749.822333	1075.519531	273.137848
20472.240426	-749.822333	1074.373047	172.280777
20472.240426	-749.822333	1073.226563	340.789368
20472.240426	-749.822333	1072.079102	397.203003
20472.240426	-749.822333	1070.931641	47.212490
20472.240426	-749.822333	1069.784180	95.757698
20472.240426	-749.822333	1068.635742	85.203026
20472.240426	-749.822333	1067.487305	246.472870
20472.240426	-749.822333	1066.338867	216.970016
20472.240426	-749.822333	1065.190430	190.354050
20472.240426	-749.822333	1064.041992	280.933014
20472.240426	-749.822333	1062.892578	339.897217
20472.240426	-749.822333	1061.743164	375.553192
20472.240426	-749.822333	1060.593750	452.652374
20472.240426	-749.822333	1059.443359	326.774597
20472.240426	-749.822333	1058.292969	313.660095
20472.240426	-749.822333	1057.142578	211.629654
20472.240426	-749.822333	1055.992188	190.539169
20472.240426	-749.822333	1054.841797	130.440857
20472.240426	-749.822333	1053.690430	136.974869
20472.240426	-749.822333	1052.539063	-77.009865
20472.240426	-749.822333	1051.387695	181.180450
20472.240426	-749.822333	1050.235352	118.499344
20472.240426	-749.822333	1049.083984	147.198318
20472.240426	-749.822333	1047.931641	182.781555
20472.240426	-749.822333	1046.778320	2.621464
20472.240426	-749.822333	1045.625977	107.610451
20472.240426	-749.822333	1044.472656	-34.076660
20472.240426	-749.822333	1043.319336	74.474846
20472.240426	-749.822333	1042.166016	32.893372
20472.240426	-749.822333	1041.012695	-29.711256
20472.240426	-749.822333	1039.858398	228.785965
20472.240426	-749.822333	1038.704102	87.472801
20472.240426	-749.822333	1037.549805	156.271576
20472.240426	-749.822333	1036.394531	129.613815
20472.240426	-749.822333	1035.239258	-37.787609
20472.240426	-749.822333	1034.083984	46.166412
20472.240426	-749.822333	1032.928711	-87.269760
20472.240426	-749.822333	1031.773438	125.914116
20472.240426	-749.822333	1030.617188	65.069260
20472.240426	-749.822333	1029.460938	286.236908
20472.240426	-749.822333	1028.304688	70.079590
20472.240426	-749.822333	1027.147461	273.386932
20472.240426	-749.822333	1025.991211	178.683640
20472.240426	-749.822333	1024.833984	-29.499487
20472.240426	-749.822333	1023.675781	80.057648
20472.240426	-749.822333	1022.518555	196.827225
20472.240426	-749.822333	1021.360352	163.409180
20472.240426	-749.822333	1020.202148	110.569633
20472.240426	-749.822333	1019.043945	35.156704
20472.240426	-749.822333	1017.884766	55.650108
20472.240426	-749.822333	1016.726563	110.086830
20472.240426	-749.822333	1015.567383	76.103561
20472.240426	-749.822333	1014.407227	-70.025917
20472.240426	-749.822333	1013.248047	32.092995
20472.240426	-749.822333	1012.087891	18.123156
20472.240426	-749.822333	1010.927734	-88.745232
20472.240426	-749.822333	1009.767578	44.021477
20472.240426	-749.822333	1008.606445	-252.461548
20472.240426	-749.822333	1007.446289	-2.187062
20472.240426	-749.822333	1006.285156	171.503525
20472.240426	-749.822333	1005.123047	28.514835
20472.240426	-749.822333	1003.961914	180.675568
20472.240426	-749.822333	1002.799805	38.021088
20472.240426	-749.822333	1001.637695	23.993788
20472.240426	-749.822333	1000.475586	100.931969
20472.240426	-749.822333	999.312500	200.540390
20472.240426	-749.822333	998.149414	-92.980659
20472.240426	-749.822333	996.986328	-95.884697
20472.240426	-749.822333	995.823242	-135.850037
20472.240426	-749.822333	994.659180	5.572106
20472.240426	-749.822333	993.496094	-138.507843
20472.240426	-749.822333	992.332031	-74.120522
20472.240426	-749.822333	991.166992	20.084963
20472.240426	-749.822333	990.002930	85.915497
20472.240426	-749.822333	988.837891	16.405693
20472.240426	-749.822333	987.672852	103.286339
20472.240426	-749.822333	986.506836	31.535284
20472.240426	-749.822333	985.341797	37.324829
20472.240426	-749.822333	984.175781	-61.873131
20472.240426	-749.822333	983.009766	-49.668541
20472.240426	-749.822333	981.843750	20.519005
20472.240426	-749.822333	980.676758	-22.792755
20472.240426	-749.822333	979.509766	71.667145
20472.240426	-749.822333	978.342773	37.899021
20472.240426	-749.822333	977.175781	129.537964
20472.240426	-749.822333	976.007813	171.127945
20472.240426	-749.822333	974.839844	46.629467
20472.240426	-749.822333	973.671875	186.576035
20472.240426	-749.822333	972.503906	139.821442
20472.240426	-749.822333	971.334961	79.577538
20472.240426	-749.822333	970.166016	167.579300
20472.240426	-749.822333	968.997070	-11.314610
20472.240426	-749.822333	967.828125	191.626556
20472.240426	-749.822333	966.658203	-3.211647
20472.240426	-749.822333	965.488281	106.232964
20472.240426	-749.822333	964.318359	108.077820
20472.240426	-749.822333	963.148438	-53.431702
20472.240426	-749.822333	961.977539	12.757794
20472.240426	-749.822333	960.806641	42.154854
20472.240426	-749.822333	959.635742	-3.470773
20472.240426	-749.822333	958.463867	58.649090
20472.240426	-749.822333	957.292969	151.350784
20472.240426	-749.822333	956.121094	64.925301
20472.240426	-749.822333	954.948242	101.004593
20472.240426	-749.822333	953.776367	-4.889329
20472.240426	-749.822333	952.603516	-5.269349
20472.240426	-749.822333	951.430664	-148.284042
20472.240426	-749.822333	950.257813	-76.833641
20472.240426	-749.822333	949.084961	12.408196
20472.240426	-749.822333	947.911133	278.005310
20472.240426	-749.822333	946.737305	107.109909
20472.240426	-749.822333	945.563477	-63.983887
20472.240426	-749.822333	944.388672	-109.321709
20472.240426	-749.822333	943.213867	-20.272762
20472.240426	-749.822333	942.039063	208.462875
20472.240426	-749.822333	940.864258	87.921448
20472.240426	-749.822333	939.688477	211.307220
20472.240426	-749.822333	938.513672	74.469734
20472.240426	-749.822333	937.337891	225.642593
20472.240426	-749.822333	936.161133	58.859047
20472.240426	-749.822333	934.985352	360.821228
20472.240426	-749.822333	933.808594	146.113220
20472.240426	-749.822333	932.631836	379.240906
20472.240426	-749.822333	931.454102	246.831238
20472.240426	-749.822333	930.277344	137.163635
20472.240426	-749.822333	929.099609	447.884491
20472.240426	-749.822333	927.921875	534.706726
20472.240426	-749.822333	926.743164	381.621552
20472.240426	-749.822333	925.565430	379.274597
20472.240426	-749.822333	924.386719	431.724243
20472.240426	-749.822333	923.208008	431.611237
20472.240426	-749.822333	922.028320	274.031982
20472.240426	-749.822333	920.849609	248.828705
20472.240426	-749.822333	919.669922	255.635666
20472.240426	-749.822333	919.474609	179.120895
20472.240426	-749.822333	918.309570	35.217781
20472.240426	-749.822333	917.143555	-110.921783
20472.240426	-749.822333	915.977539	139.708237
20472.240426	-749.822333	914.810547	-8.705990
20472.240426	-749.822333	913.644531	191.622177
20472.240426	-749.822333	912.477539	-2.355816
20472.240426	-749.822333	911.310547	204.689346
20472.240426	-749.822333	910.143555	-123.637939
20472.240426	-749.822333	908.975586	226.780975
20472.240426	-749.822333	907.807617	32.878941
20472.240426	-749.822333	906.639648	57.565037
20472.240426	-749.822333	905.471680	32.150654
20472.240426	-749.822333	904.303711	-29.680744
20472.240426	-749.822333	903.134766	122.343643
20472.240426	-749.822333	901.965820	-19.124502
20472.240426	-749.822333	900.796875	-1.374402
20472.240426	-749.822333	899.626953	-117.787628
20472.240426	-749.822333	898.457031	79.513115
20472.240426	-749.822333	897.287109	17.630192
20472.240426	-749.822333	896.117188	98.897400
20472.240426	-749.822333	894.947266	232.359482
20472.240426	-749.822333	893.776367	249.915955
20472.240426	-749.822333	892.605469	192.506699
20472.240426	-749.822333	891.434570	250.884430
20472.240426	-749.822333	890.262695	350.077515
20472.240426	-749.822333	889.091797	399.274597
20472.240426	-749.822333	887.919922	142.127380
20472.240426	-749.822333	886.748047	91.492729
20472.240426	-749.822333	885.575195	190.547363
20472.240426	-749.822333	884.403320	-123.160530
20472.240426	-749.822333	883.230469	-173.778336
20472.240426	-749.822333	882.057617	79.325333
20472.240426	-749.822333	880.883789	-46.141689
20472.240426	-749.822333	879.710938	66.309372
20472.240426	-749.822333	878.537109	6.536780
20472.240426	-749.822333	877.362305	-64.557472
20472.240426	-749.822333	876.188477	108.890503
20472.240426	-749.822333	875.013672	67.182182
20472.240426	-749.822333	873.839844	0.560447
20472.240426	-749.822333	872.664063	-90.942940
20472.240426	-749.822333	871.489258	-130.406281
20472.240426	-749.822333	870.313477	60.846699
20472.240426	-749.822333	869.138672	118.558060
20472.240426	-749.822333	867.962891	60.906879
20472.240426	-749.822333	866.786133	170.539230
20472.240426	-749.822333	865.610352	264.271545
20472.240426	-749.822333	864.433594	70.962410
20472.240426	-749.822333	863.256836	-129.075821
20472.240426	-749.822333	862.079102	30.081947
20472.240426	-749.822333	860.902344	195.912506
20472.240426	-749.822333	859.724609	59.101360
20472.240426	-749.822333	858.546875	127.734383
20472.240426	-749.822333	857.368164	-47.434357
20472.240426	-749.822333	856.190430	-57.848763
20472.240426	-749.822333	855.011719	-196.877289
20472.240426	-749.822333	853.833008	-74.244507
20472.240426	-749.822333	852.654297	-57.683254
20472.240426	-749.822333	851.474609	-167.415192
20472.240426	-749.822333	850.294922	-141.889450
20472.240426	-749.822333	849.115234	-57.815407
20472.240426	-749.822333	847.935547	8.162948
20472.240426	-749.822333	846.754883	-43.059971
20472.240426	-749.822333	845.575195	-101.059418
20472.240426	-749.822333	844.393555	-44.221756
20472.240426	-749.822333	843.212891	-45.983742
20472.240426	-749.822333	842.032227	-65.790855
20472.240426	-749.822333	840.850586	56.152500
20472.240426	-749.822333	839.668945	106.007805
20472.240426	-749.822333	838.486328	232.289322
20472.240426	-749.822333	837.304688	41.362686
20472.240426	-749.822333	836.122070	142.791000
20472.240426	-749.822333	834.939453	55.296429
20472.240426	-749.822333	833.756836	-61.422264
20472.240426	-749.822333	832.573242	-214.086334
20472.240426	-749.822333	831.389648	64.638771
20472.240426	-749.822333	830.206055	-79.088219
20472.240426	-749.822333	829.022461	30.973455
20472.240426	-749.822333	827.838867	-76.849510
20472.240426	-749.822333	826.654297	-162.219955
20472.240426	-749.822333	825.469727	109.258347
20472.240426	-749.822333	824.284180	21.553335
20472.240426	-749.822333	823.099609	-59.433372
20472.240426	-749.822333	821.914063	-77.625862
20472.240426	-749.822333	820.728516	94.758995
20472.240426	-749.822333	819.542969	110.079132
20472.240426	-749.822333	818.356445	-11.389122
20472.240426	-749.822333	817.169922	-121.650612
20472.240426	-749.822333	815.983398	72.819603
20472.240426	-749.822333	814.796875	2.812091
20472.240426	-749.822333	813.609375	-78.410660
20472.240426	-749.822333	812.422852	-179.807632
20472.240426	-749.822333	811.235352	-28.221596
20472.240426	-749.822333	810.046875	87.440628
20472.240426	-749.822333	808.859375	144.814072
20472.240426	-749.822333	807.670898	143.941437
20472.240426	-749.822333	806.482422	232.495041
20472.240426	-749.822333	805.293945	112.962738
20472.240426	-749.822333	804.104492	141.009018
20472.240426	-749.822333	802.915039	-36.685871
20472.240426	-749.822333	801.725586	47.150127
20472.240426	-749.822333	800.536133	59.386696
20472.240426	-749.822333	799.345703	-75.892876
20472.240426	-749.822333	798.155273	-21.304041
20472.240426	-749.822333	796.964844	-53.891155
20472.240426	-749.822333	795.774414	-35.167316
20472.240426	-749.822333	794.583008	-166.074799
20472.240426	-749.822333	793.392578	77.972832
20472.240426	-749.822333	792.200195	-35.166019
20472.240426	-749.822333	791.008789	-23.382753
20472.240426	-749.822333	789.816406	-91.961159
20472.240426	-749.822333	788.625000	-73.599541
20472.240426	-749.822333	787.432617	127.523590
20472.240426	-749.822333	786.239258	-72.738762
20472.240426	-749.822333	785.046875	-105.829697
20472.240426	-749.822333	783.853516	34.832733
20472.240426	-749.822333	782.660156	-51.853535
20472.240426	-749.822333	781.465820	19.573046
20472.240426	-749.822333	780.272461	-191.899551
20472.240426	-749.822333	779.078125	-113.919220
20472.240426	-749.822333	777.883789	17.387774
20472.240426	-749.822333	776.688477	315.485748
20472.240426	-749.822333	775.494141	-158.670120
20472.240426	-749.822333	774.298828	-78.788620
20472.240426	-749.822333	773.103516	150.007156
20472.240426	-749.822333	771.907227	-99.427086
20472.240426	-749.822333	770.711914	66.900475
20472.240426	-749.822333	769.515625	66.395851
20472.240426	-749.822333	768.318359	163.603561
20472.240426	-749.822333	767.122070	-32.565292
20472.240426	-749.822333	765.924805	-62.121983
20472.240426	-749.822333	764.727539	114.803040
20472.240426	-749.822333	763.530273	307.130463
20472.240426	-749.822333	762.333008	2.055424
20472.240426	-749.822333	761.134766	12.200816
20472.240426	-749.822333	759.936523	-184.089920
20472.240426	-749.822333	758.738281	125.452591
20472.240426	-749.822333	757.540039	37.769608
20472.240426	-749.822333	756.340820	-23.333517
20472.240426	-749.822333	755.141602	143.884369
20472.240426	-749.822333	753.942383	208.997391
20472.240426	-749.822333	752.742188	14.721899
20472.240426	-749.822333	751.541992	37.600029
20472.240426	-749.822333	750.341797	67.045776
20472.240426	-749.822333	749.141602	56.543465
20472.240426	-749.822333	747.941406	169.980743
20472.240426	-749.822333	746.740234	33.133308
20472.240426	-749.822333	745.539063	82.200897
20472.240426	-749.822333	744.337891	47.086819
20472.240426	-749.822333	743.135742	160.155533
20472.240426	-749.822333	741.933594	255.411636
20472.240426	-749.822333	740.731445	58.630573
20472.240426	-749.822333	739.529297	281.974518
20472.240426	-749.822333	738.326172	257.563599
20472.240426	-749.822333	737.124023	175.627426
20472.240426	-749.822333	735.919922	120.173630
20472.240426	-749.822333	734.716797	141.998505
20472.240426	-749.822333	733.513672	190.251511
20472.240426	-749.822333	732.309570	172.163940
20472.240426	-749.822333	731.105469	187.133591
20472.240426	-749.822333	729.900391	56.338951
20472.240426	-749.822333	728.696289	102.086678
20472.240426	-749.822333	727.491211	52.867287
20472.240426	-749.822333	726.286133	74.194138
20472.240426	-749.822333	725.080078	196.899841
20472.240426	-749.822333	723.874023	70.307472
20472.240426	-749.822333	722.668945	56.139729
20472.240426	-749.822333	721.461914	-19.809423
20472.240426	-749.822333	720.255859	5.579766
20472.240426	-749.822333	719.048828	81.565742
20472.240426	-749.822333	717.841797	-100.275131
20472.240426	-749.822333	716.634766	-53.062603
20472.240426	-749.822333	715.427734	7.275982
20472.240426	-749.822333	714.219727	58.717464
20472.240426	-749.822333	713.011719	-15.382221
20472.240426	-749.822333	711.803711	49.116047
20472.240426	-749.822333	710.594727	170.722214
20472.240426	-749.822333	709.385742	21.665474
20472.240426	-749.822333	708.176758	88.122116
20472.240426	-749.822333	706.967773	90.726463
20472.240426	-749.822333	705.758789	5.339402
20472.240426	-749.822333	704.548828	115.523468
20472.240426	-749.822333	703.338867	38.832432
20472.240426	-749.822333	702.127930	-112.581398
20472.240426	-749.822333	700.917969	94.015266
20472.240426	-749.822333	699.707031	17.195013
20472.240426	-749.822333	698.496094	17.186678
20472.240426	-749.822333	697.285156	67.605209
20472.240426	-749.822333	696.073242	34.552010
20472.240426	-749.822333	694.861328	185.755157
20472.240426	-749.822333	693.649414	23.155813
20472.240426	-749.822333	692.436523	73.300652
20472.240426	-749.822333	691.224609	77.325203
20472.240426	-749.822333	690.011719	125.136475
20472.240426	-749.822333	688.798828	249.585892
20472.240426	-749.822333	687.584961	365.162384
20472.240426	-749.822333	686.372070	88.484398
20472.240426	-749.822333	685.158203	72.523087
20472.240426	-749.822333	683.943359	330.252899
20472.240426	-749.822333	682.729492	252.844269
20472.240426	-749.822333	681.514648	120.693039
20472.240426	-749.822333	680.299805	205.213577
20472.240426	-749.822333	679.084961	195.566055
20472.240426	-749.822333	677.869141	367.445374
20472.240426	-749.822333	676.653320	248.318802
20472.240426	-749.822333	675.437500	181.680573
20472.240426	-749.822333	674.221680	348.951691
20472.240426	-749.822333	673.004883	406.822083
20472.240426	-749.822333	671.789063	202.396667
20472.240426	-749.822333	670.571289	485.229309
20472.240426	-749.822333	669.354492	202.156143
20472.240426	-749.822333	668.136719	196.519745
20472.240426	-749.822333	666.919922	391.730957
20472.240426	-749.822333	665.701172	451.474335
20472.240426	-749.822333	664.483398	238.347107
20472.240426	-749.822333	663.264648	256.574554
20472.240426	-749.822333	662.045898	316.214447
20472.240426	-749.822333	660.827148	164.228012
20472.240426	-749.822333	659.608398	167.107849
20472.240426	-749.822333	658.388672	56.584843
20472.240426	-749.822333	657.168945	164.060654
20472.240426	-749.822333	655.949219	86.226151
20472.240426	-749.822333	654.728516	112.984116
20472.240426	-749.822333	653.507813	191.990234
20472.240426	-749.822333	652.287109	5.238145
20472.240426	-749.822333	651.066406	-11.611498
20472.240426	-749.822333	649.844727	221.882233
20472.240426	-749.822333	648.623047	237.607544
20472.240426	-749.822333	647.401367	72.698799
20472.240426	-749.822333	646.179688	-11.654965
20472.240426	-749.822333	644.957031	112.829987
20472.240426	-749.822333	643.734375	224.205078
20472.240426	-749.822333	642.511719	300.737549
20472.240426	-749.822333	641.289063	-27.091520
20472.240426	-749.822333	640.065430	173.328827
20472.240426	-749.822333	638.841797	-43.528015
20472.240426	-749.822333	637.618164	-1.776606
20472.240426	-749.822333	636.393555	0.859097
20472.240426	-749.822333	635.168945	337.905273
20472.240426	-749.822333	633.944336	262.318695
20472.240426	-749.822333	632.719727	345.221191
20472.240426	-749.822333	631.494141	462.815674
20472.240426	-749.822333	630.269531	352.559998
20472.240426	-749.822333	629.042969	361.661957
20472.240426	-749.822333	627.817383	247.158478
20472.240426	-749.822333	626.590820	108.865852
20472.240426	-749.822333	625.365234	178.759476
20472.240426	-749.822333	624.137695	-74.297401
20472.240426	-749.822333	622.911133	155.991852
20472.240426	-749.822333	621.683594	52.573532
20472.240426	-749.822333	620.456055	-61.606224
20472.240426	-749.822333	619.228516	-67.436195
20472.240426	-749.822333	618.000977	-112.206512
20472.240426	-749.822333	616.772461	-111.474686
20472.240426	-749.822333	615.543945	27.793253
20472.240426	-749.822333	614.314453	-112.081230
20472.240426	-749.822333	613.085938	133.194305
20472.240426	-749.822333	611.856445	-41.172646
20472.240426	-749.822333	610.626953	-29.469482
20472.240426	-749.822333	609.397461	-97.717743
20472.240426	-749.822333	608.166992	-18.922905
20472.240426	-749.822333	606.936523	-303.148834
20472.240426	-749.822333	605.706055	-64.377022
20472.240426	-749.822333	604.474609	81.460426
20472.240426	-749.822333	603.244141	45.887821
20472.240426	-749.822333	602.012695	-104.048828
20472.240426	-749.822333	600.780273	-31.532036
20472.240426	-749.822333	599.548828	-23.731119
20472.240426	-749.822333	598.316406	-22.349800
20472.240426	-749.822333	597.083984	-42.480591
20472.240426	-749.822333	595.851563	-34.501472
20472.240426	-749.822333	594.618164	10.193897
20472.240426	-749.822333	593.384766	-83.036964
20472.240426	-749.822333	592.151367	-59.767368
20472.240426	-749.822333	590.917969	41.140308
20472.240426	-749.822333	589.683594	-56.136112
20472.240426	-749.822333	588.449219	-254.536224
20472.240426	-749.822333	587.214844	-39.290630
20472.240426	-749.822333	585.979492	-39.369755
20472.240426	-749.822333	584.745117	18.753904
20472.240426	-749.822333	583.509766	-99.545944
20472.240426	-749.822333	582.273438	79.226830
20472.240426	-749.822333	581.038086	36.428398
20472.240426	-749.822333	579.801758	53.958218
20472.240426	-749.822333	578.565430	-33.796795
20472.240426	-749.822333	577.329102	-280.516571
20472.240426	-749.822333	576.091797	-217.518784
20472.240426	-749.822333	574.854492	62.593933
20472.240426	-749.822333	573.617188	61.226563
20472.240426	-749.822333	572.378906	-101.146431
20472.240426	-749.822333	571.141602	-110.869446
20472.240426	-749.822333	569.903320	10.488264
20472.240426	-749.822333	568.664063	185.564224
20472.240426	-749.822333	567.425781	77.367943
20472.240426	-749.822333	566.186523	95.925301
20472.240426	-749.822333	564.947266	-9.845695
20472.240426	-749.822333	563.708008	219.135468
20472.240426	-749.822333	562.467773	117.892502
20472.240426	-749.822333	561.227539	143.298141
20472.240426	-749.822333	559.987305	222.392746
20472.240426	-749.822333	558.747070	82.981277
20472.240426	-749.822333	557.505859	33.733177
20472.240426	-749.822333	556.264648	151.709106
20472.240426	-749.822333	555.023438	6.330124
20472.240426	-749.822333	553.781250	21.723812
20472.240426	-749.822333	552.539063	17.965067
20472.240426	-749.822333	551.296875	114.924004
20472.240426	-749.822333	550.054688	-44.813492
20472.240426	-749.822333	548.811523	118.686020
20472.240426	-749.822333	547.569336	44.820992
20472.240426	-749.822333	546.325195	63.069881
20472.240426	-749.822333	545.082031	179.783798
20472.240426	-749.822333	543.837891	106.336838
20472.240426	-749.822333	542.593750	48.009666
20472.240426	-749.822333	541.349609	-144.771423
20472.240426	-749.822333	540.105469	79.210785
20472.240426	-749.822333	538.860352	-59.839462
20472.240426	-749.822333	537.615234	63.934013
20472.240426	-749.822333	536.369141	70.374184
20472.240426	-749.822333	535.124023	2.239113
20472.240426	-749.822333	533.877930	-37.992542
20472.240426	-749.822333	532.631836	261.136230
20472.240426	-749.822333	531.384766	146.477295
20472.240426	-749.822333	530.138672	85.308060
20472.240426	-749.822333	528.891602	258.823486
20472.240426	-749.822333	527.643555	159.554749
20472.240426	-749.822333	526.396484	45.539146
20472.240426	-749.822333	525.148438	298.179962
20472.240426	-749.822333	523.900391	250.481674
20472.240426	-749.822333	522.652344	341.366394
20472.240426	-749.822333	521.403320	259.870575
20472.240426	-749.822333	520.154297	176.408279
20472.240426	-749.822333	518.905273	286.789948
20472.240426	-749.822333	517.656250	314.260437
20472.240426	-749.822333	516.406250	460.984161
20472.240426	-749.822333	515.156250	384.431885
20472.240426	-749.822333	513.906250	227.224136
20472.240426	-749.822333	512.655273	412.509613
20472.240426	-749.822333	511.404297	308.745728
20472.240426	-749.822333	510.153320	519.668884
20472.240426	-749.822333	508.902344	414.032867
20472.240426	-749.822333	507.650391	455.131653
20472.240426	-749.822333	506.398438	545.170898
20472.240426	-749.822333	505.146484	388.968384
20472.240426	-749.822333	503.893555	523.780884
20472.240426	-749.822333	502.641602	603.449402
20472.240426	-749.822333	501.388672	619.527771
20472.240426	-749.822333	500.134766	803.301331
20472.240426	-749.822333	498.881836	673.164856
20472.240426	-749.822333	497.627930	606.799133
20472.240426	-749.822333	496.374023	587.191101
20472.240426	-749.822333	495.119141	798.726807
20472.240426	-749.822333	493.865234	654.212952
20472.240426	-749.822333	492.610352	728.077148
20472.240426	-749.822333	491.355469	624.039917
20472.240426	-749.822333	490.099609	863.216125
20472.240426	-749.822333	488.843750	651.340393
20472.240426	-749.822333	487.587891	752.924561
20472.240426	-749.822333	486.332031	901.080872
20472.240426	-749.822333	485.075195	854.549683
20472.240426	-749.822333	483.818359	1040.796021
20472.240426	-749.822333	482.561523	913.957825
20472.240426	-749.822333	481.304688	996.559814
20472.240426	-749.822333	480.046875	1000.929382
20472.240426	-749.822333	478.789063	984.179077
20472.240426	-749.822333	477.531250	882.914795
20472.240426	-749.822333	476.272461	1257.100220
20472.240426	-749.822333	475.013672	1375.522827
20472.240426	-749.822333	473.754883	1126.406250
20472.240426	-749.822333	472.496094	957.617859
20472.240426	-749.822333	471.236328	1232.204468
20472.240426	-749.822333	469.976563	1253.371704
20472.240426	-749.822333	468.716797	1449.631836
20472.240426	-749.822333	467.456055	1633.107056
20472.240426	-749.822333	466.196289	1367.179565
20472.240426	-749.822333	464.935547	1603.192871
20472.240426	-749.822333	463.673828	1497.489136
20472.240426	-749.822333	462.413086	1412.822388
20472.240426	-749.822333	461.151367	1639.998779
20472.240426	-749.822333	459.889648	1567.789307
20472.240426	-749.822333	458.626953	1792.517822
20472.240426	-749.822333	457.364258	1865.390503
20472.240426	-749.822333	456.101563	1921.253052
20472.240426	-749.822333	454.838867	1878.005493
20472.240426	-749.822333	453.575195	1847.251221
20472.240426	-749.822333	452.312500	1934.173950
20472.240426	-749.822333	451.047852	2001.951782
20472.240426	-749.822333	449.784180	2056.883301
20472.240426	-749.822333	448.519531	2080.046631
20472.240426	-749.822333	447.254883	1926.377930
20472.240426	-749.822333	445.990234	1936.494873
20472.240426	-749.822333	444.725586	1870.708008
20472.240426	-749.822333	443.459961	1785.781494
20472.240426	-749.822333	442.194336	1822.449829
20472.240426	-749.822333	440.927734	1810.512329
20472.240426	-749.822333	439.662109	1966.244507
20472.240426	-749.822333	438.395508	1815.105347
20472.240426	-749.822333	437.127930	2009.991577
20472.240426	-749.822333	435.861328	1975.721924
20472.240426	-749.822333	434.593750	2096.337891
20472.240426	-749.822333	433.326172	1845.275757
20472.240426	-749.822333	432.058594	1740.701660
20472.240426	-749.822333	430.790039	1952.318848
20472.240426	-749.822333	429.521484	1746.291016
20472.240426	-749.822333	428.252930	2013.491821
20472.240426	-749.822333	426.984375	2009.825439
20472.240426	-749.822333	425.714844	1888.356934
20472.240426	-749.822333	424.445313	2151.756348
20472.240426	-749.822333	423.174805	1935.025635
20472.240426	-749.822333	421.905273	1887.385376
20472.240426	-749.822333	420.634766	2033.815186
20472.240426	-749.822333	419.364258	2079.137451
20472.240426	-749.822333	418.092773	1973.187500
20472.240426	-749.822333	416.822266	2036.045654
20472.240426	-749.822333	415.550781	2160.926514
20472.240426	-749.822333	414.278320	2285.046875
20472.240426	-749.822333	413.006836	2170.118164
20472.240426	-749.822333	411.734375	2240.464355
20472.240426	-749.822333	410.461914	2124.061768
20472.240426	-749.822333	409.188477	2232.487305
20472.240426	-749.822333	407.916016	2248.157715
20472.240426	-749.822333	406.642578	2187.791504
20472.240426	-749.822333	405.368164	2333.212402
20472.240426	-749.822333	404.094727	2118.708008
20472.240426	-749.822333	402.820313	2068.177002
20472.240426	-749.822333	401.545898	2022.953979
20472.240426	-749.822333	400.270508	2020.532715
20472.240426	-749.822333	398.996094	2087.987061
20472.240426	-749.822333	397.720703	2029.251221
20472.240426	-749.822333	396.444336	1888.142944
20472.240426	-749.822333	395.168945	2085.638916
20472.240426	-749.822333	393.892578	1967.285156
20472.240426	-749.822333	392.616211	1914.437256
20472.240426	-749.822333	391.339844	2079.035156
20472.240426	-749.822333	390.062500	2054.896729
20472.240426	-749.822333	388.785156	2035.708862
20472.240426	-749.822333	387.507813	2011.026855
20472.240426	-749.822333	386.229492	2080.663574
20472.240426	-749.822333	384.951172	1826.426392
20472.240426	-749.822333	383.672852	1913.998047
20472.240426	-749.822333	382.394531	1937.658691
20472.240426	-749.822333	381.115234	1751.867310
20472.240426	-749.822333	379.835938	2050.916016
20472.240426	-749.822333	378.556641	1874.453735
20472.240426	-749.822333	377.277344	1704.718750
20472.240426	-749.822333	375.997070	1801.255737
20472.240426	-749.822333	374.716797	1869.008179
20472.240426	-749.822333	373.435547	1752.207031
20472.240426	-749.822333	372.155273	1949.152832
20472.240426	-749.822333	370.874023	1809.984375
20472.240426	-749.822333	369.591797	1675.129395
20472.240426	-749.822333	368.310547	1474.088867
20472.240426	-749.822333	367.028320	1660.948730
20472.240426	-749.822333	365.746094	1623.795166
20472.240426	-749.822333	364.463867	1580.382080
20472.240426	-749.822333	363.180664	1460.151367
20472.240426	-749.822333	361.897461	1557.375122
20472.240426	-749.822333	360.614258	1681.272217
20472.240426	-749.822333	359.330078	1417.490967
20472.240426	-749.822333	358.045898	1377.131714
20472.240426	-749.822333	356.761719	1495.815430
20472.240426	-749.822333	355.477539	1487.752686
20472.240426	-749.822333	354.192383	1503.968384
20472.240426	-749.822333	352.907227	1275.491333
20472.240426	-749.822333	351.622070	1199.559937
20472.240426	-749.822333	350.336914	1323.578613
20472.240426	-749.822333	349.050781	1035.298340
20472.240426	-749.822333	347.764648	1178.357910
20472.240426	-749.822333	346.477539	1215.016357
20472.240426	-749.822333	345.191406	1033.849365
20472.240426	-749.822333	343.904297	1126.428589
20472.240426	-749.822333	342.616211	1042.271606
20472.240426	-749.822333	341.329102	791.907959
20472.240426	-749.822333	340.041016	907.825012
20472.240426	-749.822333	338.752930	954.304749
20472.240426	-749.822333	337.463867	869.328552
20472.240426	-749.822333	336.175781	591.197510
20472.240426	-749.822333	334.886719	806.618652
20472.240426	-749.822333	333.596680	624.350281
20472.240426	-749.822333	332.307617	471.537140
20472.240426	-749.822333	331.017578	613.782776
20472.240426	-749.822333	329.727539	418.257690
20472.240426	-749.822333	328.436523	406.255859
20472.240426	-749.822333	327.146484	305.890686
20472.240426	-749.822333	325.855469	462.900970
20472.240426	-749.822333	324.563477	166.679504
20472.240426	-749.822333	323.272461	129.923721
20472.240426	-749.822333	321.980469	310.976257
20472.240426	-749.822333	320.688477	28.654953
20472.240426	-749.822333	319.395508	-58.659660
20472.240426	-749.822333	318.103516	102.549171
20472.240426	-749.822333	316.810547	100.508514
20472.240426	-749.822333	315.516602	91.466476
20472.240426	-749.822333	314.223633	16.009758
20472.240426	-749.822333	312.929688	-177.573868
20472.240426	-749.822333	311.635742	-107.025719
20472.240426	-749.822333	310.340820	-48.012497
20472.240426	-749.822333	309.045898	-277.709320
20472.240426	-749.822333	307.750977	-24.047901
20472.240426	-749.822333	306.456055	-53.096085
20472.240426	-749.822333	305.160156	-79.684738
20472.240426	-749.822333	303.865234	76.980728
20472.240426	-749.822333	302.568359	266.395477
20472.240426	-749.822333	301.272461	540.235535
20472.240426	-749.822333	299.975586	504.287140
20472.240426	-749.822333	298.678711	271.572571
