#X		#Y		#Wave		#Intensity
20393.775851	-1224.422500	1999.980469	180.146088
20393.775851	-1224.422500	1999.016602	91.743324
20393.775851	-1224.422500	1998.052734	-93.773331
20393.775851	-1224.422500	1997.087891	-103.576988
20393.775851	-1224.422500	1996.123047	-190.486664
20393.775851	-1224.422500	1995.158203	-67.091652
20393.775851	-1224.422500	1994.193359	13.872005
20393.775851	-1224.422500	1993.228516	-26.803610
20393.775851	-1224.422500	1992.262695	-77.623184
20393.775851	-1224.422500	1991.297852	-34.618217
20393.775851	-1224.422500	1990.332031	37.832245
20393.775851	-1224.422500	1989.366211	208.998642
20393.775851	-1224.422500	1988.399414	53.313980
20393.775851	-1224.422500	1987.433594	50.823116
20393.775851	-1224.422500	1986.466797	53.075008
20393.775851	-1224.422500	1985.500977	-36.366463
20393.775851	-1224.422500	1984.534180	-83.935974
20393.775851	-1224.422500	1983.567383	-47.636303
20393.775851	-1224.422500	1982.599609	107.096062
20393.775851	-1224.422500	1981.632813	96.054329
20393.775851	-1224.422500	1980.665039	-58.422016
20393.775851	-1224.422500	1979.697266	-111.733170
20393.775851	-1224.422500	1978.729492	52.134716
20393.775851	-1224.422500	1977.761719	198.515610
20393.775851	-1224.422500	1976.792969	65.770859
20393.775851	-1224.422500	1975.825195	-25.101404
20393.775851	-1224.422500	1974.856445	88.748207
20393.775851	-1224.422500	1973.887695	202.437958
20393.775851	-1224.422500	1972.918945	29.842022
20393.775851	-1224.422500	1971.949219	182.745163
20393.775851	-1224.422500	1970.980469	-56.564056
20393.775851	-1224.422500	1970.010742	-69.070190
20393.775851	-1224.422500	1969.041016	110.594818
20393.775851	-1224.422500	1968.071289	275.323914
20393.775851	-1224.422500	1967.101563	48.149555
20393.775851	-1224.422500	1966.130859	-102.644936
20393.775851	-1224.422500	1965.161133	91.364929
20393.775851	-1224.422500	1964.190430	100.549171
20393.775851	-1224.422500	1963.219727	294.325317
20393.775851	-1224.422500	1962.249023	165.500473
20393.775851	-1224.422500	1961.277344	-44.543350
20393.775851	-1224.422500	1960.306641	195.749100
20393.775851	-1224.422500	1959.334961	37.350124
20393.775851	-1224.422500	1958.363281	51.156368
20393.775851	-1224.422500	1957.391602	192.806351
20393.775851	-1224.422500	1956.419922	27.010715
20393.775851	-1224.422500	1955.447266	237.387772
20393.775851	-1224.422500	1954.474609	93.714706
20393.775851	-1224.422500	1953.501953	9.051416
20393.775851	-1224.422500	1952.529297	44.796558
20393.775851	-1224.422500	1951.556641	-12.838838
20393.775851	-1224.422500	1950.583984	57.252640
20393.775851	-1224.422500	1949.610352	-71.600563
20393.775851	-1224.422500	1948.636719	104.032494
20393.775851	-1224.422500	1947.663086	-137.713760
20393.775851	-1224.422500	1946.689453	131.121155
20393.775851	-1224.422500	1945.715820	-59.013119
20393.775851	-1224.422500	1944.741211	33.065838
20393.775851	-1224.422500	1943.767578	-100.556709
20393.775851	-1224.422500	1942.792969	-50.186375
20393.775851	-1224.422500	1941.818359	277.251617
20393.775851	-1224.422500	1940.842773	48.074089
20393.775851	-1224.422500	1939.868164	-38.844093
20393.775851	-1224.422500	1938.892578	114.447990
20393.775851	-1224.422500	1937.916992	86.385056
20393.775851	-1224.422500	1936.941406	14.252825
20393.775851	-1224.422500	1935.965820	-104.371109
20393.775851	-1224.422500	1934.990234	4.809538
20393.775851	-1224.422500	1934.013672	-10.894784
20393.775851	-1224.422500	1933.037109	-161.208054
20393.775851	-1224.422500	1932.060547	-71.590096
20393.775851	-1224.422500	1931.083984	86.534317
20393.775851	-1224.422500	1930.107422	41.560680
20393.775851	-1224.422500	1929.129883	-79.196922
20393.775851	-1224.422500	1928.153320	137.612457
20393.775851	-1224.422500	1927.175781	-200.685745
20393.775851	-1224.422500	1926.198242	-84.111145
20393.775851	-1224.422500	1925.219727	-4.213087
20393.775851	-1224.422500	1924.242188	183.210419
20393.775851	-1224.422500	1923.263672	60.288471
20393.775851	-1224.422500	1922.285156	79.130966
20393.775851	-1224.422500	1921.306641	68.688416
20393.775851	-1224.422500	1920.328125	55.837048
20393.775851	-1224.422500	1919.349609	25.930571
20393.775851	-1224.422500	1918.370117	-145.513245
20393.775851	-1224.422500	1917.391602	51.669636
20393.775851	-1224.422500	1916.412109	-24.487410
20393.775851	-1224.422500	1915.431641	33.602585
20393.775851	-1224.422500	1914.452148	172.194107
20393.775851	-1224.422500	1913.472656	103.467796
20393.775851	-1224.422500	1912.492188	-248.048950
20393.775851	-1224.422500	1911.511719	161.217636
20393.775851	-1224.422500	1910.531250	173.060211
20393.775851	-1224.422500	1909.550781	55.768452
20393.775851	-1224.422500	1908.569336	4.338429
20393.775851	-1224.422500	1907.588867	65.013107
20393.775851	-1224.422500	1906.607422	181.715622
20393.775851	-1224.422500	1905.625977	347.105225
20393.775851	-1224.422500	1904.644531	215.426407
20393.775851	-1224.422500	1903.662109	-57.359966
20393.775851	-1224.422500	1902.680664	297.898712
20393.775851	-1224.422500	1901.698242	-81.816734
20393.775851	-1224.422500	1900.715820	-64.804451
20393.775851	-1224.422500	1899.733398	68.981651
20393.775851	-1224.422500	1898.750000	287.863647
20393.775851	-1224.422500	1897.767578	210.036728
20393.775851	-1224.422500	1896.784180	35.020798
20393.775851	-1224.422500	1895.800781	105.582855
20393.775851	-1224.422500	1894.817383	-71.738022
20393.775851	-1224.422500	1893.833984	168.935120
20393.775851	-1224.422500	1892.850586	23.285812
20393.775851	-1224.422500	1891.866211	-129.576843
20393.775851	-1224.422500	1890.881836	-20.105814
20393.775851	-1224.422500	1889.897461	116.045433
20393.775851	-1224.422500	1888.913086	-87.680870
20393.775851	-1224.422500	1887.927734	172.236420
20393.775851	-1224.422500	1886.943359	2.569898
20393.775851	-1224.422500	1885.958008	-4.473954
20393.775851	-1224.422500	1884.972656	63.688759
20393.775851	-1224.422500	1883.987305	-76.732269
20393.775851	-1224.422500	1883.001953	-178.297897
20393.775851	-1224.422500	1882.015625	146.849854
20393.775851	-1224.422500	1881.029297	52.562344
20393.775851	-1224.422500	1880.042969	43.129246
20393.775851	-1224.422500	1879.056641	295.373444
20393.775851	-1224.422500	1878.070313	94.525963
20393.775851	-1224.422500	1877.083984	-140.155762
20393.775851	-1224.422500	1876.096680	51.439068
20393.775851	-1224.422500	1875.109375	259.904846
20393.775851	-1224.422500	1874.122070	-88.456161
20393.775851	-1224.422500	1873.134766	-59.148285
20393.775851	-1224.422500	1872.146484	-25.017874
20393.775851	-1224.422500	1871.159180	-82.846359
20393.775851	-1224.422500	1870.170898	64.936737
20393.775851	-1224.422500	1869.182617	125.590820
20393.775851	-1224.422500	1868.194336	128.176910
20393.775851	-1224.422500	1867.205078	-65.065514
20393.775851	-1224.422500	1866.216797	-115.653137
20393.775851	-1224.422500	1865.227539	-71.993240
20393.775851	-1224.422500	1864.238281	44.112122
20393.775851	-1224.422500	1863.249023	155.318634
20393.775851	-1224.422500	1862.259766	-76.495331
20393.775851	-1224.422500	1861.269531	-230.974274
20393.775851	-1224.422500	1860.279297	218.146210
20393.775851	-1224.422500	1859.290039	-95.701393
20393.775851	-1224.422500	1858.298828	107.004501
20393.775851	-1224.422500	1857.308594	254.102478
20393.775851	-1224.422500	1856.318359	34.417732
20393.775851	-1224.422500	1855.327148	84.927643
20393.775851	-1224.422500	1854.335938	-79.245811
20393.775851	-1224.422500	1853.344727	-67.386406
20393.775851	-1224.422500	1852.353516	45.676193
20393.775851	-1224.422500	1851.362305	57.426762
20393.775851	-1224.422500	1850.370117	57.082729
20393.775851	-1224.422500	1849.377930	56.694981
20393.775851	-1224.422500	1848.385742	116.481697
20393.775851	-1224.422500	1847.393555	195.465759
20393.775851	-1224.422500	1846.401367	238.251114
20393.775851	-1224.422500	1845.408203	37.816673
20393.775851	-1224.422500	1844.415039	174.388382
20393.775851	-1224.422500	1843.421875	-194.525528
20393.775851	-1224.422500	1842.428711	21.330278
20393.775851	-1224.422500	1841.435547	61.434772
20393.775851	-1224.422500	1840.441406	-206.400375
20393.775851	-1224.422500	1839.448242	-72.600906
20393.775851	-1224.422500	1838.454102	8.193343
20393.775851	-1224.422500	1837.459961	-52.933849
20393.775851	-1224.422500	1836.464844	217.568253
20393.775851	-1224.422500	1835.470703	230.785141
20393.775851	-1224.422500	1834.475586	210.295273
20393.775851	-1224.422500	1833.480469	127.291122
20393.775851	-1224.422500	1832.485352	116.294701
20393.775851	-1224.422500	1831.490234	88.422752
20393.775851	-1224.422500	1830.495117	144.511765
20393.775851	-1224.422500	1829.499023	-8.314711
20393.775851	-1224.422500	1828.502930	191.607880
20393.775851	-1224.422500	1827.506836	120.252762
20393.775851	-1224.422500	1826.510742	-8.729073
20393.775851	-1224.422500	1825.513672	39.742706
20393.775851	-1224.422500	1824.517578	152.857849
20393.775851	-1224.422500	1823.520508	311.401337
20393.775851	-1224.422500	1822.523438	-55.160011
20393.775851	-1224.422500	1821.526367	213.436203
20393.775851	-1224.422500	1820.529297	261.394775
20393.775851	-1224.422500	1819.531250	-107.606766
20393.775851	-1224.422500	1818.533203	71.955467
20393.775851	-1224.422500	1817.535156	280.095856
20393.775851	-1224.422500	1816.537109	78.629608
20393.775851	-1224.422500	1815.539063	236.231293
20393.775851	-1224.422500	1814.540039	269.217743
20393.775851	-1224.422500	1813.541992	251.843292
20393.775851	-1224.422500	1812.542969	246.339401
20393.775851	-1224.422500	1811.543945	80.467957
20393.775851	-1224.422500	1810.543945	191.989838
20393.775851	-1224.422500	1809.544922	183.808609
20393.775851	-1224.422500	1808.544922	-34.858635
20393.775851	-1224.422500	1807.544922	114.559067
20393.775851	-1224.422500	1806.544922	282.933716
20393.775851	-1224.422500	1805.544922	157.243759
20393.775851	-1224.422500	1804.544922	162.885681
20393.775851	-1224.422500	1803.543945	316.502533
20393.775851	-1224.422500	1802.542969	257.416870
20393.775851	-1224.422500	1801.541992	222.119904
20393.775851	-1224.422500	1800.541016	198.660507
20393.775851	-1224.422500	1799.539063	210.895294
20393.775851	-1224.422500	1798.538086	268.353333
20393.775851	-1224.422500	1797.536133	218.314133
20393.775851	-1224.422500	1796.534180	192.030609
20393.775851	-1224.422500	1795.532227	15.395510
20393.775851	-1224.422500	1794.529297	189.217117
20393.775851	-1224.422500	1793.527344	43.405605
20393.775851	-1224.422500	1792.524414	-104.855293
20393.775851	-1224.422500	1791.521484	120.962456
20393.775851	-1224.422500	1790.518555	-17.966103
20393.775851	-1224.422500	1789.514648	126.511574
20393.775851	-1224.422500	1788.511719	8.827416
20393.775851	-1224.422500	1787.507813	186.337936
20393.775851	-1224.422500	1786.503906	-36.317806
20393.775851	-1224.422500	1785.500000	78.997253
20393.775851	-1224.422500	1784.496094	148.926056
20393.775851	-1224.422500	1783.491211	2.168415
20393.775851	-1224.422500	1782.486328	-70.910469
20393.775851	-1224.422500	1781.481445	205.558975
20393.775851	-1224.422500	1780.476563	13.309624
20393.775851	-1224.422500	1779.471680	277.513824
20393.775851	-1224.422500	1778.465820	-36.174046
20393.775851	-1224.422500	1777.460938	218.174957
20393.775851	-1224.422500	1776.455078	-31.481541
20393.775851	-1224.422500	1775.449219	-43.588882
20393.775851	-1224.422500	1774.442383	-36.823166
20393.775851	-1224.422500	1773.436523	-15.937963
20393.775851	-1224.422500	1772.429688	-42.686539
20393.775851	-1224.422500	1771.422852	-26.824177
20393.775851	-1224.422500	1770.416016	-72.814079
20393.775851	-1224.422500	1769.409180	118.395226
20393.775851	-1224.422500	1768.402344	-153.276611
20393.775851	-1224.422500	1767.394531	134.864685
20393.775851	-1224.422500	1766.386719	-1.787999
20393.775851	-1224.422500	1765.378906	195.836441
20393.775851	-1224.422500	1764.371094	-64.330528
20393.775851	-1224.422500	1763.362305	-21.123405
20393.775851	-1224.422500	1762.354492	-25.461683
20393.775851	-1224.422500	1761.345703	-58.373631
20393.775851	-1224.422500	1760.336914	53.105839
20393.775851	-1224.422500	1759.328125	-1.397363
20393.775851	-1224.422500	1758.318359	-110.490715
20393.775851	-1224.422500	1757.308594	33.669254
20393.775851	-1224.422500	1756.299805	-73.286346
20393.775851	-1224.422500	1755.290039	13.735860
20393.775851	-1224.422500	1754.279297	-65.065254
20393.775851	-1224.422500	1753.269531	59.504620
20393.775851	-1224.422500	1752.258789	65.609451
20393.775851	-1224.422500	1751.249023	-11.192601
20393.775851	-1224.422500	1750.238281	134.161362
20393.775851	-1224.422500	1749.226563	-172.233215
20393.775851	-1224.422500	1748.215820	-95.722595
20393.775851	-1224.422500	1747.204102	42.058147
20393.775851	-1224.422500	1746.193359	-61.344147
20393.775851	-1224.422500	1745.181641	97.367607
20393.775851	-1224.422500	1744.168945	-32.275482
20393.775851	-1224.422500	1743.157227	57.617035
20393.775851	-1224.422500	1742.144531	97.751694
20393.775851	-1224.422500	1741.132813	175.512650
20393.775851	-1224.422500	1740.120117	54.853046
20393.775851	-1224.422500	1739.106445	-11.632415
20393.775851	-1224.422500	1738.093750	42.100407
20393.775851	-1224.422500	1737.080078	298.519592
20393.775851	-1224.422500	1736.067383	-32.493252
20393.775851	-1224.422500	1735.053711	58.527534
20393.775851	-1224.422500	1734.040039	69.229599
20393.775851	-1224.422500	1733.025391	68.000885
20393.775851	-1224.422500	1732.011719	106.709396
20393.775851	-1224.422500	1730.997070	46.309155
20393.775851	-1224.422500	1729.982422	75.311668
20393.775851	-1224.422500	1728.967773	-41.845024
20393.775851	-1224.422500	1727.952148	1.019467
20393.775851	-1224.422500	1726.937500	6.080139
20393.775851	-1224.422500	1725.921875	-174.949371
20393.775851	-1224.422500	1724.906250	-0.686726
20393.775851	-1224.422500	1723.890625	-134.846146
20393.775851	-1224.422500	1722.875000	-0.905484
20393.775851	-1224.422500	1721.858398	10.543562
20393.775851	-1224.422500	1720.841797	127.678787
20393.775851	-1224.422500	1719.825195	112.983322
20393.775851	-1224.422500	1718.808594	91.116096
20393.775851	-1224.422500	1717.791992	19.778065
20393.775851	-1224.422500	1716.774414	117.511795
20393.775851	-1224.422500	1715.756836	29.492832
20393.775851	-1224.422500	1714.739258	49.429977
20393.775851	-1224.422500	1713.721680	48.101391
20393.775851	-1224.422500	1712.704102	175.788177
20393.775851	-1224.422500	1711.685547	28.639883
20393.775851	-1224.422500	1710.667969	76.241714
20393.775851	-1224.422500	1709.649414	88.496315
20393.775851	-1224.422500	1708.630859	110.012733
20393.775851	-1224.422500	1707.611328	-255.645798
20393.775851	-1224.422500	1706.592773	-20.891182
20393.775851	-1224.422500	1705.573242	-145.104767
20393.775851	-1224.422500	1704.553711	-25.576427
20393.775851	-1224.422500	1703.534180	215.673325
20393.775851	-1224.422500	1702.513672	-79.939186
20393.775851	-1224.422500	1701.494141	-204.499557
20393.775851	-1224.422500	1700.473633	-24.609831
20393.775851	-1224.422500	1699.453125	-147.026077
20393.775851	-1224.422500	1698.432617	-168.814621
20393.775851	-1224.422500	1697.412109	-120.468544
20393.775851	-1224.422500	1696.390625	-144.823990
20393.775851	-1224.422500	1695.369141	-101.408073
20393.775851	-1224.422500	1694.347656	47.177792
20393.775851	-1224.422500	1693.326172	3.773589
20393.775851	-1224.422500	1692.304688	-13.989665
20393.775851	-1224.422500	1691.282227	52.323948
20393.775851	-1224.422500	1690.260742	90.468033
20393.775851	-1224.422500	1689.238281	266.401093
20393.775851	-1224.422500	1688.214844	103.269569
20393.775851	-1224.422500	1687.192383	28.910646
20393.775851	-1224.422500	1686.168945	213.791138
20393.775851	-1224.422500	1685.146484	-138.709427
20393.775851	-1224.422500	1684.123047	-145.554214
20393.775851	-1224.422500	1683.099609	186.068787
20393.775851	-1224.422500	1682.075195	50.570438
20393.775851	-1224.422500	1681.051758	29.413021
20393.775851	-1224.422500	1680.027344	54.830982
20393.775851	-1224.422500	1679.002930	133.811523
20393.775851	-1224.422500	1677.978516	154.358902
20393.775851	-1224.422500	1676.953125	456.991028
20393.775851	-1224.422500	1675.928711	80.903458
20393.775851	-1224.422500	1674.903320	217.744965
20393.775851	-1224.422500	1673.877930	216.931900
20393.775851	-1224.422500	1672.852539	416.451935
20393.775851	-1224.422500	1671.826172	368.826660
20393.775851	-1224.422500	1670.800781	316.499390
20393.775851	-1224.422500	1669.774414	354.930756
20393.775851	-1224.422500	1668.748047	516.687927
20393.775851	-1224.422500	1667.721680	461.791840
20393.775851	-1224.422500	1666.694336	544.162170
20393.775851	-1224.422500	1665.667969	526.373840
20393.775851	-1224.422500	1664.640625	657.421082
20393.775851	-1224.422500	1663.613281	581.304993
20393.775851	-1224.422500	1662.585938	484.217438
20393.775851	-1224.422500	1661.557617	694.044678
20393.775851	-1224.422500	1660.530273	831.666931
20393.775851	-1224.422500	1659.501953	732.054443
20393.775851	-1224.422500	1658.473633	741.650085
20393.775851	-1224.422500	1657.444336	827.846680
20393.775851	-1224.422500	1656.416016	995.278870
20393.775851	-1224.422500	1655.386719	921.007324
20393.775851	-1224.422500	1654.358398	1034.831909
20393.775851	-1224.422500	1653.328125	790.959167
20393.775851	-1224.422500	1652.298828	1345.706055
20393.775851	-1224.422500	1651.269531	1050.720215
20393.775851	-1224.422500	1650.239258	1421.765381
20393.775851	-1224.422500	1649.208984	1358.768311
20393.775851	-1224.422500	1648.178711	1356.058716
20393.775851	-1224.422500	1647.148438	1360.260986
20393.775851	-1224.422500	1646.117188	1589.316650
20393.775851	-1224.422500	1645.086914	1704.663940
20393.775851	-1224.422500	1644.055664	1801.363770
20393.775851	-1224.422500	1643.024414	1826.151489
20393.775851	-1224.422500	1641.992188	1792.948975
20393.775851	-1224.422500	1640.960938	1643.919312
20393.775851	-1224.422500	1639.928711	1654.699341
20393.775851	-1224.422500	1638.896484	1656.178955
20393.775851	-1224.422500	1637.864258	1734.025879
20393.775851	-1224.422500	1636.832031	1777.093140
20393.775851	-1224.422500	1635.798828	1942.749756
20393.775851	-1224.422500	1634.766602	1890.838623
20393.775851	-1224.422500	1633.733398	1924.498291
20393.775851	-1224.422500	1632.699219	2069.119141
20393.775851	-1224.422500	1631.666016	2054.124268
20393.775851	-1224.422500	1630.632813	2108.472412
20393.775851	-1224.422500	1629.598633	2324.569824
20393.775851	-1224.422500	1628.564453	2193.903809
20393.775851	-1224.422500	1627.530273	2372.895996
20393.775851	-1224.422500	1626.495117	2258.394043
20393.775851	-1224.422500	1625.460938	2499.639404
20393.775851	-1224.422500	1624.425781	2265.051758
20393.775851	-1224.422500	1623.390625	2533.868896
20393.775851	-1224.422500	1622.355469	2479.399414
20393.775851	-1224.422500	1621.319336	2752.654297
20393.775851	-1224.422500	1620.284180	2698.152588
20393.775851	-1224.422500	1619.248047	2807.450928
20393.775851	-1224.422500	1618.211914	2905.169922
20393.775851	-1224.422500	1617.174805	2516.240723
20393.775851	-1224.422500	1616.138672	2648.565430
20393.775851	-1224.422500	1615.101563	2757.770508
20393.775851	-1224.422500	1614.065430	2668.744385
20393.775851	-1224.422500	1613.027344	2540.549316
20393.775851	-1224.422500	1611.990234	2361.745117
20393.775851	-1224.422500	1610.953125	2512.409668
20393.775851	-1224.422500	1609.915039	2683.738037
20393.775851	-1224.422500	1608.876953	2668.503174
20393.775851	-1224.422500	1607.838867	2499.048584
20393.775851	-1224.422500	1606.800781	2525.315186
20393.775851	-1224.422500	1605.761719	2673.536865
20393.775851	-1224.422500	1604.723633	2692.892822
20393.775851	-1224.422500	1603.684570	2576.525879
20393.775851	-1224.422500	1602.644531	2754.589600
20393.775851	-1224.422500	1601.605469	2691.186523
20393.775851	-1224.422500	1600.566406	2889.916504
20393.775851	-1224.422500	1599.526367	2998.933594
20393.775851	-1224.422500	1598.486328	2595.469238
20393.775851	-1224.422500	1597.446289	2651.714844
20393.775851	-1224.422500	1596.405273	3075.498291
20393.775851	-1224.422500	1595.365234	2699.907959
20393.775851	-1224.422500	1594.324219	2887.065918
20393.775851	-1224.422500	1593.283203	2699.970947
20393.775851	-1224.422500	1592.242188	2487.733887
20393.775851	-1224.422500	1591.200195	2344.450684
20393.775851	-1224.422500	1590.159180	2524.801270
20393.775851	-1224.422500	1589.117188	2739.515137
20393.775851	-1224.422500	1588.075195	2665.200439
20393.775851	-1224.422500	1587.032227	2352.455322
20393.775851	-1224.422500	1585.990234	2243.943604
20393.775851	-1224.422500	1584.947266	2220.318604
20393.775851	-1224.422500	1583.904297	2293.007080
20393.775851	-1224.422500	1582.861328	2629.221191
20393.775851	-1224.422500	1581.818359	2388.052246
20393.775851	-1224.422500	1580.775391	2302.781250
20393.775851	-1224.422500	1579.731445	2123.693604
20393.775851	-1224.422500	1578.687500	2155.367920
20393.775851	-1224.422500	1577.643555	2065.768799
20393.775851	-1224.422500	1576.598633	2234.863525
20393.775851	-1224.422500	1575.554688	2085.908447
20393.775851	-1224.422500	1574.509766	2017.130981
20393.775851	-1224.422500	1573.464844	2017.062012
20393.775851	-1224.422500	1572.419922	2259.466553
20393.775851	-1224.422500	1571.374023	2142.859619
20393.775851	-1224.422500	1570.329102	2131.535645
20393.775851	-1224.422500	1569.283203	1827.726440
20393.775851	-1224.422500	1568.237305	1987.972656
20393.775851	-1224.422500	1567.191406	1869.507690
20393.775851	-1224.422500	1566.144531	1970.425293
20393.775851	-1224.422500	1565.098633	1728.837280
20393.775851	-1224.422500	1564.051758	1635.816162
20393.775851	-1224.422500	1563.004883	1972.079590
20393.775851	-1224.422500	1561.957031	1838.106079
20393.775851	-1224.422500	1560.910156	1989.520752
20393.775851	-1224.422500	1559.862305	2010.900269
20393.775851	-1224.422500	1558.814453	1911.458374
20393.775851	-1224.422500	1557.766602	1873.715698
20393.775851	-1224.422500	1556.718750	2043.564087
20393.775851	-1224.422500	1555.669922	1889.705200
20393.775851	-1224.422500	1554.621094	1715.480957
20393.775851	-1224.422500	1553.573242	1612.071045
20393.775851	-1224.422500	1552.523438	2003.162109
20393.775851	-1224.422500	1551.474609	2095.802246
20393.775851	-1224.422500	1550.424805	1940.245605
20393.775851	-1224.422500	1549.375000	1857.706543
20393.775851	-1224.422500	1548.325195	1754.807617
20393.775851	-1224.422500	1547.275391	1394.848511
20393.775851	-1224.422500	1546.225586	1426.537476
20393.775851	-1224.422500	1545.174805	1674.444092
20393.775851	-1224.422500	1544.124023	1731.274536
20393.775851	-1224.422500	1543.073242	1681.291748
20393.775851	-1224.422500	1542.022461	1456.344482
20393.775851	-1224.422500	1540.970703	1390.715332
20393.775851	-1224.422500	1539.919922	1534.342163
20393.775851	-1224.422500	1538.868164	1300.768066
20393.775851	-1224.422500	1537.815430	1492.255981
20393.775851	-1224.422500	1536.763672	1572.481445
20393.775851	-1224.422500	1535.710938	1228.064087
20393.775851	-1224.422500	1534.659180	1476.561768
20393.775851	-1224.422500	1533.606445	1109.817261
20393.775851	-1224.422500	1532.552734	1160.964844
20393.775851	-1224.422500	1531.500000	944.432556
20393.775851	-1224.422500	1530.446289	1011.702576
20393.775851	-1224.422500	1529.393555	1106.296265
20393.775851	-1224.422500	1528.338867	579.506714
20393.775851	-1224.422500	1527.285156	1204.984009
20393.775851	-1224.422500	1526.231445	1202.338257
20393.775851	-1224.422500	1525.176758	682.996155
20393.775851	-1224.422500	1524.122070	995.689209
20393.775851	-1224.422500	1523.067383	963.980713
20393.775851	-1224.422500	1522.012695	735.322632
20393.775851	-1224.422500	1520.957031	907.751648
20393.775851	-1224.422500	1519.901367	853.793518
20393.775851	-1224.422500	1518.845703	1123.734253
20393.775851	-1224.422500	1517.790039	768.953430
20393.775851	-1224.422500	1516.734375	792.379639
20393.775851	-1224.422500	1515.677734	1191.510986
20393.775851	-1224.422500	1514.621094	1253.546387
20393.775851	-1224.422500	1513.564453	1028.443604
20393.775851	-1224.422500	1512.507813	1083.961060
20393.775851	-1224.422500	1511.450195	1245.839722
20393.775851	-1224.422500	1510.393555	1231.482910
20393.775851	-1224.422500	1509.335938	977.697815
20393.775851	-1224.422500	1508.278320	900.389526
20393.775851	-1224.422500	1507.219727	979.113708
20393.775851	-1224.422500	1506.162109	956.311829
20393.775851	-1224.422500	1505.103516	850.092773
20393.775851	-1224.422500	1504.044922	902.091614
20393.775851	-1224.422500	1502.986328	891.004089
20393.775851	-1224.422500	1501.926758	640.826050
20393.775851	-1224.422500	1500.868164	891.812012
20393.775851	-1224.422500	1499.808594	601.404053
20393.775851	-1224.422500	1498.749023	399.213104
20393.775851	-1224.422500	1497.688477	517.452148
20393.775851	-1224.422500	1496.628906	193.892090
20393.775851	-1224.422500	1495.568359	262.816010
20393.775851	-1224.422500	1494.507813	273.257996
20393.775851	-1224.422500	1493.447266	168.923538
20393.775851	-1224.422500	1492.386719	-34.349018
20393.775851	-1224.422500	1491.325195	30.622822
20393.775851	-1224.422500	1490.263672	3.388154
20393.775851	-1224.422500	1489.202148	-170.037003
20393.775851	-1224.422500	1488.140625	-109.142479
20393.775851	-1224.422500	1487.079102	-79.634964
20393.775851	-1224.422500	1486.016602	17.502644
20393.775851	-1224.422500	1484.954102	222.734695
20393.775851	-1224.422500	1483.891602	86.149414
20393.775851	-1224.422500	1482.829102	-25.497030
20393.775851	-1224.422500	1481.765625	-69.507378
20393.775851	-1224.422500	1480.702148	129.412216
20393.775851	-1224.422500	1479.638672	38.488560
20393.775851	-1224.422500	1478.575195	35.397705
20393.775851	-1224.422500	1477.511719	-1.227299
20393.775851	-1224.422500	1476.447266	16.168863
20393.775851	-1224.422500	1475.382813	125.787453
20393.775851	-1224.422500	1474.318359	91.870842
20393.775851	-1224.422500	1473.253906	426.048126
20393.775851	-1224.422500	1472.189453	432.866364
20393.775851	-1224.422500	1471.124023	224.424454
20393.775851	-1224.422500	1470.058594	540.835022
20393.775851	-1224.422500	1468.993164	642.133240
20393.775851	-1224.422500	1467.927734	613.487366
20393.775851	-1224.422500	1466.861328	694.813049
20393.775851	-1224.422500	1465.794922	845.788818
20393.775851	-1224.422500	1464.728516	804.418518
20393.775851	-1224.422500	1463.662109	1001.883972
20393.775851	-1224.422500	1462.594727	1070.507690
20393.775851	-1224.422500	1461.528320	1033.671997
20393.775851	-1224.422500	1460.460938	1068.619995
20393.775851	-1224.422500	1459.393555	1056.872681
20393.775851	-1224.422500	1458.326172	1164.168579
20393.775851	-1224.422500	1457.257813	1185.330566
20393.775851	-1224.422500	1456.189453	1268.758545
20393.775851	-1224.422500	1455.121094	1074.495361
20393.775851	-1224.422500	1454.052734	1119.230347
20393.775851	-1224.422500	1452.984375	1185.443848
20393.775851	-1224.422500	1451.915039	1088.864258
20393.775851	-1224.422500	1450.845703	1305.077637
20393.775851	-1224.422500	1449.776367	931.201111
20393.775851	-1224.422500	1448.707031	1320.894775
20393.775851	-1224.422500	1447.636719	1182.266235
20393.775851	-1224.422500	1446.567383	1088.234497
20393.775851	-1224.422500	1445.497070	1021.089600
20393.775851	-1224.422500	1444.425781	1380.718262
20393.775851	-1224.422500	1443.355469	1157.134521
20393.775851	-1224.422500	1442.285156	1143.481323
20393.775851	-1224.422500	1441.213867	1093.798828
20393.775851	-1224.422500	1440.142578	1164.564331
20393.775851	-1224.422500	1439.070313	1510.874634
20393.775851	-1224.422500	1437.999023	1260.498169
20393.775851	-1224.422500	1436.926758	1209.289429
20393.775851	-1224.422500	1435.854492	1415.947632
20393.775851	-1224.422500	1434.782227	1423.638550
20393.775851	-1224.422500	1433.709961	1618.092285
20393.775851	-1224.422500	1432.636719	1574.963135
20393.775851	-1224.422500	1431.563477	1287.914917
20393.775851	-1224.422500	1430.490234	1170.919556
20393.775851	-1224.422500	1429.416992	962.350037
20393.775851	-1224.422500	1428.343750	1048.744873
20393.775851	-1224.422500	1427.269531	994.440674
20393.775851	-1224.422500	1426.195313	926.971375
20393.775851	-1224.422500	1425.121094	911.576782
20393.775851	-1224.422500	1424.046875	996.170532
20393.775851	-1224.422500	1422.971680	722.939270
20393.775851	-1224.422500	1421.896484	1059.074585
20393.775851	-1224.422500	1420.821289	1150.031006
20393.775851	-1224.422500	1419.746094	1046.517212
20393.775851	-1224.422500	1418.669922	1039.499390
20393.775851	-1224.422500	1417.594727	1140.820801
20393.775851	-1224.422500	1416.518555	1020.668640
20393.775851	-1224.422500	1415.442383	1066.009277
20393.775851	-1224.422500	1414.365234	1200.059448
20393.775851	-1224.422500	1413.289063	1301.600464
20393.775851	-1224.422500	1412.211914	1430.031982
20393.775851	-1224.422500	1411.134766	1010.545776
20393.775851	-1224.422500	1410.057617	1241.809326
20393.775851	-1224.422500	1408.979492	919.302063
20393.775851	-1224.422500	1407.902344	1364.682617
20393.775851	-1224.422500	1406.824219	1468.847900
20393.775851	-1224.422500	1405.746094	1531.418823
20393.775851	-1224.422500	1404.666992	1480.150635
20393.775851	-1224.422500	1403.588867	1776.878662
20393.775851	-1224.422500	1402.509766	1355.196289
20393.775851	-1224.422500	1401.430664	1357.171021
20393.775851	-1224.422500	1400.351563	1550.091309
20393.775851	-1224.422500	1399.271484	1269.650269
20393.775851	-1224.422500	1398.192383	1124.357910
20393.775851	-1224.422500	1397.112305	1465.189453
20393.775851	-1224.422500	1396.031250	1179.414063
20393.775851	-1224.422500	1394.951172	1113.880615
20393.775851	-1224.422500	1393.871094	1192.843262
20393.775851	-1224.422500	1392.790039	870.091492
20393.775851	-1224.422500	1391.708984	1032.254395
20393.775851	-1224.422500	1390.626953	1134.387329
20393.775851	-1224.422500	1389.545898	1127.592041
20393.775851	-1224.422500	1388.463867	1123.443237
20393.775851	-1224.422500	1387.381836	933.465759
20393.775851	-1224.422500	1386.299805	868.367859
20393.775851	-1224.422500	1385.217773	994.125244
20393.775851	-1224.422500	1384.134766	1045.073242
20393.775851	-1224.422500	1383.051758	881.005981
20393.775851	-1224.422500	1381.968750	779.973267
20393.775851	-1224.422500	1380.885742	699.726196
20393.775851	-1224.422500	1379.802734	843.625244
20393.775851	-1224.422500	1378.718750	873.926208
20393.775851	-1224.422500	1377.634766	631.914612
20393.775851	-1224.422500	1376.550781	716.642395
20393.775851	-1224.422500	1375.465820	673.855896
20393.775851	-1224.422500	1374.381836	1067.407349
20393.775851	-1224.422500	1373.296875	922.550232
20393.775851	-1224.422500	1372.211914	589.938782
20393.775851	-1224.422500	1371.126953	777.198853
20393.775851	-1224.422500	1370.041016	850.743408
20393.775851	-1224.422500	1368.955078	1024.335693
20393.775851	-1224.422500	1367.869141	1229.841675
20393.775851	-1224.422500	1366.783203	996.055542
20393.775851	-1224.422500	1365.697266	887.023010
20393.775851	-1224.422500	1364.610352	900.300110
20393.775851	-1224.422500	1363.523438	747.352600
20393.775851	-1224.422500	1362.436523	1153.169556
20393.775851	-1224.422500	1361.349609	718.308716
20393.775851	-1224.422500	1360.261719	651.275513
20393.775851	-1224.422500	1359.174805	622.358704
20393.775851	-1224.422500	1358.086914	630.173950
20393.775851	-1224.422500	1356.998047	687.042725
20393.775851	-1224.422500	1355.910156	866.280579
20393.775851	-1224.422500	1354.821289	863.997803
20393.775851	-1224.422500	1353.732422	861.696350
20393.775851	-1224.422500	1352.643555	820.427856
20393.775851	-1224.422500	1351.554688	932.892395
20393.775851	-1224.422500	1350.464844	814.037781
20393.775851	-1224.422500	1349.375000	838.150513
20393.775851	-1224.422500	1348.285156	785.672974
20393.775851	-1224.422500	1347.195313	674.930298
20393.775851	-1224.422500	1346.105469	840.450562
20393.775851	-1224.422500	1345.014648	616.433899
20393.775851	-1224.422500	1343.923828	846.412598
20393.775851	-1224.422500	1342.833008	834.082825
20393.775851	-1224.422500	1341.741211	909.689819
20393.775851	-1224.422500	1340.650391	958.356995
20393.775851	-1224.422500	1339.558594	1082.091675
20393.775851	-1224.422500	1338.466797	878.986328
20393.775851	-1224.422500	1337.374023	843.608582
20393.775851	-1224.422500	1336.282227	826.221985
20393.775851	-1224.422500	1335.189453	1111.760132
20393.775851	-1224.422500	1334.096680	1094.955811
20393.775851	-1224.422500	1333.003906	1040.055908
20393.775851	-1224.422500	1331.910156	942.239807
20393.775851	-1224.422500	1330.817383	801.137512
20393.775851	-1224.422500	1329.723633	697.013367
20393.775851	-1224.422500	1328.629883	907.330200
20393.775851	-1224.422500	1327.535156	827.752136
20393.775851	-1224.422500	1326.441406	846.881165
20393.775851	-1224.422500	1325.346680	1048.181396
20393.775851	-1224.422500	1324.251953	760.705322
20393.775851	-1224.422500	1323.156250	926.501892
20393.775851	-1224.422500	1322.061523	1253.256714
20393.775851	-1224.422500	1320.965820	1147.278076
20393.775851	-1224.422500	1319.870117	987.893616
20393.775851	-1224.422500	1318.774414	884.201599
20393.775851	-1224.422500	1317.678711	853.132629
20393.775851	-1224.422500	1316.582031	1036.782959
20393.775851	-1224.422500	1315.485352	1079.202637
20393.775851	-1224.422500	1314.388672	1000.952698
20393.775851	-1224.422500	1313.291016	983.264648
20393.775851	-1224.422500	1312.194336	1033.088379
20393.775851	-1224.422500	1311.096680	1012.553833
20393.775851	-1224.422500	1309.999023	1002.944763
20393.775851	-1224.422500	1308.901367	773.236694
20393.775851	-1224.422500	1307.802734	1063.840820
20393.775851	-1224.422500	1306.705078	1109.478027
20393.775851	-1224.422500	1305.606445	871.786560
20393.775851	-1224.422500	1304.506836	1246.030884
20393.775851	-1224.422500	1303.408203	837.820496
20393.775851	-1224.422500	1302.308594	848.791687
20393.775851	-1224.422500	1301.208984	1168.120728
20393.775851	-1224.422500	1300.109375	1030.476196
20393.775851	-1224.422500	1299.009766	954.923462
20393.775851	-1224.422500	1297.909180	1038.538208
20393.775851	-1224.422500	1296.808594	1248.556885
20393.775851	-1224.422500	1295.708008	1135.128784
20393.775851	-1224.422500	1294.607422	970.166748
20393.775851	-1224.422500	1293.506836	1114.656006
20393.775851	-1224.422500	1292.405273	829.211365
20393.775851	-1224.422500	1291.303711	913.364136
20393.775851	-1224.422500	1290.202148	1055.601563
20393.775851	-1224.422500	1289.099609	793.204468
20393.775851	-1224.422500	1287.998047	786.375061
20393.775851	-1224.422500	1286.895508	641.334839
20393.775851	-1224.422500	1285.792969	716.214417
20393.775851	-1224.422500	1284.689453	840.775452
20393.775851	-1224.422500	1283.586914	731.241333
20393.775851	-1224.422500	1282.483398	930.978210
20393.775851	-1224.422500	1281.379883	819.913574
20393.775851	-1224.422500	1280.276367	881.493652
20393.775851	-1224.422500	1279.171875	853.398071
20393.775851	-1224.422500	1278.067383	867.841431
20393.775851	-1224.422500	1276.962891	847.599915
20393.775851	-1224.422500	1275.858398	906.305176
20393.775851	-1224.422500	1274.753906	976.171021
20393.775851	-1224.422500	1273.648438	809.033447
20393.775851	-1224.422500	1272.542969	786.946838
20393.775851	-1224.422500	1271.437500	695.857300
20393.775851	-1224.422500	1270.331055	561.477905
20393.775851	-1224.422500	1269.225586	791.461243
20393.775851	-1224.422500	1268.119141	580.822510
20393.775851	-1224.422500	1267.012695	634.973328
20393.775851	-1224.422500	1265.906250	565.762268
20393.775851	-1224.422500	1264.798828	533.150513
20393.775851	-1224.422500	1263.691406	679.254822
20393.775851	-1224.422500	1262.583984	609.255737
20393.775851	-1224.422500	1261.476563	392.857178
20393.775851	-1224.422500	1260.368164	386.868225
20393.775851	-1224.422500	1259.260742	436.116913
20393.775851	-1224.422500	1258.152344	260.317993
20393.775851	-1224.422500	1257.043945	285.912292
20393.775851	-1224.422500	1255.934570	260.023315
20393.775851	-1224.422500	1254.825195	344.150513
20393.775851	-1224.422500	1253.716797	504.267914
20393.775851	-1224.422500	1252.606445	353.121124
20393.775851	-1224.422500	1251.497070	406.345306
20393.775851	-1224.422500	1250.387695	669.228027
20393.775851	-1224.422500	1249.277344	767.123230
20393.775851	-1224.422500	1248.166992	597.370300
20393.775851	-1224.422500	1247.055664	781.309509
20393.775851	-1224.422500	1245.945313	654.384216
20393.775851	-1224.422500	1244.833984	709.293579
20393.775851	-1224.422500	1243.722656	675.843750
20393.775851	-1224.422500	1242.611328	624.336548
20393.775851	-1224.422500	1241.499023	496.791901
20393.775851	-1224.422500	1240.387695	462.485352
20393.775851	-1224.422500	1239.275391	601.715576
20393.775851	-1224.422500	1238.162109	358.110565
20393.775851	-1224.422500	1237.049805	324.015228
20393.775851	-1224.422500	1235.936523	460.262390
20393.775851	-1224.422500	1234.823242	152.398605
20393.775851	-1224.422500	1233.709961	296.948334
20393.775851	-1224.422500	1232.596680	398.645050
20393.775851	-1224.422500	1231.482422	211.634659
20393.775851	-1224.422500	1230.369141	337.475189
20393.775851	-1224.422500	1229.253906	231.868744
20393.775851	-1224.422500	1228.139648	207.831177
20393.775851	-1224.422500	1227.025391	204.571869
20393.775851	-1224.422500	1225.910156	83.630196
20393.775851	-1224.422500	1224.794922	135.765793
20393.775851	-1224.422500	1223.679688	-47.055397
20393.775851	-1224.422500	1222.563477	60.333916
20393.775851	-1224.422500	1221.447266	137.685608
20393.775851	-1224.422500	1220.331055	106.438332
20393.775851	-1224.422500	1219.214844	-23.589422
20393.775851	-1224.422500	1218.098633	88.818344
20393.775851	-1224.422500	1216.981445	-36.021744
20393.775851	-1224.422500	1215.864258	202.726334
20393.775851	-1224.422500	1214.747070	210.357712
20393.775851	-1224.422500	1213.629883	170.177246
20393.775851	-1224.422500	1212.511719	16.099154
20393.775851	-1224.422500	1211.393555	51.881481
20393.775851	-1224.422500	1210.275391	160.700241
20393.775851	-1224.422500	1209.157227	31.405254
20393.775851	-1224.422500	1208.038086	266.194824
20393.775851	-1224.422500	1206.918945	271.313507
20393.775851	-1224.422500	1205.799805	156.068161
20393.775851	-1224.422500	1204.680664	127.975670
20393.775851	-1224.422500	1203.560547	6.884627
20393.775851	-1224.422500	1202.441406	258.832062
20393.775851	-1224.422500	1201.321289	-20.168722
20393.775851	-1224.422500	1200.200195	-56.245472
20393.775851	-1224.422500	1199.080078	-57.220284
20393.775851	-1224.422500	1197.958984	-99.989235
20393.775851	-1224.422500	1196.837891	6.614454
20393.775851	-1224.422500	1195.716797	112.678040
20393.775851	-1224.422500	1194.594727	96.614342
20393.775851	-1224.422500	1193.473633	-195.264542
20393.775851	-1224.422500	1192.351563	-58.423355
20393.775851	-1224.422500	1191.229492	-118.051552
20393.775851	-1224.422500	1190.106445	-102.187592
20393.775851	-1224.422500	1188.984375	42.673355
20393.775851	-1224.422500	1187.861328	-227.543121
20393.775851	-1224.422500	1186.738281	-187.595612
20393.775851	-1224.422500	1185.614258	-96.810768
20393.775851	-1224.422500	1184.491211	-142.465637
20393.775851	-1224.422500	1183.367188	-191.039230
20393.775851	-1224.422500	1182.243164	100.487442
20393.775851	-1224.422500	1181.119141	93.162689
20393.775851	-1224.422500	1179.994141	69.544426
20393.775851	-1224.422500	1178.869141	17.644949
20393.775851	-1224.422500	1177.744141	81.773354
20393.775851	-1224.422500	1176.619141	174.548309
20393.775851	-1224.422500	1175.493164	93.015877
20393.775851	-1224.422500	1174.368164	89.059082
20393.775851	-1224.422500	1173.242188	60.600555
20393.775851	-1224.422500	1172.115234	45.282291
20393.775851	-1224.422500	1170.989258	140.570663
20393.775851	-1224.422500	1169.862305	199.456390
20393.775851	-1224.422500	1168.735352	46.533310
20393.775851	-1224.422500	1167.608398	57.446560
20393.775851	-1224.422500	1166.481445	74.079536
20393.775851	-1224.422500	1165.353516	68.093193
20393.775851	-1224.422500	1164.225586	246.071838
20393.775851	-1224.422500	1163.097656	10.792482
20393.775851	-1224.422500	1161.968750	-243.609467
20393.775851	-1224.422500	1160.840820	38.939800
20393.775851	-1224.422500	1159.711914	18.398928
20393.775851	-1224.422500	1158.583008	-78.011711
20393.775851	-1224.422500	1157.453125	67.014053
20393.775851	-1224.422500	1156.324219	-94.386086
20393.775851	-1224.422500	1155.194336	-204.264572
20393.775851	-1224.422500	1154.064453	-79.431046
20393.775851	-1224.422500	1152.933594	-150.959427
20393.775851	-1224.422500	1151.803711	-5.859974
20393.775851	-1224.422500	1150.672852	-271.938446
20393.775851	-1224.422500	1149.541992	27.988911
20393.775851	-1224.422500	1148.411133	-38.541996
20393.775851	-1224.422500	1147.279297	-143.424606
20393.775851	-1224.422500	1146.147461	3.460553
20393.775851	-1224.422500	1145.015625	-72.316383
20393.775851	-1224.422500	1143.883789	-160.299561
20393.775851	-1224.422500	1142.750977	-236.926514
20393.775851	-1224.422500	1141.619141	-103.226028
20393.775851	-1224.422500	1140.486328	-78.637535
20393.775851	-1224.422500	1139.352539	-45.152554
20393.775851	-1224.422500	1138.219727	-45.963543
20393.775851	-1224.422500	1137.085938	-214.032715
20393.775851	-1224.422500	1135.952148	-187.506607
20393.775851	-1224.422500	1134.818359	31.909599
20393.775851	-1224.422500	1133.683594	116.405899
20393.775851	-1224.422500	1132.549805	29.335360
20393.775851	-1224.422500	1131.415039	111.255768
20393.775851	-1224.422500	1130.279297	185.168854
20393.775851	-1224.422500	1129.144531	417.912415
20393.775851	-1224.422500	1128.008789	386.101563
20393.775851	-1224.422500	1126.873047	588.822632
20393.775851	-1224.422500	1125.737305	281.422394
20393.775851	-1224.422500	1124.601563	40.313816
20393.775851	-1224.422500	1123.464844	189.878891
20393.775851	-1224.422500	1122.328125	281.580261
20393.775851	-1224.422500	1121.191406	264.402283
20393.775851	-1224.422500	1120.054688	173.228790
20393.775851	-1224.422500	1118.916992	73.994286
20393.775851	-1224.422500	1117.779297	132.094269
20393.775851	-1224.422500	1116.641602	182.613739
20393.775851	-1224.422500	1115.503906	63.654324
20393.775851	-1224.422500	1114.365234	142.000931
20393.775851	-1224.422500	1113.226563	136.393066
20393.775851	-1224.422500	1112.087891	119.916740
20393.775851	-1224.422500	1110.949219	49.373814
20393.775851	-1224.422500	1109.809570	131.173996
20393.775851	-1224.422500	1108.669922	33.110779
20393.775851	-1224.422500	1107.530273	59.615906
20393.775851	-1224.422500	1106.390625	202.815475
20393.775851	-1224.422500	1105.250000	92.219597
20393.775851	-1224.422500	1104.109375	167.607376
20393.775851	-1224.422500	1102.968750	-182.520081
20393.775851	-1224.422500	1101.828125	132.242661
20393.775851	-1224.422500	1100.686523	230.740479
20393.775851	-1224.422500	1099.544922	196.268356
20393.775851	-1224.422500	1098.403320	320.571564
20393.775851	-1224.422500	1097.261719	430.489166
20393.775851	-1224.422500	1096.120117	283.525269
20393.775851	-1224.422500	1094.977539	339.554779
20393.775851	-1224.422500	1093.834961	235.472580
20393.775851	-1224.422500	1092.691406	365.201385
20393.775851	-1224.422500	1091.548828	358.501862
20393.775851	-1224.422500	1090.405273	575.787476
20393.775851	-1224.422500	1089.261719	383.709259
20393.775851	-1224.422500	1088.118164	365.382690
20393.775851	-1224.422500	1086.973633	447.267273
20393.775851	-1224.422500	1085.829102	134.523041
20393.775851	-1224.422500	1084.684570	232.278137
20393.775851	-1224.422500	1083.540039	277.461578
20393.775851	-1224.422500	1082.395508	110.305023
20393.775851	-1224.422500	1081.250000	280.525696
20393.775851	-1224.422500	1080.104492	116.703712
20393.775851	-1224.422500	1078.958984	109.153854
20393.775851	-1224.422500	1077.812500	215.108765
20393.775851	-1224.422500	1076.666016	382.255219
20393.775851	-1224.422500	1075.519531	73.476372
20393.775851	-1224.422500	1074.373047	177.424850
20393.775851	-1224.422500	1073.226563	301.552155
20393.775851	-1224.422500	1072.079102	350.531158
20393.775851	-1224.422500	1070.931641	313.158325
20393.775851	-1224.422500	1069.784180	225.202484
20393.775851	-1224.422500	1068.635742	400.384277
20393.775851	-1224.422500	1067.487305	313.678009
20393.775851	-1224.422500	1066.338867	227.064529
20393.775851	-1224.422500	1065.190430	279.784424
20393.775851	-1224.422500	1064.041992	402.212067
20393.775851	-1224.422500	1062.892578	348.444794
20393.775851	-1224.422500	1061.743164	267.086090
20393.775851	-1224.422500	1060.593750	265.999664
20393.775851	-1224.422500	1059.443359	341.570801
20393.775851	-1224.422500	1058.292969	294.210724
20393.775851	-1224.422500	1057.142578	75.422806
20393.775851	-1224.422500	1055.992188	275.148834
20393.775851	-1224.422500	1054.841797	187.425323
20393.775851	-1224.422500	1053.690430	46.181332
20393.775851	-1224.422500	1052.539063	33.816647
20393.775851	-1224.422500	1051.387695	-36.061867
20393.775851	-1224.422500	1050.235352	160.637787
20393.775851	-1224.422500	1049.083984	104.805077
20393.775851	-1224.422500	1047.931641	-196.567871
20393.775851	-1224.422500	1046.778320	52.784882
20393.775851	-1224.422500	1045.625977	91.779434
20393.775851	-1224.422500	1044.472656	-1.470259
20393.775851	-1224.422500	1043.319336	-23.931192
20393.775851	-1224.422500	1042.166016	1.509371
20393.775851	-1224.422500	1041.012695	133.800110
20393.775851	-1224.422500	1039.858398	72.974075
20393.775851	-1224.422500	1038.704102	113.189445
20393.775851	-1224.422500	1037.549805	334.932983
20393.775851	-1224.422500	1036.394531	389.989594
20393.775851	-1224.422500	1035.239258	184.439453
20393.775851	-1224.422500	1034.083984	215.650208
20393.775851	-1224.422500	1032.928711	142.285370
20393.775851	-1224.422500	1031.773438	103.030968
20393.775851	-1224.422500	1030.617188	278.071106
20393.775851	-1224.422500	1029.460938	87.242020
20393.775851	-1224.422500	1028.304688	238.835205
20393.775851	-1224.422500	1027.147461	85.713379
20393.775851	-1224.422500	1025.991211	174.259842
20393.775851	-1224.422500	1024.833984	211.537460
20393.775851	-1224.422500	1023.675781	94.206726
20393.775851	-1224.422500	1022.518555	345.718567
20393.775851	-1224.422500	1021.360352	154.092621
20393.775851	-1224.422500	1020.202148	344.026794
20393.775851	-1224.422500	1019.043945	280.788147
20393.775851	-1224.422500	1017.884766	94.968590
20393.775851	-1224.422500	1016.726563	333.843628
20393.775851	-1224.422500	1015.567383	205.114227
20393.775851	-1224.422500	1014.407227	228.410645
20393.775851	-1224.422500	1013.248047	276.321014
20393.775851	-1224.422500	1012.087891	103.995361
20393.775851	-1224.422500	1010.927734	10.515604
20393.775851	-1224.422500	1009.767578	16.922237
20393.775851	-1224.422500	1008.606445	13.691720
20393.775851	-1224.422500	1007.446289	69.739670
20393.775851	-1224.422500	1006.285156	194.644485
20393.775851	-1224.422500	1005.123047	298.394806
20393.775851	-1224.422500	1003.961914	83.273636
20393.775851	-1224.422500	1002.799805	-55.478718
20393.775851	-1224.422500	1001.637695	297.885925
20393.775851	-1224.422500	1000.475586	132.361160
20393.775851	-1224.422500	999.312500	247.120499
20393.775851	-1224.422500	998.149414	253.658264
20393.775851	-1224.422500	996.986328	-153.593445
20393.775851	-1224.422500	995.823242	-101.936928
20393.775851	-1224.422500	994.659180	13.273829
20393.775851	-1224.422500	993.496094	-55.541969
20393.775851	-1224.422500	992.332031	43.321316
20393.775851	-1224.422500	991.166992	37.940212
20393.775851	-1224.422500	990.002930	88.558281
20393.775851	-1224.422500	988.837891	-209.446152
20393.775851	-1224.422500	987.672852	140.149017
20393.775851	-1224.422500	986.506836	-51.875603
20393.775851	-1224.422500	985.341797	-74.497002
20393.775851	-1224.422500	984.175781	-34.251087
20393.775851	-1224.422500	983.009766	60.348949
20393.775851	-1224.422500	981.843750	127.337700
20393.775851	-1224.422500	980.676758	-131.102997
20393.775851	-1224.422500	979.509766	-245.464783
20393.775851	-1224.422500	978.342773	-29.825392
20393.775851	-1224.422500	977.175781	-49.061386
20393.775851	-1224.422500	976.007813	-44.429512
20393.775851	-1224.422500	974.839844	-79.833443
20393.775851	-1224.422500	973.671875	-184.878265
20393.775851	-1224.422500	972.503906	-108.984528
20393.775851	-1224.422500	971.334961	-137.913940
20393.775851	-1224.422500	970.166016	-40.562298
20393.775851	-1224.422500	968.997070	45.356876
20393.775851	-1224.422500	967.828125	-108.570129
20393.775851	-1224.422500	966.658203	34.521820
20393.775851	-1224.422500	965.488281	-14.849930
20393.775851	-1224.422500	964.318359	-249.428207
20393.775851	-1224.422500	963.148438	-0.806456
20393.775851	-1224.422500	961.977539	-10.960428
20393.775851	-1224.422500	960.806641	-181.685242
20393.775851	-1224.422500	959.635742	-182.359497
20393.775851	-1224.422500	958.463867	-26.848675
20393.775851	-1224.422500	957.292969	-103.528343
20393.775851	-1224.422500	956.121094	44.938557
20393.775851	-1224.422500	954.948242	7.563001
20393.775851	-1224.422500	953.776367	100.271263
20393.775851	-1224.422500	952.603516	-241.500107
20393.775851	-1224.422500	951.430664	-10.105707
20393.775851	-1224.422500	950.257813	-296.855835
20393.775851	-1224.422500	949.084961	-121.230690
20393.775851	-1224.422500	947.911133	-50.990505
20393.775851	-1224.422500	946.737305	-40.504486
20393.775851	-1224.422500	945.563477	-126.831970
20393.775851	-1224.422500	944.388672	-15.120938
20393.775851	-1224.422500	943.213867	-55.068703
20393.775851	-1224.422500	942.039063	201.110107
20393.775851	-1224.422500	940.864258	181.462555
20393.775851	-1224.422500	939.688477	108.645271
20393.775851	-1224.422500	938.513672	100.623894
20393.775851	-1224.422500	937.337891	184.419449
20393.775851	-1224.422500	936.161133	-113.636841
20393.775851	-1224.422500	934.985352	105.855232
20393.775851	-1224.422500	933.808594	-3.525751
20393.775851	-1224.422500	932.631836	208.906738
20393.775851	-1224.422500	931.454102	48.754490
20393.775851	-1224.422500	930.277344	111.831886
20393.775851	-1224.422500	929.099609	310.351166
20393.775851	-1224.422500	927.921875	361.750793
20393.775851	-1224.422500	926.743164	516.543640
20393.775851	-1224.422500	925.565430	590.804871
20393.775851	-1224.422500	924.386719	210.116730
20393.775851	-1224.422500	923.208008	369.404022
20393.775851	-1224.422500	922.028320	264.482300
20393.775851	-1224.422500	920.849609	347.888672
20393.775851	-1224.422500	919.669922	351.423981
20393.775851	-1224.422500	919.474609	337.703156
20393.775851	-1224.422500	918.309570	301.628265
20393.775851	-1224.422500	917.143555	299.983490
20393.775851	-1224.422500	915.977539	378.633148
20393.775851	-1224.422500	914.810547	142.958038
20393.775851	-1224.422500	913.644531	175.711227
20393.775851	-1224.422500	912.477539	231.371109
20393.775851	-1224.422500	911.310547	188.413300
20393.775851	-1224.422500	910.143555	184.425705
20393.775851	-1224.422500	908.975586	240.014633
20393.775851	-1224.422500	907.807617	91.647911
20393.775851	-1224.422500	906.639648	172.405579
20393.775851	-1224.422500	905.471680	12.635265
20393.775851	-1224.422500	904.303711	-73.807632
20393.775851	-1224.422500	903.134766	-64.072754
20393.775851	-1224.422500	901.965820	73.823372
20393.775851	-1224.422500	900.796875	-46.943542
20393.775851	-1224.422500	899.626953	232.722885
20393.775851	-1224.422500	898.457031	230.898911
20393.775851	-1224.422500	897.287109	139.867630
20393.775851	-1224.422500	896.117188	199.773453
20393.775851	-1224.422500	894.947266	293.931702
20393.775851	-1224.422500	893.776367	38.339062
20393.775851	-1224.422500	892.605469	228.443863
20393.775851	-1224.422500	891.434570	66.612160
20393.775851	-1224.422500	890.262695	14.478285
20393.775851	-1224.422500	889.091797	188.441086
20393.775851	-1224.422500	887.919922	248.156021
20393.775851	-1224.422500	886.748047	234.780441
20393.775851	-1224.422500	885.575195	175.750351
20393.775851	-1224.422500	884.403320	105.316208
20393.775851	-1224.422500	883.230469	194.598206
20393.775851	-1224.422500	882.057617	115.036896
20393.775851	-1224.422500	880.883789	192.848465
20393.775851	-1224.422500	879.710938	238.688736
20393.775851	-1224.422500	878.537109	316.410187
20393.775851	-1224.422500	877.362305	225.431427
20393.775851	-1224.422500	876.188477	218.780472
20393.775851	-1224.422500	875.013672	25.306709
20393.775851	-1224.422500	873.839844	424.095764
20393.775851	-1224.422500	872.664063	446.963287
20393.775851	-1224.422500	871.489258	392.389954
20393.775851	-1224.422500	870.313477	360.586334
20393.775851	-1224.422500	869.138672	542.703552
20393.775851	-1224.422500	867.962891	292.407257
20393.775851	-1224.422500	866.786133	101.343552
20393.775851	-1224.422500	865.610352	62.724178
20393.775851	-1224.422500	864.433594	5.910907
20393.775851	-1224.422500	863.256836	19.578787
20393.775851	-1224.422500	862.079102	190.061768
20393.775851	-1224.422500	860.902344	-14.523960
20393.775851	-1224.422500	859.724609	-0.922295
20393.775851	-1224.422500	858.546875	-85.029434
20393.775851	-1224.422500	857.368164	103.419151
20393.775851	-1224.422500	856.190430	32.903996
20393.775851	-1224.422500	855.011719	103.151749
20393.775851	-1224.422500	853.833008	-64.980812
20393.775851	-1224.422500	852.654297	-19.751905
20393.775851	-1224.422500	851.474609	14.091136
20393.775851	-1224.422500	850.294922	93.262543
20393.775851	-1224.422500	849.115234	-34.004700
20393.775851	-1224.422500	847.935547	-41.070412
20393.775851	-1224.422500	846.754883	105.997658
20393.775851	-1224.422500	845.575195	-150.465149
20393.775851	-1224.422500	844.393555	-162.111511
20393.775851	-1224.422500	843.212891	34.651768
20393.775851	-1224.422500	842.032227	9.322294
20393.775851	-1224.422500	840.850586	-36.405132
20393.775851	-1224.422500	839.668945	-5.159884
20393.775851	-1224.422500	838.486328	112.065269
20393.775851	-1224.422500	837.304688	32.307137
20393.775851	-1224.422500	836.122070	126.786682
20393.775851	-1224.422500	834.939453	-84.218170
20393.775851	-1224.422500	833.756836	139.110443
20393.775851	-1224.422500	832.573242	140.699524
20393.775851	-1224.422500	831.389648	-27.316484
20393.775851	-1224.422500	830.206055	175.421280
20393.775851	-1224.422500	829.022461	43.560722
20393.775851	-1224.422500	827.838867	-38.570530
20393.775851	-1224.422500	826.654297	-161.364975
20393.775851	-1224.422500	825.469727	135.956451
20393.775851	-1224.422500	824.284180	272.792236
20393.775851	-1224.422500	823.099609	27.986403
20393.775851	-1224.422500	821.914063	56.367607
20393.775851	-1224.422500	820.728516	5.714064
20393.775851	-1224.422500	819.542969	29.498861
20393.775851	-1224.422500	818.356445	-102.414879
20393.775851	-1224.422500	817.169922	74.669121
20393.775851	-1224.422500	815.983398	136.640915
20393.775851	-1224.422500	814.796875	286.468719
20393.775851	-1224.422500	813.609375	64.291893
20393.775851	-1224.422500	812.422852	42.723568
20393.775851	-1224.422500	811.235352	-44.214836
20393.775851	-1224.422500	810.046875	121.127380
20393.775851	-1224.422500	808.859375	-76.230164
20393.775851	-1224.422500	807.670898	-41.633469
20393.775851	-1224.422500	806.482422	-106.145744
20393.775851	-1224.422500	805.293945	-150.420883
20393.775851	-1224.422500	804.104492	-59.709461
20393.775851	-1224.422500	802.915039	-5.078502
20393.775851	-1224.422500	801.725586	74.224373
20393.775851	-1224.422500	800.536133	97.225937
20393.775851	-1224.422500	799.345703	39.228180
20393.775851	-1224.422500	798.155273	152.046082
20393.775851	-1224.422500	796.964844	91.715233
20393.775851	-1224.422500	795.774414	105.509468
20393.775851	-1224.422500	794.583008	-71.706871
20393.775851	-1224.422500	793.392578	-42.264732
20393.775851	-1224.422500	792.200195	180.232590
20393.775851	-1224.422500	791.008789	88.269119
20393.775851	-1224.422500	789.816406	65.875633
20393.775851	-1224.422500	788.625000	-176.493317
20393.775851	-1224.422500	787.432617	-95.721184
20393.775851	-1224.422500	786.239258	139.748001
20393.775851	-1224.422500	785.046875	99.200104
20393.775851	-1224.422500	783.853516	-161.134308
20393.775851	-1224.422500	782.660156	-194.990463
20393.775851	-1224.422500	781.465820	205.939835
20393.775851	-1224.422500	780.272461	127.088379
20393.775851	-1224.422500	779.078125	171.436325
20393.775851	-1224.422500	777.883789	123.866821
20393.775851	-1224.422500	776.688477	-60.354076
20393.775851	-1224.422500	775.494141	111.452873
20393.775851	-1224.422500	774.298828	79.414955
20393.775851	-1224.422500	773.103516	65.233894
20393.775851	-1224.422500	771.907227	80.086700
20393.775851	-1224.422500	770.711914	262.661835
20393.775851	-1224.422500	769.515625	-163.294662
20393.775851	-1224.422500	768.318359	-65.850769
20393.775851	-1224.422500	767.122070	-57.942699
20393.775851	-1224.422500	765.924805	68.370636
20393.775851	-1224.422500	764.727539	87.292320
20393.775851	-1224.422500	763.530273	-72.612625
20393.775851	-1224.422500	762.333008	-22.524303
20393.775851	-1224.422500	761.134766	94.479988
20393.775851	-1224.422500	759.936523	-112.418861
20393.775851	-1224.422500	758.738281	120.514099
20393.775851	-1224.422500	757.540039	103.289253
20393.775851	-1224.422500	756.340820	54.759792
20393.775851	-1224.422500	755.141602	26.262119
20393.775851	-1224.422500	753.942383	93.627922
20393.775851	-1224.422500	752.742188	-50.976250
20393.775851	-1224.422500	751.541992	-86.330986
20393.775851	-1224.422500	750.341797	-257.728607
20393.775851	-1224.422500	749.141602	-7.875420
20393.775851	-1224.422500	747.941406	85.818100
20393.775851	-1224.422500	746.740234	-76.809845
20393.775851	-1224.422500	745.539063	-90.201599
20393.775851	-1224.422500	744.337891	29.958994
20393.775851	-1224.422500	743.135742	-241.870850
20393.775851	-1224.422500	741.933594	-112.970215
20393.775851	-1224.422500	740.731445	-226.783615
20393.775851	-1224.422500	739.529297	28.746374
20393.775851	-1224.422500	738.326172	-65.174194
20393.775851	-1224.422500	737.124023	7.686534
20393.775851	-1224.422500	735.919922	162.717453
20393.775851	-1224.422500	734.716797	-78.127838
20393.775851	-1224.422500	733.513672	110.054001
20393.775851	-1224.422500	732.309570	33.623123
20393.775851	-1224.422500	731.105469	190.446625
20393.775851	-1224.422500	729.900391	73.896286
20393.775851	-1224.422500	728.696289	223.834763
20393.775851	-1224.422500	727.491211	235.965637
20393.775851	-1224.422500	726.286133	12.695350
20393.775851	-1224.422500	725.080078	217.813507
20393.775851	-1224.422500	723.874023	38.871269
20393.775851	-1224.422500	722.668945	41.858509
20393.775851	-1224.422500	721.461914	42.547001
20393.775851	-1224.422500	720.255859	131.870209
20393.775851	-1224.422500	719.048828	30.398184
20393.775851	-1224.422500	717.841797	-186.376114
20393.775851	-1224.422500	716.634766	64.503532
20393.775851	-1224.422500	715.427734	-112.451019
20393.775851	-1224.422500	714.219727	-125.471992
20393.775851	-1224.422500	713.011719	246.833282
20393.775851	-1224.422500	711.803711	193.735565
20393.775851	-1224.422500	710.594727	-129.519989
20393.775851	-1224.422500	709.385742	-56.496479
20393.775851	-1224.422500	708.176758	-63.245392
20393.775851	-1224.422500	706.967773	89.242393
20393.775851	-1224.422500	705.758789	-143.315018
20393.775851	-1224.422500	704.548828	-148.050522
20393.775851	-1224.422500	703.338867	-110.842300
20393.775851	-1224.422500	702.127930	-31.721748
20393.775851	-1224.422500	700.917969	210.857574
20393.775851	-1224.422500	699.707031	170.407623
20393.775851	-1224.422500	698.496094	103.391373
20393.775851	-1224.422500	697.285156	312.443115
20393.775851	-1224.422500	696.073242	172.405334
20393.775851	-1224.422500	694.861328	233.280273
20393.775851	-1224.422500	693.649414	278.609558
20393.775851	-1224.422500	692.436523	142.873260
20393.775851	-1224.422500	691.224609	263.089600
20393.775851	-1224.422500	690.011719	380.979797
20393.775851	-1224.422500	688.798828	333.331726
20393.775851	-1224.422500	687.584961	351.790405
20393.775851	-1224.422500	686.372070	218.056168
20393.775851	-1224.422500	685.158203	190.113678
20393.775851	-1224.422500	683.943359	468.439178
20393.775851	-1224.422500	682.729492	343.384735
20393.775851	-1224.422500	681.514648	434.195557
20393.775851	-1224.422500	680.299805	240.801590
20393.775851	-1224.422500	679.084961	538.454712
20393.775851	-1224.422500	677.869141	415.443420
20393.775851	-1224.422500	676.653320	153.763214
20393.775851	-1224.422500	675.437500	275.026459
20393.775851	-1224.422500	674.221680	371.982239
20393.775851	-1224.422500	673.004883	211.485306
20393.775851	-1224.422500	671.789063	233.534317
20393.775851	-1224.422500	670.571289	270.901398
20393.775851	-1224.422500	669.354492	171.918243
20393.775851	-1224.422500	668.136719	165.225876
20393.775851	-1224.422500	666.919922	46.429813
20393.775851	-1224.422500	665.701172	239.573349
20393.775851	-1224.422500	664.483398	215.154739
20393.775851	-1224.422500	663.264648	65.530647
20393.775851	-1224.422500	662.045898	113.511993
20393.775851	-1224.422500	660.827148	132.895020
20393.775851	-1224.422500	659.608398	167.590286
20393.775851	-1224.422500	658.388672	213.194672
20393.775851	-1224.422500	657.168945	241.192184
20393.775851	-1224.422500	655.949219	60.794220
20393.775851	-1224.422500	654.728516	369.390656
20393.775851	-1224.422500	653.507813	219.656113
20393.775851	-1224.422500	652.287109	278.164368
20393.775851	-1224.422500	651.066406	259.922882
20393.775851	-1224.422500	649.844727	267.941650
20393.775851	-1224.422500	648.623047	304.403320
20393.775851	-1224.422500	647.401367	292.645477
20393.775851	-1224.422500	646.179688	504.186401
20393.775851	-1224.422500	644.957031	656.506897
20393.775851	-1224.422500	643.734375	316.333649
20393.775851	-1224.422500	642.511719	243.222260
20393.775851	-1224.422500	641.289063	91.371719
20393.775851	-1224.422500	640.065430	263.251160
20393.775851	-1224.422500	638.841797	520.322876
20393.775851	-1224.422500	637.618164	335.666901
20393.775851	-1224.422500	636.393555	223.201630
20393.775851	-1224.422500	635.168945	294.334747
20393.775851	-1224.422500	633.944336	138.213776
20393.775851	-1224.422500	632.719727	-68.085091
20393.775851	-1224.422500	631.494141	0.860564
20393.775851	-1224.422500	630.269531	-133.274307
20393.775851	-1224.422500	629.042969	-53.435432
20393.775851	-1224.422500	627.817383	54.749954
20393.775851	-1224.422500	626.590820	-5.124245
20393.775851	-1224.422500	625.365234	22.301565
20393.775851	-1224.422500	624.137695	-113.865433
20393.775851	-1224.422500	622.911133	-125.663582
20393.775851	-1224.422500	621.683594	100.188698
20393.775851	-1224.422500	620.456055	-99.077354
20393.775851	-1224.422500	619.228516	9.030783
20393.775851	-1224.422500	618.000977	-78.974838
20393.775851	-1224.422500	616.772461	124.967323
20393.775851	-1224.422500	615.543945	-13.071627
20393.775851	-1224.422500	614.314453	160.334198
20393.775851	-1224.422500	613.085938	68.120438
20393.775851	-1224.422500	611.856445	-65.379044
20393.775851	-1224.422500	610.626953	-68.227921
20393.775851	-1224.422500	609.397461	-57.984291
20393.775851	-1224.422500	608.166992	171.972321
20393.775851	-1224.422500	606.936523	-13.474530
20393.775851	-1224.422500	605.706055	-66.175842
20393.775851	-1224.422500	604.474609	-240.536362
20393.775851	-1224.422500	603.244141	-95.305420
20393.775851	-1224.422500	602.012695	-8.751956
20393.775851	-1224.422500	600.780273	171.224380
20393.775851	-1224.422500	599.548828	153.550812
20393.775851	-1224.422500	598.316406	133.770218
20393.775851	-1224.422500	597.083984	105.377289
20393.775851	-1224.422500	595.851563	198.608017
20393.775851	-1224.422500	594.618164	163.834564
20393.775851	-1224.422500	593.384766	3.316124
20393.775851	-1224.422500	592.151367	122.748688
20393.775851	-1224.422500	590.917969	23.178848
20393.775851	-1224.422500	589.683594	-4.724096
20393.775851	-1224.422500	588.449219	52.006855
20393.775851	-1224.422500	587.214844	39.448574
20393.775851	-1224.422500	585.979492	135.315521
20393.775851	-1224.422500	584.745117	53.602852
20393.775851	-1224.422500	583.509766	-151.437912
20393.775851	-1224.422500	582.273438	137.403168
20393.775851	-1224.422500	581.038086	-32.734680
20393.775851	-1224.422500	579.801758	269.145660
20393.775851	-1224.422500	578.565430	49.483223
20393.775851	-1224.422500	577.329102	100.462334
20393.775851	-1224.422500	576.091797	77.980682
20393.775851	-1224.422500	574.854492	198.354019
20393.775851	-1224.422500	573.617188	61.497089
20393.775851	-1224.422500	572.378906	32.897682
20393.775851	-1224.422500	571.141602	95.204315
20393.775851	-1224.422500	569.903320	53.890064
20393.775851	-1224.422500	568.664063	492.299591
20393.775851	-1224.422500	567.425781	360.459656
20393.775851	-1224.422500	566.186523	198.574402
20393.775851	-1224.422500	564.947266	151.314102
20393.775851	-1224.422500	563.708008	197.024048
20393.775851	-1224.422500	562.467773	331.328491
20393.775851	-1224.422500	561.227539	321.162964
20393.775851	-1224.422500	559.987305	270.163666
20393.775851	-1224.422500	558.747070	253.836884
20393.775851	-1224.422500	557.505859	108.297447
20393.775851	-1224.422500	556.264648	122.492065
20393.775851	-1224.422500	555.023438	192.870255
20393.775851	-1224.422500	553.781250	97.457283
20393.775851	-1224.422500	552.539063	79.798973
20393.775851	-1224.422500	551.296875	180.769547
20393.775851	-1224.422500	550.054688	-174.653305
20393.775851	-1224.422500	548.811523	51.525742
20393.775851	-1224.422500	547.569336	77.598663
20393.775851	-1224.422500	546.325195	-53.265881
20393.775851	-1224.422500	545.082031	-239.842056
20393.775851	-1224.422500	543.837891	77.185333
20393.775851	-1224.422500	542.593750	-31.567047
20393.775851	-1224.422500	541.349609	-30.437317
20393.775851	-1224.422500	540.105469	-149.511719
20393.775851	-1224.422500	538.860352	-124.354813
20393.775851	-1224.422500	537.615234	-202.167206
20393.775851	-1224.422500	536.369141	63.968147
20393.775851	-1224.422500	535.124023	113.242134
20393.775851	-1224.422500	533.877930	-77.823235
20393.775851	-1224.422500	532.631836	-19.573929
20393.775851	-1224.422500	531.384766	122.552834
20393.775851	-1224.422500	530.138672	-37.776997
20393.775851	-1224.422500	528.891602	51.038551
20393.775851	-1224.422500	527.643555	-106.673035
20393.775851	-1224.422500	526.396484	38.267651
20393.775851	-1224.422500	525.148438	35.396793
20393.775851	-1224.422500	523.900391	-74.462402
20393.775851	-1224.422500	522.652344	88.113365
20393.775851	-1224.422500	521.403320	-10.599787
20393.775851	-1224.422500	520.154297	-87.649559
20393.775851	-1224.422500	518.905273	-59.518272
20393.775851	-1224.422500	517.656250	-153.259644
20393.775851	-1224.422500	516.406250	-178.249771
20393.775851	-1224.422500	515.156250	-76.743507
20393.775851	-1224.422500	513.906250	-37.142635
20393.775851	-1224.422500	512.655273	83.944412
20393.775851	-1224.422500	511.404297	25.492352
20393.775851	-1224.422500	510.153320	-124.699829
20393.775851	-1224.422500	508.902344	26.851271
20393.775851	-1224.422500	507.650391	56.685665
20393.775851	-1224.422500	506.398438	78.151863
20393.775851	-1224.422500	505.146484	110.484749
20393.775851	-1224.422500	503.893555	128.044601
20393.775851	-1224.422500	502.641602	246.167526
20393.775851	-1224.422500	501.388672	246.982742
20393.775851	-1224.422500	500.134766	337.657471
20393.775851	-1224.422500	498.881836	456.219757
20393.775851	-1224.422500	497.627930	374.315735
20393.775851	-1224.422500	496.374023	636.133118
20393.775851	-1224.422500	495.119141	716.702698
20393.775851	-1224.422500	493.865234	526.555603
20393.775851	-1224.422500	492.610352	590.397766
20393.775851	-1224.422500	491.355469	731.122559
20393.775851	-1224.422500	490.099609	675.874695
20393.775851	-1224.422500	488.843750	599.501953
20393.775851	-1224.422500	487.587891	753.396606
20393.775851	-1224.422500	486.332031	568.718262
20393.775851	-1224.422500	485.075195	707.948181
20393.775851	-1224.422500	483.818359	866.420837
20393.775851	-1224.422500	482.561523	663.108643
20393.775851	-1224.422500	481.304688	709.000244
20393.775851	-1224.422500	480.046875	684.791077
20393.775851	-1224.422500	478.789063	705.381653
20393.775851	-1224.422500	477.531250	904.719788
20393.775851	-1224.422500	476.272461	961.626282
20393.775851	-1224.422500	475.013672	869.802185
20393.775851	-1224.422500	473.754883	1245.682861
20393.775851	-1224.422500	472.496094	1032.896362
20393.775851	-1224.422500	471.236328	1132.576294
20393.775851	-1224.422500	469.976563	1024.134033
20393.775851	-1224.422500	468.716797	1087.802246
20393.775851	-1224.422500	467.456055	1032.613037
20393.775851	-1224.422500	466.196289	1242.805054
20393.775851	-1224.422500	464.935547	1166.462036
20393.775851	-1224.422500	463.673828	1262.036987
20393.775851	-1224.422500	462.413086	1124.246216
20393.775851	-1224.422500	461.151367	1334.326416
20393.775851	-1224.422500	459.889648	1236.867554
20393.775851	-1224.422500	458.626953	1677.875854
20393.775851	-1224.422500	457.364258	1448.942383
20393.775851	-1224.422500	456.101563	1374.745361
20393.775851	-1224.422500	454.838867	1421.277344
20393.775851	-1224.422500	453.575195	1501.616699
20393.775851	-1224.422500	452.312500	1653.828247
20393.775851	-1224.422500	451.047852	1778.371948
20393.775851	-1224.422500	449.784180	1523.869385
20393.775851	-1224.422500	448.519531	1802.633301
20393.775851	-1224.422500	447.254883	1721.465820
20393.775851	-1224.422500	445.990234	1528.071167
20393.775851	-1224.422500	444.725586	1639.118652
20393.775851	-1224.422500	443.459961	1485.644165
20393.775851	-1224.422500	442.194336	1454.636597
20393.775851	-1224.422500	440.927734	1782.706665
20393.775851	-1224.422500	439.662109	1920.220459
20393.775851	-1224.422500	438.395508	1613.795166
20393.775851	-1224.422500	437.127930	1833.127930
20393.775851	-1224.422500	435.861328	1874.687134
20393.775851	-1224.422500	434.593750	1888.469849
20393.775851	-1224.422500	433.326172	2153.074951
20393.775851	-1224.422500	432.058594	2073.237793
20393.775851	-1224.422500	430.790039	1786.297852
20393.775851	-1224.422500	429.521484	2117.101318
20393.775851	-1224.422500	428.252930	1882.157715
20393.775851	-1224.422500	426.984375	2045.347900
20393.775851	-1224.422500	425.714844	2313.386230
20393.775851	-1224.422500	424.445313	2066.577637
20393.775851	-1224.422500	423.174805	2226.002441
20393.775851	-1224.422500	421.905273	2140.434570
20393.775851	-1224.422500	420.634766	2117.502197
20393.775851	-1224.422500	419.364258	2013.951660
20393.775851	-1224.422500	418.092773	2412.942871
20393.775851	-1224.422500	416.822266	2453.283447
20393.775851	-1224.422500	415.550781	2421.355957
20393.775851	-1224.422500	414.278320	2424.471680
20393.775851	-1224.422500	413.006836	2319.547363
20393.775851	-1224.422500	411.734375	2436.776367
20393.775851	-1224.422500	410.461914	2464.816895
20393.775851	-1224.422500	409.188477	2355.343994
20393.775851	-1224.422500	407.916016	2184.073730
20393.775851	-1224.422500	406.642578	2293.480713
20393.775851	-1224.422500	405.368164	2093.063965
20393.775851	-1224.422500	404.094727	2595.285400
20393.775851	-1224.422500	402.820313	2327.730957
20393.775851	-1224.422500	401.545898	2420.272705
20393.775851	-1224.422500	400.270508	2740.401855
20393.775851	-1224.422500	398.996094	2631.163330
20393.775851	-1224.422500	397.720703	2466.197998
20393.775851	-1224.422500	396.444336	2543.334961
20393.775851	-1224.422500	395.168945	2547.846680
20393.775851	-1224.422500	393.892578	2662.109131
20393.775851	-1224.422500	392.616211	2426.975098
20393.775851	-1224.422500	391.339844	2467.120361
20393.775851	-1224.422500	390.062500	2468.024902
20393.775851	-1224.422500	388.785156	2184.599854
20393.775851	-1224.422500	387.507813	2381.381592
20393.775851	-1224.422500	386.229492	2448.689453
20393.775851	-1224.422500	384.951172	2103.973633
20393.775851	-1224.422500	383.672852	1866.483154
20393.775851	-1224.422500	382.394531	2338.716797
20393.775851	-1224.422500	381.115234	2273.306641
20393.775851	-1224.422500	379.835938	1973.843018
20393.775851	-1224.422500	378.556641	2237.117188
20393.775851	-1224.422500	377.277344	2404.157715
20393.775851	-1224.422500	375.997070	2201.124512
20393.775851	-1224.422500	374.716797	2048.255615
20393.775851	-1224.422500	373.435547	2177.325195
20393.775851	-1224.422500	372.155273	1965.695313
20393.775851	-1224.422500	370.874023	1948.062866
20393.775851	-1224.422500	369.591797	1850.714844
20393.775851	-1224.422500	368.310547	1782.263184
20393.775851	-1224.422500	367.028320	2074.362793
20393.775851	-1224.422500	365.746094	1979.771606
20393.775851	-1224.422500	364.463867	1926.314087
20393.775851	-1224.422500	363.180664	1968.064453
20393.775851	-1224.422500	361.897461	1908.924438
20393.775851	-1224.422500	360.614258	1801.001709
20393.775851	-1224.422500	359.330078	1625.432007
20393.775851	-1224.422500	358.045898	1653.126465
20393.775851	-1224.422500	356.761719	1710.954468
20393.775851	-1224.422500	355.477539	1807.140869
20393.775851	-1224.422500	354.192383	1762.420410
20393.775851	-1224.422500	352.907227	1718.434448
20393.775851	-1224.422500	351.622070	1643.873779
20393.775851	-1224.422500	350.336914	1694.744385
20393.775851	-1224.422500	349.050781	1523.332031
20393.775851	-1224.422500	347.764648	1549.955566
20393.775851	-1224.422500	346.477539	1451.950073
20393.775851	-1224.422500	345.191406	1300.160767
20393.775851	-1224.422500	343.904297	1391.621338
20393.775851	-1224.422500	342.616211	1139.964844
20393.775851	-1224.422500	341.329102	1384.971069
20393.775851	-1224.422500	340.041016	1205.708374
20393.775851	-1224.422500	338.752930	1184.004028
20393.775851	-1224.422500	337.463867	1074.501465
20393.775851	-1224.422500	336.175781	1060.060547
20393.775851	-1224.422500	334.886719	849.695190
20393.775851	-1224.422500	333.596680	895.800598
20393.775851	-1224.422500	332.307617	687.940247
20393.775851	-1224.422500	331.017578	566.101563
20393.775851	-1224.422500	329.727539	588.296509
20393.775851	-1224.422500	328.436523	577.932312
20393.775851	-1224.422500	327.146484	329.957245
20393.775851	-1224.422500	325.855469	604.714600
20393.775851	-1224.422500	324.563477	313.917358
20393.775851	-1224.422500	323.272461	270.144073
20393.775851	-1224.422500	321.980469	360.961243
20393.775851	-1224.422500	320.688477	259.127136
20393.775851	-1224.422500	319.395508	125.939674
20393.775851	-1224.422500	318.103516	96.138184
20393.775851	-1224.422500	316.810547	117.443581
20393.775851	-1224.422500	315.516602	-33.775429
20393.775851	-1224.422500	314.223633	25.458000
20393.775851	-1224.422500	312.929688	27.719671
20393.775851	-1224.422500	311.635742	-68.271667
20393.775851	-1224.422500	310.340820	-12.703174
20393.775851	-1224.422500	309.045898	-70.163170
20393.775851	-1224.422500	307.750977	-145.692978
20393.775851	-1224.422500	306.456055	-282.830566
20393.775851	-1224.422500	305.160156	13.732424
20393.775851	-1224.422500	303.865234	246.374115
20393.775851	-1224.422500	302.568359	261.504120
20393.775851	-1224.422500	301.272461	235.219772
20393.775851	-1224.422500	299.975586	325.770477
20393.775851	-1224.422500	298.678711	225.749954
