#X		#Y		#Wave		#Intensity
20390.044947	-1237.387667	1999.980469	14.619559
20390.044947	-1237.387667	1999.016602	11.388390
20390.044947	-1237.387667	1998.052734	60.292759
20390.044947	-1237.387667	1997.087891	5.010306
20390.044947	-1237.387667	1996.123047	71.067924
20390.044947	-1237.387667	1995.158203	65.180649
20390.044947	-1237.387667	1994.193359	-57.192410
20390.044947	-1237.387667	1993.228516	40.793526
20390.044947	-1237.387667	1992.262695	-4.927819
20390.044947	-1237.387667	1991.297852	120.096214
20390.044947	-1237.387667	1990.332031	2.465319
20390.044947	-1237.387667	1989.366211	-23.632408
20390.044947	-1237.387667	1988.399414	-151.216904
20390.044947	-1237.387667	1987.433594	196.103256
20390.044947	-1237.387667	1986.466797	6.580280
20390.044947	-1237.387667	1985.500977	225.052963
20390.044947	-1237.387667	1984.534180	47.846405
20390.044947	-1237.387667	1983.567383	-77.440163
20390.044947	-1237.387667	1982.599609	-187.900635
20390.044947	-1237.387667	1981.632813	-21.639389
20390.044947	-1237.387667	1980.665039	21.000042
20390.044947	-1237.387667	1979.697266	-163.646820
20390.044947	-1237.387667	1978.729492	59.185730
20390.044947	-1237.387667	1977.761719	54.754513
20390.044947	-1237.387667	1976.792969	-102.757607
20390.044947	-1237.387667	1975.825195	92.680855
20390.044947	-1237.387667	1974.856445	-64.847679
20390.044947	-1237.387667	1973.887695	49.032257
20390.044947	-1237.387667	1972.918945	51.840889
20390.044947	-1237.387667	1971.949219	274.112213
20390.044947	-1237.387667	1970.980469	0.659969
20390.044947	-1237.387667	1970.010742	-63.166393
20390.044947	-1237.387667	1969.041016	97.306320
20390.044947	-1237.387667	1968.071289	198.552170
20390.044947	-1237.387667	1967.101563	149.440689
20390.044947	-1237.387667	1966.130859	-155.870544
20390.044947	-1237.387667	1965.161133	16.733953
20390.044947	-1237.387667	1964.190430	71.055191
20390.044947	-1237.387667	1963.219727	39.166607
20390.044947	-1237.387667	1962.249023	189.435532
20390.044947	-1237.387667	1961.277344	140.280930
20390.044947	-1237.387667	1960.306641	14.848489
20390.044947	-1237.387667	1959.334961	-41.661724
20390.044947	-1237.387667	1958.363281	270.806946
20390.044947	-1237.387667	1957.391602	140.469284
20390.044947	-1237.387667	1956.419922	15.088819
20390.044947	-1237.387667	1955.447266	61.835194
20390.044947	-1237.387667	1954.474609	-16.799505
20390.044947	-1237.387667	1953.501953	-53.633888
20390.044947	-1237.387667	1952.529297	-60.976830
20390.044947	-1237.387667	1951.556641	-48.669487
20390.044947	-1237.387667	1950.583984	29.943048
20390.044947	-1237.387667	1949.610352	-144.412247
20390.044947	-1237.387667	1948.636719	-242.595032
20390.044947	-1237.387667	1947.663086	15.195959
20390.044947	-1237.387667	1946.689453	-46.171631
20390.044947	-1237.387667	1945.715820	186.942276
20390.044947	-1237.387667	1944.741211	-6.922065
20390.044947	-1237.387667	1943.767578	-139.393860
20390.044947	-1237.387667	1942.792969	-70.713333
20390.044947	-1237.387667	1941.818359	7.746892
20390.044947	-1237.387667	1940.842773	115.596291
20390.044947	-1237.387667	1939.868164	-163.869675
20390.044947	-1237.387667	1938.892578	274.807831
20390.044947	-1237.387667	1937.916992	88.522713
20390.044947	-1237.387667	1936.941406	-36.451496
20390.044947	-1237.387667	1935.965820	-2.174262
20390.044947	-1237.387667	1934.990234	286.766602
20390.044947	-1237.387667	1934.013672	-83.011887
20390.044947	-1237.387667	1933.037109	-56.089584
20390.044947	-1237.387667	1932.060547	107.879166
20390.044947	-1237.387667	1931.083984	51.557404
20390.044947	-1237.387667	1930.107422	22.167717
20390.044947	-1237.387667	1929.129883	124.876831
20390.044947	-1237.387667	1928.153320	-122.177368
20390.044947	-1237.387667	1927.175781	168.798599
20390.044947	-1237.387667	1926.198242	34.283230
20390.044947	-1237.387667	1925.219727	127.133575
20390.044947	-1237.387667	1924.242188	156.410294
20390.044947	-1237.387667	1923.263672	102.599121
20390.044947	-1237.387667	1922.285156	109.878677
20390.044947	-1237.387667	1921.306641	36.553341
20390.044947	-1237.387667	1920.328125	12.092532
20390.044947	-1237.387667	1919.349609	12.053529
20390.044947	-1237.387667	1918.370117	-151.540756
20390.044947	-1237.387667	1917.391602	119.352600
20390.044947	-1237.387667	1916.412109	33.877392
20390.044947	-1237.387667	1915.431641	-102.804695
20390.044947	-1237.387667	1914.452148	31.317001
20390.044947	-1237.387667	1913.472656	9.300442
20390.044947	-1237.387667	1912.492188	-56.604061
20390.044947	-1237.387667	1911.511719	-98.110680
20390.044947	-1237.387667	1910.531250	-61.611515
20390.044947	-1237.387667	1909.550781	21.170246
20390.044947	-1237.387667	1908.569336	108.785606
20390.044947	-1237.387667	1907.588867	-10.705008
20390.044947	-1237.387667	1906.607422	106.093872
20390.044947	-1237.387667	1905.625977	-200.878677
20390.044947	-1237.387667	1904.644531	-84.106628
20390.044947	-1237.387667	1903.662109	25.307566
20390.044947	-1237.387667	1902.680664	-86.806122
20390.044947	-1237.387667	1901.698242	-103.989891
20390.044947	-1237.387667	1900.715820	124.542015
20390.044947	-1237.387667	1899.733398	165.678574
20390.044947	-1237.387667	1898.750000	102.209808
20390.044947	-1237.387667	1897.767578	-24.468824
20390.044947	-1237.387667	1896.784180	-63.597946
20390.044947	-1237.387667	1895.800781	157.347443
20390.044947	-1237.387667	1894.817383	234.813919
20390.044947	-1237.387667	1893.833984	88.701111
20390.044947	-1237.387667	1892.850586	15.501469
20390.044947	-1237.387667	1891.866211	-4.255925
20390.044947	-1237.387667	1890.881836	170.241074
20390.044947	-1237.387667	1889.897461	-160.349106
20390.044947	-1237.387667	1888.913086	133.014755
20390.044947	-1237.387667	1887.927734	137.434875
20390.044947	-1237.387667	1886.943359	-188.176407
20390.044947	-1237.387667	1885.958008	-64.867821
20390.044947	-1237.387667	1884.972656	9.858406
20390.044947	-1237.387667	1883.987305	-92.505363
20390.044947	-1237.387667	1883.001953	207.643585
20390.044947	-1237.387667	1882.015625	17.953161
20390.044947	-1237.387667	1881.029297	82.805016
20390.044947	-1237.387667	1880.042969	77.327232
20390.044947	-1237.387667	1879.056641	-112.318916
20390.044947	-1237.387667	1878.070313	15.415545
20390.044947	-1237.387667	1877.083984	38.925289
20390.044947	-1237.387667	1876.096680	-0.566751
20390.044947	-1237.387667	1875.109375	56.765530
20390.044947	-1237.387667	1874.122070	80.154694
20390.044947	-1237.387667	1873.134766	93.818634
20390.044947	-1237.387667	1872.146484	15.491857
20390.044947	-1237.387667	1871.159180	-50.744484
20390.044947	-1237.387667	1870.170898	-155.695969
20390.044947	-1237.387667	1869.182617	-260.645691
20390.044947	-1237.387667	1868.194336	-36.761456
20390.044947	-1237.387667	1867.205078	-32.990627
20390.044947	-1237.387667	1866.216797	28.747341
20390.044947	-1237.387667	1865.227539	129.084000
20390.044947	-1237.387667	1864.238281	-101.663956
20390.044947	-1237.387667	1863.249023	15.482132
20390.044947	-1237.387667	1862.259766	113.218674
20390.044947	-1237.387667	1861.269531	140.844193
20390.044947	-1237.387667	1860.279297	132.198990
20390.044947	-1237.387667	1859.290039	72.820854
20390.044947	-1237.387667	1858.298828	-194.135437
20390.044947	-1237.387667	1857.308594	36.022282
20390.044947	-1237.387667	1856.318359	263.629547
20390.044947	-1237.387667	1855.327148	61.762920
20390.044947	-1237.387667	1854.335938	-19.502600
20390.044947	-1237.387667	1853.344727	-47.745003
20390.044947	-1237.387667	1852.353516	107.178436
20390.044947	-1237.387667	1851.362305	88.455383
20390.044947	-1237.387667	1850.370117	139.565475
20390.044947	-1237.387667	1849.377930	289.380829
20390.044947	-1237.387667	1848.385742	106.664322
20390.044947	-1237.387667	1847.393555	15.476667
20390.044947	-1237.387667	1846.401367	-99.814774
20390.044947	-1237.387667	1845.408203	285.631683
20390.044947	-1237.387667	1844.415039	124.478531
20390.044947	-1237.387667	1843.421875	57.181011
20390.044947	-1237.387667	1842.428711	136.620178
20390.044947	-1237.387667	1841.435547	47.570667
20390.044947	-1237.387667	1840.441406	21.024284
20390.044947	-1237.387667	1839.448242	220.473557
20390.044947	-1237.387667	1838.454102	92.793457
20390.044947	-1237.387667	1837.459961	111.731873
20390.044947	-1237.387667	1836.464844	-140.992065
20390.044947	-1237.387667	1835.470703	233.485764
20390.044947	-1237.387667	1834.475586	204.131699
20390.044947	-1237.387667	1833.480469	-43.866688
20390.044947	-1237.387667	1832.485352	130.838547
20390.044947	-1237.387667	1831.490234	146.933212
20390.044947	-1237.387667	1830.495117	-55.513058
20390.044947	-1237.387667	1829.499023	-46.736641
20390.044947	-1237.387667	1828.502930	158.745377
20390.044947	-1237.387667	1827.506836	-15.016905
20390.044947	-1237.387667	1826.510742	-11.272185
20390.044947	-1237.387667	1825.513672	21.174564
20390.044947	-1237.387667	1824.517578	149.456650
20390.044947	-1237.387667	1823.520508	83.411026
20390.044947	-1237.387667	1822.523438	223.460526
20390.044947	-1237.387667	1821.526367	-41.648407
20390.044947	-1237.387667	1820.529297	93.424446
20390.044947	-1237.387667	1819.531250	29.519241
20390.044947	-1237.387667	1818.533203	-113.485779
20390.044947	-1237.387667	1817.535156	160.180283
20390.044947	-1237.387667	1816.537109	-6.900126
20390.044947	-1237.387667	1815.539063	36.665993
20390.044947	-1237.387667	1814.540039	20.291702
20390.044947	-1237.387667	1813.541992	142.640381
20390.044947	-1237.387667	1812.542969	-189.729904
20390.044947	-1237.387667	1811.543945	64.005966
20390.044947	-1237.387667	1810.543945	90.350632
20390.044947	-1237.387667	1809.544922	171.601944
20390.044947	-1237.387667	1808.544922	-258.886749
20390.044947	-1237.387667	1807.544922	-22.407110
20390.044947	-1237.387667	1806.544922	156.540375
20390.044947	-1237.387667	1805.544922	191.969910
20390.044947	-1237.387667	1804.544922	-2.039822
20390.044947	-1237.387667	1803.543945	-141.133194
20390.044947	-1237.387667	1802.542969	-244.443207
20390.044947	-1237.387667	1801.541992	86.737740
20390.044947	-1237.387667	1800.541016	114.537178
20390.044947	-1237.387667	1799.539063	-98.822334
20390.044947	-1237.387667	1798.538086	281.983398
20390.044947	-1237.387667	1797.536133	142.450592
20390.044947	-1237.387667	1796.534180	-116.388176
20390.044947	-1237.387667	1795.532227	-105.728554
20390.044947	-1237.387667	1794.529297	-126.169647
20390.044947	-1237.387667	1793.527344	-10.802336
20390.044947	-1237.387667	1792.524414	-26.670300
20390.044947	-1237.387667	1791.521484	71.761505
20390.044947	-1237.387667	1790.518555	-58.669304
20390.044947	-1237.387667	1789.514648	84.799118
20390.044947	-1237.387667	1788.511719	49.496742
20390.044947	-1237.387667	1787.507813	178.413269
20390.044947	-1237.387667	1786.503906	-209.448975
20390.044947	-1237.387667	1785.500000	-59.297226
20390.044947	-1237.387667	1784.496094	19.303883
20390.044947	-1237.387667	1783.491211	-80.685051
20390.044947	-1237.387667	1782.486328	-78.435112
20390.044947	-1237.387667	1781.481445	-92.931808
20390.044947	-1237.387667	1780.476563	6.630399
20390.044947	-1237.387667	1779.471680	8.574615
20390.044947	-1237.387667	1778.465820	312.318085
20390.044947	-1237.387667	1777.460938	90.596230
20390.044947	-1237.387667	1776.455078	1.926185
20390.044947	-1237.387667	1775.449219	-193.718842
20390.044947	-1237.387667	1774.442383	0.168905
20390.044947	-1237.387667	1773.436523	115.521889
20390.044947	-1237.387667	1772.429688	9.897625
20390.044947	-1237.387667	1771.422852	79.894707
20390.044947	-1237.387667	1770.416016	-99.459518
20390.044947	-1237.387667	1769.409180	17.799793
20390.044947	-1237.387667	1768.402344	113.563286
20390.044947	-1237.387667	1767.394531	-75.485062
20390.044947	-1237.387667	1766.386719	-108.020546
20390.044947	-1237.387667	1765.378906	-93.214973
20390.044947	-1237.387667	1764.371094	-95.108315
20390.044947	-1237.387667	1763.362305	-153.998352
20390.044947	-1237.387667	1762.354492	-42.315704
20390.044947	-1237.387667	1761.345703	73.957184
20390.044947	-1237.387667	1760.336914	-18.391443
20390.044947	-1237.387667	1759.328125	-8.950326
20390.044947	-1237.387667	1758.318359	-80.137741
20390.044947	-1237.387667	1757.308594	-68.525513
20390.044947	-1237.387667	1756.299805	-0.190926
20390.044947	-1237.387667	1755.290039	217.122803
20390.044947	-1237.387667	1754.279297	-43.762100
20390.044947	-1237.387667	1753.269531	-108.263802
20390.044947	-1237.387667	1752.258789	106.280266
20390.044947	-1237.387667	1751.249023	-19.908012
20390.044947	-1237.387667	1750.238281	99.761322
20390.044947	-1237.387667	1749.226563	-0.583799
20390.044947	-1237.387667	1748.215820	-209.707245
20390.044947	-1237.387667	1747.204102	-114.000008
20390.044947	-1237.387667	1746.193359	-42.041992
20390.044947	-1237.387667	1745.181641	-38.723545
20390.044947	-1237.387667	1744.168945	66.048180
20390.044947	-1237.387667	1743.157227	373.777832
20390.044947	-1237.387667	1742.144531	88.681023
20390.044947	-1237.387667	1741.132813	27.859455
20390.044947	-1237.387667	1740.120117	-37.763569
20390.044947	-1237.387667	1739.106445	80.585526
20390.044947	-1237.387667	1738.093750	-27.674595
20390.044947	-1237.387667	1737.080078	139.974594
20390.044947	-1237.387667	1736.067383	-48.621124
20390.044947	-1237.387667	1735.053711	29.186348
20390.044947	-1237.387667	1734.040039	158.734741
20390.044947	-1237.387667	1733.025391	130.216232
20390.044947	-1237.387667	1732.011719	-112.808830
20390.044947	-1237.387667	1730.997070	157.770920
20390.044947	-1237.387667	1729.982422	110.153954
20390.044947	-1237.387667	1728.967773	177.867142
20390.044947	-1237.387667	1727.952148	144.202911
20390.044947	-1237.387667	1726.937500	23.367987
20390.044947	-1237.387667	1725.921875	232.008163
20390.044947	-1237.387667	1724.906250	-58.422783
20390.044947	-1237.387667	1723.890625	88.804268
20390.044947	-1237.387667	1722.875000	-67.574745
20390.044947	-1237.387667	1721.858398	-165.191635
20390.044947	-1237.387667	1720.841797	-222.881287
20390.044947	-1237.387667	1719.825195	-78.440933
20390.044947	-1237.387667	1718.808594	-159.799622
20390.044947	-1237.387667	1717.791992	45.510101
20390.044947	-1237.387667	1716.774414	-52.469086
20390.044947	-1237.387667	1715.756836	30.401012
20390.044947	-1237.387667	1714.739258	211.808578
20390.044947	-1237.387667	1713.721680	172.317795
20390.044947	-1237.387667	1712.704102	95.195969
20390.044947	-1237.387667	1711.685547	-97.015518
20390.044947	-1237.387667	1710.667969	-63.906139
20390.044947	-1237.387667	1709.649414	8.991872
20390.044947	-1237.387667	1708.630859	168.589752
20390.044947	-1237.387667	1707.611328	109.888641
20390.044947	-1237.387667	1706.592773	79.290840
20390.044947	-1237.387667	1705.573242	175.232376
20390.044947	-1237.387667	1704.553711	53.039829
20390.044947	-1237.387667	1703.534180	26.920076
20390.044947	-1237.387667	1702.513672	143.670837
20390.044947	-1237.387667	1701.494141	0.248843
20390.044947	-1237.387667	1700.473633	154.296539
20390.044947	-1237.387667	1699.453125	85.716110
20390.044947	-1237.387667	1698.432617	248.913666
20390.044947	-1237.387667	1697.412109	114.649841
20390.044947	-1237.387667	1696.390625	125.478882
20390.044947	-1237.387667	1695.369141	133.897003
20390.044947	-1237.387667	1694.347656	179.681442
20390.044947	-1237.387667	1693.326172	-92.773323
20390.044947	-1237.387667	1692.304688	118.970123
20390.044947	-1237.387667	1691.282227	124.766579
20390.044947	-1237.387667	1690.260742	277.807587
20390.044947	-1237.387667	1689.238281	70.725616
20390.044947	-1237.387667	1688.214844	109.045876
20390.044947	-1237.387667	1687.192383	315.546173
20390.044947	-1237.387667	1686.168945	349.011078
20390.044947	-1237.387667	1685.146484	312.345520
20390.044947	-1237.387667	1684.123047	334.004791
20390.044947	-1237.387667	1683.099609	617.104980
20390.044947	-1237.387667	1682.075195	531.185120
20390.044947	-1237.387667	1681.051758	440.590057
20390.044947	-1237.387667	1680.027344	669.654541
20390.044947	-1237.387667	1679.002930	765.591614
20390.044947	-1237.387667	1677.978516	782.129822
20390.044947	-1237.387667	1676.953125	511.737671
20390.044947	-1237.387667	1675.928711	609.826965
20390.044947	-1237.387667	1674.903320	700.820862
20390.044947	-1237.387667	1673.877930	595.941467
20390.044947	-1237.387667	1672.852539	710.111694
20390.044947	-1237.387667	1671.826172	922.033325
20390.044947	-1237.387667	1670.800781	807.714233
20390.044947	-1237.387667	1669.774414	1024.104614
20390.044947	-1237.387667	1668.748047	849.164185
20390.044947	-1237.387667	1667.721680	1207.393921
20390.044947	-1237.387667	1666.694336	1104.546143
20390.044947	-1237.387667	1665.667969	1050.585327
20390.044947	-1237.387667	1664.640625	1126.891968
20390.044947	-1237.387667	1663.613281	1007.717896
20390.044947	-1237.387667	1662.585938	1244.414795
20390.044947	-1237.387667	1661.557617	1271.680298
20390.044947	-1237.387667	1660.530273	1217.540405
20390.044947	-1237.387667	1659.501953	1209.863037
20390.044947	-1237.387667	1658.473633	1185.888184
20390.044947	-1237.387667	1657.444336	1294.324341
20390.044947	-1237.387667	1656.416016	1351.593140
20390.044947	-1237.387667	1655.386719	1485.445923
20390.044947	-1237.387667	1654.358398	1570.466919
20390.044947	-1237.387667	1653.328125	1351.234253
20390.044947	-1237.387667	1652.298828	1178.505127
20390.044947	-1237.387667	1651.269531	1323.788452
20390.044947	-1237.387667	1650.239258	1575.720093
20390.044947	-1237.387667	1649.208984	1690.649048
20390.044947	-1237.387667	1648.178711	1659.377075
20390.044947	-1237.387667	1647.148438	1600.267822
20390.044947	-1237.387667	1646.117188	1722.006836
20390.044947	-1237.387667	1645.086914	1890.062378
20390.044947	-1237.387667	1644.055664	1951.401245
20390.044947	-1237.387667	1643.024414	1947.814819
20390.044947	-1237.387667	1641.992188	1995.173340
20390.044947	-1237.387667	1640.960938	1822.452759
20390.044947	-1237.387667	1639.928711	2138.450928
20390.044947	-1237.387667	1638.896484	2076.878418
20390.044947	-1237.387667	1637.864258	2082.460693
20390.044947	-1237.387667	1636.832031	1944.521240
20390.044947	-1237.387667	1635.798828	2119.034180
20390.044947	-1237.387667	1634.766602	1886.266357
20390.044947	-1237.387667	1633.733398	2169.439453
20390.044947	-1237.387667	1632.699219	2195.756104
20390.044947	-1237.387667	1631.666016	2155.016113
20390.044947	-1237.387667	1630.632813	2197.521973
20390.044947	-1237.387667	1629.598633	2547.428711
20390.044947	-1237.387667	1628.564453	2439.610840
20390.044947	-1237.387667	1627.530273	2662.255127
20390.044947	-1237.387667	1626.495117	2545.206543
20390.044947	-1237.387667	1625.460938	2645.341553
20390.044947	-1237.387667	1624.425781	2648.436523
20390.044947	-1237.387667	1623.390625	2933.217285
20390.044947	-1237.387667	1622.355469	3074.777100
20390.044947	-1237.387667	1621.319336	2957.788818
20390.044947	-1237.387667	1620.284180	3175.457275
20390.044947	-1237.387667	1619.248047	3194.634766
20390.044947	-1237.387667	1618.211914	3043.131592
20390.044947	-1237.387667	1617.174805	3166.118652
20390.044947	-1237.387667	1616.138672	3275.255127
20390.044947	-1237.387667	1615.101563	3070.841797
20390.044947	-1237.387667	1614.065430	3161.553223
20390.044947	-1237.387667	1613.027344	3263.742676
20390.044947	-1237.387667	1611.990234	3545.633545
20390.044947	-1237.387667	1610.953125	3375.961670
20390.044947	-1237.387667	1609.915039	3719.933594
20390.044947	-1237.387667	1608.876953	3257.905762
20390.044947	-1237.387667	1607.838867	3182.838379
20390.044947	-1237.387667	1606.800781	3715.463379
20390.044947	-1237.387667	1605.761719	3488.499023
20390.044947	-1237.387667	1604.723633	3178.842285
20390.044947	-1237.387667	1603.684570	3373.088867
20390.044947	-1237.387667	1602.644531	3449.986572
20390.044947	-1237.387667	1601.605469	3584.388672
20390.044947	-1237.387667	1600.566406	3387.724854
20390.044947	-1237.387667	1599.526367	3292.293945
20390.044947	-1237.387667	1598.486328	3344.012207
20390.044947	-1237.387667	1597.446289	3558.883301
20390.044947	-1237.387667	1596.405273	3413.040039
20390.044947	-1237.387667	1595.365234	3205.300049
20390.044947	-1237.387667	1594.324219	3284.703613
20390.044947	-1237.387667	1593.283203	3391.670898
20390.044947	-1237.387667	1592.242188	3234.674072
20390.044947	-1237.387667	1591.200195	3392.174072
20390.044947	-1237.387667	1590.159180	3104.549316
20390.044947	-1237.387667	1589.117188	3259.818359
20390.044947	-1237.387667	1588.075195	3518.288086
20390.044947	-1237.387667	1587.032227	3696.433594
20390.044947	-1237.387667	1585.990234	3285.361328
20390.044947	-1237.387667	1584.947266	3261.875488
20390.044947	-1237.387667	1583.904297	3346.167480
20390.044947	-1237.387667	1582.861328	3263.217041
20390.044947	-1237.387667	1581.818359	3725.587891
20390.044947	-1237.387667	1580.775391	3200.657959
20390.044947	-1237.387667	1579.731445	3294.277832
20390.044947	-1237.387667	1578.687500	3628.322021
20390.044947	-1237.387667	1577.643555	3147.383789
20390.044947	-1237.387667	1576.598633	3195.362305
20390.044947	-1237.387667	1575.554688	3275.432617
20390.044947	-1237.387667	1574.509766	3014.653076
20390.044947	-1237.387667	1573.464844	3197.776123
20390.044947	-1237.387667	1572.419922	3092.756348
20390.044947	-1237.387667	1571.374023	2834.642090
20390.044947	-1237.387667	1570.329102	3015.619141
20390.044947	-1237.387667	1569.283203	3077.736572
20390.044947	-1237.387667	1568.237305	3105.627686
20390.044947	-1237.387667	1567.191406	3167.852539
20390.044947	-1237.387667	1566.144531	2892.058838
20390.044947	-1237.387667	1565.098633	2687.258545
20390.044947	-1237.387667	1564.051758	2797.694092
20390.044947	-1237.387667	1563.004883	2586.290039
20390.044947	-1237.387667	1561.957031	2655.766846
20390.044947	-1237.387667	1560.910156	2540.473633
20390.044947	-1237.387667	1559.862305	2511.993408
20390.044947	-1237.387667	1558.814453	2278.316162
20390.044947	-1237.387667	1557.766602	2149.720703
20390.044947	-1237.387667	1556.718750	2126.147461
20390.044947	-1237.387667	1555.669922	2114.057861
20390.044947	-1237.387667	1554.621094	2204.625244
20390.044947	-1237.387667	1553.573242	2053.708496
20390.044947	-1237.387667	1552.523438	2369.975830
20390.044947	-1237.387667	1551.474609	2342.260742
20390.044947	-1237.387667	1550.424805	2414.843750
20390.044947	-1237.387667	1549.375000	2503.430664
20390.044947	-1237.387667	1548.325195	2157.259033
20390.044947	-1237.387667	1547.275391	2107.210693
20390.044947	-1237.387667	1546.225586	2255.259033
20390.044947	-1237.387667	1545.174805	2046.128174
20390.044947	-1237.387667	1544.124023	1887.225098
20390.044947	-1237.387667	1543.073242	1949.089844
20390.044947	-1237.387667	1542.022461	1970.102295
20390.044947	-1237.387667	1540.970703	1952.549072
20390.044947	-1237.387667	1539.919922	1926.025391
20390.044947	-1237.387667	1538.868164	1749.618042
20390.044947	-1237.387667	1537.815430	1516.572144
20390.044947	-1237.387667	1536.763672	1701.712524
20390.044947	-1237.387667	1535.710938	1730.163696
20390.044947	-1237.387667	1534.659180	1651.998169
20390.044947	-1237.387667	1533.606445	1351.477173
20390.044947	-1237.387667	1532.552734	1625.436157
20390.044947	-1237.387667	1531.500000	1397.876343
20390.044947	-1237.387667	1530.446289	1252.190796
20390.044947	-1237.387667	1529.393555	1424.269287
20390.044947	-1237.387667	1528.338867	1335.550293
20390.044947	-1237.387667	1527.285156	1448.803833
20390.044947	-1237.387667	1526.231445	1142.708496
20390.044947	-1237.387667	1525.176758	1215.377075
20390.044947	-1237.387667	1524.122070	1369.716064
20390.044947	-1237.387667	1523.067383	1125.335693
20390.044947	-1237.387667	1522.012695	1293.459473
20390.044947	-1237.387667	1520.957031	1176.251099
20390.044947	-1237.387667	1519.901367	1299.237793
20390.044947	-1237.387667	1518.845703	964.971313
20390.044947	-1237.387667	1517.790039	678.493225
20390.044947	-1237.387667	1516.734375	706.821777
20390.044947	-1237.387667	1515.677734	832.547119
20390.044947	-1237.387667	1514.621094	980.967529
20390.044947	-1237.387667	1513.564453	848.997620
20390.044947	-1237.387667	1512.507813	748.862671
20390.044947	-1237.387667	1511.450195	974.448242
20390.044947	-1237.387667	1510.393555	571.686462
20390.044947	-1237.387667	1509.335938	478.816620
20390.044947	-1237.387667	1508.278320	600.766907
20390.044947	-1237.387667	1507.219727	596.282654
20390.044947	-1237.387667	1506.162109	569.351746
20390.044947	-1237.387667	1505.103516	418.354858
20390.044947	-1237.387667	1504.044922	319.475647
20390.044947	-1237.387667	1502.986328	412.636536
20390.044947	-1237.387667	1501.926758	221.524796
20390.044947	-1237.387667	1500.868164	585.697266
20390.044947	-1237.387667	1499.808594	363.311340
20390.044947	-1237.387667	1498.749023	136.635818
20390.044947	-1237.387667	1497.688477	178.528397
20390.044947	-1237.387667	1496.628906	225.056580
20390.044947	-1237.387667	1495.568359	215.339645
20390.044947	-1237.387667	1494.507813	-98.483055
20390.044947	-1237.387667	1493.447266	-204.746017
20390.044947	-1237.387667	1492.386719	-92.308159
20390.044947	-1237.387667	1491.325195	101.302185
20390.044947	-1237.387667	1490.263672	-63.076965
20390.044947	-1237.387667	1489.202148	-4.358269
20390.044947	-1237.387667	1488.140625	4.954755
20390.044947	-1237.387667	1487.079102	293.473816
20390.044947	-1237.387667	1486.016602	17.235661
20390.044947	-1237.387667	1484.954102	-105.774956
20390.044947	-1237.387667	1483.891602	-44.158249
20390.044947	-1237.387667	1482.829102	96.280441
20390.044947	-1237.387667	1481.765625	-89.206825
20390.044947	-1237.387667	1480.702148	-6.981540
20390.044947	-1237.387667	1479.638672	185.467331
20390.044947	-1237.387667	1478.575195	2.736766
20390.044947	-1237.387667	1477.511719	332.395386
20390.044947	-1237.387667	1476.447266	266.818939
20390.044947	-1237.387667	1475.382813	243.974274
20390.044947	-1237.387667	1474.318359	171.937820
20390.044947	-1237.387667	1473.253906	427.782043
20390.044947	-1237.387667	1472.189453	239.473999
20390.044947	-1237.387667	1471.124023	405.786469
20390.044947	-1237.387667	1470.058594	571.898499
20390.044947	-1237.387667	1468.993164	415.656006
20390.044947	-1237.387667	1467.927734	490.348175
20390.044947	-1237.387667	1466.861328	432.672150
20390.044947	-1237.387667	1465.794922	744.589600
20390.044947	-1237.387667	1464.728516	705.797913
20390.044947	-1237.387667	1463.662109	829.945618
20390.044947	-1237.387667	1462.594727	896.048767
20390.044947	-1237.387667	1461.528320	940.177307
20390.044947	-1237.387667	1460.460938	965.808594
20390.044947	-1237.387667	1459.393555	773.243286
20390.044947	-1237.387667	1458.326172	1157.893433
20390.044947	-1237.387667	1457.257813	1210.627319
20390.044947	-1237.387667	1456.189453	1127.846558
20390.044947	-1237.387667	1455.121094	1389.092163
20390.044947	-1237.387667	1454.052734	1417.717896
20390.044947	-1237.387667	1452.984375	1148.235229
20390.044947	-1237.387667	1451.915039	1369.513062
20390.044947	-1237.387667	1450.845703	1304.936768
20390.044947	-1237.387667	1449.776367	1401.605713
20390.044947	-1237.387667	1448.707031	1408.934204
20390.044947	-1237.387667	1447.636719	1211.061035
20390.044947	-1237.387667	1446.567383	1334.339111
20390.044947	-1237.387667	1445.497070	1270.612793
20390.044947	-1237.387667	1444.425781	1423.698975
20390.044947	-1237.387667	1443.355469	1443.916382
20390.044947	-1237.387667	1442.285156	1266.048950
20390.044947	-1237.387667	1441.213867	1290.485962
20390.044947	-1237.387667	1440.142578	1252.380981
20390.044947	-1237.387667	1439.070313	1202.061401
20390.044947	-1237.387667	1437.999023	1068.389526
20390.044947	-1237.387667	1436.926758	727.879944
20390.044947	-1237.387667	1435.854492	1172.562256
20390.044947	-1237.387667	1434.782227	1028.449829
20390.044947	-1237.387667	1433.709961	1049.878540
20390.044947	-1237.387667	1432.636719	1204.772095
20390.044947	-1237.387667	1431.563477	868.339294
20390.044947	-1237.387667	1430.490234	764.605408
20390.044947	-1237.387667	1429.416992	636.433289
20390.044947	-1237.387667	1428.343750	714.404785
20390.044947	-1237.387667	1427.269531	691.196228
20390.044947	-1237.387667	1426.195313	781.025513
20390.044947	-1237.387667	1425.121094	804.726196
20390.044947	-1237.387667	1424.046875	540.719910
20390.044947	-1237.387667	1422.971680	621.888611
20390.044947	-1237.387667	1421.896484	669.791321
20390.044947	-1237.387667	1420.821289	815.693237
20390.044947	-1237.387667	1419.746094	764.762024
20390.044947	-1237.387667	1418.669922	917.655518
20390.044947	-1237.387667	1417.594727	858.400757
20390.044947	-1237.387667	1416.518555	800.993530
20390.044947	-1237.387667	1415.442383	765.960815
20390.044947	-1237.387667	1414.365234	925.208984
20390.044947	-1237.387667	1413.289063	884.158447
20390.044947	-1237.387667	1412.211914	884.196777
20390.044947	-1237.387667	1411.134766	1042.799438
20390.044947	-1237.387667	1410.057617	854.231628
20390.044947	-1237.387667	1408.979492	894.843689
20390.044947	-1237.387667	1407.902344	864.480408
20390.044947	-1237.387667	1406.824219	1137.893921
20390.044947	-1237.387667	1405.746094	641.224976
20390.044947	-1237.387667	1404.666992	907.972900
20390.044947	-1237.387667	1403.588867	1306.772461
20390.044947	-1237.387667	1402.509766	1071.577881
20390.044947	-1237.387667	1401.430664	1139.562622
20390.044947	-1237.387667	1400.351563	957.478088
20390.044947	-1237.387667	1399.271484	1308.076050
20390.044947	-1237.387667	1398.192383	1062.243896
20390.044947	-1237.387667	1397.112305	1195.388062
20390.044947	-1237.387667	1396.031250	966.520264
20390.044947	-1237.387667	1394.951172	692.298462
20390.044947	-1237.387667	1393.871094	1027.138672
20390.044947	-1237.387667	1392.790039	801.359863
20390.044947	-1237.387667	1391.708984	832.813843
20390.044947	-1237.387667	1390.626953	929.610779
20390.044947	-1237.387667	1389.545898	1018.194580
20390.044947	-1237.387667	1388.463867	842.085083
20390.044947	-1237.387667	1387.381836	839.039917
20390.044947	-1237.387667	1386.299805	999.353271
20390.044947	-1237.387667	1385.217773	763.555725
20390.044947	-1237.387667	1384.134766	911.021667
20390.044947	-1237.387667	1383.051758	889.055176
20390.044947	-1237.387667	1381.968750	1071.307739
20390.044947	-1237.387667	1380.885742	1029.966309
20390.044947	-1237.387667	1379.802734	1000.082581
20390.044947	-1237.387667	1378.718750	1072.033569
20390.044947	-1237.387667	1377.634766	807.343445
20390.044947	-1237.387667	1376.550781	981.312195
20390.044947	-1237.387667	1375.465820	904.383301
20390.044947	-1237.387667	1374.381836	850.663391
20390.044947	-1237.387667	1373.296875	811.073853
20390.044947	-1237.387667	1372.211914	917.470154
20390.044947	-1237.387667	1371.126953	985.044739
20390.044947	-1237.387667	1370.041016	884.405945
20390.044947	-1237.387667	1368.955078	768.961548
20390.044947	-1237.387667	1367.869141	1042.480225
20390.044947	-1237.387667	1366.783203	858.011963
20390.044947	-1237.387667	1365.697266	940.083191
20390.044947	-1237.387667	1364.610352	783.425537
20390.044947	-1237.387667	1363.523438	845.600708
20390.044947	-1237.387667	1362.436523	880.207336
20390.044947	-1237.387667	1361.349609	808.137146
20390.044947	-1237.387667	1360.261719	580.678894
20390.044947	-1237.387667	1359.174805	664.801147
20390.044947	-1237.387667	1358.086914	839.896851
20390.044947	-1237.387667	1356.998047	540.483093
20390.044947	-1237.387667	1355.910156	712.707397
20390.044947	-1237.387667	1354.821289	550.043457
20390.044947	-1237.387667	1353.732422	480.362427
20390.044947	-1237.387667	1352.643555	620.134033
20390.044947	-1237.387667	1351.554688	510.822144
20390.044947	-1237.387667	1350.464844	508.200653
20390.044947	-1237.387667	1349.375000	578.484070
20390.044947	-1237.387667	1348.285156	537.532715
20390.044947	-1237.387667	1347.195313	412.564301
20390.044947	-1237.387667	1346.105469	508.928406
20390.044947	-1237.387667	1345.014648	308.122070
20390.044947	-1237.387667	1343.923828	311.956909
20390.044947	-1237.387667	1342.833008	341.973846
20390.044947	-1237.387667	1341.741211	363.993439
20390.044947	-1237.387667	1340.650391	378.396973
20390.044947	-1237.387667	1339.558594	308.608795
20390.044947	-1237.387667	1338.466797	262.728149
20390.044947	-1237.387667	1337.374023	309.132538
20390.044947	-1237.387667	1336.282227	565.492615
20390.044947	-1237.387667	1335.189453	579.035034
20390.044947	-1237.387667	1334.096680	297.303162
20390.044947	-1237.387667	1333.003906	476.016510
20390.044947	-1237.387667	1331.910156	324.559784
20390.044947	-1237.387667	1330.817383	655.138916
20390.044947	-1237.387667	1329.723633	528.235352
20390.044947	-1237.387667	1328.629883	555.947571
20390.044947	-1237.387667	1327.535156	630.994446
20390.044947	-1237.387667	1326.441406	599.059875
20390.044947	-1237.387667	1325.346680	659.707886
20390.044947	-1237.387667	1324.251953	788.089355
20390.044947	-1237.387667	1323.156250	540.785767
20390.044947	-1237.387667	1322.061523	699.585815
20390.044947	-1237.387667	1320.965820	649.063965
20390.044947	-1237.387667	1319.870117	791.661682
20390.044947	-1237.387667	1318.774414	650.674744
20390.044947	-1237.387667	1317.678711	747.893921
20390.044947	-1237.387667	1316.582031	431.505676
20390.044947	-1237.387667	1315.485352	668.674866
20390.044947	-1237.387667	1314.388672	520.428711
20390.044947	-1237.387667	1313.291016	662.213440
20390.044947	-1237.387667	1312.194336	742.972839
20390.044947	-1237.387667	1311.096680	568.727661
20390.044947	-1237.387667	1309.999023	586.195313
20390.044947	-1237.387667	1308.901367	562.894104
20390.044947	-1237.387667	1307.802734	541.475647
20390.044947	-1237.387667	1306.705078	657.150757
20390.044947	-1237.387667	1305.606445	569.402649
20390.044947	-1237.387667	1304.506836	553.144348
20390.044947	-1237.387667	1303.408203	498.119476
20390.044947	-1237.387667	1302.308594	554.027405
20390.044947	-1237.387667	1301.208984	636.548889
20390.044947	-1237.387667	1300.109375	630.771545
20390.044947	-1237.387667	1299.009766	716.098511
20390.044947	-1237.387667	1297.909180	783.671021
20390.044947	-1237.387667	1296.808594	578.055481
20390.044947	-1237.387667	1295.708008	495.055328
20390.044947	-1237.387667	1294.607422	463.317719
20390.044947	-1237.387667	1293.506836	600.299438
20390.044947	-1237.387667	1292.405273	547.092285
20390.044947	-1237.387667	1291.303711	336.348236
20390.044947	-1237.387667	1290.202148	425.653931
20390.044947	-1237.387667	1289.099609	378.075806
20390.044947	-1237.387667	1287.998047	110.371841
20390.044947	-1237.387667	1286.895508	268.933075
20390.044947	-1237.387667	1285.792969	33.190567
20390.044947	-1237.387667	1284.689453	-12.375999
20390.044947	-1237.387667	1283.586914	255.317230
20390.044947	-1237.387667	1282.483398	276.366608
20390.044947	-1237.387667	1281.379883	28.474596
20390.044947	-1237.387667	1280.276367	87.570587
20390.044947	-1237.387667	1279.171875	138.352188
20390.044947	-1237.387667	1278.067383	114.025658
20390.044947	-1237.387667	1276.962891	-91.332138
20390.044947	-1237.387667	1275.858398	-55.522217
20390.044947	-1237.387667	1274.753906	-2.756754
20390.044947	-1237.387667	1273.648438	59.196156
20390.044947	-1237.387667	1272.542969	-245.973007
20390.044947	-1237.387667	1271.437500	-112.694176
20390.044947	-1237.387667	1270.331055	-29.016634
20390.044947	-1237.387667	1269.225586	81.748268
20390.044947	-1237.387667	1268.119141	140.669235
20390.044947	-1237.387667	1267.012695	71.328232
20390.044947	-1237.387667	1265.906250	20.353945
20390.044947	-1237.387667	1264.798828	80.668846
20390.044947	-1237.387667	1263.691406	-32.642200
20390.044947	-1237.387667	1262.583984	168.822922
20390.044947	-1237.387667	1261.476563	164.372559
20390.044947	-1237.387667	1260.368164	129.214401
20390.044947	-1237.387667	1259.260742	75.601311
20390.044947	-1237.387667	1258.152344	123.534866
20390.044947	-1237.387667	1257.043945	226.307892
20390.044947	-1237.387667	1255.934570	-0.030112
20390.044947	-1237.387667	1254.825195	-64.183388
20390.044947	-1237.387667	1253.716797	155.075424
20390.044947	-1237.387667	1252.606445	143.514511
20390.044947	-1237.387667	1251.497070	191.313507
20390.044947	-1237.387667	1250.387695	125.095177
20390.044947	-1237.387667	1249.277344	294.119049
20390.044947	-1237.387667	1248.166992	420.306824
20390.044947	-1237.387667	1247.055664	106.292038
20390.044947	-1237.387667	1245.945313	132.596100
20390.044947	-1237.387667	1244.833984	263.565338
20390.044947	-1237.387667	1243.722656	256.587372
20390.044947	-1237.387667	1242.611328	211.610214
20390.044947	-1237.387667	1241.499023	199.381653
20390.044947	-1237.387667	1240.387695	229.357742
20390.044947	-1237.387667	1239.275391	385.852539
20390.044947	-1237.387667	1238.162109	400.013367
20390.044947	-1237.387667	1237.049805	592.869507
20390.044947	-1237.387667	1235.936523	629.069092
20390.044947	-1237.387667	1234.823242	479.352173
20390.044947	-1237.387667	1233.709961	878.492126
20390.044947	-1237.387667	1232.596680	619.697815
20390.044947	-1237.387667	1231.482422	629.256958
20390.044947	-1237.387667	1230.369141	369.237152
20390.044947	-1237.387667	1229.253906	484.999939
20390.044947	-1237.387667	1228.139648	315.619080
20390.044947	-1237.387667	1227.025391	287.272980
20390.044947	-1237.387667	1225.910156	-15.897189
20390.044947	-1237.387667	1224.794922	-10.053394
20390.044947	-1237.387667	1223.679688	-10.601002
20390.044947	-1237.387667	1222.563477	-47.598110
20390.044947	-1237.387667	1221.447266	-10.442911
20390.044947	-1237.387667	1220.331055	-44.297600
20390.044947	-1237.387667	1219.214844	89.710793
20390.044947	-1237.387667	1218.098633	-42.833820
20390.044947	-1237.387667	1216.981445	-62.269913
20390.044947	-1237.387667	1215.864258	-81.158607
20390.044947	-1237.387667	1214.747070	-62.730419
20390.044947	-1237.387667	1213.629883	-70.214890
20390.044947	-1237.387667	1212.511719	-25.228912
20390.044947	-1237.387667	1211.393555	0.804234
20390.044947	-1237.387667	1210.275391	-26.789299
20390.044947	-1237.387667	1209.157227	-44.117928
20390.044947	-1237.387667	1208.038086	171.883957
20390.044947	-1237.387667	1206.918945	-23.664782
20390.044947	-1237.387667	1205.799805	-49.979935
20390.044947	-1237.387667	1204.680664	93.818382
20390.044947	-1237.387667	1203.560547	82.206779
20390.044947	-1237.387667	1202.441406	50.556293
20390.044947	-1237.387667	1201.321289	47.739037
20390.044947	-1237.387667	1200.200195	-14.749956
20390.044947	-1237.387667	1199.080078	-28.881174
20390.044947	-1237.387667	1197.958984	-75.788597
20390.044947	-1237.387667	1196.837891	-22.396851
20390.044947	-1237.387667	1195.716797	-197.279114
20390.044947	-1237.387667	1194.594727	-91.134827
20390.044947	-1237.387667	1193.473633	-32.312920
20390.044947	-1237.387667	1192.351563	-80.500504
20390.044947	-1237.387667	1191.229492	-34.149288
20390.044947	-1237.387667	1190.106445	-43.616123
20390.044947	-1237.387667	1188.984375	-107.643051
20390.044947	-1237.387667	1187.861328	-98.787674
20390.044947	-1237.387667	1186.738281	24.235840
20390.044947	-1237.387667	1185.614258	-2.382655
20390.044947	-1237.387667	1184.491211	145.413101
20390.044947	-1237.387667	1183.367188	35.295582
20390.044947	-1237.387667	1182.243164	185.670013
20390.044947	-1237.387667	1181.119141	163.924286
20390.044947	-1237.387667	1179.994141	154.540970
20390.044947	-1237.387667	1178.869141	326.348358
20390.044947	-1237.387667	1177.744141	397.493103
20390.044947	-1237.387667	1176.619141	338.231323
20390.044947	-1237.387667	1175.493164	344.480988
20390.044947	-1237.387667	1174.368164	123.970306
20390.044947	-1237.387667	1173.242188	268.292725
20390.044947	-1237.387667	1172.115234	291.954193
20390.044947	-1237.387667	1170.989258	-34.970932
20390.044947	-1237.387667	1169.862305	131.850647
20390.044947	-1237.387667	1168.735352	176.071060
20390.044947	-1237.387667	1167.608398	-133.038879
20390.044947	-1237.387667	1166.481445	-37.468121
20390.044947	-1237.387667	1165.353516	-86.919289
20390.044947	-1237.387667	1164.225586	122.030518
20390.044947	-1237.387667	1163.097656	33.866024
20390.044947	-1237.387667	1161.968750	-49.870457
20390.044947	-1237.387667	1160.840820	38.840984
20390.044947	-1237.387667	1159.711914	75.932236
20390.044947	-1237.387667	1158.583008	-22.298428
20390.044947	-1237.387667	1157.453125	-78.716141
20390.044947	-1237.387667	1156.324219	-73.000610
20390.044947	-1237.387667	1155.194336	-179.987061
20390.044947	-1237.387667	1154.064453	1.608469
20390.044947	-1237.387667	1152.933594	-114.440735
20390.044947	-1237.387667	1151.803711	-19.237612
20390.044947	-1237.387667	1150.672852	-123.887421
20390.044947	-1237.387667	1149.541992	-40.874447
20390.044947	-1237.387667	1148.411133	-87.701141
20390.044947	-1237.387667	1147.279297	-53.086681
20390.044947	-1237.387667	1146.147461	-67.535629
20390.044947	-1237.387667	1145.015625	-141.920502
20390.044947	-1237.387667	1143.883789	72.369583
20390.044947	-1237.387667	1142.750977	24.991161
20390.044947	-1237.387667	1141.619141	14.422767
20390.044947	-1237.387667	1140.486328	66.582352
20390.044947	-1237.387667	1139.352539	163.739807
20390.044947	-1237.387667	1138.219727	230.448364
20390.044947	-1237.387667	1137.085938	418.049377
20390.044947	-1237.387667	1135.952148	288.322266
20390.044947	-1237.387667	1134.818359	449.523499
20390.044947	-1237.387667	1133.683594	539.491760
20390.044947	-1237.387667	1132.549805	634.977295
20390.044947	-1237.387667	1131.415039	835.778870
20390.044947	-1237.387667	1130.279297	974.106873
20390.044947	-1237.387667	1129.144531	924.013855
20390.044947	-1237.387667	1128.008789	989.684753
20390.044947	-1237.387667	1126.873047	984.794250
20390.044947	-1237.387667	1125.737305	863.766907
20390.044947	-1237.387667	1124.601563	772.157104
20390.044947	-1237.387667	1123.464844	647.823486
20390.044947	-1237.387667	1122.328125	646.704651
20390.044947	-1237.387667	1121.191406	687.748596
20390.044947	-1237.387667	1120.054688	582.415161
20390.044947	-1237.387667	1118.916992	576.246216
20390.044947	-1237.387667	1117.779297	520.772583
20390.044947	-1237.387667	1116.641602	396.498932
20390.044947	-1237.387667	1115.503906	412.964203
20390.044947	-1237.387667	1114.365234	255.263702
20390.044947	-1237.387667	1113.226563	471.428650
20390.044947	-1237.387667	1112.087891	507.813385
20390.044947	-1237.387667	1110.949219	362.868011
20390.044947	-1237.387667	1109.809570	311.500061
20390.044947	-1237.387667	1108.669922	179.395401
20390.044947	-1237.387667	1107.530273	302.926025
20390.044947	-1237.387667	1106.390625	272.021545
20390.044947	-1237.387667	1105.250000	194.057999
20390.044947	-1237.387667	1104.109375	294.597565
20390.044947	-1237.387667	1102.968750	300.725189
20390.044947	-1237.387667	1101.828125	369.962341
20390.044947	-1237.387667	1100.686523	414.613464
20390.044947	-1237.387667	1099.544922	524.099487
20390.044947	-1237.387667	1098.403320	542.750610
20390.044947	-1237.387667	1097.261719	724.631165
20390.044947	-1237.387667	1096.120117	595.994263
20390.044947	-1237.387667	1094.977539	554.705444
20390.044947	-1237.387667	1093.834961	373.158844
20390.044947	-1237.387667	1092.691406	392.193512
20390.044947	-1237.387667	1091.548828	420.105072
20390.044947	-1237.387667	1090.405273	395.518860
20390.044947	-1237.387667	1089.261719	438.584198
20390.044947	-1237.387667	1088.118164	540.552185
20390.044947	-1237.387667	1086.973633	612.792908
20390.044947	-1237.387667	1085.829102	512.749817
20390.044947	-1237.387667	1084.684570	565.103821
20390.044947	-1237.387667	1083.540039	601.415588
20390.044947	-1237.387667	1082.395508	952.502625
20390.044947	-1237.387667	1081.250000	691.259155
20390.044947	-1237.387667	1080.104492	765.418091
20390.044947	-1237.387667	1078.958984	705.111633
20390.044947	-1237.387667	1077.812500	773.801880
20390.044947	-1237.387667	1076.666016	672.432251
20390.044947	-1237.387667	1075.519531	719.962891
20390.044947	-1237.387667	1074.373047	529.385315
20390.044947	-1237.387667	1073.226563	653.036621
20390.044947	-1237.387667	1072.079102	579.561340
20390.044947	-1237.387667	1070.931641	436.011658
20390.044947	-1237.387667	1069.784180	500.582214
20390.044947	-1237.387667	1068.635742	654.287415
20390.044947	-1237.387667	1067.487305	459.925781
20390.044947	-1237.387667	1066.338867	480.207611
20390.044947	-1237.387667	1065.190430	581.527710
20390.044947	-1237.387667	1064.041992	493.700012
20390.044947	-1237.387667	1062.892578	469.502167
20390.044947	-1237.387667	1061.743164	537.338684
20390.044947	-1237.387667	1060.593750	500.874878
20390.044947	-1237.387667	1059.443359	613.281006
20390.044947	-1237.387667	1058.292969	551.160889
20390.044947	-1237.387667	1057.142578	565.303101
20390.044947	-1237.387667	1055.992188	539.164001
20390.044947	-1237.387667	1054.841797	236.665985
20390.044947	-1237.387667	1053.690430	354.607697
20390.044947	-1237.387667	1052.539063	362.162872
20390.044947	-1237.387667	1051.387695	347.634613
20390.044947	-1237.387667	1050.235352	383.895752
20390.044947	-1237.387667	1049.083984	394.109253
20390.044947	-1237.387667	1047.931641	285.785797
20390.044947	-1237.387667	1046.778320	522.920715
20390.044947	-1237.387667	1045.625977	300.951904
20390.044947	-1237.387667	1044.472656	183.931610
20390.044947	-1237.387667	1043.319336	354.053650
20390.044947	-1237.387667	1042.166016	265.673065
20390.044947	-1237.387667	1041.012695	58.267910
20390.044947	-1237.387667	1039.858398	342.215271
20390.044947	-1237.387667	1038.704102	406.770813
20390.044947	-1237.387667	1037.549805	279.576691
20390.044947	-1237.387667	1036.394531	377.534271
20390.044947	-1237.387667	1035.239258	374.826172
20390.044947	-1237.387667	1034.083984	411.081909
20390.044947	-1237.387667	1032.928711	497.087219
20390.044947	-1237.387667	1031.773438	247.440338
20390.044947	-1237.387667	1030.617188	272.024719
20390.044947	-1237.387667	1029.460938	296.253845
20390.044947	-1237.387667	1028.304688	228.853012
20390.044947	-1237.387667	1027.147461	351.992554
20390.044947	-1237.387667	1025.991211	315.016113
20390.044947	-1237.387667	1024.833984	275.381989
20390.044947	-1237.387667	1023.675781	304.593536
20390.044947	-1237.387667	1022.518555	180.162781
20390.044947	-1237.387667	1021.360352	98.561295
20390.044947	-1237.387667	1020.202148	266.198303
20390.044947	-1237.387667	1019.043945	168.325439
20390.044947	-1237.387667	1017.884766	127.352875
20390.044947	-1237.387667	1016.726563	29.233713
20390.044947	-1237.387667	1015.567383	306.996582
20390.044947	-1237.387667	1014.407227	-38.787708
20390.044947	-1237.387667	1013.248047	203.093094
20390.044947	-1237.387667	1012.087891	121.599922
20390.044947	-1237.387667	1010.927734	197.285065
20390.044947	-1237.387667	1009.767578	408.831848
20390.044947	-1237.387667	1008.606445	128.532883
20390.044947	-1237.387667	1007.446289	232.659592
20390.044947	-1237.387667	1006.285156	387.975067
20390.044947	-1237.387667	1005.123047	428.693787
20390.044947	-1237.387667	1003.961914	390.727112
20390.044947	-1237.387667	1002.799805	359.048859
20390.044947	-1237.387667	1001.637695	385.128754
20390.044947	-1237.387667	1000.475586	225.850403
20390.044947	-1237.387667	999.312500	285.611481
20390.044947	-1237.387667	998.149414	230.713928
20390.044947	-1237.387667	996.986328	162.713242
20390.044947	-1237.387667	995.823242	95.279114
20390.044947	-1237.387667	994.659180	245.984833
20390.044947	-1237.387667	993.496094	122.652893
20390.044947	-1237.387667	992.332031	76.569679
20390.044947	-1237.387667	991.166992	-12.724115
20390.044947	-1237.387667	990.002930	66.988815
20390.044947	-1237.387667	988.837891	24.040493
20390.044947	-1237.387667	987.672852	3.312461
20390.044947	-1237.387667	986.506836	114.301537
20390.044947	-1237.387667	985.341797	-53.802914
20390.044947	-1237.387667	984.175781	-50.129173
20390.044947	-1237.387667	983.009766	61.560932
20390.044947	-1237.387667	981.843750	273.011353
20390.044947	-1237.387667	980.676758	-91.652336
20390.044947	-1237.387667	979.509766	-284.304169
20390.044947	-1237.387667	978.342773	-129.308563
20390.044947	-1237.387667	977.175781	-38.155930
20390.044947	-1237.387667	976.007813	-176.816559
20390.044947	-1237.387667	974.839844	-51.443611
20390.044947	-1237.387667	973.671875	34.400269
20390.044947	-1237.387667	972.503906	3.590889
20390.044947	-1237.387667	971.334961	74.970299
20390.044947	-1237.387667	970.166016	-91.035378
20390.044947	-1237.387667	968.997070	105.649857
20390.044947	-1237.387667	967.828125	-99.069855
20390.044947	-1237.387667	966.658203	52.458942
20390.044947	-1237.387667	965.488281	23.970104
20390.044947	-1237.387667	964.318359	169.042572
20390.044947	-1237.387667	963.148438	119.082458
20390.044947	-1237.387667	961.977539	86.825089
20390.044947	-1237.387667	960.806641	-65.753334
20390.044947	-1237.387667	959.635742	-68.451820
20390.044947	-1237.387667	958.463867	53.350666
20390.044947	-1237.387667	957.292969	52.957462
20390.044947	-1237.387667	956.121094	75.352928
20390.044947	-1237.387667	954.948242	229.538773
20390.044947	-1237.387667	953.776367	206.164200
20390.044947	-1237.387667	952.603516	177.886261
20390.044947	-1237.387667	951.430664	169.820023
20390.044947	-1237.387667	950.257813	-7.157757
20390.044947	-1237.387667	949.084961	54.418583
20390.044947	-1237.387667	947.911133	21.413967
20390.044947	-1237.387667	946.737305	-44.272285
20390.044947	-1237.387667	945.563477	225.635040
20390.044947	-1237.387667	944.388672	-33.948429
20390.044947	-1237.387667	943.213867	29.517321
20390.044947	-1237.387667	942.039063	52.236195
20390.044947	-1237.387667	940.864258	80.059563
20390.044947	-1237.387667	939.688477	-24.120453
20390.044947	-1237.387667	938.513672	18.991358
20390.044947	-1237.387667	937.337891	97.749741
20390.044947	-1237.387667	936.161133	-44.191265
20390.044947	-1237.387667	934.985352	212.519287
20390.044947	-1237.387667	933.808594	293.343475
20390.044947	-1237.387667	932.631836	62.454227
20390.044947	-1237.387667	931.454102	356.854858
20390.044947	-1237.387667	930.277344	379.596619
20390.044947	-1237.387667	929.099609	115.285973
20390.044947	-1237.387667	927.921875	91.247261
20390.044947	-1237.387667	926.743164	194.155624
20390.044947	-1237.387667	925.565430	76.743980
20390.044947	-1237.387667	924.386719	230.736908
20390.044947	-1237.387667	923.208008	128.888412
20390.044947	-1237.387667	922.028320	167.168533
20390.044947	-1237.387667	920.849609	114.267250
20390.044947	-1237.387667	919.669922	114.931503
20390.044947	-1237.387667	919.474609	54.819149
20390.044947	-1237.387667	918.309570	244.171768
20390.044947	-1237.387667	917.143555	-26.490517
20390.044947	-1237.387667	915.977539	67.267960
20390.044947	-1237.387667	914.810547	-18.915892
20390.044947	-1237.387667	913.644531	130.307114
20390.044947	-1237.387667	912.477539	-75.746872
20390.044947	-1237.387667	911.310547	-184.057266
20390.044947	-1237.387667	910.143555	-170.270889
20390.044947	-1237.387667	908.975586	-12.274304
20390.044947	-1237.387667	907.807617	3.687440
20390.044947	-1237.387667	906.639648	163.799515
20390.044947	-1237.387667	905.471680	-39.801739
20390.044947	-1237.387667	904.303711	82.566872
20390.044947	-1237.387667	903.134766	105.146675
20390.044947	-1237.387667	901.965820	-67.290787
20390.044947	-1237.387667	900.796875	-62.410980
20390.044947	-1237.387667	899.626953	117.464912
20390.044947	-1237.387667	898.457031	195.395508
20390.044947	-1237.387667	897.287109	20.877432
20390.044947	-1237.387667	896.117188	70.025467
20390.044947	-1237.387667	894.947266	103.665321
20390.044947	-1237.387667	893.776367	172.702362
20390.044947	-1237.387667	892.605469	44.813305
20390.044947	-1237.387667	891.434570	-10.022853
20390.044947	-1237.387667	890.262695	47.957642
20390.044947	-1237.387667	889.091797	238.585175
20390.044947	-1237.387667	887.919922	55.549854
20390.044947	-1237.387667	886.748047	-8.052753
20390.044947	-1237.387667	885.575195	10.137778
20390.044947	-1237.387667	884.403320	50.421474
20390.044947	-1237.387667	883.230469	143.711090
20390.044947	-1237.387667	882.057617	-65.571655
20390.044947	-1237.387667	880.883789	-157.738251
20390.044947	-1237.387667	879.710938	83.466309
20390.044947	-1237.387667	878.537109	-15.293221
20390.044947	-1237.387667	877.362305	29.425943
20390.044947	-1237.387667	876.188477	122.671677
20390.044947	-1237.387667	875.013672	-13.494761
20390.044947	-1237.387667	873.839844	-147.387863
20390.044947	-1237.387667	872.664063	181.782898
20390.044947	-1237.387667	871.489258	56.749130
20390.044947	-1237.387667	870.313477	-118.907333
20390.044947	-1237.387667	869.138672	-140.241364
20390.044947	-1237.387667	867.962891	-93.260963
20390.044947	-1237.387667	866.786133	-33.070293
20390.044947	-1237.387667	865.610352	-80.788788
20390.044947	-1237.387667	864.433594	197.360748
20390.044947	-1237.387667	863.256836	-22.042114
20390.044947	-1237.387667	862.079102	194.395264
20390.044947	-1237.387667	860.902344	45.521099
20390.044947	-1237.387667	859.724609	72.707367
20390.044947	-1237.387667	858.546875	330.827484
20390.044947	-1237.387667	857.368164	274.420563
20390.044947	-1237.387667	856.190430	426.902069
20390.044947	-1237.387667	855.011719	557.359863
20390.044947	-1237.387667	853.833008	791.063721
20390.044947	-1237.387667	852.654297	510.575287
20390.044947	-1237.387667	851.474609	522.370300
20390.044947	-1237.387667	850.294922	426.566071
20390.044947	-1237.387667	849.115234	469.148102
20390.044947	-1237.387667	847.935547	254.885971
20390.044947	-1237.387667	846.754883	440.185089
20390.044947	-1237.387667	845.575195	445.487854
20390.044947	-1237.387667	844.393555	439.838379
20390.044947	-1237.387667	843.212891	1022.054993
20390.044947	-1237.387667	842.032227	1025.096680
20390.044947	-1237.387667	840.850586	1275.914795
20390.044947	-1237.387667	839.668945	1283.324585
20390.044947	-1237.387667	838.486328	1292.941650
20390.044947	-1237.387667	837.304688	1127.275146
20390.044947	-1237.387667	836.122070	948.552246
20390.044947	-1237.387667	834.939453	721.733459
20390.044947	-1237.387667	833.756836	646.126404
20390.044947	-1237.387667	832.573242	384.470520
20390.044947	-1237.387667	831.389648	236.765533
20390.044947	-1237.387667	830.206055	205.129471
20390.044947	-1237.387667	829.022461	-128.426010
20390.044947	-1237.387667	827.838867	120.073547
20390.044947	-1237.387667	826.654297	73.224991
20390.044947	-1237.387667	825.469727	-26.067781
20390.044947	-1237.387667	824.284180	-160.280197
20390.044947	-1237.387667	823.099609	-75.842766
20390.044947	-1237.387667	821.914063	28.245993
20390.044947	-1237.387667	820.728516	-197.609177
20390.044947	-1237.387667	819.542969	46.299511
20390.044947	-1237.387667	818.356445	200.581619
20390.044947	-1237.387667	817.169922	57.854694
20390.044947	-1237.387667	815.983398	-95.712555
20390.044947	-1237.387667	814.796875	-11.293240
20390.044947	-1237.387667	813.609375	123.298355
20390.044947	-1237.387667	812.422852	-93.412560
20390.044947	-1237.387667	811.235352	-107.156837
20390.044947	-1237.387667	810.046875	-153.592941
20390.044947	-1237.387667	808.859375	249.162613
20390.044947	-1237.387667	807.670898	74.085075
20390.044947	-1237.387667	806.482422	14.605258
20390.044947	-1237.387667	805.293945	199.214981
20390.044947	-1237.387667	804.104492	-23.632444
20390.044947	-1237.387667	802.915039	89.058151
20390.044947	-1237.387667	801.725586	90.651619
20390.044947	-1237.387667	800.536133	-121.112213
20390.044947	-1237.387667	799.345703	-115.098434
20390.044947	-1237.387667	798.155273	-130.838303
20390.044947	-1237.387667	796.964844	-218.366455
20390.044947	-1237.387667	795.774414	-90.480202
20390.044947	-1237.387667	794.583008	-249.733124
20390.044947	-1237.387667	793.392578	-200.158157
20390.044947	-1237.387667	792.200195	-78.846725
20390.044947	-1237.387667	791.008789	-38.004299
20390.044947	-1237.387667	789.816406	-275.335236
20390.044947	-1237.387667	788.625000	-143.199677
20390.044947	-1237.387667	787.432617	-78.451424
20390.044947	-1237.387667	786.239258	-117.968925
20390.044947	-1237.387667	785.046875	-74.955200
20390.044947	-1237.387667	783.853516	-92.738625
20390.044947	-1237.387667	782.660156	117.389534
20390.044947	-1237.387667	781.465820	-78.357758
20390.044947	-1237.387667	780.272461	10.190419
20390.044947	-1237.387667	779.078125	-113.867561
20390.044947	-1237.387667	777.883789	-196.667740
20390.044947	-1237.387667	776.688477	28.457865
20390.044947	-1237.387667	775.494141	-82.517128
20390.044947	-1237.387667	774.298828	36.292736
20390.044947	-1237.387667	773.103516	90.046272
20390.044947	-1237.387667	771.907227	165.441727
20390.044947	-1237.387667	770.711914	11.208504
20390.044947	-1237.387667	769.515625	45.439064
20390.044947	-1237.387667	768.318359	8.205935
20390.044947	-1237.387667	767.122070	-5.205814
20390.044947	-1237.387667	765.924805	35.487621
20390.044947	-1237.387667	764.727539	173.527039
20390.044947	-1237.387667	763.530273	138.440018
20390.044947	-1237.387667	762.333008	397.504150
20390.044947	-1237.387667	761.134766	457.516144
20390.044947	-1237.387667	759.936523	-48.927685
20390.044947	-1237.387667	758.738281	91.108368
20390.044947	-1237.387667	757.540039	131.669434
20390.044947	-1237.387667	756.340820	-50.335484
20390.044947	-1237.387667	755.141602	163.026764
20390.044947	-1237.387667	753.942383	58.814964
20390.044947	-1237.387667	752.742188	21.570852
20390.044947	-1237.387667	751.541992	81.472717
20390.044947	-1237.387667	750.341797	78.743378
20390.044947	-1237.387667	749.141602	-44.841633
20390.044947	-1237.387667	747.941406	-131.716736
20390.044947	-1237.387667	746.740234	-35.227978
20390.044947	-1237.387667	745.539063	119.426979
20390.044947	-1237.387667	744.337891	45.455296
20390.044947	-1237.387667	743.135742	87.899536
20390.044947	-1237.387667	741.933594	-80.902771
20390.044947	-1237.387667	740.731445	273.941040
20390.044947	-1237.387667	739.529297	204.222122
20390.044947	-1237.387667	738.326172	59.126476
20390.044947	-1237.387667	737.124023	176.775513
20390.044947	-1237.387667	735.919922	-2.749538
20390.044947	-1237.387667	734.716797	246.113831
20390.044947	-1237.387667	733.513672	189.259598
20390.044947	-1237.387667	732.309570	194.796539
20390.044947	-1237.387667	731.105469	208.907028
20390.044947	-1237.387667	729.900391	182.119690
20390.044947	-1237.387667	728.696289	168.212433
20390.044947	-1237.387667	727.491211	68.289276
20390.044947	-1237.387667	726.286133	-50.968288
20390.044947	-1237.387667	725.080078	-13.342304
20390.044947	-1237.387667	723.874023	140.249146
20390.044947	-1237.387667	722.668945	199.227966
20390.044947	-1237.387667	721.461914	-72.571640
20390.044947	-1237.387667	720.255859	91.561165
20390.044947	-1237.387667	719.048828	-44.940907
20390.044947	-1237.387667	717.841797	9.584279
20390.044947	-1237.387667	716.634766	184.207108
20390.044947	-1237.387667	715.427734	-143.279388
20390.044947	-1237.387667	714.219727	-106.050117
20390.044947	-1237.387667	713.011719	87.660721
20390.044947	-1237.387667	711.803711	-111.093102
20390.044947	-1237.387667	710.594727	-157.621353
20390.044947	-1237.387667	709.385742	123.707092
20390.044947	-1237.387667	708.176758	27.777084
20390.044947	-1237.387667	706.967773	111.777168
20390.044947	-1237.387667	705.758789	114.309975
20390.044947	-1237.387667	704.548828	54.696404
20390.044947	-1237.387667	703.338867	102.096107
20390.044947	-1237.387667	702.127930	130.161957
20390.044947	-1237.387667	700.917969	6.231034
20390.044947	-1237.387667	699.707031	100.521049
20390.044947	-1237.387667	698.496094	190.438919
20390.044947	-1237.387667	697.285156	119.873398
20390.044947	-1237.387667	696.073242	32.176399
20390.044947	-1237.387667	694.861328	68.442459
20390.044947	-1237.387667	693.649414	168.750809
20390.044947	-1237.387667	692.436523	38.190525
20390.044947	-1237.387667	691.224609	91.345543
20390.044947	-1237.387667	690.011719	225.579376
20390.044947	-1237.387667	688.798828	165.374542
20390.044947	-1237.387667	687.584961	190.529892
20390.044947	-1237.387667	686.372070	55.524338
20390.044947	-1237.387667	685.158203	338.785461
20390.044947	-1237.387667	683.943359	86.327003
20390.044947	-1237.387667	682.729492	277.605713
20390.044947	-1237.387667	681.514648	368.499084
20390.044947	-1237.387667	680.299805	284.442200
20390.044947	-1237.387667	679.084961	498.805450
20390.044947	-1237.387667	677.869141	384.778870
20390.044947	-1237.387667	676.653320	404.978455
20390.044947	-1237.387667	675.437500	442.141724
20390.044947	-1237.387667	674.221680	477.088287
20390.044947	-1237.387667	673.004883	435.282532
20390.044947	-1237.387667	671.789063	363.615845
20390.044947	-1237.387667	670.571289	453.680817
20390.044947	-1237.387667	669.354492	428.711639
20390.044947	-1237.387667	668.136719	476.020355
20390.044947	-1237.387667	666.919922	816.803528
20390.044947	-1237.387667	665.701172	919.156067
20390.044947	-1237.387667	664.483398	1212.765991
20390.044947	-1237.387667	663.264648	1440.269287
20390.044947	-1237.387667	662.045898	1578.324463
20390.044947	-1237.387667	660.827148	1437.858765
20390.044947	-1237.387667	659.608398	1361.110962
20390.044947	-1237.387667	658.388672	867.975525
20390.044947	-1237.387667	657.168945	776.351746
20390.044947	-1237.387667	655.949219	493.589661
20390.044947	-1237.387667	654.728516	317.005493
20390.044947	-1237.387667	653.507813	654.030029
20390.044947	-1237.387667	652.287109	428.515411
20390.044947	-1237.387667	651.066406	298.480682
20390.044947	-1237.387667	649.844727	560.806274
20390.044947	-1237.387667	648.623047	392.457611
20390.044947	-1237.387667	647.401367	561.196899
20390.044947	-1237.387667	646.179688	363.072632
20390.044947	-1237.387667	644.957031	277.263947
20390.044947	-1237.387667	643.734375	350.316559
20390.044947	-1237.387667	642.511719	99.143211
20390.044947	-1237.387667	641.289063	237.683121
20390.044947	-1237.387667	640.065430	206.679642
20390.044947	-1237.387667	638.841797	217.940552
20390.044947	-1237.387667	637.618164	271.441223
20390.044947	-1237.387667	636.393555	206.326248
20390.044947	-1237.387667	635.168945	356.947632
20390.044947	-1237.387667	633.944336	226.094254
20390.044947	-1237.387667	632.719727	78.289459
20390.044947	-1237.387667	631.494141	120.743065
20390.044947	-1237.387667	630.269531	260.330994
20390.044947	-1237.387667	629.042969	139.814529
20390.044947	-1237.387667	627.817383	40.392273
20390.044947	-1237.387667	626.590820	266.248322
20390.044947	-1237.387667	625.365234	115.974098
20390.044947	-1237.387667	624.137695	219.061630
20390.044947	-1237.387667	622.911133	-0.989814
20390.044947	-1237.387667	621.683594	53.353058
20390.044947	-1237.387667	620.456055	65.378899
20390.044947	-1237.387667	619.228516	51.992134
20390.044947	-1237.387667	618.000977	53.286678
20390.044947	-1237.387667	616.772461	126.193489
20390.044947	-1237.387667	615.543945	243.257446
20390.044947	-1237.387667	614.314453	366.503174
20390.044947	-1237.387667	613.085938	160.827423
20390.044947	-1237.387667	611.856445	271.218628
20390.044947	-1237.387667	610.626953	457.316742
20390.044947	-1237.387667	609.397461	76.665131
20390.044947	-1237.387667	608.166992	3.531325
20390.044947	-1237.387667	606.936523	140.876907
20390.044947	-1237.387667	605.706055	-37.659058
20390.044947	-1237.387667	604.474609	244.667465
20390.044947	-1237.387667	603.244141	343.741791
20390.044947	-1237.387667	602.012695	314.366943
20390.044947	-1237.387667	600.780273	337.493439
20390.044947	-1237.387667	599.548828	219.649628
20390.044947	-1237.387667	598.316406	356.136261
20390.044947	-1237.387667	597.083984	410.512360
20390.044947	-1237.387667	595.851563	73.933746
20390.044947	-1237.387667	594.618164	168.093430
20390.044947	-1237.387667	593.384766	255.827957
20390.044947	-1237.387667	592.151367	76.746445
20390.044947	-1237.387667	590.917969	-45.653294
20390.044947	-1237.387667	589.683594	260.131104
20390.044947	-1237.387667	588.449219	3.266648
20390.044947	-1237.387667	587.214844	-39.549549
20390.044947	-1237.387667	585.979492	200.766815
20390.044947	-1237.387667	584.745117	310.874817
20390.044947	-1237.387667	583.509766	297.140411
20390.044947	-1237.387667	582.273438	392.343719
20390.044947	-1237.387667	581.038086	311.377563
20390.044947	-1237.387667	579.801758	278.562775
20390.044947	-1237.387667	578.565430	210.072937
20390.044947	-1237.387667	577.329102	221.136581
20390.044947	-1237.387667	576.091797	573.471558
20390.044947	-1237.387667	574.854492	538.244812
20390.044947	-1237.387667	573.617188	659.961426
20390.044947	-1237.387667	572.378906	607.845886
20390.044947	-1237.387667	571.141602	624.742310
20390.044947	-1237.387667	569.903320	647.835266
20390.044947	-1237.387667	568.664063	568.364014
20390.044947	-1237.387667	567.425781	564.148560
20390.044947	-1237.387667	566.186523	605.859497
20390.044947	-1237.387667	564.947266	323.516937
20390.044947	-1237.387667	563.708008	314.988312
20390.044947	-1237.387667	562.467773	364.897461
20390.044947	-1237.387667	561.227539	343.709015
20390.044947	-1237.387667	559.987305	479.101990
20390.044947	-1237.387667	558.747070	159.213547
20390.044947	-1237.387667	557.505859	311.174225
20390.044947	-1237.387667	556.264648	488.062164
20390.044947	-1237.387667	555.023438	239.159073
20390.044947	-1237.387667	553.781250	109.217506
20390.044947	-1237.387667	552.539063	166.996460
20390.044947	-1237.387667	551.296875	64.139938
20390.044947	-1237.387667	550.054688	255.241226
20390.044947	-1237.387667	548.811523	212.760834
20390.044947	-1237.387667	547.569336	168.180557
20390.044947	-1237.387667	546.325195	42.309658
20390.044947	-1237.387667	545.082031	-6.467707
20390.044947	-1237.387667	543.837891	125.916435
20390.044947	-1237.387667	542.593750	-18.716108
20390.044947	-1237.387667	541.349609	84.398903
20390.044947	-1237.387667	540.105469	-26.930344
20390.044947	-1237.387667	538.860352	42.778069
20390.044947	-1237.387667	537.615234	45.856819
20390.044947	-1237.387667	536.369141	36.418663
20390.044947	-1237.387667	535.124023	51.918560
20390.044947	-1237.387667	533.877930	-159.232056
20390.044947	-1237.387667	532.631836	-93.867424
20390.044947	-1237.387667	531.384766	206.267746
20390.044947	-1237.387667	530.138672	180.066055
20390.044947	-1237.387667	528.891602	-139.039734
20390.044947	-1237.387667	527.643555	34.163857
20390.044947	-1237.387667	526.396484	-4.501828
20390.044947	-1237.387667	525.148438	71.002380
20390.044947	-1237.387667	523.900391	50.989780
20390.044947	-1237.387667	522.652344	-147.474609
20390.044947	-1237.387667	521.403320	-260.814331
20390.044947	-1237.387667	520.154297	-25.663332
20390.044947	-1237.387667	518.905273	-224.016235
20390.044947	-1237.387667	517.656250	-192.161591
20390.044947	-1237.387667	516.406250	-230.805222
20390.044947	-1237.387667	515.156250	-130.588974
20390.044947	-1237.387667	513.906250	-105.004570
20390.044947	-1237.387667	512.655273	-197.509857
20390.044947	-1237.387667	511.404297	-120.151993
20390.044947	-1237.387667	510.153320	-171.198196
20390.044947	-1237.387667	508.902344	-257.409851
20390.044947	-1237.387667	507.650391	-155.246780
20390.044947	-1237.387667	506.398438	-257.972168
20390.044947	-1237.387667	505.146484	-77.224396
20390.044947	-1237.387667	503.893555	-173.706589
20390.044947	-1237.387667	502.641602	-245.314651
20390.044947	-1237.387667	501.388672	146.217804
20390.044947	-1237.387667	500.134766	16.706305
20390.044947	-1237.387667	498.881836	-131.327271
20390.044947	-1237.387667	497.627930	43.022057
20390.044947	-1237.387667	496.374023	-88.403809
20390.044947	-1237.387667	495.119141	-2.916590
20390.044947	-1237.387667	493.865234	20.615593
20390.044947	-1237.387667	492.610352	19.376932
20390.044947	-1237.387667	491.355469	5.774466
20390.044947	-1237.387667	490.099609	241.866440
20390.044947	-1237.387667	488.843750	67.342911
20390.044947	-1237.387667	487.587891	-41.083691
20390.044947	-1237.387667	486.332031	40.271633
20390.044947	-1237.387667	485.075195	138.099731
20390.044947	-1237.387667	483.818359	77.193817
20390.044947	-1237.387667	482.561523	-173.253540
20390.044947	-1237.387667	481.304688	15.278292
20390.044947	-1237.387667	480.046875	88.391037
20390.044947	-1237.387667	478.789063	-48.567833
20390.044947	-1237.387667	477.531250	-16.607262
20390.044947	-1237.387667	476.272461	85.344955
20390.044947	-1237.387667	475.013672	-12.362102
20390.044947	-1237.387667	473.754883	112.222260
20390.044947	-1237.387667	472.496094	-123.238472
20390.044947	-1237.387667	471.236328	85.677177
20390.044947	-1237.387667	469.976563	251.339233
20390.044947	-1237.387667	468.716797	192.857117
20390.044947	-1237.387667	467.456055	11.084621
20390.044947	-1237.387667	466.196289	113.002304
20390.044947	-1237.387667	464.935547	116.264824
20390.044947	-1237.387667	463.673828	181.156906
20390.044947	-1237.387667	462.413086	283.005310
20390.044947	-1237.387667	461.151367	111.734825
20390.044947	-1237.387667	459.889648	53.449657
20390.044947	-1237.387667	458.626953	52.654034
20390.044947	-1237.387667	457.364258	177.027954
20390.044947	-1237.387667	456.101563	213.137405
20390.044947	-1237.387667	454.838867	83.098999
20390.044947	-1237.387667	453.575195	139.707321
20390.044947	-1237.387667	452.312500	206.542618
20390.044947	-1237.387667	451.047852	-95.615662
20390.044947	-1237.387667	449.784180	194.578522
20390.044947	-1237.387667	448.519531	7.256325
20390.044947	-1237.387667	447.254883	-26.379292
20390.044947	-1237.387667	445.990234	40.323078
20390.044947	-1237.387667	444.725586	223.673813
20390.044947	-1237.387667	443.459961	42.537121
20390.044947	-1237.387667	442.194336	-99.672943
20390.044947	-1237.387667	440.927734	77.327248
20390.044947	-1237.387667	439.662109	78.280174
20390.044947	-1237.387667	438.395508	111.898911
20390.044947	-1237.387667	437.127930	290.620270
20390.044947	-1237.387667	435.861328	299.525055
20390.044947	-1237.387667	434.593750	279.735504
20390.044947	-1237.387667	433.326172	355.922974
20390.044947	-1237.387667	432.058594	252.207886
20390.044947	-1237.387667	430.790039	242.400696
20390.044947	-1237.387667	429.521484	414.252136
20390.044947	-1237.387667	428.252930	253.128845
20390.044947	-1237.387667	426.984375	300.171600
20390.044947	-1237.387667	425.714844	355.231354
20390.044947	-1237.387667	424.445313	173.455353
20390.044947	-1237.387667	423.174805	189.487656
20390.044947	-1237.387667	421.905273	350.179871
20390.044947	-1237.387667	420.634766	261.874817
20390.044947	-1237.387667	419.364258	556.701233
20390.044947	-1237.387667	418.092773	569.950684
20390.044947	-1237.387667	416.822266	395.545715
20390.044947	-1237.387667	415.550781	188.415482
20390.044947	-1237.387667	414.278320	333.532867
20390.044947	-1237.387667	413.006836	205.498779
20390.044947	-1237.387667	411.734375	105.783356
20390.044947	-1237.387667	410.461914	166.673737
20390.044947	-1237.387667	409.188477	3.413698
20390.044947	-1237.387667	407.916016	202.128387
20390.044947	-1237.387667	406.642578	203.147064
20390.044947	-1237.387667	405.368164	124.541977
20390.044947	-1237.387667	404.094727	45.667728
20390.044947	-1237.387667	402.820313	157.578400
20390.044947	-1237.387667	401.545898	149.185440
20390.044947	-1237.387667	400.270508	187.160400
20390.044947	-1237.387667	398.996094	196.312103
20390.044947	-1237.387667	397.720703	129.904419
20390.044947	-1237.387667	396.444336	229.616409
20390.044947	-1237.387667	395.168945	241.568634
20390.044947	-1237.387667	393.892578	165.775482
20390.044947	-1237.387667	392.616211	146.368439
20390.044947	-1237.387667	391.339844	53.442284
20390.044947	-1237.387667	390.062500	266.333557
20390.044947	-1237.387667	388.785156	221.044144
20390.044947	-1237.387667	387.507813	2.880980
20390.044947	-1237.387667	386.229492	23.426571
20390.044947	-1237.387667	384.951172	300.756409
20390.044947	-1237.387667	383.672852	-42.685738
20390.044947	-1237.387667	382.394531	-42.234127
20390.044947	-1237.387667	381.115234	115.510612
20390.044947	-1237.387667	379.835938	41.651531
20390.044947	-1237.387667	378.556641	98.696175
20390.044947	-1237.387667	377.277344	69.958038
20390.044947	-1237.387667	375.997070	182.093246
20390.044947	-1237.387667	374.716797	111.290123
20390.044947	-1237.387667	373.435547	-59.448322
20390.044947	-1237.387667	372.155273	-83.328224
20390.044947	-1237.387667	370.874023	-33.301609
20390.044947	-1237.387667	369.591797	-63.079987
20390.044947	-1237.387667	368.310547	57.792381
20390.044947	-1237.387667	367.028320	76.572762
20390.044947	-1237.387667	365.746094	292.289368
20390.044947	-1237.387667	364.463867	12.039115
20390.044947	-1237.387667	363.180664	84.152588
20390.044947	-1237.387667	361.897461	35.995632
20390.044947	-1237.387667	360.614258	275.311005
20390.044947	-1237.387667	359.330078	254.997238
20390.044947	-1237.387667	358.045898	205.199295
20390.044947	-1237.387667	356.761719	105.728500
20390.044947	-1237.387667	355.477539	-9.142833
20390.044947	-1237.387667	354.192383	80.278877
20390.044947	-1237.387667	352.907227	188.403214
20390.044947	-1237.387667	351.622070	268.823792
20390.044947	-1237.387667	350.336914	47.499451
20390.044947	-1237.387667	349.050781	58.352596
20390.044947	-1237.387667	347.764648	230.732468
20390.044947	-1237.387667	346.477539	155.704315
20390.044947	-1237.387667	345.191406	141.458466
20390.044947	-1237.387667	343.904297	360.906494
20390.044947	-1237.387667	342.616211	240.370834
20390.044947	-1237.387667	341.329102	73.819733
20390.044947	-1237.387667	340.041016	-18.179729
20390.044947	-1237.387667	338.752930	-232.753937
20390.044947	-1237.387667	337.463867	-0.978491
20390.044947	-1237.387667	336.175781	-38.659515
20390.044947	-1237.387667	334.886719	-138.797440
20390.044947	-1237.387667	333.596680	-38.224571
20390.044947	-1237.387667	332.307617	-62.428749
20390.044947	-1237.387667	331.017578	-163.305939
20390.044947	-1237.387667	329.727539	-111.927841
20390.044947	-1237.387667	328.436523	1.149072
20390.044947	-1237.387667	327.146484	-107.037666
20390.044947	-1237.387667	325.855469	-113.493713
20390.044947	-1237.387667	324.563477	-214.952393
20390.044947	-1237.387667	323.272461	-359.145203
20390.044947	-1237.387667	321.980469	51.283939
20390.044947	-1237.387667	320.688477	-148.778488
20390.044947	-1237.387667	319.395508	-67.180000
20390.044947	-1237.387667	318.103516	-18.634247
20390.044947	-1237.387667	316.810547	-171.641617
20390.044947	-1237.387667	315.516602	50.699368
20390.044947	-1237.387667	314.223633	-132.764984
20390.044947	-1237.387667	312.929688	16.751501
20390.044947	-1237.387667	311.635742	-55.430370
20390.044947	-1237.387667	310.340820	38.889507
20390.044947	-1237.387667	309.045898	311.606720
20390.044947	-1237.387667	307.750977	368.442993
20390.044947	-1237.387667	306.456055	305.444489
20390.044947	-1237.387667	305.160156	254.453171
20390.044947	-1237.387667	303.865234	477.444977
20390.044947	-1237.387667	302.568359	414.213257
20390.044947	-1237.387667	301.272461	696.585266
20390.044947	-1237.387667	299.975586	896.494019
20390.044947	-1237.387667	298.678711	820.263123
