#X		#Y		#Wave		#Intensity
20464.046064	-758.881167	1999.980469	-42.505291
20464.046064	-758.881167	1999.016602	-85.045631
20464.046064	-758.881167	1998.052734	-168.928467
20464.046064	-758.881167	1997.087891	-229.329025
20464.046064	-758.881167	1996.123047	-72.997292
20464.046064	-758.881167	1995.158203	79.512207
20464.046064	-758.881167	1994.193359	-182.901733
20464.046064	-758.881167	1993.228516	53.777119
20464.046064	-758.881167	1992.262695	150.568771
20464.046064	-758.881167	1991.297852	308.039459
20464.046064	-758.881167	1990.332031	142.626205
20464.046064	-758.881167	1989.366211	287.976746
20464.046064	-758.881167	1988.399414	142.792480
20464.046064	-758.881167	1987.433594	120.304123
20464.046064	-758.881167	1986.466797	262.557556
20464.046064	-758.881167	1985.500977	-4.192287
20464.046064	-758.881167	1984.534180	299.321808
20464.046064	-758.881167	1983.567383	297.812561
20464.046064	-758.881167	1982.599609	144.710220
20464.046064	-758.881167	1981.632813	223.068619
20464.046064	-758.881167	1980.665039	33.810432
20464.046064	-758.881167	1979.697266	-121.578880
20464.046064	-758.881167	1978.729492	287.830200
20464.046064	-758.881167	1977.761719	269.232269
20464.046064	-758.881167	1976.792969	245.013260
20464.046064	-758.881167	1975.825195	358.325653
20464.046064	-758.881167	1974.856445	399.395111
20464.046064	-758.881167	1973.887695	491.629181
20464.046064	-758.881167	1972.918945	491.957947
20464.046064	-758.881167	1971.949219	299.349457
20464.046064	-758.881167	1970.980469	318.297760
20464.046064	-758.881167	1970.010742	405.736481
20464.046064	-758.881167	1969.041016	635.585449
20464.046064	-758.881167	1968.071289	275.869873
20464.046064	-758.881167	1967.101563	445.552826
20464.046064	-758.881167	1966.130859	223.033829
20464.046064	-758.881167	1965.161133	276.012207
20464.046064	-758.881167	1964.190430	301.469482
20464.046064	-758.881167	1963.219727	422.541290
20464.046064	-758.881167	1962.249023	429.952148
20464.046064	-758.881167	1961.277344	432.077698
20464.046064	-758.881167	1960.306641	377.258667
20464.046064	-758.881167	1959.334961	90.870827
20464.046064	-758.881167	1958.363281	101.910934
20464.046064	-758.881167	1957.391602	351.206726
20464.046064	-758.881167	1956.419922	393.583527
20464.046064	-758.881167	1955.447266	342.259338
20464.046064	-758.881167	1954.474609	413.601624
20464.046064	-758.881167	1953.501953	285.622986
20464.046064	-758.881167	1952.529297	-9.610655
20464.046064	-758.881167	1951.556641	198.658615
20464.046064	-758.881167	1950.583984	332.971527
20464.046064	-758.881167	1949.610352	481.784576
20464.046064	-758.881167	1948.636719	203.163620
20464.046064	-758.881167	1947.663086	174.873810
20464.046064	-758.881167	1946.689453	200.442703
20464.046064	-758.881167	1945.715820	311.751953
20464.046064	-758.881167	1944.741211	45.072998
20464.046064	-758.881167	1943.767578	168.398041
20464.046064	-758.881167	1942.792969	254.786301
20464.046064	-758.881167	1941.818359	120.367607
20464.046064	-758.881167	1940.842773	201.651932
20464.046064	-758.881167	1939.868164	157.828217
20464.046064	-758.881167	1938.892578	219.333557
20464.046064	-758.881167	1937.916992	290.560608
20464.046064	-758.881167	1936.941406	38.349945
20464.046064	-758.881167	1935.965820	342.181610
20464.046064	-758.881167	1934.990234	-101.022346
20464.046064	-758.881167	1934.013672	315.292480
20464.046064	-758.881167	1933.037109	-22.521568
20464.046064	-758.881167	1932.060547	217.383469
20464.046064	-758.881167	1931.083984	156.216629
20464.046064	-758.881167	1930.107422	388.663239
20464.046064	-758.881167	1929.129883	285.917938
20464.046064	-758.881167	1928.153320	-34.429794
20464.046064	-758.881167	1927.175781	61.043491
20464.046064	-758.881167	1926.198242	268.968567
20464.046064	-758.881167	1925.219727	335.080200
20464.046064	-758.881167	1924.242188	511.181458
20464.046064	-758.881167	1923.263672	201.032074
20464.046064	-758.881167	1922.285156	128.007782
20464.046064	-758.881167	1921.306641	86.817070
20464.046064	-758.881167	1920.328125	-39.769264
20464.046064	-758.881167	1919.349609	9.543727
20464.046064	-758.881167	1918.370117	112.605827
20464.046064	-758.881167	1917.391602	230.343750
20464.046064	-758.881167	1916.412109	-54.517696
20464.046064	-758.881167	1915.431641	46.275780
20464.046064	-758.881167	1914.452148	44.662548
20464.046064	-758.881167	1913.472656	101.663406
20464.046064	-758.881167	1912.492188	253.820755
20464.046064	-758.881167	1911.511719	-176.646896
20464.046064	-758.881167	1910.531250	102.427612
20464.046064	-758.881167	1909.550781	-3.553335
20464.046064	-758.881167	1908.569336	-163.006653
20464.046064	-758.881167	1907.588867	72.338455
20464.046064	-758.881167	1906.607422	22.724232
20464.046064	-758.881167	1905.625977	65.761131
20464.046064	-758.881167	1904.644531	45.579201
20464.046064	-758.881167	1903.662109	118.005325
20464.046064	-758.881167	1902.680664	-21.235407
20464.046064	-758.881167	1901.698242	255.778152
20464.046064	-758.881167	1900.715820	-228.703186
20464.046064	-758.881167	1899.733398	-119.387070
20464.046064	-758.881167	1898.750000	-56.217316
20464.046064	-758.881167	1897.767578	-61.050652
20464.046064	-758.881167	1896.784180	-170.315216
20464.046064	-758.881167	1895.800781	-140.890305
20464.046064	-758.881167	1894.817383	199.685715
20464.046064	-758.881167	1893.833984	404.173187
20464.046064	-758.881167	1892.850586	13.519845
20464.046064	-758.881167	1891.866211	-83.000557
20464.046064	-758.881167	1890.881836	-140.530151
20464.046064	-758.881167	1889.897461	115.258324
20464.046064	-758.881167	1888.913086	-112.009140
20464.046064	-758.881167	1887.927734	-64.843979
20464.046064	-758.881167	1886.943359	292.995148
20464.046064	-758.881167	1885.958008	-94.006866
20464.046064	-758.881167	1884.972656	142.614090
20464.046064	-758.881167	1883.987305	-173.697174
20464.046064	-758.881167	1883.001953	38.787296
20464.046064	-758.881167	1882.015625	-185.081665
20464.046064	-758.881167	1881.029297	-144.584839
20464.046064	-758.881167	1880.042969	109.238831
20464.046064	-758.881167	1879.056641	-177.253143
20464.046064	-758.881167	1878.070313	-73.543213
20464.046064	-758.881167	1877.083984	199.748428
20464.046064	-758.881167	1876.096680	170.327148
20464.046064	-758.881167	1875.109375	12.676804
20464.046064	-758.881167	1874.122070	-35.912868
20464.046064	-758.881167	1873.134766	-140.075027
20464.046064	-758.881167	1872.146484	-210.249817
20464.046064	-758.881167	1871.159180	-103.728157
20464.046064	-758.881167	1870.170898	-86.674095
20464.046064	-758.881167	1869.182617	-204.991318
20464.046064	-758.881167	1868.194336	34.644733
20464.046064	-758.881167	1867.205078	-6.171862
20464.046064	-758.881167	1866.216797	35.255360
20464.046064	-758.881167	1865.227539	54.973614
20464.046064	-758.881167	1864.238281	43.324783
20464.046064	-758.881167	1863.249023	-115.627563
20464.046064	-758.881167	1862.259766	237.542419
20464.046064	-758.881167	1861.269531	52.139751
20464.046064	-758.881167	1860.279297	2.043079
20464.046064	-758.881167	1859.290039	154.757813
20464.046064	-758.881167	1858.298828	150.584839
20464.046064	-758.881167	1857.308594	40.270924
20464.046064	-758.881167	1856.318359	16.872950
20464.046064	-758.881167	1855.327148	-146.386093
20464.046064	-758.881167	1854.335938	-8.121117
20464.046064	-758.881167	1853.344727	-94.123360
20464.046064	-758.881167	1852.353516	92.323746
20464.046064	-758.881167	1851.362305	163.020706
20464.046064	-758.881167	1850.370117	-67.515579
20464.046064	-758.881167	1849.377930	-199.181473
20464.046064	-758.881167	1848.385742	95.567657
20464.046064	-758.881167	1847.393555	-62.574196
20464.046064	-758.881167	1846.401367	68.290108
20464.046064	-758.881167	1845.408203	-34.426159
20464.046064	-758.881167	1844.415039	84.329819
20464.046064	-758.881167	1843.421875	133.234436
20464.046064	-758.881167	1842.428711	-34.449982
20464.046064	-758.881167	1841.435547	214.087738
20464.046064	-758.881167	1840.441406	0.707987
20464.046064	-758.881167	1839.448242	-231.862915
20464.046064	-758.881167	1838.454102	-58.046417
20464.046064	-758.881167	1837.459961	-124.716339
20464.046064	-758.881167	1836.464844	282.072540
20464.046064	-758.881167	1835.470703	164.820236
20464.046064	-758.881167	1834.475586	61.982964
20464.046064	-758.881167	1833.480469	115.269089
20464.046064	-758.881167	1832.485352	-64.471153
20464.046064	-758.881167	1831.490234	144.784378
20464.046064	-758.881167	1830.495117	49.015827
20464.046064	-758.881167	1829.499023	20.429838
20464.046064	-758.881167	1828.502930	219.769241
20464.046064	-758.881167	1827.506836	277.402924
20464.046064	-758.881167	1826.510742	97.454605
20464.046064	-758.881167	1825.513672	94.985207
20464.046064	-758.881167	1824.517578	157.180725
20464.046064	-758.881167	1823.520508	264.826263
20464.046064	-758.881167	1822.523438	118.256927
20464.046064	-758.881167	1821.526367	242.473557
20464.046064	-758.881167	1820.529297	292.269928
20464.046064	-758.881167	1819.531250	4.159667
20464.046064	-758.881167	1818.533203	151.998856
20464.046064	-758.881167	1817.535156	177.546204
20464.046064	-758.881167	1816.537109	107.205940
20464.046064	-758.881167	1815.539063	118.179214
20464.046064	-758.881167	1814.540039	141.006607
20464.046064	-758.881167	1813.541992	201.999435
20464.046064	-758.881167	1812.542969	215.004440
20464.046064	-758.881167	1811.543945	-20.891916
20464.046064	-758.881167	1810.543945	207.159180
20464.046064	-758.881167	1809.544922	-7.371721
20464.046064	-758.881167	1808.544922	103.193344
20464.046064	-758.881167	1807.544922	110.803711
20464.046064	-758.881167	1806.544922	166.074844
20464.046064	-758.881167	1805.544922	65.880058
20464.046064	-758.881167	1804.544922	182.978455
20464.046064	-758.881167	1803.543945	-39.274014
20464.046064	-758.881167	1802.542969	-123.079536
20464.046064	-758.881167	1801.541992	53.246853
20464.046064	-758.881167	1800.541016	343.939972
20464.046064	-758.881167	1799.539063	85.434479
20464.046064	-758.881167	1798.538086	-22.793827
20464.046064	-758.881167	1797.536133	248.200912
20464.046064	-758.881167	1796.534180	20.400179
20464.046064	-758.881167	1795.532227	131.176682
20464.046064	-758.881167	1794.529297	296.588501
20464.046064	-758.881167	1793.527344	254.367081
20464.046064	-758.881167	1792.524414	119.035057
20464.046064	-758.881167	1791.521484	-14.032551
20464.046064	-758.881167	1790.518555	179.194397
20464.046064	-758.881167	1789.514648	-80.438576
20464.046064	-758.881167	1788.511719	117.139755
20464.046064	-758.881167	1787.507813	207.305008
20464.046064	-758.881167	1786.503906	-90.817688
20464.046064	-758.881167	1785.500000	263.208221
20464.046064	-758.881167	1784.496094	255.169022
20464.046064	-758.881167	1783.491211	173.178955
20464.046064	-758.881167	1782.486328	7.766325
20464.046064	-758.881167	1781.481445	-7.927012
20464.046064	-758.881167	1780.476563	80.830673
20464.046064	-758.881167	1779.471680	121.806320
20464.046064	-758.881167	1778.465820	119.776558
20464.046064	-758.881167	1777.460938	238.768219
20464.046064	-758.881167	1776.455078	105.623138
20464.046064	-758.881167	1775.449219	281.188629
20464.046064	-758.881167	1774.442383	-37.603996
20464.046064	-758.881167	1773.436523	-19.232048
20464.046064	-758.881167	1772.429688	191.256271
20464.046064	-758.881167	1771.422852	270.885010
20464.046064	-758.881167	1770.416016	267.198853
20464.046064	-758.881167	1769.409180	154.140991
20464.046064	-758.881167	1768.402344	104.976868
20464.046064	-758.881167	1767.394531	178.969742
20464.046064	-758.881167	1766.386719	224.259155
20464.046064	-758.881167	1765.378906	283.544312
20464.046064	-758.881167	1764.371094	167.146515
20464.046064	-758.881167	1763.362305	176.202438
20464.046064	-758.881167	1762.354492	90.243599
20464.046064	-758.881167	1761.345703	354.783295
20464.046064	-758.881167	1760.336914	0.672491
20464.046064	-758.881167	1759.328125	-111.924446
20464.046064	-758.881167	1758.318359	16.847048
20464.046064	-758.881167	1757.308594	138.243988
20464.046064	-758.881167	1756.299805	152.852448
20464.046064	-758.881167	1755.290039	34.681492
20464.046064	-758.881167	1754.279297	285.477112
20464.046064	-758.881167	1753.269531	65.141235
20464.046064	-758.881167	1752.258789	40.990425
20464.046064	-758.881167	1751.249023	-63.779453
20464.046064	-758.881167	1750.238281	-29.234444
20464.046064	-758.881167	1749.226563	-44.586369
20464.046064	-758.881167	1748.215820	112.399170
20464.046064	-758.881167	1747.204102	-54.675102
20464.046064	-758.881167	1746.193359	-181.735947
20464.046064	-758.881167	1745.181641	-176.696060
20464.046064	-758.881167	1744.168945	-34.907639
20464.046064	-758.881167	1743.157227	-56.330219
20464.046064	-758.881167	1742.144531	283.246399
20464.046064	-758.881167	1741.132813	32.344074
20464.046064	-758.881167	1740.120117	258.033600
20464.046064	-758.881167	1739.106445	-184.376907
20464.046064	-758.881167	1738.093750	151.691574
20464.046064	-758.881167	1737.080078	164.247086
20464.046064	-758.881167	1736.067383	-179.517151
20464.046064	-758.881167	1735.053711	87.286041
20464.046064	-758.881167	1734.040039	-9.275665
20464.046064	-758.881167	1733.025391	25.946907
20464.046064	-758.881167	1732.011719	-68.663643
20464.046064	-758.881167	1730.997070	43.851563
20464.046064	-758.881167	1729.982422	-145.414352
20464.046064	-758.881167	1728.967773	176.226746
20464.046064	-758.881167	1727.952148	200.817749
20464.046064	-758.881167	1726.937500	-40.837505
20464.046064	-758.881167	1725.921875	105.732635
20464.046064	-758.881167	1724.906250	-91.560074
20464.046064	-758.881167	1723.890625	-60.772392
20464.046064	-758.881167	1722.875000	73.288963
20464.046064	-758.881167	1721.858398	35.367996
20464.046064	-758.881167	1720.841797	-136.794403
20464.046064	-758.881167	1719.825195	-34.036079
20464.046064	-758.881167	1718.808594	16.751434
20464.046064	-758.881167	1717.791992	-52.556744
20464.046064	-758.881167	1716.774414	-220.759399
20464.046064	-758.881167	1715.756836	104.233215
20464.046064	-758.881167	1714.739258	100.052193
20464.046064	-758.881167	1713.721680	-125.088326
20464.046064	-758.881167	1712.704102	102.794395
20464.046064	-758.881167	1711.685547	46.317745
20464.046064	-758.881167	1710.667969	-207.479752
20464.046064	-758.881167	1709.649414	-74.222137
20464.046064	-758.881167	1708.630859	-20.990866
20464.046064	-758.881167	1707.611328	-101.708221
20464.046064	-758.881167	1706.592773	-138.021500
20464.046064	-758.881167	1705.573242	252.206558
20464.046064	-758.881167	1704.553711	18.492090
20464.046064	-758.881167	1703.534180	-187.206268
20464.046064	-758.881167	1702.513672	-27.470743
20464.046064	-758.881167	1701.494141	-132.729797
20464.046064	-758.881167	1700.473633	5.457820
20464.046064	-758.881167	1699.453125	206.633743
20464.046064	-758.881167	1698.432617	236.601501
20464.046064	-758.881167	1697.412109	233.590424
20464.046064	-758.881167	1696.390625	265.482300
20464.046064	-758.881167	1695.369141	182.499268
20464.046064	-758.881167	1694.347656	293.568024
20464.046064	-758.881167	1693.326172	451.198303
20464.046064	-758.881167	1692.304688	444.859863
20464.046064	-758.881167	1691.282227	302.690582
20464.046064	-758.881167	1690.260742	174.446793
20464.046064	-758.881167	1689.238281	263.449127
20464.046064	-758.881167	1688.214844	441.032227
20464.046064	-758.881167	1687.192383	258.546173
20464.046064	-758.881167	1686.168945	356.285400
20464.046064	-758.881167	1685.146484	112.816490
20464.046064	-758.881167	1684.123047	100.449905
20464.046064	-758.881167	1683.099609	41.226498
20464.046064	-758.881167	1682.075195	222.285995
20464.046064	-758.881167	1681.051758	158.070328
20464.046064	-758.881167	1680.027344	401.723816
20464.046064	-758.881167	1679.002930	374.490204
20464.046064	-758.881167	1677.978516	370.440094
20464.046064	-758.881167	1676.953125	454.838684
20464.046064	-758.881167	1675.928711	576.385193
20464.046064	-758.881167	1674.903320	348.023590
20464.046064	-758.881167	1673.877930	338.702423
20464.046064	-758.881167	1672.852539	657.826416
20464.046064	-758.881167	1671.826172	571.255005
20464.046064	-758.881167	1670.800781	626.699463
20464.046064	-758.881167	1669.774414	612.094849
20464.046064	-758.881167	1668.748047	799.948059
20464.046064	-758.881167	1667.721680	652.345520
20464.046064	-758.881167	1666.694336	823.542664
20464.046064	-758.881167	1665.667969	833.991455
20464.046064	-758.881167	1664.640625	1163.059204
20464.046064	-758.881167	1663.613281	998.693176
20464.046064	-758.881167	1662.585938	1024.997314
20464.046064	-758.881167	1661.557617	1123.238525
20464.046064	-758.881167	1660.530273	826.103943
20464.046064	-758.881167	1659.501953	1223.987671
20464.046064	-758.881167	1658.473633	1015.020813
20464.046064	-758.881167	1657.444336	1170.815430
20464.046064	-758.881167	1656.416016	1131.325439
20464.046064	-758.881167	1655.386719	1265.930298
20464.046064	-758.881167	1654.358398	1460.791260
20464.046064	-758.881167	1653.328125	1214.277588
20464.046064	-758.881167	1652.298828	1420.468750
20464.046064	-758.881167	1651.269531	1605.599854
20464.046064	-758.881167	1650.239258	1488.882080
20464.046064	-758.881167	1649.208984	1680.693604
20464.046064	-758.881167	1648.178711	1865.388672
20464.046064	-758.881167	1647.148438	1836.571899
20464.046064	-758.881167	1646.117188	1909.688599
20464.046064	-758.881167	1645.086914	2230.781982
20464.046064	-758.881167	1644.055664	2231.798828
20464.046064	-758.881167	1643.024414	2531.686035
20464.046064	-758.881167	1641.992188	2727.103516
20464.046064	-758.881167	1640.960938	3093.829834
20464.046064	-758.881167	1639.928711	3092.082275
20464.046064	-758.881167	1638.896484	3451.505371
20464.046064	-758.881167	1637.864258	3431.059326
20464.046064	-758.881167	1636.832031	3871.186279
20464.046064	-758.881167	1635.798828	3915.339111
20464.046064	-758.881167	1634.766602	3741.962402
20464.046064	-758.881167	1633.733398	3934.088135
20464.046064	-758.881167	1632.699219	3501.597656
20464.046064	-758.881167	1631.666016	3411.504639
20464.046064	-758.881167	1630.632813	3416.203125
20464.046064	-758.881167	1629.598633	3460.139893
20464.046064	-758.881167	1628.564453	3504.030273
20464.046064	-758.881167	1627.530273	3069.580078
20464.046064	-758.881167	1626.495117	3492.324219
20464.046064	-758.881167	1625.460938	3429.872070
20464.046064	-758.881167	1624.425781	3459.770264
20464.046064	-758.881167	1623.390625	3191.804443
20464.046064	-758.881167	1622.355469	3099.370361
20464.046064	-758.881167	1621.319336	2838.459473
20464.046064	-758.881167	1620.284180	2783.036621
20464.046064	-758.881167	1619.248047	2621.484619
20464.046064	-758.881167	1618.211914	2872.876465
20464.046064	-758.881167	1617.174805	2612.183838
20464.046064	-758.881167	1616.138672	2821.989014
20464.046064	-758.881167	1615.101563	2743.540039
20464.046064	-758.881167	1614.065430	2651.333008
20464.046064	-758.881167	1613.027344	2536.079102
20464.046064	-758.881167	1611.990234	2466.994873
20464.046064	-758.881167	1610.953125	2257.450684
20464.046064	-758.881167	1609.915039	2467.129883
20464.046064	-758.881167	1608.876953	2345.188721
20464.046064	-758.881167	1607.838867	2515.690918
20464.046064	-758.881167	1606.800781	2304.086670
20464.046064	-758.881167	1605.761719	2440.057129
20464.046064	-758.881167	1604.723633	2426.488525
20464.046064	-758.881167	1603.684570	2385.340088
20464.046064	-758.881167	1602.644531	2654.705322
20464.046064	-758.881167	1601.605469	2434.265869
20464.046064	-758.881167	1600.566406	2627.774170
20464.046064	-758.881167	1599.526367	2110.995850
20464.046064	-758.881167	1598.486328	2373.518311
20464.046064	-758.881167	1597.446289	2164.987305
20464.046064	-758.881167	1596.405273	2503.297119
20464.046064	-758.881167	1595.365234	2402.893555
20464.046064	-758.881167	1594.324219	2256.645020
20464.046064	-758.881167	1593.283203	2422.754639
20464.046064	-758.881167	1592.242188	2343.269531
20464.046064	-758.881167	1591.200195	2481.882080
20464.046064	-758.881167	1590.159180	2599.893799
20464.046064	-758.881167	1589.117188	2545.864014
20464.046064	-758.881167	1588.075195	2505.699951
20464.046064	-758.881167	1587.032227	2490.838135
20464.046064	-758.881167	1585.990234	2739.755127
20464.046064	-758.881167	1584.947266	2883.200684
20464.046064	-758.881167	1583.904297	2868.549561
20464.046064	-758.881167	1582.861328	3511.615479
20464.046064	-758.881167	1581.818359	3448.936035
20464.046064	-758.881167	1580.775391	3922.347900
20464.046064	-758.881167	1579.731445	3811.707764
20464.046064	-758.881167	1578.687500	3730.982422
20464.046064	-758.881167	1577.643555	4023.522217
20464.046064	-758.881167	1576.598633	3606.555420
20464.046064	-758.881167	1575.554688	3242.521729
20464.046064	-758.881167	1574.509766	3327.123047
20464.046064	-758.881167	1573.464844	3025.259521
20464.046064	-758.881167	1572.419922	3064.376709
20464.046064	-758.881167	1571.374023	2509.119873
20464.046064	-758.881167	1570.329102	2557.721680
20464.046064	-758.881167	1569.283203	2247.588867
20464.046064	-758.881167	1568.237305	2001.692993
20464.046064	-758.881167	1567.191406	2130.704102
20464.046064	-758.881167	1566.144531	1748.130981
20464.046064	-758.881167	1565.098633	1840.881104
20464.046064	-758.881167	1564.051758	2104.962158
20464.046064	-758.881167	1563.004883	1604.340576
20464.046064	-758.881167	1561.957031	1843.529663
20464.046064	-758.881167	1560.910156	2137.562500
20464.046064	-758.881167	1559.862305	1872.650879
20464.046064	-758.881167	1558.814453	2324.239258
20464.046064	-758.881167	1557.766602	2283.202637
20464.046064	-758.881167	1556.718750	2096.416260
20464.046064	-758.881167	1555.669922	2356.658203
20464.046064	-758.881167	1554.621094	2673.943848
20464.046064	-758.881167	1553.573242	2601.620850
20464.046064	-758.881167	1552.523438	2627.419189
20464.046064	-758.881167	1551.474609	2744.517090
20464.046064	-758.881167	1550.424805	2902.713135
20464.046064	-758.881167	1549.375000	2762.737061
20464.046064	-758.881167	1548.325195	2354.362305
20464.046064	-758.881167	1547.275391	2299.120117
20464.046064	-758.881167	1546.225586	2364.690186
20464.046064	-758.881167	1545.174805	2184.677979
20464.046064	-758.881167	1544.124023	1909.382446
20464.046064	-758.881167	1543.073242	2007.366089
20464.046064	-758.881167	1542.022461	1627.994019
20464.046064	-758.881167	1540.970703	1876.401733
20464.046064	-758.881167	1539.919922	1770.343262
20464.046064	-758.881167	1538.868164	1996.287231
20464.046064	-758.881167	1537.815430	1992.845093
20464.046064	-758.881167	1536.763672	2259.942139
20464.046064	-758.881167	1535.710938	2277.287598
20464.046064	-758.881167	1534.659180	2515.106689
20464.046064	-758.881167	1533.606445	2725.775879
20464.046064	-758.881167	1532.552734	2727.726807
20464.046064	-758.881167	1531.500000	3018.112793
20464.046064	-758.881167	1530.446289	2902.438721
20464.046064	-758.881167	1529.393555	2846.018799
20464.046064	-758.881167	1528.338867	2674.133057
20464.046064	-758.881167	1527.285156	2611.387451
20464.046064	-758.881167	1526.231445	2267.760986
20464.046064	-758.881167	1525.176758	1942.602539
20464.046064	-758.881167	1524.122070	1731.105347
20464.046064	-758.881167	1523.067383	1408.890259
20464.046064	-758.881167	1522.012695	1324.884033
20464.046064	-758.881167	1520.957031	1345.305786
20464.046064	-758.881167	1519.901367	1499.545044
20464.046064	-758.881167	1518.845703	782.314026
20464.046064	-758.881167	1517.790039	964.223328
20464.046064	-758.881167	1516.734375	641.617981
20464.046064	-758.881167	1515.677734	964.213867
20464.046064	-758.881167	1514.621094	976.993103
20464.046064	-758.881167	1513.564453	562.529175
20464.046064	-758.881167	1512.507813	659.518494
20464.046064	-758.881167	1511.450195	822.257751
20464.046064	-758.881167	1510.393555	833.736938
20464.046064	-758.881167	1509.335938	879.335815
20464.046064	-758.881167	1508.278320	663.052673
20464.046064	-758.881167	1507.219727	580.370605
20464.046064	-758.881167	1506.162109	421.179932
20464.046064	-758.881167	1505.103516	427.133698
20464.046064	-758.881167	1504.044922	2.102133
20464.046064	-758.881167	1502.986328	26.681816
20464.046064	-758.881167	1501.926758	153.046341
20464.046064	-758.881167	1500.868164	157.775024
20464.046064	-758.881167	1499.808594	128.899948
20464.046064	-758.881167	1498.749023	-271.870026
20464.046064	-758.881167	1497.688477	80.942223
20464.046064	-758.881167	1496.628906	-89.189461
20464.046064	-758.881167	1495.568359	-96.711678
20464.046064	-758.881167	1494.507813	-92.711586
20464.046064	-758.881167	1493.447266	-207.879974
20464.046064	-758.881167	1492.386719	-124.501427
20464.046064	-758.881167	1491.325195	-200.826035
20464.046064	-758.881167	1490.263672	45.157597
20464.046064	-758.881167	1489.202148	-23.905489
20464.046064	-758.881167	1488.140625	19.869934
20464.046064	-758.881167	1487.079102	140.402267
20464.046064	-758.881167	1486.016602	101.379990
20464.046064	-758.881167	1484.954102	-90.343079
20464.046064	-758.881167	1483.891602	226.592773
20464.046064	-758.881167	1482.829102	-59.009361
20464.046064	-758.881167	1481.765625	336.992950
20464.046064	-758.881167	1480.702148	34.026688
20464.046064	-758.881167	1479.638672	142.685822
20464.046064	-758.881167	1478.575195	-260.691528
20464.046064	-758.881167	1477.511719	19.234686
20464.046064	-758.881167	1476.447266	83.695877
20464.046064	-758.881167	1475.382813	54.139141
20464.046064	-758.881167	1474.318359	-87.454956
20464.046064	-758.881167	1473.253906	9.228135
20464.046064	-758.881167	1472.189453	-198.969742
20464.046064	-758.881167	1471.124023	-41.269196
20464.046064	-758.881167	1470.058594	8.861446
20464.046064	-758.881167	1468.993164	-142.113007
20464.046064	-758.881167	1467.927734	18.207794
20464.046064	-758.881167	1466.861328	197.057236
20464.046064	-758.881167	1465.794922	127.424889
20464.046064	-758.881167	1464.728516	291.248108
20464.046064	-758.881167	1463.662109	392.307983
20464.046064	-758.881167	1462.594727	151.059479
20464.046064	-758.881167	1461.528320	263.738800
20464.046064	-758.881167	1460.460938	407.781677
20464.046064	-758.881167	1459.393555	255.310791
20464.046064	-758.881167	1458.326172	418.066071
20464.046064	-758.881167	1457.257813	495.398163
20464.046064	-758.881167	1456.189453	406.499207
20464.046064	-758.881167	1455.121094	229.736053
20464.046064	-758.881167	1454.052734	412.928619
20464.046064	-758.881167	1452.984375	458.304993
20464.046064	-758.881167	1451.915039	303.527405
20464.046064	-758.881167	1450.845703	188.716370
20464.046064	-758.881167	1449.776367	6.734725
20464.046064	-758.881167	1448.707031	133.132690
20464.046064	-758.881167	1447.636719	56.807770
20464.046064	-758.881167	1446.567383	-41.643864
20464.046064	-758.881167	1445.497070	126.819595
20464.046064	-758.881167	1444.425781	235.569336
20464.046064	-758.881167	1443.355469	154.696136
20464.046064	-758.881167	1442.285156	-48.283016
20464.046064	-758.881167	1441.213867	256.868530
20464.046064	-758.881167	1440.142578	377.331146
20464.046064	-758.881167	1439.070313	346.859497
20464.046064	-758.881167	1437.999023	287.266449
20464.046064	-758.881167	1436.926758	565.402161
20464.046064	-758.881167	1435.854492	321.740814
20464.046064	-758.881167	1434.782227	348.791412
20464.046064	-758.881167	1433.709961	782.633118
20464.046064	-758.881167	1432.636719	447.939880
20464.046064	-758.881167	1431.563477	629.423157
20464.046064	-758.881167	1430.490234	559.363281
20464.046064	-758.881167	1429.416992	653.821838
20464.046064	-758.881167	1428.343750	385.719727
20464.046064	-758.881167	1427.269531	465.216248
20464.046064	-758.881167	1426.195313	573.072449
20464.046064	-758.881167	1425.121094	464.418091
20464.046064	-758.881167	1424.046875	547.295105
20464.046064	-758.881167	1422.971680	285.312927
20464.046064	-758.881167	1421.896484	423.584991
20464.046064	-758.881167	1420.821289	522.700073
20464.046064	-758.881167	1419.746094	423.651184
20464.046064	-758.881167	1418.669922	278.191010
20464.046064	-758.881167	1417.594727	44.955391
20464.046064	-758.881167	1416.518555	709.048767
20464.046064	-758.881167	1415.442383	276.739441
20464.046064	-758.881167	1414.365234	527.849365
20464.046064	-758.881167	1413.289063	594.119812
20464.046064	-758.881167	1412.211914	298.104279
20464.046064	-758.881167	1411.134766	155.993942
20464.046064	-758.881167	1410.057617	556.344116
20464.046064	-758.881167	1408.979492	228.739334
20464.046064	-758.881167	1407.902344	178.754776
20464.046064	-758.881167	1406.824219	334.061005
20464.046064	-758.881167	1405.746094	528.217285
20464.046064	-758.881167	1404.666992	450.562805
20464.046064	-758.881167	1403.588867	314.881897
20464.046064	-758.881167	1402.509766	297.979584
20464.046064	-758.881167	1401.430664	214.259857
20464.046064	-758.881167	1400.351563	216.826721
20464.046064	-758.881167	1399.271484	248.596497
20464.046064	-758.881167	1398.192383	303.091614
20464.046064	-758.881167	1397.112305	261.806549
20464.046064	-758.881167	1396.031250	213.295044
20464.046064	-758.881167	1394.951172	446.375153
20464.046064	-758.881167	1393.871094	88.834633
20464.046064	-758.881167	1392.790039	49.479538
20464.046064	-758.881167	1391.708984	364.877960
20464.046064	-758.881167	1390.626953	297.078491
20464.046064	-758.881167	1389.545898	439.975342
20464.046064	-758.881167	1388.463867	617.478027
20464.046064	-758.881167	1387.381836	498.257355
20464.046064	-758.881167	1386.299805	520.376099
20464.046064	-758.881167	1385.217773	200.238785
20464.046064	-758.881167	1384.134766	383.783752
20464.046064	-758.881167	1383.051758	508.446564
20464.046064	-758.881167	1381.968750	363.571228
20464.046064	-758.881167	1380.885742	404.454803
20464.046064	-758.881167	1379.802734	305.304535
20464.046064	-758.881167	1378.718750	531.766602
20464.046064	-758.881167	1377.634766	513.824402
20464.046064	-758.881167	1376.550781	818.587524
20464.046064	-758.881167	1375.465820	573.870544
20464.046064	-758.881167	1374.381836	545.263672
20464.046064	-758.881167	1373.296875	755.954590
20464.046064	-758.881167	1372.211914	557.925964
20464.046064	-758.881167	1371.126953	576.423950
20464.046064	-758.881167	1370.041016	753.963074
20464.046064	-758.881167	1368.955078	712.113281
20464.046064	-758.881167	1367.869141	508.107117
20464.046064	-758.881167	1366.783203	623.786438
20464.046064	-758.881167	1365.697266	691.194214
20464.046064	-758.881167	1364.610352	698.083984
20464.046064	-758.881167	1363.523438	544.810120
20464.046064	-758.881167	1362.436523	559.407776
20464.046064	-758.881167	1361.349609	458.662079
20464.046064	-758.881167	1360.261719	413.059570
20464.046064	-758.881167	1359.174805	136.084442
20464.046064	-758.881167	1358.086914	91.948120
20464.046064	-758.881167	1356.998047	23.768202
20464.046064	-758.881167	1355.910156	105.086594
20464.046064	-758.881167	1354.821289	245.623352
20464.046064	-758.881167	1353.732422	29.555573
20464.046064	-758.881167	1352.643555	117.719170
20464.046064	-758.881167	1351.554688	116.963722
20464.046064	-758.881167	1350.464844	93.560081
20464.046064	-758.881167	1349.375000	-86.244881
20464.046064	-758.881167	1348.285156	-78.324257
20464.046064	-758.881167	1347.195313	-157.611725
20464.046064	-758.881167	1346.105469	10.185647
20464.046064	-758.881167	1345.014648	-297.643127
20464.046064	-758.881167	1343.923828	-182.660431
20464.046064	-758.881167	1342.833008	-14.104621
20464.046064	-758.881167	1341.741211	129.038284
20464.046064	-758.881167	1340.650391	-202.816452
20464.046064	-758.881167	1339.558594	-38.384846
20464.046064	-758.881167	1338.466797	-47.268925
20464.046064	-758.881167	1337.374023	-83.735550
20464.046064	-758.881167	1336.282227	37.719498
20464.046064	-758.881167	1335.189453	127.261925
20464.046064	-758.881167	1334.096680	167.045105
20464.046064	-758.881167	1333.003906	82.734947
20464.046064	-758.881167	1331.910156	-80.561874
20464.046064	-758.881167	1330.817383	-78.160515
20464.046064	-758.881167	1329.723633	193.424072
20464.046064	-758.881167	1328.629883	126.049843
20464.046064	-758.881167	1327.535156	-16.363665
20464.046064	-758.881167	1326.441406	-37.298382
20464.046064	-758.881167	1325.346680	38.627960
20464.046064	-758.881167	1324.251953	142.167465
20464.046064	-758.881167	1323.156250	141.351334
20464.046064	-758.881167	1322.061523	115.189148
20464.046064	-758.881167	1320.965820	309.657593
20464.046064	-758.881167	1319.870117	173.018219
20464.046064	-758.881167	1318.774414	60.095100
20464.046064	-758.881167	1317.678711	422.255310
20464.046064	-758.881167	1316.582031	447.389954
20464.046064	-758.881167	1315.485352	394.918396
20464.046064	-758.881167	1314.388672	203.045654
20464.046064	-758.881167	1313.291016	500.891479
20464.046064	-758.881167	1312.194336	364.341064
20464.046064	-758.881167	1311.096680	251.085358
20464.046064	-758.881167	1309.999023	-10.214415
20464.046064	-758.881167	1308.901367	275.215118
20464.046064	-758.881167	1307.802734	227.484283
20464.046064	-758.881167	1306.705078	237.747223
20464.046064	-758.881167	1305.606445	406.281372
20464.046064	-758.881167	1304.506836	491.481384
20464.046064	-758.881167	1303.408203	355.319397
20464.046064	-758.881167	1302.308594	360.799774
20464.046064	-758.881167	1301.208984	532.227905
20464.046064	-758.881167	1300.109375	625.033325
20464.046064	-758.881167	1299.009766	424.845032
20464.046064	-758.881167	1297.909180	465.265961
20464.046064	-758.881167	1296.808594	568.880554
20464.046064	-758.881167	1295.708008	430.653717
20464.046064	-758.881167	1294.607422	305.153687
20464.046064	-758.881167	1293.506836	490.952789
20464.046064	-758.881167	1292.405273	293.072144
20464.046064	-758.881167	1291.303711	322.310944
20464.046064	-758.881167	1290.202148	201.137939
20464.046064	-758.881167	1289.099609	253.027542
20464.046064	-758.881167	1287.998047	-81.810814
20464.046064	-758.881167	1286.895508	152.919373
20464.046064	-758.881167	1285.792969	-143.865646
20464.046064	-758.881167	1284.689453	-141.099564
20464.046064	-758.881167	1283.586914	21.567560
20464.046064	-758.881167	1282.483398	126.018349
20464.046064	-758.881167	1281.379883	-27.973583
20464.046064	-758.881167	1280.276367	-205.949173
20464.046064	-758.881167	1279.171875	-86.220901
20464.046064	-758.881167	1278.067383	82.533669
20464.046064	-758.881167	1276.962891	145.603668
20464.046064	-758.881167	1275.858398	185.415009
20464.046064	-758.881167	1274.753906	281.651367
20464.046064	-758.881167	1273.648438	349.807037
20464.046064	-758.881167	1272.542969	-54.865883
20464.046064	-758.881167	1271.437500	68.853424
20464.046064	-758.881167	1270.331055	-35.294640
20464.046064	-758.881167	1269.225586	139.360016
20464.046064	-758.881167	1268.119141	-55.407051
20464.046064	-758.881167	1267.012695	-71.800735
20464.046064	-758.881167	1265.906250	-34.508339
20464.046064	-758.881167	1264.798828	-1.314835
20464.046064	-758.881167	1263.691406	42.166721
20464.046064	-758.881167	1262.583984	-61.340786
20464.046064	-758.881167	1261.476563	-4.391797
20464.046064	-758.881167	1260.368164	20.779484
20464.046064	-758.881167	1259.260742	148.603165
20464.046064	-758.881167	1258.152344	70.178932
20464.046064	-758.881167	1257.043945	169.960312
20464.046064	-758.881167	1255.934570	-77.964684
20464.046064	-758.881167	1254.825195	219.681732
20464.046064	-758.881167	1253.716797	27.400074
20464.046064	-758.881167	1252.606445	16.813141
20464.046064	-758.881167	1251.497070	106.580078
20464.046064	-758.881167	1250.387695	-35.412216
20464.046064	-758.881167	1249.277344	63.881241
20464.046064	-758.881167	1248.166992	148.209152
20464.046064	-758.881167	1247.055664	135.885986
20464.046064	-758.881167	1245.945313	-9.755074
20464.046064	-758.881167	1244.833984	68.043434
20464.046064	-758.881167	1243.722656	-25.987213
20464.046064	-758.881167	1242.611328	20.964005
20464.046064	-758.881167	1241.499023	46.637245
20464.046064	-758.881167	1240.387695	-53.458134
20464.046064	-758.881167	1239.275391	-68.311043
20464.046064	-758.881167	1238.162109	-101.207214
20464.046064	-758.881167	1237.049805	27.010448
20464.046064	-758.881167	1235.936523	-119.561234
20464.046064	-758.881167	1234.823242	131.209839
20464.046064	-758.881167	1233.709961	-48.898434
20464.046064	-758.881167	1232.596680	89.006165
20464.046064	-758.881167	1231.482422	15.195740
20464.046064	-758.881167	1230.369141	-97.749100
20464.046064	-758.881167	1229.253906	-166.768234
20464.046064	-758.881167	1228.139648	-160.355057
20464.046064	-758.881167	1227.025391	-119.214981
20464.046064	-758.881167	1225.910156	-19.629801
20464.046064	-758.881167	1224.794922	-31.826218
20464.046064	-758.881167	1223.679688	117.575394
20464.046064	-758.881167	1222.563477	-38.022308
20464.046064	-758.881167	1221.447266	68.482307
20464.046064	-758.881167	1220.331055	-32.076012
20464.046064	-758.881167	1219.214844	-93.693558
20464.046064	-758.881167	1218.098633	140.860931
20464.046064	-758.881167	1216.981445	56.228184
20464.046064	-758.881167	1215.864258	-25.524958
20464.046064	-758.881167	1214.747070	-46.889835
20464.046064	-758.881167	1213.629883	12.371715
20464.046064	-758.881167	1212.511719	190.641418
20464.046064	-758.881167	1211.393555	40.093891
20464.046064	-758.881167	1210.275391	139.341354
20464.046064	-758.881167	1209.157227	-22.970737
20464.046064	-758.881167	1208.038086	150.546951
20464.046064	-758.881167	1206.918945	52.159203
20464.046064	-758.881167	1205.799805	30.349409
20464.046064	-758.881167	1204.680664	31.075598
20464.046064	-758.881167	1203.560547	140.029602
20464.046064	-758.881167	1202.441406	49.977222
20464.046064	-758.881167	1201.321289	-33.467491
20464.046064	-758.881167	1200.200195	-99.682602
20464.046064	-758.881167	1199.080078	35.696808
20464.046064	-758.881167	1197.958984	-228.006622
20464.046064	-758.881167	1196.837891	-59.913998
20464.046064	-758.881167	1195.716797	-166.143356
20464.046064	-758.881167	1194.594727	-210.198639
20464.046064	-758.881167	1193.473633	-180.661331
20464.046064	-758.881167	1192.351563	-108.694839
20464.046064	-758.881167	1191.229492	-70.082901
20464.046064	-758.881167	1190.106445	-132.638336
20464.046064	-758.881167	1188.984375	-128.194809
20464.046064	-758.881167	1187.861328	-169.853836
20464.046064	-758.881167	1186.738281	-86.828430
20464.046064	-758.881167	1185.614258	-111.752007
20464.046064	-758.881167	1184.491211	26.145060
20464.046064	-758.881167	1183.367188	-66.466904
20464.046064	-758.881167	1182.243164	-158.332733
20464.046064	-758.881167	1181.119141	-120.774315
20464.046064	-758.881167	1179.994141	82.540413
20464.046064	-758.881167	1178.869141	-68.759041
20464.046064	-758.881167	1177.744141	-137.708389
20464.046064	-758.881167	1176.619141	-149.428284
20464.046064	-758.881167	1175.493164	-118.486359
20464.046064	-758.881167	1174.368164	8.656322
20464.046064	-758.881167	1173.242188	4.378608
20464.046064	-758.881167	1172.115234	29.282297
20464.046064	-758.881167	1170.989258	-18.186819
20464.046064	-758.881167	1169.862305	-22.295904
20464.046064	-758.881167	1168.735352	-12.190858
20464.046064	-758.881167	1167.608398	132.481445
20464.046064	-758.881167	1166.481445	-60.536224
20464.046064	-758.881167	1165.353516	-48.450851
20464.046064	-758.881167	1164.225586	85.735657
20464.046064	-758.881167	1163.097656	21.970238
20464.046064	-758.881167	1161.968750	78.261475
20464.046064	-758.881167	1160.840820	162.198608
20464.046064	-758.881167	1159.711914	79.646713
20464.046064	-758.881167	1158.583008	79.287064
20464.046064	-758.881167	1157.453125	173.800781
20464.046064	-758.881167	1156.324219	116.430260
20464.046064	-758.881167	1155.194336	-9.011856
20464.046064	-758.881167	1154.064453	25.150276
20464.046064	-758.881167	1152.933594	-23.454296
20464.046064	-758.881167	1151.803711	148.078796
20464.046064	-758.881167	1150.672852	-42.260777
20464.046064	-758.881167	1149.541992	-63.991066
20464.046064	-758.881167	1148.411133	19.210089
20464.046064	-758.881167	1147.279297	82.346321
20464.046064	-758.881167	1146.147461	-8.256303
20464.046064	-758.881167	1145.015625	12.645305
20464.046064	-758.881167	1143.883789	227.138977
20464.046064	-758.881167	1142.750977	94.261253
20464.046064	-758.881167	1141.619141	255.452545
20464.046064	-758.881167	1140.486328	289.499756
20464.046064	-758.881167	1139.352539	-26.594513
20464.046064	-758.881167	1138.219727	112.485847
20464.046064	-758.881167	1137.085938	-4.517757
20464.046064	-758.881167	1135.952148	299.025452
20464.046064	-758.881167	1134.818359	164.608704
20464.046064	-758.881167	1133.683594	277.340118
20464.046064	-758.881167	1132.549805	471.197937
20464.046064	-758.881167	1131.415039	527.268433
20464.046064	-758.881167	1130.279297	662.140198
20464.046064	-758.881167	1129.144531	736.459229
20464.046064	-758.881167	1128.008789	739.249634
20464.046064	-758.881167	1126.873047	777.148865
20464.046064	-758.881167	1125.737305	924.196289
20464.046064	-758.881167	1124.601563	564.972107
20464.046064	-758.881167	1123.464844	631.537842
20464.046064	-758.881167	1122.328125	475.918152
20464.046064	-758.881167	1121.191406	510.533203
20464.046064	-758.881167	1120.054688	562.801270
20464.046064	-758.881167	1118.916992	620.892761
20464.046064	-758.881167	1117.779297	646.978455
20464.046064	-758.881167	1116.641602	722.372986
20464.046064	-758.881167	1115.503906	750.381409
20464.046064	-758.881167	1114.365234	499.809662
20464.046064	-758.881167	1113.226563	740.708679
20464.046064	-758.881167	1112.087891	523.572937
20464.046064	-758.881167	1110.949219	624.777832
20464.046064	-758.881167	1109.809570	515.260742
20464.046064	-758.881167	1108.669922	297.188354
20464.046064	-758.881167	1107.530273	301.448700
20464.046064	-758.881167	1106.390625	383.584229
20464.046064	-758.881167	1105.250000	400.412842
20464.046064	-758.881167	1104.109375	489.054810
20464.046064	-758.881167	1102.968750	476.597382
20464.046064	-758.881167	1101.828125	483.418030
20464.046064	-758.881167	1100.686523	674.641052
20464.046064	-758.881167	1099.544922	515.838135
20464.046064	-758.881167	1098.403320	639.528381
20464.046064	-758.881167	1097.261719	685.763000
20464.046064	-758.881167	1096.120117	760.822815
20464.046064	-758.881167	1094.977539	786.585632
20464.046064	-758.881167	1093.834961	919.337524
20464.046064	-758.881167	1092.691406	734.769653
20464.046064	-758.881167	1091.548828	700.136108
20464.046064	-758.881167	1090.405273	763.155334
20464.046064	-758.881167	1089.261719	724.118835
20464.046064	-758.881167	1088.118164	744.957764
20464.046064	-758.881167	1086.973633	829.232056
20464.046064	-758.881167	1085.829102	597.244141
20464.046064	-758.881167	1084.684570	767.433044
20464.046064	-758.881167	1083.540039	716.061096
20464.046064	-758.881167	1082.395508	566.987366
20464.046064	-758.881167	1081.250000	466.171722
20464.046064	-758.881167	1080.104492	792.875061
20464.046064	-758.881167	1078.958984	578.497375
20464.046064	-758.881167	1077.812500	637.867554
20464.046064	-758.881167	1076.666016	782.567078
20464.046064	-758.881167	1075.519531	622.767517
20464.046064	-758.881167	1074.373047	578.090576
20464.046064	-758.881167	1073.226563	580.003723
20464.046064	-758.881167	1072.079102	638.823730
20464.046064	-758.881167	1070.931641	394.336609
20464.046064	-758.881167	1069.784180	360.572327
20464.046064	-758.881167	1068.635742	181.385529
20464.046064	-758.881167	1067.487305	451.785126
20464.046064	-758.881167	1066.338867	326.447632
20464.046064	-758.881167	1065.190430	532.320984
20464.046064	-758.881167	1064.041992	509.748749
20464.046064	-758.881167	1062.892578	776.778442
20464.046064	-758.881167	1061.743164	593.485901
20464.046064	-758.881167	1060.593750	462.050537
20464.046064	-758.881167	1059.443359	417.108643
20464.046064	-758.881167	1058.292969	592.369019
20464.046064	-758.881167	1057.142578	500.451538
20464.046064	-758.881167	1055.992188	514.713379
20464.046064	-758.881167	1054.841797	560.396606
20464.046064	-758.881167	1053.690430	436.235657
20464.046064	-758.881167	1052.539063	543.476929
20464.046064	-758.881167	1051.387695	377.037170
20464.046064	-758.881167	1050.235352	409.123413
20464.046064	-758.881167	1049.083984	401.100220
20464.046064	-758.881167	1047.931641	489.173767
20464.046064	-758.881167	1046.778320	399.402252
20464.046064	-758.881167	1045.625977	399.377197
20464.046064	-758.881167	1044.472656	350.421631
20464.046064	-758.881167	1043.319336	232.445465
20464.046064	-758.881167	1042.166016	238.127243
20464.046064	-758.881167	1041.012695	78.002884
20464.046064	-758.881167	1039.858398	141.351151
20464.046064	-758.881167	1038.704102	101.419174
20464.046064	-758.881167	1037.549805	80.262413
20464.046064	-758.881167	1036.394531	21.642849
20464.046064	-758.881167	1035.239258	102.991379
20464.046064	-758.881167	1034.083984	294.452332
20464.046064	-758.881167	1032.928711	236.087082
20464.046064	-758.881167	1031.773438	116.278236
20464.046064	-758.881167	1030.617188	-29.606071
20464.046064	-758.881167	1029.460938	-70.804573
20464.046064	-758.881167	1028.304688	107.787041
20464.046064	-758.881167	1027.147461	335.440063
20464.046064	-758.881167	1025.991211	219.203094
20464.046064	-758.881167	1024.833984	119.513367
20464.046064	-758.881167	1023.675781	13.931088
20464.046064	-758.881167	1022.518555	66.666321
20464.046064	-758.881167	1021.360352	229.052460
20464.046064	-758.881167	1020.202148	71.742805
20464.046064	-758.881167	1019.043945	180.521347
20464.046064	-758.881167	1017.884766	22.671631
20464.046064	-758.881167	1016.726563	219.831955
20464.046064	-758.881167	1015.567383	47.570560
20464.046064	-758.881167	1014.407227	154.192764
20464.046064	-758.881167	1013.248047	235.396698
20464.046064	-758.881167	1012.087891	55.201496
20464.046064	-758.881167	1010.927734	43.099686
20464.046064	-758.881167	1009.767578	224.404526
20464.046064	-758.881167	1008.606445	122.161888
20464.046064	-758.881167	1007.446289	239.511749
20464.046064	-758.881167	1006.285156	127.784279
20464.046064	-758.881167	1005.123047	-41.949585
20464.046064	-758.881167	1003.961914	184.390823
20464.046064	-758.881167	1002.799805	510.879517
20464.046064	-758.881167	1001.637695	252.974258
20464.046064	-758.881167	1000.475586	129.248978
20464.046064	-758.881167	999.312500	176.686676
20464.046064	-758.881167	998.149414	177.480515
20464.046064	-758.881167	996.986328	170.543320
20464.046064	-758.881167	995.823242	-142.791214
20464.046064	-758.881167	994.659180	30.620897
20464.046064	-758.881167	993.496094	64.628540
20464.046064	-758.881167	992.332031	81.384117
20464.046064	-758.881167	991.166992	-27.606916
20464.046064	-758.881167	990.002930	213.780914
20464.046064	-758.881167	988.837891	-62.553165
20464.046064	-758.881167	987.672852	294.393890
20464.046064	-758.881167	986.506836	48.020588
20464.046064	-758.881167	985.341797	61.704639
20464.046064	-758.881167	984.175781	48.603756
20464.046064	-758.881167	983.009766	-122.597290
20464.046064	-758.881167	981.843750	48.508373
20464.046064	-758.881167	980.676758	102.174576
20464.046064	-758.881167	979.509766	-131.852325
20464.046064	-758.881167	978.342773	-32.848087
20464.046064	-758.881167	977.175781	-227.265244
20464.046064	-758.881167	976.007813	-17.753445
20464.046064	-758.881167	974.839844	37.555843
20464.046064	-758.881167	973.671875	-12.672756
20464.046064	-758.881167	972.503906	54.232220
20464.046064	-758.881167	971.334961	51.735245
20464.046064	-758.881167	970.166016	-91.871254
20464.046064	-758.881167	968.997070	-101.958809
20464.046064	-758.881167	967.828125	50.012157
20464.046064	-758.881167	966.658203	-23.456896
20464.046064	-758.881167	965.488281	-14.173092
20464.046064	-758.881167	964.318359	197.663879
20464.046064	-758.881167	963.148438	78.256645
20464.046064	-758.881167	961.977539	200.677811
20464.046064	-758.881167	960.806641	-85.794708
20464.046064	-758.881167	959.635742	173.555359
20464.046064	-758.881167	958.463867	153.248764
20464.046064	-758.881167	957.292969	-26.905064
20464.046064	-758.881167	956.121094	-22.495981
20464.046064	-758.881167	954.948242	-12.767775
20464.046064	-758.881167	953.776367	-10.797637
20464.046064	-758.881167	952.603516	183.903519
20464.046064	-758.881167	951.430664	-102.432190
20464.046064	-758.881167	950.257813	82.967087
20464.046064	-758.881167	949.084961	210.842926
20464.046064	-758.881167	947.911133	369.609375
20464.046064	-758.881167	946.737305	233.314926
20464.046064	-758.881167	945.563477	133.543961
20464.046064	-758.881167	944.388672	540.192810
20464.046064	-758.881167	943.213867	357.517059
20464.046064	-758.881167	942.039063	424.391083
20464.046064	-758.881167	940.864258	316.685242
20464.046064	-758.881167	939.688477	407.995026
20464.046064	-758.881167	938.513672	479.711334
20464.046064	-758.881167	937.337891	449.551147
20464.046064	-758.881167	936.161133	433.977600
20464.046064	-758.881167	934.985352	406.134552
20464.046064	-758.881167	933.808594	516.569946
20464.046064	-758.881167	932.631836	382.246460
20464.046064	-758.881167	931.454102	342.237854
20464.046064	-758.881167	930.277344	559.205750
20464.046064	-758.881167	929.099609	388.407806
20464.046064	-758.881167	927.921875	549.525513
20464.046064	-758.881167	926.743164	531.306335
20464.046064	-758.881167	925.565430	382.330872
20464.046064	-758.881167	924.386719	356.864471
20464.046064	-758.881167	923.208008	285.407928
20464.046064	-758.881167	922.028320	250.265320
20464.046064	-758.881167	920.849609	33.597351
20464.046064	-758.881167	919.669922	39.735607
20464.046064	-758.881167	919.474609	69.669067
20464.046064	-758.881167	918.309570	68.328491
20464.046064	-758.881167	917.143555	86.327850
20464.046064	-758.881167	915.977539	-72.228523
20464.046064	-758.881167	914.810547	-3.463510
20464.046064	-758.881167	913.644531	-178.890076
20464.046064	-758.881167	912.477539	223.351425
20464.046064	-758.881167	911.310547	14.093831
20464.046064	-758.881167	910.143555	68.226784
20464.046064	-758.881167	908.975586	103.004219
20464.046064	-758.881167	907.807617	142.580292
20464.046064	-758.881167	906.639648	-112.421989
20464.046064	-758.881167	905.471680	-14.919692
20464.046064	-758.881167	904.303711	-149.153137
20464.046064	-758.881167	903.134766	-172.352890
20464.046064	-758.881167	901.965820	-128.014175
20464.046064	-758.881167	900.796875	-100.593170
20464.046064	-758.881167	899.626953	81.131615
20464.046064	-758.881167	898.457031	-7.253003
20464.046064	-758.881167	897.287109	-213.726654
20464.046064	-758.881167	896.117188	-53.831501
20464.046064	-758.881167	894.947266	-130.139969
20464.046064	-758.881167	893.776367	68.185501
20464.046064	-758.881167	892.605469	227.876297
20464.046064	-758.881167	891.434570	64.822815
20464.046064	-758.881167	890.262695	-1.881590
20464.046064	-758.881167	889.091797	193.774948
20464.046064	-758.881167	887.919922	249.763489
20464.046064	-758.881167	886.748047	-55.184612
20464.046064	-758.881167	885.575195	58.528793
20464.046064	-758.881167	884.403320	-205.410522
20464.046064	-758.881167	883.230469	-243.235794
20464.046064	-758.881167	882.057617	72.321503
20464.046064	-758.881167	880.883789	65.663078
20464.046064	-758.881167	879.710938	25.341043
20464.046064	-758.881167	878.537109	23.457901
20464.046064	-758.881167	877.362305	91.217361
20464.046064	-758.881167	876.188477	276.598389
20464.046064	-758.881167	875.013672	-71.147278
20464.046064	-758.881167	873.839844	121.347092
20464.046064	-758.881167	872.664063	71.341484
20464.046064	-758.881167	871.489258	28.527302
20464.046064	-758.881167	870.313477	72.078003
20464.046064	-758.881167	869.138672	209.126999
20464.046064	-758.881167	867.962891	63.124027
20464.046064	-758.881167	866.786133	56.219959
20464.046064	-758.881167	865.610352	-300.688965
20464.046064	-758.881167	864.433594	-7.989168
20464.046064	-758.881167	863.256836	-156.324020
20464.046064	-758.881167	862.079102	148.154938
20464.046064	-758.881167	860.902344	-143.914688
20464.046064	-758.881167	859.724609	-88.663666
20464.046064	-758.881167	858.546875	-93.317368
20464.046064	-758.881167	857.368164	-119.538185
20464.046064	-758.881167	856.190430	14.562607
20464.046064	-758.881167	855.011719	174.900909
20464.046064	-758.881167	853.833008	62.432049
20464.046064	-758.881167	852.654297	38.470963
20464.046064	-758.881167	851.474609	-62.026752
20464.046064	-758.881167	850.294922	-227.065659
20464.046064	-758.881167	849.115234	95.540237
20464.046064	-758.881167	847.935547	162.275742
20464.046064	-758.881167	846.754883	228.954712
20464.046064	-758.881167	845.575195	1.748526
20464.046064	-758.881167	844.393555	266.593903
20464.046064	-758.881167	843.212891	263.857697
20464.046064	-758.881167	842.032227	-51.648251
20464.046064	-758.881167	840.850586	-61.546787
20464.046064	-758.881167	839.668945	114.652847
20464.046064	-758.881167	838.486328	-55.198631
20464.046064	-758.881167	837.304688	99.382065
20464.046064	-758.881167	836.122070	58.305889
20464.046064	-758.881167	834.939453	-28.095470
20464.046064	-758.881167	833.756836	-202.704453
20464.046064	-758.881167	832.573242	-3.091456
20464.046064	-758.881167	831.389648	51.042107
20464.046064	-758.881167	830.206055	-183.158890
20464.046064	-758.881167	829.022461	123.384041
20464.046064	-758.881167	827.838867	-41.761387
20464.046064	-758.881167	826.654297	-37.835663
20464.046064	-758.881167	825.469727	13.652319
20464.046064	-758.881167	824.284180	98.394592
20464.046064	-758.881167	823.099609	-119.137444
20464.046064	-758.881167	821.914063	-193.886292
20464.046064	-758.881167	820.728516	-23.672195
20464.046064	-758.881167	819.542969	-141.310272
20464.046064	-758.881167	818.356445	-206.641922
20464.046064	-758.881167	817.169922	-205.441376
20464.046064	-758.881167	815.983398	-56.949539
20464.046064	-758.881167	814.796875	-120.035217
20464.046064	-758.881167	813.609375	92.415092
20464.046064	-758.881167	812.422852	-191.657715
20464.046064	-758.881167	811.235352	167.834335
20464.046064	-758.881167	810.046875	313.462738
20464.046064	-758.881167	808.859375	138.542664
20464.046064	-758.881167	807.670898	101.279984
20464.046064	-758.881167	806.482422	97.192825
20464.046064	-758.881167	805.293945	237.746368
20464.046064	-758.881167	804.104492	46.163113
20464.046064	-758.881167	802.915039	70.371498
20464.046064	-758.881167	801.725586	56.579849
20464.046064	-758.881167	800.536133	199.162521
20464.046064	-758.881167	799.345703	211.297913
20464.046064	-758.881167	798.155273	112.017166
20464.046064	-758.881167	796.964844	-53.606129
20464.046064	-758.881167	795.774414	-10.826519
20464.046064	-758.881167	794.583008	157.361343
20464.046064	-758.881167	793.392578	105.265129
20464.046064	-758.881167	792.200195	-67.570679
20464.046064	-758.881167	791.008789	79.033783
20464.046064	-758.881167	789.816406	-197.948502
20464.046064	-758.881167	788.625000	118.784706
20464.046064	-758.881167	787.432617	-23.435400
20464.046064	-758.881167	786.239258	37.660912
20464.046064	-758.881167	785.046875	-14.798554
20464.046064	-758.881167	783.853516	195.017059
20464.046064	-758.881167	782.660156	116.418945
20464.046064	-758.881167	781.465820	181.882599
20464.046064	-758.881167	780.272461	22.876152
20464.046064	-758.881167	779.078125	248.756393
20464.046064	-758.881167	777.883789	408.367981
20464.046064	-758.881167	776.688477	407.340454
20464.046064	-758.881167	775.494141	281.166931
20464.046064	-758.881167	774.298828	324.844330
20464.046064	-758.881167	773.103516	436.835754
20464.046064	-758.881167	771.907227	324.662170
20464.046064	-758.881167	770.711914	370.434326
20464.046064	-758.881167	769.515625	439.685852
20464.046064	-758.881167	768.318359	167.084045
20464.046064	-758.881167	767.122070	-133.759964
20464.046064	-758.881167	765.924805	130.859955
20464.046064	-758.881167	764.727539	185.659348
20464.046064	-758.881167	763.530273	122.610435
20464.046064	-758.881167	762.333008	200.774277
20464.046064	-758.881167	761.134766	210.561020
20464.046064	-758.881167	759.936523	180.253876
20464.046064	-758.881167	758.738281	194.583893
20464.046064	-758.881167	757.540039	18.276272
20464.046064	-758.881167	756.340820	143.013382
20464.046064	-758.881167	755.141602	98.309212
20464.046064	-758.881167	753.942383	258.076508
20464.046064	-758.881167	752.742188	-68.860916
20464.046064	-758.881167	751.541992	69.557076
20464.046064	-758.881167	750.341797	99.754967
20464.046064	-758.881167	749.141602	162.742233
20464.046064	-758.881167	747.941406	18.945332
20464.046064	-758.881167	746.740234	-0.430354
20464.046064	-758.881167	745.539063	95.148384
20464.046064	-758.881167	744.337891	138.964493
20464.046064	-758.881167	743.135742	365.709534
20464.046064	-758.881167	741.933594	266.165009
20464.046064	-758.881167	740.731445	89.170547
20464.046064	-758.881167	739.529297	207.647858
20464.046064	-758.881167	738.326172	311.919128
20464.046064	-758.881167	737.124023	261.347229
20464.046064	-758.881167	735.919922	-4.909708
20464.046064	-758.881167	734.716797	108.449905
20464.046064	-758.881167	733.513672	-167.209747
20464.046064	-758.881167	732.309570	290.260376
20464.046064	-758.881167	731.105469	267.403351
20464.046064	-758.881167	729.900391	204.664963
20464.046064	-758.881167	728.696289	-24.326105
20464.046064	-758.881167	727.491211	1.773960
20464.046064	-758.881167	726.286133	151.781006
20464.046064	-758.881167	725.080078	303.972687
20464.046064	-758.881167	723.874023	231.491226
20464.046064	-758.881167	722.668945	448.899017
20464.046064	-758.881167	721.461914	254.673172
20464.046064	-758.881167	720.255859	107.187347
20464.046064	-758.881167	719.048828	41.461304
20464.046064	-758.881167	717.841797	150.896469
20464.046064	-758.881167	716.634766	138.734238
20464.046064	-758.881167	715.427734	19.063652
20464.046064	-758.881167	714.219727	151.516403
20464.046064	-758.881167	713.011719	94.741386
20464.046064	-758.881167	711.803711	58.907776
20464.046064	-758.881167	710.594727	109.333656
20464.046064	-758.881167	709.385742	89.663292
20464.046064	-758.881167	708.176758	60.584492
20464.046064	-758.881167	706.967773	10.444280
20464.046064	-758.881167	705.758789	-233.270660
20464.046064	-758.881167	704.548828	-85.376282
20464.046064	-758.881167	703.338867	-124.064766
20464.046064	-758.881167	702.127930	-286.314270
20464.046064	-758.881167	700.917969	-252.902618
20464.046064	-758.881167	699.707031	-51.906662
20464.046064	-758.881167	698.496094	-265.550476
20464.046064	-758.881167	697.285156	81.858864
20464.046064	-758.881167	696.073242	-110.948044
20464.046064	-758.881167	694.861328	-15.205716
20464.046064	-758.881167	693.649414	-3.341311
20464.046064	-758.881167	692.436523	143.342468
20464.046064	-758.881167	691.224609	117.795601
20464.046064	-758.881167	690.011719	-170.557678
20464.046064	-758.881167	688.798828	36.264351
20464.046064	-758.881167	687.584961	110.443214
20464.046064	-758.881167	686.372070	119.454865
20464.046064	-758.881167	685.158203	332.814941
20464.046064	-758.881167	683.943359	336.966431
20464.046064	-758.881167	682.729492	538.424744
20464.046064	-758.881167	681.514648	495.945526
20464.046064	-758.881167	680.299805	720.341125
20464.046064	-758.881167	679.084961	668.408325
20464.046064	-758.881167	677.869141	706.906555
20464.046064	-758.881167	676.653320	856.660095
20464.046064	-758.881167	675.437500	679.271484
20464.046064	-758.881167	674.221680	571.447754
20464.046064	-758.881167	673.004883	521.549683
20464.046064	-758.881167	671.789063	341.815704
20464.046064	-758.881167	670.571289	393.803619
20464.046064	-758.881167	669.354492	176.963516
20464.046064	-758.881167	668.136719	143.130157
20464.046064	-758.881167	666.919922	125.459396
20464.046064	-758.881167	665.701172	211.911896
20464.046064	-758.881167	664.483398	302.899384
20464.046064	-758.881167	663.264648	220.207489
20464.046064	-758.881167	662.045898	195.335281
20464.046064	-758.881167	660.827148	151.908035
20464.046064	-758.881167	659.608398	302.718994
20464.046064	-758.881167	658.388672	219.857208
20464.046064	-758.881167	657.168945	213.265396
20464.046064	-758.881167	655.949219	213.556229
20464.046064	-758.881167	654.728516	327.021790
20464.046064	-758.881167	653.507813	320.246674
20464.046064	-758.881167	652.287109	290.324982
20464.046064	-758.881167	651.066406	223.415390
20464.046064	-758.881167	649.844727	244.221085
20464.046064	-758.881167	648.623047	338.841461
20464.046064	-758.881167	647.401367	262.587616
20464.046064	-758.881167	646.179688	317.848724
20464.046064	-758.881167	644.957031	197.707794
20464.046064	-758.881167	643.734375	236.726410
20464.046064	-758.881167	642.511719	81.983276
20464.046064	-758.881167	641.289063	201.626450
20464.046064	-758.881167	640.065430	226.670578
20464.046064	-758.881167	638.841797	53.478188
20464.046064	-758.881167	637.618164	341.139801
20464.046064	-758.881167	636.393555	174.838013
20464.046064	-758.881167	635.168945	59.245079
20464.046064	-758.881167	633.944336	146.302139
20464.046064	-758.881167	632.719727	111.284325
20464.046064	-758.881167	631.494141	11.805889
20464.046064	-758.881167	630.269531	-251.028351
20464.046064	-758.881167	629.042969	-76.659401
20464.046064	-758.881167	627.817383	56.219589
20464.046064	-758.881167	626.590820	-70.845299
20464.046064	-758.881167	625.365234	-232.353561
20464.046064	-758.881167	624.137695	-60.506058
20464.046064	-758.881167	622.911133	-123.156868
20464.046064	-758.881167	621.683594	-165.116364
20464.046064	-758.881167	620.456055	38.738262
20464.046064	-758.881167	619.228516	-198.476852
20464.046064	-758.881167	618.000977	-93.452225
20464.046064	-758.881167	616.772461	-57.353783
20464.046064	-758.881167	615.543945	-101.606514
20464.046064	-758.881167	614.314453	81.341454
20464.046064	-758.881167	613.085938	140.326721
20464.046064	-758.881167	611.856445	135.058533
20464.046064	-758.881167	610.626953	-3.213245
20464.046064	-758.881167	609.397461	-17.603859
20464.046064	-758.881167	608.166992	94.097824
20464.046064	-758.881167	606.936523	-167.812469
20464.046064	-758.881167	605.706055	-147.754608
20464.046064	-758.881167	604.474609	-118.530136
20464.046064	-758.881167	603.244141	29.807798
20464.046064	-758.881167	602.012695	93.371040
20464.046064	-758.881167	600.780273	-115.520004
20464.046064	-758.881167	599.548828	71.698570
20464.046064	-758.881167	598.316406	-109.585869
20464.046064	-758.881167	597.083984	50.145943
20464.046064	-758.881167	595.851563	143.503418
20464.046064	-758.881167	594.618164	-85.620415
20464.046064	-758.881167	593.384766	-152.267899
20464.046064	-758.881167	592.151367	89.765106
20464.046064	-758.881167	590.917969	-125.376877
20464.046064	-758.881167	589.683594	-166.726456
20464.046064	-758.881167	588.449219	91.264694
20464.046064	-758.881167	587.214844	-123.616310
20464.046064	-758.881167	585.979492	129.774750
20464.046064	-758.881167	584.745117	-7.301761
20464.046064	-758.881167	583.509766	79.424095
20464.046064	-758.881167	582.273438	-30.103262
20464.046064	-758.881167	581.038086	-210.255600
20464.046064	-758.881167	579.801758	-48.104530
20464.046064	-758.881167	578.565430	-123.153908
20464.046064	-758.881167	577.329102	100.594208
20464.046064	-758.881167	576.091797	-19.932463
20464.046064	-758.881167	574.854492	231.171219
20464.046064	-758.881167	573.617188	286.262512
20464.046064	-758.881167	572.378906	136.350281
20464.046064	-758.881167	571.141602	-24.813196
20464.046064	-758.881167	569.903320	183.080032
20464.046064	-758.881167	568.664063	281.665649
20464.046064	-758.881167	567.425781	275.579285
20464.046064	-758.881167	566.186523	-96.839607
20464.046064	-758.881167	564.947266	38.378960
20464.046064	-758.881167	563.708008	34.853737
20464.046064	-758.881167	562.467773	72.346802
20464.046064	-758.881167	561.227539	123.550468
20464.046064	-758.881167	559.987305	145.262100
20464.046064	-758.881167	558.747070	96.591583
20464.046064	-758.881167	557.505859	-76.958664
20464.046064	-758.881167	556.264648	76.814972
20464.046064	-758.881167	555.023438	-32.875237
20464.046064	-758.881167	553.781250	64.227173
20464.046064	-758.881167	552.539063	54.669197
20464.046064	-758.881167	551.296875	104.230370
20464.046064	-758.881167	550.054688	97.128624
20464.046064	-758.881167	548.811523	-27.865761
20464.046064	-758.881167	547.569336	6.091859
20464.046064	-758.881167	546.325195	192.088516
20464.046064	-758.881167	545.082031	-100.347603
20464.046064	-758.881167	543.837891	147.003799
20464.046064	-758.881167	542.593750	176.759949
20464.046064	-758.881167	541.349609	27.582777
20464.046064	-758.881167	540.105469	154.979828
20464.046064	-758.881167	538.860352	92.153191
20464.046064	-758.881167	537.615234	-24.892748
20464.046064	-758.881167	536.369141	-53.483196
20464.046064	-758.881167	535.124023	67.450821
20464.046064	-758.881167	533.877930	57.172375
20464.046064	-758.881167	532.631836	126.200851
20464.046064	-758.881167	531.384766	27.900564
20464.046064	-758.881167	530.138672	332.341431
20464.046064	-758.881167	528.891602	168.678558
20464.046064	-758.881167	527.643555	-17.414989
20464.046064	-758.881167	526.396484	192.230560
20464.046064	-758.881167	525.148438	135.236374
20464.046064	-758.881167	523.900391	-63.962349
20464.046064	-758.881167	522.652344	-222.309326
20464.046064	-758.881167	521.403320	-400.807434
20464.046064	-758.881167	520.154297	-84.649918
20464.046064	-758.881167	518.905273	-12.317885
20464.046064	-758.881167	517.656250	-104.665596
20464.046064	-758.881167	516.406250	105.489571
20464.046064	-758.881167	515.156250	-153.573715
20464.046064	-758.881167	513.906250	207.823166
20464.046064	-758.881167	512.655273	-111.830574
20464.046064	-758.881167	511.404297	-32.204132
20464.046064	-758.881167	510.153320	11.423771
20464.046064	-758.881167	508.902344	-44.023556
20464.046064	-758.881167	507.650391	-49.783630
20464.046064	-758.881167	506.398438	127.008728
20464.046064	-758.881167	505.146484	49.336044
20464.046064	-758.881167	503.893555	109.134468
20464.046064	-758.881167	502.641602	123.973930
20464.046064	-758.881167	501.388672	415.717773
20464.046064	-758.881167	500.134766	297.900970
20464.046064	-758.881167	498.881836	445.672699
20464.046064	-758.881167	497.627930	595.709778
20464.046064	-758.881167	496.374023	687.294678
20464.046064	-758.881167	495.119141	450.681458
20464.046064	-758.881167	493.865234	666.026001
20464.046064	-758.881167	492.610352	571.231628
20464.046064	-758.881167	491.355469	440.595642
20464.046064	-758.881167	490.099609	691.937988
20464.046064	-758.881167	488.843750	577.171814
20464.046064	-758.881167	487.587891	258.188660
20464.046064	-758.881167	486.332031	406.307800
20464.046064	-758.881167	485.075195	653.159302
20464.046064	-758.881167	483.818359	534.203186
20464.046064	-758.881167	482.561523	780.999390
20464.046064	-758.881167	481.304688	798.949463
20464.046064	-758.881167	480.046875	496.260986
20464.046064	-758.881167	478.789063	734.019165
20464.046064	-758.881167	477.531250	433.755768
20464.046064	-758.881167	476.272461	644.563660
20464.046064	-758.881167	475.013672	729.821411
20464.046064	-758.881167	473.754883	705.284729
20464.046064	-758.881167	472.496094	640.441895
20464.046064	-758.881167	471.236328	519.640625
20464.046064	-758.881167	469.976563	909.251831
20464.046064	-758.881167	468.716797	920.443604
20464.046064	-758.881167	467.456055	647.431396
20464.046064	-758.881167	466.196289	965.079895
20464.046064	-758.881167	464.935547	895.617371
20464.046064	-758.881167	463.673828	593.578003
20464.046064	-758.881167	462.413086	951.109497
20464.046064	-758.881167	461.151367	883.743713
20464.046064	-758.881167	459.889648	740.349854
20464.046064	-758.881167	458.626953	952.162842
20464.046064	-758.881167	457.364258	967.224426
20464.046064	-758.881167	456.101563	872.748352
20464.046064	-758.881167	454.838867	999.237061
20464.046064	-758.881167	453.575195	1000.542297
20464.046064	-758.881167	452.312500	1055.275757
20464.046064	-758.881167	451.047852	1016.127686
20464.046064	-758.881167	449.784180	976.842712
20464.046064	-758.881167	448.519531	834.816650
20464.046064	-758.881167	447.254883	935.725586
20464.046064	-758.881167	445.990234	991.817322
20464.046064	-758.881167	444.725586	898.353943
20464.046064	-758.881167	443.459961	1032.013184
20464.046064	-758.881167	442.194336	1082.960571
20464.046064	-758.881167	440.927734	1202.700195
20464.046064	-758.881167	439.662109	1143.988159
20464.046064	-758.881167	438.395508	1125.115845
20464.046064	-758.881167	437.127930	1157.173218
20464.046064	-758.881167	435.861328	1086.559204
20464.046064	-758.881167	434.593750	917.773132
20464.046064	-758.881167	433.326172	988.992676
20464.046064	-758.881167	432.058594	1064.299194
20464.046064	-758.881167	430.790039	912.423706
20464.046064	-758.881167	429.521484	1142.621704
20464.046064	-758.881167	428.252930	1025.621094
20464.046064	-758.881167	426.984375	1170.488403
20464.046064	-758.881167	425.714844	1323.767334
20464.046064	-758.881167	424.445313	1156.710327
20464.046064	-758.881167	423.174805	1240.214478
20464.046064	-758.881167	421.905273	1278.824707
20464.046064	-758.881167	420.634766	1010.619263
20464.046064	-758.881167	419.364258	1019.436279
20464.046064	-758.881167	418.092773	1074.324097
20464.046064	-758.881167	416.822266	1312.778687
20464.046064	-758.881167	415.550781	1089.273804
20464.046064	-758.881167	414.278320	1011.629028
20464.046064	-758.881167	413.006836	953.386414
20464.046064	-758.881167	411.734375	1098.451660
20464.046064	-758.881167	410.461914	1076.633057
20464.046064	-758.881167	409.188477	1063.021851
20464.046064	-758.881167	407.916016	1206.009888
20464.046064	-758.881167	406.642578	1162.217529
20464.046064	-758.881167	405.368164	1204.056396
20464.046064	-758.881167	404.094727	1225.224609
20464.046064	-758.881167	402.820313	1515.587280
20464.046064	-758.881167	401.545898	1333.775635
20464.046064	-758.881167	400.270508	1536.103760
20464.046064	-758.881167	398.996094	1425.693970
20464.046064	-758.881167	397.720703	867.822449
20464.046064	-758.881167	396.444336	1131.618530
20464.046064	-758.881167	395.168945	1319.257080
20464.046064	-758.881167	393.892578	1169.995117
20464.046064	-758.881167	392.616211	1189.931885
20464.046064	-758.881167	391.339844	1330.339600
20464.046064	-758.881167	390.062500	1067.756104
20464.046064	-758.881167	388.785156	1296.546265
20464.046064	-758.881167	387.507813	1171.003296
20464.046064	-758.881167	386.229492	1289.327393
20464.046064	-758.881167	384.951172	1223.340088
20464.046064	-758.881167	383.672852	1160.621460
20464.046064	-758.881167	382.394531	1315.049561
20464.046064	-758.881167	381.115234	1227.828125
20464.046064	-758.881167	379.835938	1106.313110
20464.046064	-758.881167	378.556641	1142.228271
20464.046064	-758.881167	377.277344	1154.763306
20464.046064	-758.881167	375.997070	1196.738525
20464.046064	-758.881167	374.716797	1208.664673
20464.046064	-758.881167	373.435547	1170.676270
20464.046064	-758.881167	372.155273	1100.446899
20464.046064	-758.881167	370.874023	997.897278
20464.046064	-758.881167	369.591797	836.601257
20464.046064	-758.881167	368.310547	915.833313
20464.046064	-758.881167	367.028320	806.417664
20464.046064	-758.881167	365.746094	809.745728
20464.046064	-758.881167	364.463867	910.316406
20464.046064	-758.881167	363.180664	903.561951
20464.046064	-758.881167	361.897461	739.005615
20464.046064	-758.881167	360.614258	647.412231
20464.046064	-758.881167	359.330078	793.396667
20464.046064	-758.881167	358.045898	601.404297
20464.046064	-758.881167	356.761719	532.713928
20464.046064	-758.881167	355.477539	887.946533
20464.046064	-758.881167	354.192383	720.796509
20464.046064	-758.881167	352.907227	678.916809
20464.046064	-758.881167	351.622070	808.253845
20464.046064	-758.881167	350.336914	483.554138
20464.046064	-758.881167	349.050781	674.245483
20464.046064	-758.881167	347.764648	410.977905
20464.046064	-758.881167	346.477539	428.217468
20464.046064	-758.881167	345.191406	248.131897
20464.046064	-758.881167	343.904297	186.167435
20464.046064	-758.881167	342.616211	250.957062
20464.046064	-758.881167	341.329102	135.902832
20464.046064	-758.881167	340.041016	484.648224
20464.046064	-758.881167	338.752930	200.210297
20464.046064	-758.881167	337.463867	46.675407
20464.046064	-758.881167	336.175781	428.844208
20464.046064	-758.881167	334.886719	217.370255
20464.046064	-758.881167	333.596680	171.508209
20464.046064	-758.881167	332.307617	35.419659
20464.046064	-758.881167	331.017578	-68.632317
20464.046064	-758.881167	329.727539	397.033112
20464.046064	-758.881167	328.436523	-32.182369
20464.046064	-758.881167	327.146484	12.058867
20464.046064	-758.881167	325.855469	326.073608
20464.046064	-758.881167	324.563477	-201.914398
20464.046064	-758.881167	323.272461	138.290207
20464.046064	-758.881167	321.980469	-112.254326
20464.046064	-758.881167	320.688477	146.772003
20464.046064	-758.881167	319.395508	-5.875044
20464.046064	-758.881167	318.103516	60.640160
20464.046064	-758.881167	316.810547	-112.094444
20464.046064	-758.881167	315.516602	-151.140152
20464.046064	-758.881167	314.223633	24.237265
20464.046064	-758.881167	312.929688	-301.267578
20464.046064	-758.881167	311.635742	92.957832
20464.046064	-758.881167	310.340820	-168.392136
20464.046064	-758.881167	309.045898	-74.224297
20464.046064	-758.881167	307.750977	18.038576
20464.046064	-758.881167	306.456055	34.307018
20464.046064	-758.881167	305.160156	102.846329
20464.046064	-758.881167	303.865234	84.550873
20464.046064	-758.881167	302.568359	176.965866
20464.046064	-758.881167	301.272461	334.696106
20464.046064	-758.881167	299.975586	146.310074
20464.046064	-758.881167	298.678711	146.970337
