#X		#Y		#Wave		#Intensity
12360.833723	-1216.122000	1999.980469	-9.424559
12360.833723	-1216.122000	1999.016602	187.476089
12360.833723	-1216.122000	1998.052734	128.065948
12360.833723	-1216.122000	1997.087891	294.356079
12360.833723	-1216.122000	1996.123047	148.568100
12360.833723	-1216.122000	1995.158203	-16.816603
12360.833723	-1216.122000	1994.193359	122.663879
12360.833723	-1216.122000	1993.228516	267.205841
12360.833723	-1216.122000	1992.262695	-46.176762
12360.833723	-1216.122000	1991.297852	-223.141449
12360.833723	-1216.122000	1990.332031	109.940437
12360.833723	-1216.122000	1989.366211	316.853882
12360.833723	-1216.122000	1988.399414	-3.126730
12360.833723	-1216.122000	1987.433594	-184.322174
12360.833723	-1216.122000	1986.466797	-189.721649
12360.833723	-1216.122000	1985.500977	-91.128937
12360.833723	-1216.122000	1984.534180	-111.102928
12360.833723	-1216.122000	1983.567383	158.255798
12360.833723	-1216.122000	1982.599609	-264.304749
12360.833723	-1216.122000	1981.632813	306.676270
12360.833723	-1216.122000	1980.665039	-103.147980
12360.833723	-1216.122000	1979.697266	-85.409805
12360.833723	-1216.122000	1978.729492	-20.637234
12360.833723	-1216.122000	1977.761719	130.641693
12360.833723	-1216.122000	1976.792969	-4.365174
12360.833723	-1216.122000	1975.825195	23.682434
12360.833723	-1216.122000	1974.856445	125.859200
12360.833723	-1216.122000	1973.887695	-119.758827
12360.833723	-1216.122000	1972.918945	96.085556
12360.833723	-1216.122000	1971.949219	40.671124
12360.833723	-1216.122000	1970.980469	515.512939
12360.833723	-1216.122000	1970.010742	-121.565170
12360.833723	-1216.122000	1969.041016	220.223358
12360.833723	-1216.122000	1968.071289	125.788162
12360.833723	-1216.122000	1967.101563	147.283020
12360.833723	-1216.122000	1966.130859	245.223694
12360.833723	-1216.122000	1965.161133	124.010887
12360.833723	-1216.122000	1964.190430	-189.151382
12360.833723	-1216.122000	1963.219727	174.956528
12360.833723	-1216.122000	1962.249023	66.377136
12360.833723	-1216.122000	1961.277344	287.712646
12360.833723	-1216.122000	1960.306641	125.169640
12360.833723	-1216.122000	1959.334961	127.599510
12360.833723	-1216.122000	1958.363281	184.211777
12360.833723	-1216.122000	1957.391602	-177.214630
12360.833723	-1216.122000	1956.419922	-98.301109
12360.833723	-1216.122000	1955.447266	-58.687160
12360.833723	-1216.122000	1954.474609	-4.276772
12360.833723	-1216.122000	1953.501953	106.693436
12360.833723	-1216.122000	1952.529297	-138.591263
12360.833723	-1216.122000	1951.556641	36.345432
12360.833723	-1216.122000	1950.583984	-125.219383
12360.833723	-1216.122000	1949.610352	22.745142
12360.833723	-1216.122000	1948.636719	-30.626175
12360.833723	-1216.122000	1947.663086	9.350050
12360.833723	-1216.122000	1946.689453	213.794724
12360.833723	-1216.122000	1945.715820	96.750633
12360.833723	-1216.122000	1944.741211	185.875885
12360.833723	-1216.122000	1943.767578	-34.064114
12360.833723	-1216.122000	1942.792969	62.485344
12360.833723	-1216.122000	1941.818359	279.182281
12360.833723	-1216.122000	1940.842773	-77.834541
12360.833723	-1216.122000	1939.868164	-103.790176
12360.833723	-1216.122000	1938.892578	-129.705765
12360.833723	-1216.122000	1937.916992	72.281700
12360.833723	-1216.122000	1936.941406	288.916321
12360.833723	-1216.122000	1935.965820	-94.581207
12360.833723	-1216.122000	1934.990234	-149.775391
12360.833723	-1216.122000	1934.013672	-45.783054
12360.833723	-1216.122000	1933.037109	23.916977
12360.833723	-1216.122000	1932.060547	74.023941
12360.833723	-1216.122000	1931.083984	-306.546112
12360.833723	-1216.122000	1930.107422	39.658047
12360.833723	-1216.122000	1929.129883	99.552910
12360.833723	-1216.122000	1928.153320	-234.317352
12360.833723	-1216.122000	1927.175781	-37.451794
12360.833723	-1216.122000	1926.198242	-168.251129
12360.833723	-1216.122000	1925.219727	-20.349566
12360.833723	-1216.122000	1924.242188	276.564667
12360.833723	-1216.122000	1923.263672	145.781631
12360.833723	-1216.122000	1922.285156	168.945602
12360.833723	-1216.122000	1921.306641	-247.546768
12360.833723	-1216.122000	1920.328125	115.105484
12360.833723	-1216.122000	1919.349609	-203.577896
12360.833723	-1216.122000	1918.370117	300.495483
12360.833723	-1216.122000	1917.391602	-40.092896
12360.833723	-1216.122000	1916.412109	53.784924
12360.833723	-1216.122000	1915.431641	264.717041
12360.833723	-1216.122000	1914.452148	75.513588
12360.833723	-1216.122000	1913.472656	10.739657
12360.833723	-1216.122000	1912.492188	21.559885
12360.833723	-1216.122000	1911.511719	64.044579
12360.833723	-1216.122000	1910.531250	-161.628189
12360.833723	-1216.122000	1909.550781	14.858313
12360.833723	-1216.122000	1908.569336	144.957748
12360.833723	-1216.122000	1907.588867	121.506042
12360.833723	-1216.122000	1906.607422	76.111320
12360.833723	-1216.122000	1905.625977	176.812866
12360.833723	-1216.122000	1904.644531	29.099382
12360.833723	-1216.122000	1903.662109	-43.128326
12360.833723	-1216.122000	1902.680664	-227.324936
12360.833723	-1216.122000	1901.698242	-134.089645
12360.833723	-1216.122000	1900.715820	550.263550
12360.833723	-1216.122000	1899.733398	-178.924973
12360.833723	-1216.122000	1898.750000	242.442657
12360.833723	-1216.122000	1897.767578	264.836121
12360.833723	-1216.122000	1896.784180	143.743713
12360.833723	-1216.122000	1895.800781	132.025589
12360.833723	-1216.122000	1894.817383	132.412766
12360.833723	-1216.122000	1893.833984	52.569836
12360.833723	-1216.122000	1892.850586	-102.602203
12360.833723	-1216.122000	1891.866211	169.699417
12360.833723	-1216.122000	1890.881836	-24.399252
12360.833723	-1216.122000	1889.897461	148.131699
12360.833723	-1216.122000	1888.913086	133.626892
12360.833723	-1216.122000	1887.927734	-179.448959
12360.833723	-1216.122000	1886.943359	228.209030
12360.833723	-1216.122000	1885.958008	-33.943031
12360.833723	-1216.122000	1884.972656	169.658798
12360.833723	-1216.122000	1883.987305	14.196886
12360.833723	-1216.122000	1883.001953	-117.025337
12360.833723	-1216.122000	1882.015625	185.675323
12360.833723	-1216.122000	1881.029297	-192.892761
12360.833723	-1216.122000	1880.042969	138.652069
12360.833723	-1216.122000	1879.056641	-288.363281
12360.833723	-1216.122000	1878.070313	-121.793442
12360.833723	-1216.122000	1877.083984	-146.696259
12360.833723	-1216.122000	1876.096680	206.097473
12360.833723	-1216.122000	1875.109375	26.043112
12360.833723	-1216.122000	1874.122070	-200.010834
12360.833723	-1216.122000	1873.134766	62.817364
12360.833723	-1216.122000	1872.146484	-71.365898
12360.833723	-1216.122000	1871.159180	-91.874390
12360.833723	-1216.122000	1870.170898	284.228394
12360.833723	-1216.122000	1869.182617	2.316327
12360.833723	-1216.122000	1868.194336	25.081770
12360.833723	-1216.122000	1867.205078	30.830011
12360.833723	-1216.122000	1866.216797	239.519623
12360.833723	-1216.122000	1865.227539	138.727005
12360.833723	-1216.122000	1864.238281	-160.234024
12360.833723	-1216.122000	1863.249023	-207.946457
12360.833723	-1216.122000	1862.259766	77.565331
12360.833723	-1216.122000	1861.269531	-6.575420
12360.833723	-1216.122000	1860.279297	95.121277
12360.833723	-1216.122000	1859.290039	170.137985
12360.833723	-1216.122000	1858.298828	39.894566
12360.833723	-1216.122000	1857.308594	42.317055
12360.833723	-1216.122000	1856.318359	179.739517
12360.833723	-1216.122000	1855.327148	34.810123
12360.833723	-1216.122000	1854.335938	290.154236
12360.833723	-1216.122000	1853.344727	43.796455
12360.833723	-1216.122000	1852.353516	45.728168
12360.833723	-1216.122000	1851.362305	194.581406
12360.833723	-1216.122000	1850.370117	-104.935532
12360.833723	-1216.122000	1849.377930	258.113831
12360.833723	-1216.122000	1848.385742	249.961182
12360.833723	-1216.122000	1847.393555	49.039387
12360.833723	-1216.122000	1846.401367	112.962982
12360.833723	-1216.122000	1845.408203	258.607788
12360.833723	-1216.122000	1844.415039	225.973373
12360.833723	-1216.122000	1843.421875	133.080536
12360.833723	-1216.122000	1842.428711	-46.502995
12360.833723	-1216.122000	1841.435547	115.476036
12360.833723	-1216.122000	1840.441406	68.029739
12360.833723	-1216.122000	1839.448242	78.210075
12360.833723	-1216.122000	1838.454102	263.789856
12360.833723	-1216.122000	1837.459961	425.148346
12360.833723	-1216.122000	1836.464844	206.596115
12360.833723	-1216.122000	1835.470703	-33.610847
12360.833723	-1216.122000	1834.475586	0.043617
12360.833723	-1216.122000	1833.480469	14.355274
12360.833723	-1216.122000	1832.485352	206.266983
12360.833723	-1216.122000	1831.490234	160.278244
12360.833723	-1216.122000	1830.495117	-135.478607
12360.833723	-1216.122000	1829.499023	147.214554
12360.833723	-1216.122000	1828.502930	45.718563
12360.833723	-1216.122000	1827.506836	232.066177
12360.833723	-1216.122000	1826.510742	111.169106
12360.833723	-1216.122000	1825.513672	90.930603
12360.833723	-1216.122000	1824.517578	39.411976
12360.833723	-1216.122000	1823.520508	76.500153
12360.833723	-1216.122000	1822.523438	46.336018
12360.833723	-1216.122000	1821.526367	322.833282
12360.833723	-1216.122000	1820.529297	-222.779831
12360.833723	-1216.122000	1819.531250	185.182510
12360.833723	-1216.122000	1818.533203	15.613688
12360.833723	-1216.122000	1817.535156	128.573944
12360.833723	-1216.122000	1816.537109	-227.923325
12360.833723	-1216.122000	1815.539063	21.252497
12360.833723	-1216.122000	1814.540039	131.386383
12360.833723	-1216.122000	1813.541992	243.755173
12360.833723	-1216.122000	1812.542969	44.921204
12360.833723	-1216.122000	1811.543945	90.034576
12360.833723	-1216.122000	1810.543945	68.036118
12360.833723	-1216.122000	1809.544922	299.395081
12360.833723	-1216.122000	1808.544922	181.489304
12360.833723	-1216.122000	1807.544922	-271.138000
12360.833723	-1216.122000	1806.544922	-109.527985
12360.833723	-1216.122000	1805.544922	-182.262787
12360.833723	-1216.122000	1804.544922	-176.260468
12360.833723	-1216.122000	1803.543945	-103.514534
12360.833723	-1216.122000	1802.542969	-150.320953
12360.833723	-1216.122000	1801.541992	94.050682
12360.833723	-1216.122000	1800.541016	288.074951
12360.833723	-1216.122000	1799.539063	33.197365
12360.833723	-1216.122000	1798.538086	-150.115921
12360.833723	-1216.122000	1797.536133	126.963631
12360.833723	-1216.122000	1796.534180	17.390831
12360.833723	-1216.122000	1795.532227	265.464539
12360.833723	-1216.122000	1794.529297	-144.788208
12360.833723	-1216.122000	1793.527344	-230.784775
12360.833723	-1216.122000	1792.524414	-173.869614
12360.833723	-1216.122000	1791.521484	-219.575546
12360.833723	-1216.122000	1790.518555	-310.658295
12360.833723	-1216.122000	1789.514648	-49.280838
12360.833723	-1216.122000	1788.511719	-166.810440
12360.833723	-1216.122000	1787.507813	101.335052
12360.833723	-1216.122000	1786.503906	-49.771019
12360.833723	-1216.122000	1785.500000	198.955475
12360.833723	-1216.122000	1784.496094	-330.766510
12360.833723	-1216.122000	1783.491211	-32.370098
12360.833723	-1216.122000	1782.486328	-212.394684
12360.833723	-1216.122000	1781.481445	-52.340042
12360.833723	-1216.122000	1780.476563	-175.465729
12360.833723	-1216.122000	1779.471680	117.417946
12360.833723	-1216.122000	1778.465820	-146.206573
12360.833723	-1216.122000	1777.460938	-195.940201
12360.833723	-1216.122000	1776.455078	-17.662182
12360.833723	-1216.122000	1775.449219	-34.397362
12360.833723	-1216.122000	1774.442383	10.502301
12360.833723	-1216.122000	1773.436523	214.391937
12360.833723	-1216.122000	1772.429688	-111.442528
12360.833723	-1216.122000	1771.422852	30.412056
12360.833723	-1216.122000	1770.416016	55.784184
12360.833723	-1216.122000	1769.409180	52.545322
12360.833723	-1216.122000	1768.402344	18.340384
12360.833723	-1216.122000	1767.394531	109.744438
12360.833723	-1216.122000	1766.386719	61.058006
12360.833723	-1216.122000	1765.378906	-70.730209
12360.833723	-1216.122000	1764.371094	15.534520
12360.833723	-1216.122000	1763.362305	-26.369999
12360.833723	-1216.122000	1762.354492	-305.365295
12360.833723	-1216.122000	1761.345703	-86.783051
12360.833723	-1216.122000	1760.336914	77.105751
12360.833723	-1216.122000	1759.328125	-55.264793
12360.833723	-1216.122000	1758.318359	-145.088074
12360.833723	-1216.122000	1757.308594	15.984396
12360.833723	-1216.122000	1756.299805	30.119944
12360.833723	-1216.122000	1755.290039	323.405609
12360.833723	-1216.122000	1754.279297	-36.670128
12360.833723	-1216.122000	1753.269531	19.690105
12360.833723	-1216.122000	1752.258789	-66.026894
12360.833723	-1216.122000	1751.249023	-151.814346
12360.833723	-1216.122000	1750.238281	166.646164
12360.833723	-1216.122000	1749.226563	-89.625481
12360.833723	-1216.122000	1748.215820	48.835140
12360.833723	-1216.122000	1747.204102	-70.474411
12360.833723	-1216.122000	1746.193359	174.027954
12360.833723	-1216.122000	1745.181641	-49.426247
12360.833723	-1216.122000	1744.168945	142.768845
12360.833723	-1216.122000	1743.157227	67.951797
12360.833723	-1216.122000	1742.144531	205.527420
12360.833723	-1216.122000	1741.132813	106.903061
12360.833723	-1216.122000	1740.120117	230.041748
12360.833723	-1216.122000	1739.106445	107.607971
12360.833723	-1216.122000	1738.093750	67.701134
12360.833723	-1216.122000	1737.080078	162.133301
12360.833723	-1216.122000	1736.067383	-24.194960
12360.833723	-1216.122000	1735.053711	-12.516843
12360.833723	-1216.122000	1734.040039	-99.955833
12360.833723	-1216.122000	1733.025391	239.122528
12360.833723	-1216.122000	1732.011719	68.984840
12360.833723	-1216.122000	1730.997070	-49.372334
12360.833723	-1216.122000	1729.982422	48.925987
12360.833723	-1216.122000	1728.967773	-53.099823
12360.833723	-1216.122000	1727.952148	-65.723923
12360.833723	-1216.122000	1726.937500	-116.094749
12360.833723	-1216.122000	1725.921875	5.265821
12360.833723	-1216.122000	1724.906250	107.653198
12360.833723	-1216.122000	1723.890625	146.378815
12360.833723	-1216.122000	1722.875000	187.345917
12360.833723	-1216.122000	1721.858398	-119.907600
12360.833723	-1216.122000	1720.841797	118.417961
12360.833723	-1216.122000	1719.825195	83.831352
12360.833723	-1216.122000	1718.808594	-80.117668
12360.833723	-1216.122000	1717.791992	301.144104
12360.833723	-1216.122000	1716.774414	141.718689
12360.833723	-1216.122000	1715.756836	-78.820351
12360.833723	-1216.122000	1714.739258	384.145172
12360.833723	-1216.122000	1713.721680	208.086945
12360.833723	-1216.122000	1712.704102	163.494217
12360.833723	-1216.122000	1711.685547	299.568268
12360.833723	-1216.122000	1710.667969	351.030609
12360.833723	-1216.122000	1709.649414	395.331512
12360.833723	-1216.122000	1708.630859	491.146790
12360.833723	-1216.122000	1707.611328	612.628540
12360.833723	-1216.122000	1706.592773	429.120087
12360.833723	-1216.122000	1705.573242	639.504700
12360.833723	-1216.122000	1704.553711	336.323700
12360.833723	-1216.122000	1703.534180	380.074280
12360.833723	-1216.122000	1702.513672	477.611420
12360.833723	-1216.122000	1701.494141	401.671692
12360.833723	-1216.122000	1700.473633	618.483459
12360.833723	-1216.122000	1699.453125	420.590393
12360.833723	-1216.122000	1698.432617	702.731873
12360.833723	-1216.122000	1697.412109	457.928558
12360.833723	-1216.122000	1696.390625	674.255859
12360.833723	-1216.122000	1695.369141	747.669739
12360.833723	-1216.122000	1694.347656	753.132324
12360.833723	-1216.122000	1693.326172	709.398682
12360.833723	-1216.122000	1692.304688	637.548035
12360.833723	-1216.122000	1691.282227	490.807892
12360.833723	-1216.122000	1690.260742	526.445496
12360.833723	-1216.122000	1689.238281	456.795410
12360.833723	-1216.122000	1688.214844	606.782471
12360.833723	-1216.122000	1687.192383	866.492676
12360.833723	-1216.122000	1686.168945	642.424377
12360.833723	-1216.122000	1685.146484	694.025024
12360.833723	-1216.122000	1684.123047	878.642395
12360.833723	-1216.122000	1683.099609	645.188354
12360.833723	-1216.122000	1682.075195	719.893982
12360.833723	-1216.122000	1681.051758	647.496094
12360.833723	-1216.122000	1680.027344	939.084412
12360.833723	-1216.122000	1679.002930	976.201904
12360.833723	-1216.122000	1677.978516	915.283264
12360.833723	-1216.122000	1676.953125	1089.871948
12360.833723	-1216.122000	1675.928711	739.722778
12360.833723	-1216.122000	1674.903320	951.481750
12360.833723	-1216.122000	1673.877930	1076.873657
12360.833723	-1216.122000	1672.852539	1237.128296
12360.833723	-1216.122000	1671.826172	994.177490
12360.833723	-1216.122000	1670.800781	1023.848816
12360.833723	-1216.122000	1669.774414	1174.557373
12360.833723	-1216.122000	1668.748047	1225.039917
12360.833723	-1216.122000	1667.721680	1475.684448
12360.833723	-1216.122000	1666.694336	1351.416870
12360.833723	-1216.122000	1665.667969	1387.760254
12360.833723	-1216.122000	1664.640625	1312.350342
12360.833723	-1216.122000	1663.613281	1311.379028
12360.833723	-1216.122000	1662.585938	1401.085938
12360.833723	-1216.122000	1661.557617	1169.797119
12360.833723	-1216.122000	1660.530273	1596.559570
12360.833723	-1216.122000	1659.501953	1539.604248
12360.833723	-1216.122000	1658.473633	1705.758179
12360.833723	-1216.122000	1657.444336	1744.001587
12360.833723	-1216.122000	1656.416016	1703.235229
12360.833723	-1216.122000	1655.386719	1732.125488
12360.833723	-1216.122000	1654.358398	2014.133545
12360.833723	-1216.122000	1653.328125	1696.936279
12360.833723	-1216.122000	1652.298828	2008.958984
12360.833723	-1216.122000	1651.269531	2056.256348
12360.833723	-1216.122000	1650.239258	2068.693604
12360.833723	-1216.122000	1649.208984	2125.189453
12360.833723	-1216.122000	1648.178711	2151.495361
12360.833723	-1216.122000	1647.148438	2089.651367
12360.833723	-1216.122000	1646.117188	2132.142334
12360.833723	-1216.122000	1645.086914	2392.540283
12360.833723	-1216.122000	1644.055664	2599.502197
12360.833723	-1216.122000	1643.024414	2593.179199
12360.833723	-1216.122000	1641.992188	2468.670898
12360.833723	-1216.122000	1640.960938	2687.061523
12360.833723	-1216.122000	1639.928711	2794.177734
12360.833723	-1216.122000	1638.896484	2989.241211
12360.833723	-1216.122000	1637.864258	2621.655518
12360.833723	-1216.122000	1636.832031	2994.906250
12360.833723	-1216.122000	1635.798828	3162.030518
12360.833723	-1216.122000	1634.766602	2884.868652
12360.833723	-1216.122000	1633.733398	3038.079346
12360.833723	-1216.122000	1632.699219	3029.314209
12360.833723	-1216.122000	1631.666016	3194.012939
12360.833723	-1216.122000	1630.632813	3562.109375
12360.833723	-1216.122000	1629.598633	3368.353027
12360.833723	-1216.122000	1628.564453	3391.926758
12360.833723	-1216.122000	1627.530273	3251.448975
12360.833723	-1216.122000	1626.495117	3563.816406
12360.833723	-1216.122000	1625.460938	3171.630371
12360.833723	-1216.122000	1624.425781	3495.469727
12360.833723	-1216.122000	1623.390625	3606.790527
12360.833723	-1216.122000	1622.355469	3191.777588
12360.833723	-1216.122000	1621.319336	3464.693115
12360.833723	-1216.122000	1620.284180	3802.153320
12360.833723	-1216.122000	1619.248047	3373.550781
12360.833723	-1216.122000	1618.211914	3710.928223
12360.833723	-1216.122000	1617.174805	3501.628418
12360.833723	-1216.122000	1616.138672	3407.740479
12360.833723	-1216.122000	1615.101563	3668.908203
12360.833723	-1216.122000	1614.065430	3469.064453
12360.833723	-1216.122000	1613.027344	3861.508789
12360.833723	-1216.122000	1611.990234	3795.380127
12360.833723	-1216.122000	1610.953125	4077.130127
12360.833723	-1216.122000	1609.915039	3960.372314
12360.833723	-1216.122000	1608.876953	4055.531006
12360.833723	-1216.122000	1607.838867	3821.490479
12360.833723	-1216.122000	1606.800781	3900.607178
12360.833723	-1216.122000	1605.761719	4253.559570
12360.833723	-1216.122000	1604.723633	4178.497070
12360.833723	-1216.122000	1603.684570	3781.447021
12360.833723	-1216.122000	1602.644531	4122.833008
12360.833723	-1216.122000	1601.605469	4415.863281
12360.833723	-1216.122000	1600.566406	4506.520508
12360.833723	-1216.122000	1599.526367	4270.785645
12360.833723	-1216.122000	1598.486328	4290.277344
12360.833723	-1216.122000	1597.446289	4360.364258
12360.833723	-1216.122000	1596.405273	4701.524414
12360.833723	-1216.122000	1595.365234	4427.104492
12360.833723	-1216.122000	1594.324219	4221.719238
12360.833723	-1216.122000	1593.283203	4349.364258
12360.833723	-1216.122000	1592.242188	4385.205078
12360.833723	-1216.122000	1591.200195	4682.697754
12360.833723	-1216.122000	1590.159180	4739.231934
12360.833723	-1216.122000	1589.117188	4965.548340
12360.833723	-1216.122000	1588.075195	4902.850586
12360.833723	-1216.122000	1587.032227	4753.087891
12360.833723	-1216.122000	1585.990234	4663.076660
12360.833723	-1216.122000	1584.947266	4699.225586
12360.833723	-1216.122000	1583.904297	4675.844238
12360.833723	-1216.122000	1582.861328	4721.281738
12360.833723	-1216.122000	1581.818359	4446.052246
12360.833723	-1216.122000	1580.775391	4546.633789
12360.833723	-1216.122000	1579.731445	4335.796875
12360.833723	-1216.122000	1578.687500	4257.912109
12360.833723	-1216.122000	1577.643555	4164.111816
12360.833723	-1216.122000	1576.598633	3946.824707
12360.833723	-1216.122000	1575.554688	4072.947266
12360.833723	-1216.122000	1574.509766	3958.872314
12360.833723	-1216.122000	1573.464844	3982.162354
12360.833723	-1216.122000	1572.419922	3664.789307
12360.833723	-1216.122000	1571.374023	3763.732178
12360.833723	-1216.122000	1570.329102	3359.829102
12360.833723	-1216.122000	1569.283203	3340.121826
12360.833723	-1216.122000	1568.237305	3277.095947
12360.833723	-1216.122000	1567.191406	3029.131592
12360.833723	-1216.122000	1566.144531	3242.739990
12360.833723	-1216.122000	1565.098633	3004.197021
12360.833723	-1216.122000	1564.051758	2985.020264
12360.833723	-1216.122000	1563.004883	3080.087402
12360.833723	-1216.122000	1561.957031	3106.726563
12360.833723	-1216.122000	1560.910156	3014.806641
12360.833723	-1216.122000	1559.862305	3023.392822
12360.833723	-1216.122000	1558.814453	3075.415039
12360.833723	-1216.122000	1557.766602	2851.567627
12360.833723	-1216.122000	1556.718750	2538.986572
12360.833723	-1216.122000	1555.669922	2593.643066
12360.833723	-1216.122000	1554.621094	2641.546875
12360.833723	-1216.122000	1553.573242	2375.078369
12360.833723	-1216.122000	1552.523438	2749.004639
12360.833723	-1216.122000	1551.474609	2398.539063
12360.833723	-1216.122000	1550.424805	2492.406982
12360.833723	-1216.122000	1549.375000	2800.382813
12360.833723	-1216.122000	1548.325195	2468.643555
12360.833723	-1216.122000	1547.275391	2501.319336
12360.833723	-1216.122000	1546.225586	2677.463379
12360.833723	-1216.122000	1545.174805	2728.501221
12360.833723	-1216.122000	1544.124023	2117.683838
12360.833723	-1216.122000	1543.073242	2423.765625
12360.833723	-1216.122000	1542.022461	2027.224487
12360.833723	-1216.122000	1540.970703	2001.511475
12360.833723	-1216.122000	1539.919922	1860.020142
12360.833723	-1216.122000	1538.868164	1718.691040
12360.833723	-1216.122000	1537.815430	1845.630737
12360.833723	-1216.122000	1536.763672	1968.111450
12360.833723	-1216.122000	1535.710938	1702.288818
12360.833723	-1216.122000	1534.659180	1863.600464
12360.833723	-1216.122000	1533.606445	1582.259277
12360.833723	-1216.122000	1532.552734	1641.618164
12360.833723	-1216.122000	1531.500000	1378.842285
12360.833723	-1216.122000	1530.446289	934.774353
12360.833723	-1216.122000	1529.393555	1625.258667
12360.833723	-1216.122000	1528.338867	1326.718750
12360.833723	-1216.122000	1527.285156	1350.435913
12360.833723	-1216.122000	1526.231445	1387.879883
12360.833723	-1216.122000	1525.176758	1074.095459
12360.833723	-1216.122000	1524.122070	955.463562
12360.833723	-1216.122000	1523.067383	961.633484
12360.833723	-1216.122000	1522.012695	834.281799
12360.833723	-1216.122000	1520.957031	650.484863
12360.833723	-1216.122000	1519.901367	1089.619141
12360.833723	-1216.122000	1518.845703	869.898499
12360.833723	-1216.122000	1517.790039	383.303955
12360.833723	-1216.122000	1516.734375	134.668350
12360.833723	-1216.122000	1515.677734	562.793213
12360.833723	-1216.122000	1514.621094	613.105286
12360.833723	-1216.122000	1513.564453	428.316101
12360.833723	-1216.122000	1512.507813	431.432281
12360.833723	-1216.122000	1511.450195	120.423828
12360.833723	-1216.122000	1510.393555	164.577423
12360.833723	-1216.122000	1509.335938	-1.327582
12360.833723	-1216.122000	1508.278320	339.113129
12360.833723	-1216.122000	1507.219727	516.903320
12360.833723	-1216.122000	1506.162109	254.350006
12360.833723	-1216.122000	1505.103516	172.694519
12360.833723	-1216.122000	1504.044922	280.869904
12360.833723	-1216.122000	1502.986328	197.284897
12360.833723	-1216.122000	1501.926758	-64.415421
12360.833723	-1216.122000	1500.868164	285.629120
12360.833723	-1216.122000	1499.808594	107.790215
12360.833723	-1216.122000	1498.749023	245.941467
12360.833723	-1216.122000	1497.688477	3.083940
12360.833723	-1216.122000	1496.628906	17.508249
12360.833723	-1216.122000	1495.568359	-265.471405
12360.833723	-1216.122000	1494.507813	-162.802353
12360.833723	-1216.122000	1493.447266	25.603796
12360.833723	-1216.122000	1492.386719	-126.078674
12360.833723	-1216.122000	1491.325195	-117.635017
12360.833723	-1216.122000	1490.263672	-30.218256
12360.833723	-1216.122000	1489.202148	-3.468581
12360.833723	-1216.122000	1488.140625	-59.856285
12360.833723	-1216.122000	1487.079102	-244.345810
12360.833723	-1216.122000	1486.016602	-410.606506
12360.833723	-1216.122000	1484.954102	-464.155426
12360.833723	-1216.122000	1483.891602	283.197205
12360.833723	-1216.122000	1482.829102	148.895096
12360.833723	-1216.122000	1481.765625	163.183563
12360.833723	-1216.122000	1480.702148	231.566330
12360.833723	-1216.122000	1479.638672	160.766357
12360.833723	-1216.122000	1478.575195	206.983170
12360.833723	-1216.122000	1477.511719	278.041260
12360.833723	-1216.122000	1476.447266	-99.932465
12360.833723	-1216.122000	1475.382813	191.531647
12360.833723	-1216.122000	1474.318359	245.086197
12360.833723	-1216.122000	1473.253906	-44.790047
12360.833723	-1216.122000	1472.189453	549.834778
12360.833723	-1216.122000	1471.124023	370.652710
12360.833723	-1216.122000	1470.058594	476.072052
12360.833723	-1216.122000	1468.993164	530.323425
12360.833723	-1216.122000	1467.927734	878.139526
12360.833723	-1216.122000	1466.861328	869.945251
12360.833723	-1216.122000	1465.794922	1105.872925
12360.833723	-1216.122000	1464.728516	1281.295776
12360.833723	-1216.122000	1463.662109	1051.532227
12360.833723	-1216.122000	1462.594727	990.412109
12360.833723	-1216.122000	1461.528320	1050.746948
12360.833723	-1216.122000	1460.460938	1396.468018
12360.833723	-1216.122000	1459.393555	1927.190918
12360.833723	-1216.122000	1458.326172	1453.130371
12360.833723	-1216.122000	1457.257813	1486.214966
12360.833723	-1216.122000	1456.189453	1453.338867
12360.833723	-1216.122000	1455.121094	1753.988525
12360.833723	-1216.122000	1454.052734	1592.351440
12360.833723	-1216.122000	1452.984375	1818.136597
12360.833723	-1216.122000	1451.915039	1656.985962
12360.833723	-1216.122000	1450.845703	1873.960815
12360.833723	-1216.122000	1449.776367	1813.627686
12360.833723	-1216.122000	1448.707031	1824.345947
12360.833723	-1216.122000	1447.636719	1896.779541
12360.833723	-1216.122000	1446.567383	1765.582764
12360.833723	-1216.122000	1445.497070	1720.869141
12360.833723	-1216.122000	1444.425781	2121.294922
12360.833723	-1216.122000	1443.355469	2010.365601
12360.833723	-1216.122000	1442.285156	1870.633789
12360.833723	-1216.122000	1441.213867	1889.592407
12360.833723	-1216.122000	1440.142578	1575.801392
12360.833723	-1216.122000	1439.070313	1695.542969
12360.833723	-1216.122000	1437.999023	1916.068726
12360.833723	-1216.122000	1436.926758	1791.482422
12360.833723	-1216.122000	1435.854492	1823.382324
12360.833723	-1216.122000	1434.782227	1360.022095
12360.833723	-1216.122000	1433.709961	1445.048096
12360.833723	-1216.122000	1432.636719	1523.282471
12360.833723	-1216.122000	1431.563477	1524.746582
12360.833723	-1216.122000	1430.490234	1014.215637
12360.833723	-1216.122000	1429.416992	1018.472412
12360.833723	-1216.122000	1428.343750	899.819397
12360.833723	-1216.122000	1427.269531	1065.351074
12360.833723	-1216.122000	1426.195313	1169.244141
12360.833723	-1216.122000	1425.121094	648.804932
12360.833723	-1216.122000	1424.046875	795.564331
12360.833723	-1216.122000	1422.971680	1163.203369
12360.833723	-1216.122000	1421.896484	809.864746
12360.833723	-1216.122000	1420.821289	490.272858
12360.833723	-1216.122000	1419.746094	519.079590
12360.833723	-1216.122000	1418.669922	801.323853
12360.833723	-1216.122000	1417.594727	884.290100
12360.833723	-1216.122000	1416.518555	1044.781250
12360.833723	-1216.122000	1415.442383	1216.573853
12360.833723	-1216.122000	1414.365234	732.566895
12360.833723	-1216.122000	1413.289063	817.777893
12360.833723	-1216.122000	1412.211914	828.499146
12360.833723	-1216.122000	1411.134766	805.934509
12360.833723	-1216.122000	1410.057617	916.585327
12360.833723	-1216.122000	1408.979492	791.159790
12360.833723	-1216.122000	1407.902344	1127.500000
12360.833723	-1216.122000	1406.824219	805.706482
12360.833723	-1216.122000	1405.746094	1015.650085
12360.833723	-1216.122000	1404.666992	1047.201660
12360.833723	-1216.122000	1403.588867	1120.772217
12360.833723	-1216.122000	1402.509766	1150.713623
12360.833723	-1216.122000	1401.430664	895.644043
12360.833723	-1216.122000	1400.351563	1282.879272
12360.833723	-1216.122000	1399.271484	1034.734253
12360.833723	-1216.122000	1398.192383	897.880188
12360.833723	-1216.122000	1397.112305	1041.830444
12360.833723	-1216.122000	1396.031250	1175.393188
12360.833723	-1216.122000	1394.951172	945.036072
12360.833723	-1216.122000	1393.871094	956.316101
12360.833723	-1216.122000	1392.790039	812.857605
12360.833723	-1216.122000	1391.708984	709.804749
12360.833723	-1216.122000	1390.626953	1178.672607
12360.833723	-1216.122000	1389.545898	1146.198608
12360.833723	-1216.122000	1388.463867	1076.193115
12360.833723	-1216.122000	1387.381836	966.016418
12360.833723	-1216.122000	1386.299805	955.917847
12360.833723	-1216.122000	1385.217773	1003.982544
12360.833723	-1216.122000	1384.134766	1072.835815
12360.833723	-1216.122000	1383.051758	1218.767090
12360.833723	-1216.122000	1381.968750	1181.019653
12360.833723	-1216.122000	1380.885742	1099.942505
12360.833723	-1216.122000	1379.802734	1094.157837
12360.833723	-1216.122000	1378.718750	1140.756348
12360.833723	-1216.122000	1377.634766	1205.497314
12360.833723	-1216.122000	1376.550781	1123.081421
12360.833723	-1216.122000	1375.465820	1133.197021
12360.833723	-1216.122000	1374.381836	991.339600
12360.833723	-1216.122000	1373.296875	999.395142
12360.833723	-1216.122000	1372.211914	935.093140
12360.833723	-1216.122000	1371.126953	868.120300
12360.833723	-1216.122000	1370.041016	529.693237
12360.833723	-1216.122000	1368.955078	757.035095
12360.833723	-1216.122000	1367.869141	924.318909
12360.833723	-1216.122000	1366.783203	652.688171
12360.833723	-1216.122000	1365.697266	824.091248
12360.833723	-1216.122000	1364.610352	801.151550
12360.833723	-1216.122000	1363.523438	593.831909
12360.833723	-1216.122000	1362.436523	992.518005
12360.833723	-1216.122000	1361.349609	922.529297
12360.833723	-1216.122000	1360.261719	559.454407
12360.833723	-1216.122000	1359.174805	587.769348
12360.833723	-1216.122000	1358.086914	588.221008
12360.833723	-1216.122000	1356.998047	516.049011
12360.833723	-1216.122000	1355.910156	598.900391
12360.833723	-1216.122000	1354.821289	534.809937
12360.833723	-1216.122000	1353.732422	701.360229
12360.833723	-1216.122000	1352.643555	633.665649
12360.833723	-1216.122000	1351.554688	567.699585
12360.833723	-1216.122000	1350.464844	560.262817
12360.833723	-1216.122000	1349.375000	414.037109
12360.833723	-1216.122000	1348.285156	727.966736
12360.833723	-1216.122000	1347.195313	617.384583
12360.833723	-1216.122000	1346.105469	853.775940
12360.833723	-1216.122000	1345.014648	717.281738
12360.833723	-1216.122000	1343.923828	675.456299
12360.833723	-1216.122000	1342.833008	671.314148
12360.833723	-1216.122000	1341.741211	873.242615
12360.833723	-1216.122000	1340.650391	459.651337
12360.833723	-1216.122000	1339.558594	662.064148
12360.833723	-1216.122000	1338.466797	868.310303
12360.833723	-1216.122000	1337.374023	819.820435
12360.833723	-1216.122000	1336.282227	529.331421
12360.833723	-1216.122000	1335.189453	586.748840
12360.833723	-1216.122000	1334.096680	749.024414
12360.833723	-1216.122000	1333.003906	780.397278
12360.833723	-1216.122000	1331.910156	797.530945
12360.833723	-1216.122000	1330.817383	535.524597
12360.833723	-1216.122000	1329.723633	386.271027
12360.833723	-1216.122000	1328.629883	625.783997
12360.833723	-1216.122000	1327.535156	656.799683
12360.833723	-1216.122000	1326.441406	839.633240
12360.833723	-1216.122000	1325.346680	693.531799
12360.833723	-1216.122000	1324.251953	343.160980
12360.833723	-1216.122000	1323.156250	967.319824
12360.833723	-1216.122000	1322.061523	610.465332
12360.833723	-1216.122000	1320.965820	892.146057
12360.833723	-1216.122000	1319.870117	745.455078
12360.833723	-1216.122000	1318.774414	707.228943
12360.833723	-1216.122000	1317.678711	755.407959
12360.833723	-1216.122000	1316.582031	619.568848
12360.833723	-1216.122000	1315.485352	1058.692993
12360.833723	-1216.122000	1314.388672	919.568237
12360.833723	-1216.122000	1313.291016	760.074341
12360.833723	-1216.122000	1312.194336	823.246948
12360.833723	-1216.122000	1311.096680	872.489380
12360.833723	-1216.122000	1309.999023	859.341309
12360.833723	-1216.122000	1308.901367	795.695923
12360.833723	-1216.122000	1307.802734	860.257568
12360.833723	-1216.122000	1306.705078	959.242737
12360.833723	-1216.122000	1305.606445	884.133728
12360.833723	-1216.122000	1304.506836	887.566040
12360.833723	-1216.122000	1303.408203	965.619202
12360.833723	-1216.122000	1302.308594	863.601868
12360.833723	-1216.122000	1301.208984	764.463257
12360.833723	-1216.122000	1300.109375	878.530212
12360.833723	-1216.122000	1299.009766	830.508423
12360.833723	-1216.122000	1297.909180	964.387878
12360.833723	-1216.122000	1296.808594	895.277710
12360.833723	-1216.122000	1295.708008	809.049561
12360.833723	-1216.122000	1294.607422	786.344788
12360.833723	-1216.122000	1293.506836	756.046753
12360.833723	-1216.122000	1292.405273	781.280579
12360.833723	-1216.122000	1291.303711	632.020203
12360.833723	-1216.122000	1290.202148	744.815063
12360.833723	-1216.122000	1289.099609	487.116577
12360.833723	-1216.122000	1287.998047	520.117676
12360.833723	-1216.122000	1286.895508	443.177521
12360.833723	-1216.122000	1285.792969	598.535522
12360.833723	-1216.122000	1284.689453	542.014282
12360.833723	-1216.122000	1283.586914	603.173462
12360.833723	-1216.122000	1282.483398	408.150116
12360.833723	-1216.122000	1281.379883	425.068054
12360.833723	-1216.122000	1280.276367	361.197449
12360.833723	-1216.122000	1279.171875	470.052612
12360.833723	-1216.122000	1278.067383	442.157654
12360.833723	-1216.122000	1276.962891	265.536621
12360.833723	-1216.122000	1275.858398	300.242889
12360.833723	-1216.122000	1274.753906	299.427460
12360.833723	-1216.122000	1273.648438	176.450531
12360.833723	-1216.122000	1272.542969	467.589935
12360.833723	-1216.122000	1271.437500	428.928314
12360.833723	-1216.122000	1270.331055	127.286896
12360.833723	-1216.122000	1269.225586	142.880615
12360.833723	-1216.122000	1268.119141	378.245850
12360.833723	-1216.122000	1267.012695	358.236420
12360.833723	-1216.122000	1265.906250	157.741669
12360.833723	-1216.122000	1264.798828	-5.797950
12360.833723	-1216.122000	1263.691406	150.727234
12360.833723	-1216.122000	1262.583984	419.372498
12360.833723	-1216.122000	1261.476563	342.962738
12360.833723	-1216.122000	1260.368164	449.122101
12360.833723	-1216.122000	1259.260742	315.694031
12360.833723	-1216.122000	1258.152344	346.596130
12360.833723	-1216.122000	1257.043945	355.727020
12360.833723	-1216.122000	1255.934570	309.457031
12360.833723	-1216.122000	1254.825195	324.544098
12360.833723	-1216.122000	1253.716797	292.611298
12360.833723	-1216.122000	1252.606445	243.942337
12360.833723	-1216.122000	1251.497070	388.502869
12360.833723	-1216.122000	1250.387695	489.639801
12360.833723	-1216.122000	1249.277344	369.649414
12360.833723	-1216.122000	1248.166992	336.820770
12360.833723	-1216.122000	1247.055664	268.954041
12360.833723	-1216.122000	1245.945313	317.364960
12360.833723	-1216.122000	1244.833984	327.393433
12360.833723	-1216.122000	1243.722656	269.523834
12360.833723	-1216.122000	1242.611328	128.911133
12360.833723	-1216.122000	1241.499023	227.837936
12360.833723	-1216.122000	1240.387695	249.145401
12360.833723	-1216.122000	1239.275391	328.976166
12360.833723	-1216.122000	1238.162109	100.428551
12360.833723	-1216.122000	1237.049805	145.462891
12360.833723	-1216.122000	1235.936523	184.298004
12360.833723	-1216.122000	1234.823242	-3.335614
12360.833723	-1216.122000	1233.709961	-33.730217
12360.833723	-1216.122000	1232.596680	244.786789
12360.833723	-1216.122000	1231.482422	302.556580
12360.833723	-1216.122000	1230.369141	128.354034
12360.833723	-1216.122000	1229.253906	-101.423767
12360.833723	-1216.122000	1228.139648	82.950600
12360.833723	-1216.122000	1227.025391	190.111298
12360.833723	-1216.122000	1225.910156	66.137772
12360.833723	-1216.122000	1224.794922	-11.649523
12360.833723	-1216.122000	1223.679688	-13.175599
12360.833723	-1216.122000	1222.563477	-12.956758
12360.833723	-1216.122000	1221.447266	1.757220
12360.833723	-1216.122000	1220.331055	1.603824
12360.833723	-1216.122000	1219.214844	-144.884918
12360.833723	-1216.122000	1218.098633	-2.966013
12360.833723	-1216.122000	1216.981445	-31.868738
12360.833723	-1216.122000	1215.864258	-6.194308
12360.833723	-1216.122000	1214.747070	-90.402855
12360.833723	-1216.122000	1213.629883	-116.610748
12360.833723	-1216.122000	1212.511719	-18.027792
12360.833723	-1216.122000	1211.393555	-78.655479
12360.833723	-1216.122000	1210.275391	128.928909
12360.833723	-1216.122000	1209.157227	223.355103
12360.833723	-1216.122000	1208.038086	122.258926
12360.833723	-1216.122000	1206.918945	43.980827
12360.833723	-1216.122000	1205.799805	5.793148
12360.833723	-1216.122000	1204.680664	-51.332539
12360.833723	-1216.122000	1203.560547	-171.598404
12360.833723	-1216.122000	1202.441406	-77.906075
12360.833723	-1216.122000	1201.321289	45.723957
12360.833723	-1216.122000	1200.200195	-2.553211
12360.833723	-1216.122000	1199.080078	213.566101
12360.833723	-1216.122000	1197.958984	49.703808
12360.833723	-1216.122000	1196.837891	65.339378
12360.833723	-1216.122000	1195.716797	178.518661
12360.833723	-1216.122000	1194.594727	10.326377
12360.833723	-1216.122000	1193.473633	195.967010
12360.833723	-1216.122000	1192.351563	-5.896858
12360.833723	-1216.122000	1191.229492	74.224243
12360.833723	-1216.122000	1190.106445	3.073071
12360.833723	-1216.122000	1188.984375	93.293983
12360.833723	-1216.122000	1187.861328	97.791397
12360.833723	-1216.122000	1186.738281	118.373375
12360.833723	-1216.122000	1185.614258	-56.705761
12360.833723	-1216.122000	1184.491211	-80.543434
12360.833723	-1216.122000	1183.367188	80.215599
12360.833723	-1216.122000	1182.243164	-41.319584
12360.833723	-1216.122000	1181.119141	-13.524883
12360.833723	-1216.122000	1179.994141	-184.468445
12360.833723	-1216.122000	1178.869141	-120.513695
12360.833723	-1216.122000	1177.744141	65.631493
12360.833723	-1216.122000	1176.619141	-123.022041
12360.833723	-1216.122000	1175.493164	-55.687145
12360.833723	-1216.122000	1174.368164	-92.458275
12360.833723	-1216.122000	1173.242188	-284.373596
12360.833723	-1216.122000	1172.115234	73.938904
12360.833723	-1216.122000	1170.989258	-42.081608
12360.833723	-1216.122000	1169.862305	-20.688492
12360.833723	-1216.122000	1168.735352	24.640194
12360.833723	-1216.122000	1167.608398	-134.871719
12360.833723	-1216.122000	1166.481445	-143.324600
12360.833723	-1216.122000	1165.353516	18.806545
12360.833723	-1216.122000	1164.225586	-73.440453
12360.833723	-1216.122000	1163.097656	-1.058505
12360.833723	-1216.122000	1161.968750	21.572922
12360.833723	-1216.122000	1160.840820	32.191006
12360.833723	-1216.122000	1159.711914	-95.743744
12360.833723	-1216.122000	1158.583008	25.414291
12360.833723	-1216.122000	1157.453125	-63.050491
12360.833723	-1216.122000	1156.324219	-102.386688
12360.833723	-1216.122000	1155.194336	-317.534668
12360.833723	-1216.122000	1154.064453	-116.116051
12360.833723	-1216.122000	1152.933594	-268.499023
12360.833723	-1216.122000	1151.803711	-123.117180
12360.833723	-1216.122000	1150.672852	34.289833
12360.833723	-1216.122000	1149.541992	-75.168854
12360.833723	-1216.122000	1148.411133	-264.806335
12360.833723	-1216.122000	1147.279297	-69.830894
12360.833723	-1216.122000	1146.147461	-196.285522
12360.833723	-1216.122000	1145.015625	-326.717651
12360.833723	-1216.122000	1143.883789	-117.166847
12360.833723	-1216.122000	1142.750977	-57.929592
12360.833723	-1216.122000	1141.619141	-246.367737
12360.833723	-1216.122000	1140.486328	-289.866669
12360.833723	-1216.122000	1139.352539	-412.337250
12360.833723	-1216.122000	1138.219727	-213.447540
12360.833723	-1216.122000	1137.085938	-164.044250
12360.833723	-1216.122000	1135.952148	-111.286758
12360.833723	-1216.122000	1134.818359	-124.685295
12360.833723	-1216.122000	1133.683594	-86.821953
12360.833723	-1216.122000	1132.549805	120.235657
12360.833723	-1216.122000	1131.415039	110.751434
12360.833723	-1216.122000	1130.279297	459.322418
12360.833723	-1216.122000	1129.144531	428.752563
12360.833723	-1216.122000	1128.008789	420.084686
12360.833723	-1216.122000	1126.873047	453.925690
12360.833723	-1216.122000	1125.737305	343.876801
12360.833723	-1216.122000	1124.601563	157.277557
12360.833723	-1216.122000	1123.464844	401.519867
12360.833723	-1216.122000	1122.328125	500.451233
12360.833723	-1216.122000	1121.191406	321.577271
12360.833723	-1216.122000	1120.054688	307.764862
12360.833723	-1216.122000	1118.916992	369.874390
12360.833723	-1216.122000	1117.779297	262.431519
12360.833723	-1216.122000	1116.641602	348.685974
12360.833723	-1216.122000	1115.503906	491.057495
12360.833723	-1216.122000	1114.365234	110.980392
12360.833723	-1216.122000	1113.226563	66.242401
12360.833723	-1216.122000	1112.087891	225.161697
12360.833723	-1216.122000	1110.949219	314.400177
12360.833723	-1216.122000	1109.809570	304.907593
12360.833723	-1216.122000	1108.669922	162.936829
12360.833723	-1216.122000	1107.530273	36.882313
12360.833723	-1216.122000	1106.390625	137.152100
12360.833723	-1216.122000	1105.250000	150.189774
12360.833723	-1216.122000	1104.109375	193.719315
12360.833723	-1216.122000	1102.968750	34.018024
12360.833723	-1216.122000	1101.828125	266.345551
12360.833723	-1216.122000	1100.686523	268.543640
12360.833723	-1216.122000	1099.544922	224.649170
12360.833723	-1216.122000	1098.403320	33.320324
12360.833723	-1216.122000	1097.261719	19.820734
12360.833723	-1216.122000	1096.120117	320.246094
12360.833723	-1216.122000	1094.977539	100.685799
12360.833723	-1216.122000	1093.834961	189.757324
12360.833723	-1216.122000	1092.691406	177.821411
12360.833723	-1216.122000	1091.548828	169.379211
12360.833723	-1216.122000	1090.405273	103.783020
12360.833723	-1216.122000	1089.261719	243.994415
12360.833723	-1216.122000	1088.118164	69.345490
12360.833723	-1216.122000	1086.973633	419.247437
12360.833723	-1216.122000	1085.829102	298.572296
12360.833723	-1216.122000	1084.684570	389.386597
12360.833723	-1216.122000	1083.540039	195.215805
12360.833723	-1216.122000	1082.395508	90.308128
12360.833723	-1216.122000	1081.250000	70.826347
12360.833723	-1216.122000	1080.104492	228.646866
12360.833723	-1216.122000	1078.958984	224.062836
12360.833723	-1216.122000	1077.812500	323.562988
12360.833723	-1216.122000	1076.666016	390.383392
12360.833723	-1216.122000	1075.519531	258.114136
12360.833723	-1216.122000	1074.373047	169.280762
12360.833723	-1216.122000	1073.226563	190.619873
12360.833723	-1216.122000	1072.079102	338.518280
12360.833723	-1216.122000	1070.931641	227.054352
12360.833723	-1216.122000	1069.784180	205.677521
12360.833723	-1216.122000	1068.635742	680.227600
12360.833723	-1216.122000	1067.487305	671.226501
12360.833723	-1216.122000	1066.338867	402.049561
12360.833723	-1216.122000	1065.190430	580.980286
12360.833723	-1216.122000	1064.041992	404.292389
12360.833723	-1216.122000	1062.892578	496.819489
12360.833723	-1216.122000	1061.743164	467.103516
12360.833723	-1216.122000	1060.593750	313.185852
12360.833723	-1216.122000	1059.443359	328.634216
12360.833723	-1216.122000	1058.292969	622.283813
12360.833723	-1216.122000	1057.142578	389.377197
12360.833723	-1216.122000	1055.992188	487.467499
12360.833723	-1216.122000	1054.841797	368.547363
12360.833723	-1216.122000	1053.690430	263.357971
12360.833723	-1216.122000	1052.539063	313.277924
12360.833723	-1216.122000	1051.387695	264.604553
12360.833723	-1216.122000	1050.235352	-29.528503
12360.833723	-1216.122000	1049.083984	299.310028
12360.833723	-1216.122000	1047.931641	438.863495
12360.833723	-1216.122000	1046.778320	519.309814
12360.833723	-1216.122000	1045.625977	343.301544
12360.833723	-1216.122000	1044.472656	233.876465
12360.833723	-1216.122000	1043.319336	389.943176
12360.833723	-1216.122000	1042.166016	365.799042
12360.833723	-1216.122000	1041.012695	305.450470
12360.833723	-1216.122000	1039.858398	332.206268
12360.833723	-1216.122000	1038.704102	447.094543
12360.833723	-1216.122000	1037.549805	441.354065
12360.833723	-1216.122000	1036.394531	609.963440
12360.833723	-1216.122000	1035.239258	320.913879
12360.833723	-1216.122000	1034.083984	491.844635
12360.833723	-1216.122000	1032.928711	568.023804
12360.833723	-1216.122000	1031.773438	761.473572
12360.833723	-1216.122000	1030.617188	630.254211
12360.833723	-1216.122000	1029.460938	646.861206
12360.833723	-1216.122000	1028.304688	428.924042
12360.833723	-1216.122000	1027.147461	659.825195
12360.833723	-1216.122000	1025.991211	386.286041
12360.833723	-1216.122000	1024.833984	668.840271
12360.833723	-1216.122000	1023.675781	326.146484
12360.833723	-1216.122000	1022.518555	361.350433
12360.833723	-1216.122000	1021.360352	372.133820
12360.833723	-1216.122000	1020.202148	257.064941
12360.833723	-1216.122000	1019.043945	776.707092
12360.833723	-1216.122000	1017.884766	675.705750
12360.833723	-1216.122000	1016.726563	461.834320
12360.833723	-1216.122000	1015.567383	351.406738
12360.833723	-1216.122000	1014.407227	558.249695
12360.833723	-1216.122000	1013.248047	437.240387
12360.833723	-1216.122000	1012.087891	464.241241
12360.833723	-1216.122000	1010.927734	345.895386
12360.833723	-1216.122000	1009.767578	417.186005
12360.833723	-1216.122000	1008.606445	315.549286
12360.833723	-1216.122000	1007.446289	251.972458
12360.833723	-1216.122000	1006.285156	312.606445
12360.833723	-1216.122000	1005.123047	153.217468
12360.833723	-1216.122000	1003.961914	-89.468597
12360.833723	-1216.122000	1002.799805	414.605103
12360.833723	-1216.122000	1001.637695	154.293106
12360.833723	-1216.122000	1000.475586	339.789581
12360.833723	-1216.122000	999.312500	312.967896
12360.833723	-1216.122000	998.149414	169.940552
12360.833723	-1216.122000	996.986328	271.933014
12360.833723	-1216.122000	995.823242	206.940216
12360.833723	-1216.122000	994.659180	287.792328
12360.833723	-1216.122000	993.496094	137.503326
12360.833723	-1216.122000	992.332031	-49.489964
12360.833723	-1216.122000	991.166992	-68.175140
12360.833723	-1216.122000	990.002930	152.169067
12360.833723	-1216.122000	988.837891	101.543701
12360.833723	-1216.122000	987.672852	161.882095
12360.833723	-1216.122000	986.506836	-79.210457
12360.833723	-1216.122000	985.341797	-25.567005
12360.833723	-1216.122000	984.175781	-155.716171
12360.833723	-1216.122000	983.009766	88.851784
12360.833723	-1216.122000	981.843750	295.913086
12360.833723	-1216.122000	980.676758	61.565041
12360.833723	-1216.122000	979.509766	31.387787
12360.833723	-1216.122000	978.342773	268.018921
12360.833723	-1216.122000	977.175781	67.426125
12360.833723	-1216.122000	976.007813	-37.494656
12360.833723	-1216.122000	974.839844	-28.377932
12360.833723	-1216.122000	973.671875	147.814301
12360.833723	-1216.122000	972.503906	-40.169052
12360.833723	-1216.122000	971.334961	13.060032
12360.833723	-1216.122000	970.166016	-57.355461
12360.833723	-1216.122000	968.997070	87.919342
12360.833723	-1216.122000	967.828125	120.428299
12360.833723	-1216.122000	966.658203	116.711617
12360.833723	-1216.122000	965.488281	-373.818024
12360.833723	-1216.122000	964.318359	-17.042564
12360.833723	-1216.122000	963.148438	-35.761879
12360.833723	-1216.122000	961.977539	-163.002289
12360.833723	-1216.122000	960.806641	-58.106850
12360.833723	-1216.122000	959.635742	-27.644989
12360.833723	-1216.122000	958.463867	26.257292
12360.833723	-1216.122000	957.292969	-234.332870
12360.833723	-1216.122000	956.121094	77.470284
12360.833723	-1216.122000	954.948242	172.142166
12360.833723	-1216.122000	953.776367	30.277428
12360.833723	-1216.122000	952.603516	-10.462956
12360.833723	-1216.122000	951.430664	-262.171844
12360.833723	-1216.122000	950.257813	-37.078796
12360.833723	-1216.122000	949.084961	-87.827492
12360.833723	-1216.122000	947.911133	-48.268757
12360.833723	-1216.122000	946.737305	-140.055908
12360.833723	-1216.122000	945.563477	-19.682209
12360.833723	-1216.122000	944.388672	28.185036
12360.833723	-1216.122000	943.213867	396.298798
12360.833723	-1216.122000	942.039063	139.220520
12360.833723	-1216.122000	940.864258	20.101423
12360.833723	-1216.122000	939.688477	-89.675072
12360.833723	-1216.122000	938.513672	62.868950
12360.833723	-1216.122000	937.337891	220.579514
12360.833723	-1216.122000	936.161133	108.322647
12360.833723	-1216.122000	934.985352	15.759956
12360.833723	-1216.122000	933.808594	313.071350
12360.833723	-1216.122000	932.631836	-66.302612
12360.833723	-1216.122000	931.454102	201.392487
12360.833723	-1216.122000	930.277344	174.873001
12360.833723	-1216.122000	929.099609	432.531616
12360.833723	-1216.122000	927.921875	462.437836
12360.833723	-1216.122000	926.743164	70.859703
12360.833723	-1216.122000	925.565430	198.689362
12360.833723	-1216.122000	924.386719	147.700317
12360.833723	-1216.122000	923.208008	126.112465
12360.833723	-1216.122000	922.028320	-49.685135
12360.833723	-1216.122000	920.849609	26.680199
12360.833723	-1216.122000	919.669922	30.901785
12360.833723	-1216.122000	919.474609	-55.342709
12360.833723	-1216.122000	918.309570	109.021248
12360.833723	-1216.122000	917.143555	-115.612305
12360.833723	-1216.122000	915.977539	-9.998084
12360.833723	-1216.122000	914.810547	-183.169006
12360.833723	-1216.122000	913.644531	-40.916473
12360.833723	-1216.122000	912.477539	-104.025787
12360.833723	-1216.122000	911.310547	175.002213
12360.833723	-1216.122000	910.143555	-27.380598
12360.833723	-1216.122000	908.975586	-185.709122
12360.833723	-1216.122000	907.807617	12.584160
12360.833723	-1216.122000	906.639648	-192.072372
12360.833723	-1216.122000	905.471680	-106.144829
12360.833723	-1216.122000	904.303711	-37.329853
12360.833723	-1216.122000	903.134766	-297.957245
12360.833723	-1216.122000	901.965820	-7.108046
12360.833723	-1216.122000	900.796875	-174.933929
12360.833723	-1216.122000	899.626953	159.684479
12360.833723	-1216.122000	898.457031	-81.232307
12360.833723	-1216.122000	897.287109	-12.457115
12360.833723	-1216.122000	896.117188	-89.932716
12360.833723	-1216.122000	894.947266	159.148117
12360.833723	-1216.122000	893.776367	230.301239
12360.833723	-1216.122000	892.605469	145.550980
12360.833723	-1216.122000	891.434570	-9.771986
12360.833723	-1216.122000	890.262695	312.182159
12360.833723	-1216.122000	889.091797	190.990738
12360.833723	-1216.122000	887.919922	55.265007
12360.833723	-1216.122000	886.748047	291.886658
12360.833723	-1216.122000	885.575195	51.619553
12360.833723	-1216.122000	884.403320	288.173767
12360.833723	-1216.122000	883.230469	142.873428
12360.833723	-1216.122000	882.057617	155.676331
12360.833723	-1216.122000	880.883789	217.108109
12360.833723	-1216.122000	879.710938	-139.470978
12360.833723	-1216.122000	878.537109	147.993774
12360.833723	-1216.122000	877.362305	-23.760836
12360.833723	-1216.122000	876.188477	142.160492
12360.833723	-1216.122000	875.013672	45.789074
12360.833723	-1216.122000	873.839844	150.973267
12360.833723	-1216.122000	872.664063	227.013824
12360.833723	-1216.122000	871.489258	26.390039
12360.833723	-1216.122000	870.313477	257.744629
12360.833723	-1216.122000	869.138672	28.128859
12360.833723	-1216.122000	867.962891	121.189430
12360.833723	-1216.122000	866.786133	-88.856499
12360.833723	-1216.122000	865.610352	-24.860111
12360.833723	-1216.122000	864.433594	-4.491088
12360.833723	-1216.122000	863.256836	-59.229584
12360.833723	-1216.122000	862.079102	31.448139
12360.833723	-1216.122000	860.902344	105.149696
12360.833723	-1216.122000	859.724609	-237.696838
12360.833723	-1216.122000	858.546875	15.252464
12360.833723	-1216.122000	857.368164	-247.500107
12360.833723	-1216.122000	856.190430	150.611832
12360.833723	-1216.122000	855.011719	-90.233543
12360.833723	-1216.122000	853.833008	-297.088928
12360.833723	-1216.122000	852.654297	-46.682632
12360.833723	-1216.122000	851.474609	-217.133484
12360.833723	-1216.122000	850.294922	-336.716919
12360.833723	-1216.122000	849.115234	-115.387856
12360.833723	-1216.122000	847.935547	59.955338
12360.833723	-1216.122000	846.754883	3.291559
12360.833723	-1216.122000	845.575195	40.885956
12360.833723	-1216.122000	844.393555	49.514908
12360.833723	-1216.122000	843.212891	-45.674030
12360.833723	-1216.122000	842.032227	74.073387
12360.833723	-1216.122000	840.850586	172.075928
12360.833723	-1216.122000	839.668945	-111.240959
12360.833723	-1216.122000	838.486328	90.566483
12360.833723	-1216.122000	837.304688	154.807953
12360.833723	-1216.122000	836.122070	146.699127
12360.833723	-1216.122000	834.939453	13.227801
12360.833723	-1216.122000	833.756836	36.540398
12360.833723	-1216.122000	832.573242	-67.876312
12360.833723	-1216.122000	831.389648	314.566925
12360.833723	-1216.122000	830.206055	154.770386
12360.833723	-1216.122000	829.022461	397.345276
12360.833723	-1216.122000	827.838867	256.914490
12360.833723	-1216.122000	826.654297	415.146484
12360.833723	-1216.122000	825.469727	383.153778
12360.833723	-1216.122000	824.284180	538.938782
12360.833723	-1216.122000	823.099609	6.455096
12360.833723	-1216.122000	821.914063	236.883499
12360.833723	-1216.122000	820.728516	34.271954
12360.833723	-1216.122000	819.542969	-84.061440
12360.833723	-1216.122000	818.356445	-86.909157
12360.833723	-1216.122000	817.169922	-75.309296
12360.833723	-1216.122000	815.983398	10.814015
12360.833723	-1216.122000	814.796875	-186.619598
12360.833723	-1216.122000	813.609375	-21.179947
12360.833723	-1216.122000	812.422852	-64.759628
12360.833723	-1216.122000	811.235352	256.720795
12360.833723	-1216.122000	810.046875	-0.528019
12360.833723	-1216.122000	808.859375	248.835526
12360.833723	-1216.122000	807.670898	3.734681
12360.833723	-1216.122000	806.482422	-313.228302
12360.833723	-1216.122000	805.293945	70.448074
12360.833723	-1216.122000	804.104492	-128.831345
12360.833723	-1216.122000	802.915039	38.877350
12360.833723	-1216.122000	801.725586	67.479958
12360.833723	-1216.122000	800.536133	364.550201
12360.833723	-1216.122000	799.345703	136.692123
12360.833723	-1216.122000	798.155273	261.152252
12360.833723	-1216.122000	796.964844	208.312912
12360.833723	-1216.122000	795.774414	145.931351
12360.833723	-1216.122000	794.583008	47.677994
12360.833723	-1216.122000	793.392578	289.419312
12360.833723	-1216.122000	792.200195	-7.449486
12360.833723	-1216.122000	791.008789	-328.115814
12360.833723	-1216.122000	789.816406	-5.052688
12360.833723	-1216.122000	788.625000	40.412834
12360.833723	-1216.122000	787.432617	164.795990
12360.833723	-1216.122000	786.239258	-86.245628
12360.833723	-1216.122000	785.046875	-110.078217
12360.833723	-1216.122000	783.853516	-28.727533
12360.833723	-1216.122000	782.660156	-2.359463
12360.833723	-1216.122000	781.465820	243.799881
12360.833723	-1216.122000	780.272461	217.567795
12360.833723	-1216.122000	779.078125	227.178284
12360.833723	-1216.122000	777.883789	-61.651806
12360.833723	-1216.122000	776.688477	-73.453316
12360.833723	-1216.122000	775.494141	-32.746899
12360.833723	-1216.122000	774.298828	-25.454855
12360.833723	-1216.122000	773.103516	-125.512726
12360.833723	-1216.122000	771.907227	-63.336166
12360.833723	-1216.122000	770.711914	-344.566986
12360.833723	-1216.122000	769.515625	-86.877548
12360.833723	-1216.122000	768.318359	8.625874
12360.833723	-1216.122000	767.122070	-136.604828
12360.833723	-1216.122000	765.924805	-346.103363
12360.833723	-1216.122000	764.727539	-255.375687
12360.833723	-1216.122000	763.530273	-248.043747
12360.833723	-1216.122000	762.333008	85.487244
12360.833723	-1216.122000	761.134766	-164.364502
12360.833723	-1216.122000	759.936523	-42.825684
12360.833723	-1216.122000	758.738281	-56.981197
12360.833723	-1216.122000	757.540039	97.777390
12360.833723	-1216.122000	756.340820	-116.217728
12360.833723	-1216.122000	755.141602	-144.642471
12360.833723	-1216.122000	753.942383	-370.407928
12360.833723	-1216.122000	752.742188	-227.633209
12360.833723	-1216.122000	751.541992	19.640598
12360.833723	-1216.122000	750.341797	-139.521118
12360.833723	-1216.122000	749.141602	81.470497
12360.833723	-1216.122000	747.941406	-30.168789
12360.833723	-1216.122000	746.740234	64.820786
12360.833723	-1216.122000	745.539063	76.657860
12360.833723	-1216.122000	744.337891	-44.453529
12360.833723	-1216.122000	743.135742	5.336147
12360.833723	-1216.122000	741.933594	50.337345
12360.833723	-1216.122000	740.731445	240.000183
12360.833723	-1216.122000	739.529297	178.161469
12360.833723	-1216.122000	738.326172	-16.456308
12360.833723	-1216.122000	737.124023	182.509232
12360.833723	-1216.122000	735.919922	163.315399
12360.833723	-1216.122000	734.716797	35.093338
12360.833723	-1216.122000	733.513672	98.797882
12360.833723	-1216.122000	732.309570	-64.944359
12360.833723	-1216.122000	731.105469	-65.242722
12360.833723	-1216.122000	729.900391	161.730515
12360.833723	-1216.122000	728.696289	173.152496
12360.833723	-1216.122000	727.491211	89.871140
12360.833723	-1216.122000	726.286133	342.593597
12360.833723	-1216.122000	725.080078	185.905289
12360.833723	-1216.122000	723.874023	284.689178
12360.833723	-1216.122000	722.668945	196.572540
12360.833723	-1216.122000	721.461914	28.075323
12360.833723	-1216.122000	720.255859	-71.846169
12360.833723	-1216.122000	719.048828	-110.323006
12360.833723	-1216.122000	717.841797	151.244751
12360.833723	-1216.122000	716.634766	266.197784
12360.833723	-1216.122000	715.427734	319.648193
12360.833723	-1216.122000	714.219727	391.923248
12360.833723	-1216.122000	713.011719	145.412109
12360.833723	-1216.122000	711.803711	396.976898
12360.833723	-1216.122000	710.594727	214.184967
12360.833723	-1216.122000	709.385742	92.757622
12360.833723	-1216.122000	708.176758	124.652718
12360.833723	-1216.122000	706.967773	312.126923
12360.833723	-1216.122000	705.758789	-21.611910
12360.833723	-1216.122000	704.548828	3.048273
12360.833723	-1216.122000	703.338867	-19.495214
12360.833723	-1216.122000	702.127930	26.246536
12360.833723	-1216.122000	700.917969	43.636036
12360.833723	-1216.122000	699.707031	49.183434
12360.833723	-1216.122000	698.496094	-91.336792
12360.833723	-1216.122000	697.285156	126.000023
12360.833723	-1216.122000	696.073242	30.120052
12360.833723	-1216.122000	694.861328	-75.200104
12360.833723	-1216.122000	693.649414	57.097042
12360.833723	-1216.122000	692.436523	69.300804
12360.833723	-1216.122000	691.224609	90.835121
12360.833723	-1216.122000	690.011719	182.832367
12360.833723	-1216.122000	688.798828	349.948334
12360.833723	-1216.122000	687.584961	232.524902
12360.833723	-1216.122000	686.372070	244.318497
12360.833723	-1216.122000	685.158203	96.273552
12360.833723	-1216.122000	683.943359	187.806839
12360.833723	-1216.122000	682.729492	384.897858
12360.833723	-1216.122000	681.514648	429.217285
12360.833723	-1216.122000	680.299805	370.149902
12360.833723	-1216.122000	679.084961	536.331421
12360.833723	-1216.122000	677.869141	333.972412
12360.833723	-1216.122000	676.653320	457.702026
12360.833723	-1216.122000	675.437500	522.659912
12360.833723	-1216.122000	674.221680	381.147827
12360.833723	-1216.122000	673.004883	392.001160
12360.833723	-1216.122000	671.789063	459.015076
12360.833723	-1216.122000	670.571289	568.101563
12360.833723	-1216.122000	669.354492	501.325348
12360.833723	-1216.122000	668.136719	366.556946
12360.833723	-1216.122000	666.919922	264.539459
12360.833723	-1216.122000	665.701172	464.531708
12360.833723	-1216.122000	664.483398	455.995819
12360.833723	-1216.122000	663.264648	484.817413
12360.833723	-1216.122000	662.045898	625.855164
12360.833723	-1216.122000	660.827148	443.881714
12360.833723	-1216.122000	659.608398	500.468506
12360.833723	-1216.122000	658.388672	470.411133
12360.833723	-1216.122000	657.168945	353.760040
12360.833723	-1216.122000	655.949219	300.172699
12360.833723	-1216.122000	654.728516	519.946411
12360.833723	-1216.122000	653.507813	484.840881
12360.833723	-1216.122000	652.287109	624.853516
12360.833723	-1216.122000	651.066406	503.120361
12360.833723	-1216.122000	649.844727	523.776428
12360.833723	-1216.122000	648.623047	822.136475
12360.833723	-1216.122000	647.401367	653.447937
12360.833723	-1216.122000	646.179688	603.737610
12360.833723	-1216.122000	644.957031	794.255493
12360.833723	-1216.122000	643.734375	655.685852
12360.833723	-1216.122000	642.511719	754.946228
12360.833723	-1216.122000	641.289063	686.178711
12360.833723	-1216.122000	640.065430	482.127075
12360.833723	-1216.122000	638.841797	459.845276
12360.833723	-1216.122000	637.618164	654.166931
12360.833723	-1216.122000	636.393555	682.890259
12360.833723	-1216.122000	635.168945	627.641907
12360.833723	-1216.122000	633.944336	674.769165
12360.833723	-1216.122000	632.719727	335.287292
12360.833723	-1216.122000	631.494141	445.082306
12360.833723	-1216.122000	630.269531	510.502411
12360.833723	-1216.122000	629.042969	429.199982
12360.833723	-1216.122000	627.817383	471.110107
12360.833723	-1216.122000	626.590820	461.723419
12360.833723	-1216.122000	625.365234	519.658447
12360.833723	-1216.122000	624.137695	342.658478
12360.833723	-1216.122000	622.911133	528.202698
12360.833723	-1216.122000	621.683594	441.675598
12360.833723	-1216.122000	620.456055	501.437592
12360.833723	-1216.122000	619.228516	472.795227
12360.833723	-1216.122000	618.000977	379.027832
12360.833723	-1216.122000	616.772461	391.987427
12360.833723	-1216.122000	615.543945	86.812172
12360.833723	-1216.122000	614.314453	385.055115
12360.833723	-1216.122000	613.085938	506.717773
12360.833723	-1216.122000	611.856445	373.037018
12360.833723	-1216.122000	610.626953	355.262787
12360.833723	-1216.122000	609.397461	441.731201
12360.833723	-1216.122000	608.166992	284.622070
12360.833723	-1216.122000	606.936523	463.552826
12360.833723	-1216.122000	605.706055	239.078445
12360.833723	-1216.122000	604.474609	102.624626
12360.833723	-1216.122000	603.244141	510.462067
12360.833723	-1216.122000	602.012695	359.889008
12360.833723	-1216.122000	600.780273	128.227875
12360.833723	-1216.122000	599.548828	148.878906
12360.833723	-1216.122000	598.316406	171.721939
12360.833723	-1216.122000	597.083984	275.430084
12360.833723	-1216.122000	595.851563	112.943367
12360.833723	-1216.122000	594.618164	110.005341
12360.833723	-1216.122000	593.384766	148.580505
12360.833723	-1216.122000	592.151367	50.630436
12360.833723	-1216.122000	590.917969	223.050339
12360.833723	-1216.122000	589.683594	175.745728
12360.833723	-1216.122000	588.449219	142.218628
12360.833723	-1216.122000	587.214844	242.579178
12360.833723	-1216.122000	585.979492	416.687836
12360.833723	-1216.122000	584.745117	80.341713
12360.833723	-1216.122000	583.509766	101.844833
12360.833723	-1216.122000	582.273438	185.547470
12360.833723	-1216.122000	581.038086	229.889908
12360.833723	-1216.122000	579.801758	128.767578
12360.833723	-1216.122000	578.565430	18.361143
12360.833723	-1216.122000	577.329102	311.456787
12360.833723	-1216.122000	576.091797	170.885284
12360.833723	-1216.122000	574.854492	376.030731
12360.833723	-1216.122000	573.617188	214.571960
12360.833723	-1216.122000	572.378906	384.865021
12360.833723	-1216.122000	571.141602	340.765686
12360.833723	-1216.122000	569.903320	351.859863
12360.833723	-1216.122000	568.664063	277.660278
12360.833723	-1216.122000	567.425781	396.779053
12360.833723	-1216.122000	566.186523	370.752991
12360.833723	-1216.122000	564.947266	268.713043
12360.833723	-1216.122000	563.708008	182.736755
12360.833723	-1216.122000	562.467773	-59.702988
12360.833723	-1216.122000	561.227539	245.185257
12360.833723	-1216.122000	559.987305	405.018127
12360.833723	-1216.122000	558.747070	247.486557
12360.833723	-1216.122000	557.505859	41.676552
12360.833723	-1216.122000	556.264648	169.036163
12360.833723	-1216.122000	555.023438	165.326660
12360.833723	-1216.122000	553.781250	411.874237
12360.833723	-1216.122000	552.539063	235.744354
12360.833723	-1216.122000	551.296875	71.094833
12360.833723	-1216.122000	550.054688	-31.584419
12360.833723	-1216.122000	548.811523	186.964249
12360.833723	-1216.122000	547.569336	288.353363
12360.833723	-1216.122000	546.325195	-80.594650
12360.833723	-1216.122000	545.082031	-87.112976
12360.833723	-1216.122000	543.837891	32.403770
12360.833723	-1216.122000	542.593750	112.839989
12360.833723	-1216.122000	541.349609	21.298969
12360.833723	-1216.122000	540.105469	39.721886
12360.833723	-1216.122000	538.860352	103.887665
12360.833723	-1216.122000	537.615234	227.520798
12360.833723	-1216.122000	536.369141	293.794678
12360.833723	-1216.122000	535.124023	32.623611
12360.833723	-1216.122000	533.877930	-173.557510
12360.833723	-1216.122000	532.631836	-116.541618
12360.833723	-1216.122000	531.384766	20.471560
12360.833723	-1216.122000	530.138672	113.927872
12360.833723	-1216.122000	528.891602	-156.314240
12360.833723	-1216.122000	527.643555	-94.963989
12360.833723	-1216.122000	526.396484	-29.102690
12360.833723	-1216.122000	525.148438	38.973640
12360.833723	-1216.122000	523.900391	-80.377281
12360.833723	-1216.122000	522.652344	-110.618523
12360.833723	-1216.122000	521.403320	-118.045738
12360.833723	-1216.122000	520.154297	-372.111725
12360.833723	-1216.122000	518.905273	-231.146744
12360.833723	-1216.122000	517.656250	-297.973267
12360.833723	-1216.122000	516.406250	-209.631226
12360.833723	-1216.122000	515.156250	-251.391739
12360.833723	-1216.122000	513.906250	-208.760910
12360.833723	-1216.122000	512.655273	43.629456
12360.833723	-1216.122000	511.404297	-16.466391
12360.833723	-1216.122000	510.153320	-274.869080
12360.833723	-1216.122000	508.902344	-485.317230
12360.833723	-1216.122000	507.650391	-258.218201
12360.833723	-1216.122000	506.398438	-138.298233
12360.833723	-1216.122000	505.146484	93.160973
12360.833723	-1216.122000	503.893555	-121.798820
12360.833723	-1216.122000	502.641602	-216.008698
12360.833723	-1216.122000	501.388672	-12.025373
12360.833723	-1216.122000	500.134766	-115.343559
12360.833723	-1216.122000	498.881836	-9.308167
12360.833723	-1216.122000	497.627930	133.066956
12360.833723	-1216.122000	496.374023	-120.315857
12360.833723	-1216.122000	495.119141	-130.319458
12360.833723	-1216.122000	493.865234	-158.494034
12360.833723	-1216.122000	492.610352	-193.480591
12360.833723	-1216.122000	491.355469	-171.644638
12360.833723	-1216.122000	490.099609	-265.675385
12360.833723	-1216.122000	488.843750	-155.254898
12360.833723	-1216.122000	487.587891	-78.937088
12360.833723	-1216.122000	486.332031	-150.209534
12360.833723	-1216.122000	485.075195	-62.568363
12360.833723	-1216.122000	483.818359	-147.420578
12360.833723	-1216.122000	482.561523	-166.433701
12360.833723	-1216.122000	481.304688	-74.287064
12360.833723	-1216.122000	480.046875	-18.461477
12360.833723	-1216.122000	478.789063	16.942293
12360.833723	-1216.122000	477.531250	260.883301
12360.833723	-1216.122000	476.272461	89.991776
12360.833723	-1216.122000	475.013672	14.346312
12360.833723	-1216.122000	473.754883	85.985695
12360.833723	-1216.122000	472.496094	433.913452
12360.833723	-1216.122000	471.236328	93.331696
12360.833723	-1216.122000	469.976563	538.459045
12360.833723	-1216.122000	468.716797	59.951088
12360.833723	-1216.122000	467.456055	99.847343
12360.833723	-1216.122000	466.196289	304.888092
12360.833723	-1216.122000	464.935547	154.721512
12360.833723	-1216.122000	463.673828	230.754501
12360.833723	-1216.122000	462.413086	-66.288811
12360.833723	-1216.122000	461.151367	23.321356
12360.833723	-1216.122000	459.889648	54.132526
12360.833723	-1216.122000	458.626953	-5.461283
12360.833723	-1216.122000	457.364258	-55.998844
12360.833723	-1216.122000	456.101563	-63.613350
12360.833723	-1216.122000	454.838867	141.013000
12360.833723	-1216.122000	453.575195	92.689468
12360.833723	-1216.122000	452.312500	-75.244026
12360.833723	-1216.122000	451.047852	-64.874207
12360.833723	-1216.122000	449.784180	134.980789
12360.833723	-1216.122000	448.519531	260.281158
12360.833723	-1216.122000	447.254883	-38.454842
12360.833723	-1216.122000	445.990234	61.962173
12360.833723	-1216.122000	444.725586	-108.194679
12360.833723	-1216.122000	443.459961	37.174934
12360.833723	-1216.122000	442.194336	148.637238
12360.833723	-1216.122000	440.927734	88.790001
12360.833723	-1216.122000	439.662109	76.211533
12360.833723	-1216.122000	438.395508	99.593979
12360.833723	-1216.122000	437.127930	357.007599
12360.833723	-1216.122000	435.861328	78.580894
12360.833723	-1216.122000	434.593750	90.458008
12360.833723	-1216.122000	433.326172	-178.970337
12360.833723	-1216.122000	432.058594	55.443222
12360.833723	-1216.122000	430.790039	111.994858
12360.833723	-1216.122000	429.521484	15.529635
12360.833723	-1216.122000	428.252930	6.647058
12360.833723	-1216.122000	426.984375	154.950195
12360.833723	-1216.122000	425.714844	204.186661
12360.833723	-1216.122000	424.445313	273.471954
12360.833723	-1216.122000	423.174805	66.330032
12360.833723	-1216.122000	421.905273	63.444271
12360.833723	-1216.122000	420.634766	215.269501
12360.833723	-1216.122000	419.364258	263.601807
12360.833723	-1216.122000	418.092773	103.031387
12360.833723	-1216.122000	416.822266	245.182541
12360.833723	-1216.122000	415.550781	225.558121
12360.833723	-1216.122000	414.278320	71.155235
12360.833723	-1216.122000	413.006836	26.435749
12360.833723	-1216.122000	411.734375	167.507568
12360.833723	-1216.122000	410.461914	-86.161362
12360.833723	-1216.122000	409.188477	119.278481
12360.833723	-1216.122000	407.916016	95.859001
12360.833723	-1216.122000	406.642578	60.926704
12360.833723	-1216.122000	405.368164	377.188110
12360.833723	-1216.122000	404.094727	196.026596
12360.833723	-1216.122000	402.820313	267.463348
12360.833723	-1216.122000	401.545898	204.235870
12360.833723	-1216.122000	400.270508	478.416718
12360.833723	-1216.122000	398.996094	345.018219
12360.833723	-1216.122000	397.720703	106.131264
12360.833723	-1216.122000	396.444336	275.993408
12360.833723	-1216.122000	395.168945	170.396500
12360.833723	-1216.122000	393.892578	176.064301
12360.833723	-1216.122000	392.616211	246.001877
12360.833723	-1216.122000	391.339844	163.476563
12360.833723	-1216.122000	390.062500	319.357788
12360.833723	-1216.122000	388.785156	179.868561
12360.833723	-1216.122000	387.507813	191.616058
12360.833723	-1216.122000	386.229492	77.729912
12360.833723	-1216.122000	384.951172	119.412842
12360.833723	-1216.122000	383.672852	151.467163
12360.833723	-1216.122000	382.394531	122.573349
12360.833723	-1216.122000	381.115234	146.443909
12360.833723	-1216.122000	379.835938	60.296230
12360.833723	-1216.122000	378.556641	-44.447350
12360.833723	-1216.122000	377.277344	52.796856
12360.833723	-1216.122000	375.997070	111.241562
12360.833723	-1216.122000	374.716797	-167.562714
12360.833723	-1216.122000	373.435547	-128.757919
12360.833723	-1216.122000	372.155273	-186.644302
12360.833723	-1216.122000	370.874023	-71.905830
12360.833723	-1216.122000	369.591797	126.289665
12360.833723	-1216.122000	368.310547	125.335129
12360.833723	-1216.122000	367.028320	-19.113110
12360.833723	-1216.122000	365.746094	8.822341
12360.833723	-1216.122000	364.463867	-66.719208
12360.833723	-1216.122000	363.180664	-114.581146
12360.833723	-1216.122000	361.897461	378.597870
12360.833723	-1216.122000	360.614258	316.973724
12360.833723	-1216.122000	359.330078	156.243805
12360.833723	-1216.122000	358.045898	125.226242
12360.833723	-1216.122000	356.761719	-62.660694
12360.833723	-1216.122000	355.477539	16.674086
12360.833723	-1216.122000	354.192383	-34.334679
12360.833723	-1216.122000	352.907227	-20.337837
12360.833723	-1216.122000	351.622070	54.137039
12360.833723	-1216.122000	350.336914	-179.214157
12360.833723	-1216.122000	349.050781	55.898888
12360.833723	-1216.122000	347.764648	-223.055511
12360.833723	-1216.122000	346.477539	-228.913437
12360.833723	-1216.122000	345.191406	-23.879820
12360.833723	-1216.122000	343.904297	-148.871902
12360.833723	-1216.122000	342.616211	118.427032
12360.833723	-1216.122000	341.329102	53.570850
12360.833723	-1216.122000	340.041016	103.900711
12360.833723	-1216.122000	338.752930	39.092731
12360.833723	-1216.122000	337.463867	87.071693
12360.833723	-1216.122000	336.175781	-174.843185
12360.833723	-1216.122000	334.886719	76.365532
12360.833723	-1216.122000	333.596680	-106.392715
12360.833723	-1216.122000	332.307617	0.338542
12360.833723	-1216.122000	331.017578	-227.300232
12360.833723	-1216.122000	329.727539	-132.609604
12360.833723	-1216.122000	328.436523	-34.175163
12360.833723	-1216.122000	327.146484	-163.931107
12360.833723	-1216.122000	325.855469	-373.949097
12360.833723	-1216.122000	324.563477	-427.952942
12360.833723	-1216.122000	323.272461	-277.401947
12360.833723	-1216.122000	321.980469	-112.517174
12360.833723	-1216.122000	320.688477	42.405899
12360.833723	-1216.122000	319.395508	-40.072613
12360.833723	-1216.122000	318.103516	74.875664
12360.833723	-1216.122000	316.810547	-323.342896
12360.833723	-1216.122000	315.516602	-237.782211
12360.833723	-1216.122000	314.223633	-94.164230
12360.833723	-1216.122000	312.929688	23.426756
12360.833723	-1216.122000	311.635742	-50.270657
12360.833723	-1216.122000	310.340820	226.645782
12360.833723	-1216.122000	309.045898	-91.017334
12360.833723	-1216.122000	307.750977	157.592392
12360.833723	-1216.122000	306.456055	304.872253
12360.833723	-1216.122000	305.160156	115.125244
12360.833723	-1216.122000	303.865234	372.169708
12360.833723	-1216.122000	302.568359	313.931732
12360.833723	-1216.122000	301.272461	607.409241
12360.833723	-1216.122000	299.975586	752.753418
12360.833723	-1216.122000	298.678711	1161.246338
