#X		#Y		#Wave		#Intensity
20404.862340	-1210.711833	1999.980469	-50.051132
20404.862340	-1210.711833	1999.016602	14.911614
20404.862340	-1210.711833	1998.052734	-1.676355
20404.862340	-1210.711833	1997.087891	-137.425491
20404.862340	-1210.711833	1996.123047	-67.695030
20404.862340	-1210.711833	1995.158203	-136.923859
20404.862340	-1210.711833	1994.193359	-45.341064
20404.862340	-1210.711833	1993.228516	95.535118
20404.862340	-1210.711833	1992.262695	20.774227
20404.862340	-1210.711833	1991.297852	181.010818
20404.862340	-1210.711833	1990.332031	6.899034
20404.862340	-1210.711833	1989.366211	112.289230
20404.862340	-1210.711833	1988.399414	24.503702
20404.862340	-1210.711833	1987.433594	-46.103268
20404.862340	-1210.711833	1986.466797	165.092270
20404.862340	-1210.711833	1985.500977	99.118874
20404.862340	-1210.711833	1984.534180	30.551767
20404.862340	-1210.711833	1983.567383	196.678223
20404.862340	-1210.711833	1982.599609	33.931240
20404.862340	-1210.711833	1981.632813	328.202423
20404.862340	-1210.711833	1980.665039	19.478569
20404.862340	-1210.711833	1979.697266	145.439636
20404.862340	-1210.711833	1978.729492	-0.402055
20404.862340	-1210.711833	1977.761719	56.148312
20404.862340	-1210.711833	1976.792969	16.295832
20404.862340	-1210.711833	1975.825195	25.708395
20404.862340	-1210.711833	1974.856445	128.782822
20404.862340	-1210.711833	1973.887695	-108.743126
20404.862340	-1210.711833	1972.918945	-97.145821
20404.862340	-1210.711833	1971.949219	-147.298294
20404.862340	-1210.711833	1970.980469	-195.057480
20404.862340	-1210.711833	1970.010742	131.840134
20404.862340	-1210.711833	1969.041016	32.119675
20404.862340	-1210.711833	1968.071289	166.472076
20404.862340	-1210.711833	1967.101563	152.864594
20404.862340	-1210.711833	1966.130859	-33.250656
20404.862340	-1210.711833	1965.161133	51.562786
20404.862340	-1210.711833	1964.190430	104.266235
20404.862340	-1210.711833	1963.219727	105.183395
20404.862340	-1210.711833	1962.249023	88.809387
20404.862340	-1210.711833	1961.277344	8.394475
20404.862340	-1210.711833	1960.306641	-163.092453
20404.862340	-1210.711833	1959.334961	169.784515
20404.862340	-1210.711833	1958.363281	-100.160774
20404.862340	-1210.711833	1957.391602	153.785172
20404.862340	-1210.711833	1956.419922	-22.710133
20404.862340	-1210.711833	1955.447266	169.581345
20404.862340	-1210.711833	1954.474609	0.441138
20404.862340	-1210.711833	1953.501953	229.441818
20404.862340	-1210.711833	1952.529297	79.937134
20404.862340	-1210.711833	1951.556641	126.981972
20404.862340	-1210.711833	1950.583984	46.260010
20404.862340	-1210.711833	1949.610352	159.536758
20404.862340	-1210.711833	1948.636719	-7.150605
20404.862340	-1210.711833	1947.663086	-85.430084
20404.862340	-1210.711833	1946.689453	-43.443451
20404.862340	-1210.711833	1945.715820	140.829590
20404.862340	-1210.711833	1944.741211	131.196106
20404.862340	-1210.711833	1943.767578	209.852554
20404.862340	-1210.711833	1942.792969	97.170059
20404.862340	-1210.711833	1941.818359	85.045883
20404.862340	-1210.711833	1940.842773	-61.924145
20404.862340	-1210.711833	1939.868164	-118.160851
20404.862340	-1210.711833	1938.892578	70.677238
20404.862340	-1210.711833	1937.916992	-37.039143
20404.862340	-1210.711833	1936.941406	29.206842
20404.862340	-1210.711833	1935.965820	-27.043606
20404.862340	-1210.711833	1934.990234	-63.688801
20404.862340	-1210.711833	1934.013672	-107.672417
20404.862340	-1210.711833	1933.037109	-141.852432
20404.862340	-1210.711833	1932.060547	208.228134
20404.862340	-1210.711833	1931.083984	10.046775
20404.862340	-1210.711833	1930.107422	-16.804848
20404.862340	-1210.711833	1929.129883	186.284027
20404.862340	-1210.711833	1928.153320	188.755402
20404.862340	-1210.711833	1927.175781	-82.633995
20404.862340	-1210.711833	1926.198242	22.565170
20404.862340	-1210.711833	1925.219727	-82.479881
20404.862340	-1210.711833	1924.242188	17.796680
20404.862340	-1210.711833	1923.263672	-62.769455
20404.862340	-1210.711833	1922.285156	-74.901993
20404.862340	-1210.711833	1921.306641	118.139748
20404.862340	-1210.711833	1920.328125	71.797607
20404.862340	-1210.711833	1919.349609	18.153015
20404.862340	-1210.711833	1918.370117	-76.964943
20404.862340	-1210.711833	1917.391602	-115.907784
20404.862340	-1210.711833	1916.412109	-47.464024
20404.862340	-1210.711833	1915.431641	84.392944
20404.862340	-1210.711833	1914.452148	-61.869190
20404.862340	-1210.711833	1913.472656	74.829460
20404.862340	-1210.711833	1912.492188	40.800232
20404.862340	-1210.711833	1911.511719	162.814056
20404.862340	-1210.711833	1910.531250	53.232338
20404.862340	-1210.711833	1909.550781	65.547279
20404.862340	-1210.711833	1908.569336	-70.764832
20404.862340	-1210.711833	1907.588867	36.587566
20404.862340	-1210.711833	1906.607422	121.985680
20404.862340	-1210.711833	1905.625977	29.590853
20404.862340	-1210.711833	1904.644531	58.972294
20404.862340	-1210.711833	1903.662109	-120.997345
20404.862340	-1210.711833	1902.680664	54.441074
20404.862340	-1210.711833	1901.698242	-213.049088
20404.862340	-1210.711833	1900.715820	8.575165
20404.862340	-1210.711833	1899.733398	23.366325
20404.862340	-1210.711833	1898.750000	47.884438
20404.862340	-1210.711833	1897.767578	38.356236
20404.862340	-1210.711833	1896.784180	58.008484
20404.862340	-1210.711833	1895.800781	29.045170
20404.862340	-1210.711833	1894.817383	-65.518440
20404.862340	-1210.711833	1893.833984	-6.971795
20404.862340	-1210.711833	1892.850586	68.560677
20404.862340	-1210.711833	1891.866211	-76.953873
20404.862340	-1210.711833	1890.881836	132.125916
20404.862340	-1210.711833	1889.897461	-132.308807
20404.862340	-1210.711833	1888.913086	-117.489014
20404.862340	-1210.711833	1887.927734	-68.696640
20404.862340	-1210.711833	1886.943359	-70.880035
20404.862340	-1210.711833	1885.958008	-12.411241
20404.862340	-1210.711833	1884.972656	-75.246651
20404.862340	-1210.711833	1883.987305	99.606323
20404.862340	-1210.711833	1883.001953	77.989891
20404.862340	-1210.711833	1882.015625	-72.107506
20404.862340	-1210.711833	1881.029297	71.128189
20404.862340	-1210.711833	1880.042969	127.065491
20404.862340	-1210.711833	1879.056641	59.409813
20404.862340	-1210.711833	1878.070313	86.248405
20404.862340	-1210.711833	1877.083984	-95.219200
20404.862340	-1210.711833	1876.096680	-12.679448
20404.862340	-1210.711833	1875.109375	-36.705070
20404.862340	-1210.711833	1874.122070	-2.635626
20404.862340	-1210.711833	1873.134766	94.337753
20404.862340	-1210.711833	1872.146484	7.365454
20404.862340	-1210.711833	1871.159180	-164.257797
20404.862340	-1210.711833	1870.170898	-55.246166
20404.862340	-1210.711833	1869.182617	2.927218
20404.862340	-1210.711833	1868.194336	-74.336044
20404.862340	-1210.711833	1867.205078	70.820389
20404.862340	-1210.711833	1866.216797	39.468651
20404.862340	-1210.711833	1865.227539	-57.132908
20404.862340	-1210.711833	1864.238281	201.450806
20404.862340	-1210.711833	1863.249023	92.744385
20404.862340	-1210.711833	1862.259766	116.896477
20404.862340	-1210.711833	1861.269531	-61.815804
20404.862340	-1210.711833	1860.279297	63.718452
20404.862340	-1210.711833	1859.290039	12.977413
20404.862340	-1210.711833	1858.298828	-66.726624
20404.862340	-1210.711833	1857.308594	12.831503
20404.862340	-1210.711833	1856.318359	-54.823105
20404.862340	-1210.711833	1855.327148	166.965439
20404.862340	-1210.711833	1854.335938	-11.671356
20404.862340	-1210.711833	1853.344727	7.444407
20404.862340	-1210.711833	1852.353516	-21.685160
20404.862340	-1210.711833	1851.362305	-53.239586
20404.862340	-1210.711833	1850.370117	-104.088509
20404.862340	-1210.711833	1849.377930	-130.854218
20404.862340	-1210.711833	1848.385742	-297.350006
20404.862340	-1210.711833	1847.393555	-177.215424
20404.862340	-1210.711833	1846.401367	3.040949
20404.862340	-1210.711833	1845.408203	12.267084
20404.862340	-1210.711833	1844.415039	235.683609
20404.862340	-1210.711833	1843.421875	78.743813
20404.862340	-1210.711833	1842.428711	46.946877
20404.862340	-1210.711833	1841.435547	5.504883
20404.862340	-1210.711833	1840.441406	19.362341
20404.862340	-1210.711833	1839.448242	187.083817
20404.862340	-1210.711833	1838.454102	-123.753372
20404.862340	-1210.711833	1837.459961	-102.779930
20404.862340	-1210.711833	1836.464844	69.559853
20404.862340	-1210.711833	1835.470703	162.499786
20404.862340	-1210.711833	1834.475586	-49.755169
20404.862340	-1210.711833	1833.480469	141.572662
20404.862340	-1210.711833	1832.485352	-51.468700
20404.862340	-1210.711833	1831.490234	202.131714
20404.862340	-1210.711833	1830.495117	97.890694
20404.862340	-1210.711833	1829.499023	77.650818
20404.862340	-1210.711833	1828.502930	258.955597
20404.862340	-1210.711833	1827.506836	-121.298279
20404.862340	-1210.711833	1826.510742	-55.263878
20404.862340	-1210.711833	1825.513672	63.461742
20404.862340	-1210.711833	1824.517578	16.634855
20404.862340	-1210.711833	1823.520508	-68.585381
20404.862340	-1210.711833	1822.523438	109.854622
20404.862340	-1210.711833	1821.526367	173.138718
20404.862340	-1210.711833	1820.529297	-65.568771
20404.862340	-1210.711833	1819.531250	33.554790
20404.862340	-1210.711833	1818.533203	51.148163
20404.862340	-1210.711833	1817.535156	1.627655
20404.862340	-1210.711833	1816.537109	50.239655
20404.862340	-1210.711833	1815.539063	213.685638
20404.862340	-1210.711833	1814.540039	27.568298
20404.862340	-1210.711833	1813.541992	8.976127
20404.862340	-1210.711833	1812.542969	95.604370
20404.862340	-1210.711833	1811.543945	-80.989815
20404.862340	-1210.711833	1810.543945	55.728683
20404.862340	-1210.711833	1809.544922	82.342987
20404.862340	-1210.711833	1808.544922	187.779373
20404.862340	-1210.711833	1807.544922	111.453644
20404.862340	-1210.711833	1806.544922	82.892563
20404.862340	-1210.711833	1805.544922	-55.631985
20404.862340	-1210.711833	1804.544922	-19.773899
20404.862340	-1210.711833	1803.543945	152.148071
20404.862340	-1210.711833	1802.542969	34.989548
20404.862340	-1210.711833	1801.541992	170.895477
20404.862340	-1210.711833	1800.541016	17.841906
20404.862340	-1210.711833	1799.539063	-18.275282
20404.862340	-1210.711833	1798.538086	212.815948
20404.862340	-1210.711833	1797.536133	85.884438
20404.862340	-1210.711833	1796.534180	13.795973
20404.862340	-1210.711833	1795.532227	96.683868
20404.862340	-1210.711833	1794.529297	217.620499
20404.862340	-1210.711833	1793.527344	159.647171
20404.862340	-1210.711833	1792.524414	189.814331
20404.862340	-1210.711833	1791.521484	-99.430786
20404.862340	-1210.711833	1790.518555	97.417267
20404.862340	-1210.711833	1789.514648	89.250900
20404.862340	-1210.711833	1788.511719	100.074036
20404.862340	-1210.711833	1787.507813	201.305679
20404.862340	-1210.711833	1786.503906	66.726448
20404.862340	-1210.711833	1785.500000	153.500046
20404.862340	-1210.711833	1784.496094	21.216944
20404.862340	-1210.711833	1783.491211	105.437202
20404.862340	-1210.711833	1782.486328	-195.846313
20404.862340	-1210.711833	1781.481445	-45.165188
20404.862340	-1210.711833	1780.476563	202.887527
20404.862340	-1210.711833	1779.471680	65.592781
20404.862340	-1210.711833	1778.465820	123.200790
20404.862340	-1210.711833	1777.460938	128.428024
20404.862340	-1210.711833	1776.455078	29.016346
20404.862340	-1210.711833	1775.449219	17.472843
20404.862340	-1210.711833	1774.442383	34.358028
20404.862340	-1210.711833	1773.436523	-12.958640
20404.862340	-1210.711833	1772.429688	29.893061
20404.862340	-1210.711833	1771.422852	-188.494476
20404.862340	-1210.711833	1770.416016	165.160828
20404.862340	-1210.711833	1769.409180	10.752324
20404.862340	-1210.711833	1768.402344	114.947861
20404.862340	-1210.711833	1767.394531	107.526283
20404.862340	-1210.711833	1766.386719	81.055984
20404.862340	-1210.711833	1765.378906	-45.079338
20404.862340	-1210.711833	1764.371094	56.360439
20404.862340	-1210.711833	1763.362305	29.674435
20404.862340	-1210.711833	1762.354492	-44.473194
20404.862340	-1210.711833	1761.345703	108.798042
20404.862340	-1210.711833	1760.336914	53.453545
20404.862340	-1210.711833	1759.328125	40.685669
20404.862340	-1210.711833	1758.318359	-55.047596
20404.862340	-1210.711833	1757.308594	-89.262032
20404.862340	-1210.711833	1756.299805	23.234896
20404.862340	-1210.711833	1755.290039	107.201782
20404.862340	-1210.711833	1754.279297	181.586670
20404.862340	-1210.711833	1753.269531	210.917480
20404.862340	-1210.711833	1752.258789	-17.685312
20404.862340	-1210.711833	1751.249023	-227.353638
20404.862340	-1210.711833	1750.238281	-13.767080
20404.862340	-1210.711833	1749.226563	45.983425
20404.862340	-1210.711833	1748.215820	-109.455269
20404.862340	-1210.711833	1747.204102	21.030813
20404.862340	-1210.711833	1746.193359	108.864235
20404.862340	-1210.711833	1745.181641	-25.479002
20404.862340	-1210.711833	1744.168945	206.233475
20404.862340	-1210.711833	1743.157227	161.499893
20404.862340	-1210.711833	1742.144531	8.093720
20404.862340	-1210.711833	1741.132813	-204.339035
20404.862340	-1210.711833	1740.120117	64.679909
20404.862340	-1210.711833	1739.106445	-20.432451
20404.862340	-1210.711833	1738.093750	-173.999359
20404.862340	-1210.711833	1737.080078	-157.763641
20404.862340	-1210.711833	1736.067383	30.549419
20404.862340	-1210.711833	1735.053711	44.228004
20404.862340	-1210.711833	1734.040039	-29.398930
20404.862340	-1210.711833	1733.025391	127.896599
20404.862340	-1210.711833	1732.011719	-96.685280
20404.862340	-1210.711833	1730.997070	-71.525841
20404.862340	-1210.711833	1729.982422	-20.540922
20404.862340	-1210.711833	1728.967773	-70.921577
20404.862340	-1210.711833	1727.952148	-86.046562
20404.862340	-1210.711833	1726.937500	-122.420059
20404.862340	-1210.711833	1725.921875	8.255699
20404.862340	-1210.711833	1724.906250	117.627792
20404.862340	-1210.711833	1723.890625	-109.577789
20404.862340	-1210.711833	1722.875000	46.676479
20404.862340	-1210.711833	1721.858398	31.094526
20404.862340	-1210.711833	1720.841797	24.852062
20404.862340	-1210.711833	1719.825195	145.497391
20404.862340	-1210.711833	1718.808594	202.557343
20404.862340	-1210.711833	1717.791992	95.012856
20404.862340	-1210.711833	1716.774414	3.877172
20404.862340	-1210.711833	1715.756836	145.283417
20404.862340	-1210.711833	1714.739258	25.846336
20404.862340	-1210.711833	1713.721680	183.493225
20404.862340	-1210.711833	1712.704102	106.218758
20404.862340	-1210.711833	1711.685547	-50.918209
20404.862340	-1210.711833	1710.667969	-67.233063
20404.862340	-1210.711833	1709.649414	134.612061
20404.862340	-1210.711833	1708.630859	-71.911301
20404.862340	-1210.711833	1707.611328	-201.025726
20404.862340	-1210.711833	1706.592773	61.505680
20404.862340	-1210.711833	1705.573242	9.661943
20404.862340	-1210.711833	1704.553711	105.464691
20404.862340	-1210.711833	1703.534180	-59.003429
20404.862340	-1210.711833	1702.513672	-129.744522
20404.862340	-1210.711833	1701.494141	47.843182
20404.862340	-1210.711833	1700.473633	21.490154
20404.862340	-1210.711833	1699.453125	13.821863
20404.862340	-1210.711833	1698.432617	-143.769409
20404.862340	-1210.711833	1697.412109	-139.819122
20404.862340	-1210.711833	1696.390625	-311.494690
20404.862340	-1210.711833	1695.369141	-185.948715
20404.862340	-1210.711833	1694.347656	-48.811321
20404.862340	-1210.711833	1693.326172	-173.794693
20404.862340	-1210.711833	1692.304688	-109.334625
20404.862340	-1210.711833	1691.282227	8.819227
20404.862340	-1210.711833	1690.260742	73.105843
20404.862340	-1210.711833	1689.238281	67.176506
20404.862340	-1210.711833	1688.214844	149.994736
20404.862340	-1210.711833	1687.192383	125.249809
20404.862340	-1210.711833	1686.168945	-51.404293
20404.862340	-1210.711833	1685.146484	-167.301529
20404.862340	-1210.711833	1684.123047	-19.324219
20404.862340	-1210.711833	1683.099609	-34.895756
20404.862340	-1210.711833	1682.075195	224.939926
20404.862340	-1210.711833	1681.051758	31.845377
20404.862340	-1210.711833	1680.027344	121.122498
20404.862340	-1210.711833	1679.002930	49.334461
20404.862340	-1210.711833	1677.978516	143.145187
20404.862340	-1210.711833	1676.953125	87.602371
20404.862340	-1210.711833	1675.928711	36.709827
20404.862340	-1210.711833	1674.903320	86.026909
20404.862340	-1210.711833	1673.877930	102.650223
20404.862340	-1210.711833	1672.852539	273.028900
20404.862340	-1210.711833	1671.826172	96.128418
20404.862340	-1210.711833	1670.800781	224.429596
20404.862340	-1210.711833	1669.774414	170.964096
20404.862340	-1210.711833	1668.748047	375.953735
20404.862340	-1210.711833	1667.721680	415.527405
20404.862340	-1210.711833	1666.694336	254.856476
20404.862340	-1210.711833	1665.667969	191.966049
20404.862340	-1210.711833	1664.640625	257.026215
20404.862340	-1210.711833	1663.613281	461.606628
20404.862340	-1210.711833	1662.585938	510.239471
20404.862340	-1210.711833	1661.557617	256.501373
20404.862340	-1210.711833	1660.530273	272.539795
20404.862340	-1210.711833	1659.501953	523.308716
20404.862340	-1210.711833	1658.473633	578.725586
20404.862340	-1210.711833	1657.444336	343.625824
20404.862340	-1210.711833	1656.416016	480.310364
20404.862340	-1210.711833	1655.386719	589.030884
20404.862340	-1210.711833	1654.358398	502.620758
20404.862340	-1210.711833	1653.328125	564.794739
20404.862340	-1210.711833	1652.298828	808.000183
20404.862340	-1210.711833	1651.269531	716.871155
20404.862340	-1210.711833	1650.239258	811.383545
20404.862340	-1210.711833	1649.208984	989.359375
20404.862340	-1210.711833	1648.178711	868.016418
20404.862340	-1210.711833	1647.148438	1178.064697
20404.862340	-1210.711833	1646.117188	1239.860962
20404.862340	-1210.711833	1645.086914	1067.482788
20404.862340	-1210.711833	1644.055664	1161.690430
20404.862340	-1210.711833	1643.024414	1325.367676
20404.862340	-1210.711833	1641.992188	1162.270386
20404.862340	-1210.711833	1640.960938	1328.172852
20404.862340	-1210.711833	1639.928711	1371.236572
20404.862340	-1210.711833	1638.896484	1604.149902
20404.862340	-1210.711833	1637.864258	1661.012329
20404.862340	-1210.711833	1636.832031	1558.131836
20404.862340	-1210.711833	1635.798828	1564.039673
20404.862340	-1210.711833	1634.766602	1583.831421
20404.862340	-1210.711833	1633.733398	1601.284668
20404.862340	-1210.711833	1632.699219	1727.418213
20404.862340	-1210.711833	1631.666016	1305.467041
20404.862340	-1210.711833	1630.632813	1255.904175
20404.862340	-1210.711833	1629.598633	1467.547974
20404.862340	-1210.711833	1628.564453	1570.488525
20404.862340	-1210.711833	1627.530273	1682.631836
20404.862340	-1210.711833	1626.495117	1542.911011
20404.862340	-1210.711833	1625.460938	1398.639282
20404.862340	-1210.711833	1624.425781	1785.548340
20404.862340	-1210.711833	1623.390625	1659.751587
20404.862340	-1210.711833	1622.355469	1695.595581
20404.862340	-1210.711833	1621.319336	1438.313232
20404.862340	-1210.711833	1620.284180	1499.582764
20404.862340	-1210.711833	1619.248047	1558.518188
20404.862340	-1210.711833	1618.211914	1479.045044
20404.862340	-1210.711833	1617.174805	1694.786621
20404.862340	-1210.711833	1616.138672	1564.614746
20404.862340	-1210.711833	1615.101563	1625.829834
20404.862340	-1210.711833	1614.065430	1463.482056
20404.862340	-1210.711833	1613.027344	1556.970947
20404.862340	-1210.711833	1611.990234	1583.638428
20404.862340	-1210.711833	1610.953125	1601.098267
20404.862340	-1210.711833	1609.915039	1487.287354
20404.862340	-1210.711833	1608.876953	1573.861694
20404.862340	-1210.711833	1607.838867	1559.130005
20404.862340	-1210.711833	1606.800781	1590.458618
20404.862340	-1210.711833	1605.761719	1702.328369
20404.862340	-1210.711833	1604.723633	1791.182007
20404.862340	-1210.711833	1603.684570	1923.719727
20404.862340	-1210.711833	1602.644531	1743.439697
20404.862340	-1210.711833	1601.605469	1666.742188
20404.862340	-1210.711833	1600.566406	1755.626099
20404.862340	-1210.711833	1599.526367	1616.941528
20404.862340	-1210.711833	1598.486328	1659.887329
20404.862340	-1210.711833	1597.446289	2015.322754
20404.862340	-1210.711833	1596.405273	1812.429565
20404.862340	-1210.711833	1595.365234	1683.155396
20404.862340	-1210.711833	1594.324219	1822.618042
20404.862340	-1210.711833	1593.283203	1900.073730
20404.862340	-1210.711833	1592.242188	1830.631836
20404.862340	-1210.711833	1591.200195	1818.617676
20404.862340	-1210.711833	1590.159180	1820.422729
20404.862340	-1210.711833	1589.117188	2017.249512
20404.862340	-1210.711833	1588.075195	1941.102783
20404.862340	-1210.711833	1587.032227	2133.313965
20404.862340	-1210.711833	1585.990234	2018.283936
20404.862340	-1210.711833	1584.947266	2077.541504
20404.862340	-1210.711833	1583.904297	2024.523193
20404.862340	-1210.711833	1582.861328	1767.643066
20404.862340	-1210.711833	1581.818359	2113.412598
20404.862340	-1210.711833	1580.775391	1978.102661
20404.862340	-1210.711833	1579.731445	2163.483154
20404.862340	-1210.711833	1578.687500	2122.176758
20404.862340	-1210.711833	1577.643555	1971.060303
20404.862340	-1210.711833	1576.598633	1980.249878
20404.862340	-1210.711833	1575.554688	1872.801758
20404.862340	-1210.711833	1574.509766	1957.609863
20404.862340	-1210.711833	1573.464844	1930.361938
20404.862340	-1210.711833	1572.419922	1667.636230
20404.862340	-1210.711833	1571.374023	2036.106445
20404.862340	-1210.711833	1570.329102	2050.177002
20404.862340	-1210.711833	1569.283203	1694.040039
20404.862340	-1210.711833	1568.237305	1600.884399
20404.862340	-1210.711833	1567.191406	1704.301514
20404.862340	-1210.711833	1566.144531	1547.336792
20404.862340	-1210.711833	1565.098633	1484.138794
20404.862340	-1210.711833	1564.051758	1594.547241
20404.862340	-1210.711833	1563.004883	1702.694580
20404.862340	-1210.711833	1561.957031	1694.456055
20404.862340	-1210.711833	1560.910156	1448.976318
20404.862340	-1210.711833	1559.862305	1723.826538
20404.862340	-1210.711833	1558.814453	1469.440796
20404.862340	-1210.711833	1557.766602	1564.152954
20404.862340	-1210.711833	1556.718750	1469.647583
20404.862340	-1210.711833	1555.669922	1489.225098
20404.862340	-1210.711833	1554.621094	1296.899414
20404.862340	-1210.711833	1553.573242	1533.142822
20404.862340	-1210.711833	1552.523438	1669.102295
20404.862340	-1210.711833	1551.474609	1438.353149
20404.862340	-1210.711833	1550.424805	1294.305054
20404.862340	-1210.711833	1549.375000	1489.661865
20404.862340	-1210.711833	1548.325195	1284.348145
20404.862340	-1210.711833	1547.275391	1320.460449
20404.862340	-1210.711833	1546.225586	1411.252319
20404.862340	-1210.711833	1545.174805	1190.379883
20404.862340	-1210.711833	1544.124023	1178.951660
20404.862340	-1210.711833	1543.073242	1347.279785
20404.862340	-1210.711833	1542.022461	958.532288
20404.862340	-1210.711833	1540.970703	1254.306519
20404.862340	-1210.711833	1539.919922	843.168701
20404.862340	-1210.711833	1538.868164	1257.190063
20404.862340	-1210.711833	1537.815430	907.715454
20404.862340	-1210.711833	1536.763672	840.153137
20404.862340	-1210.711833	1535.710938	1061.135498
20404.862340	-1210.711833	1534.659180	1020.994446
20404.862340	-1210.711833	1533.606445	1017.275574
20404.862340	-1210.711833	1532.552734	975.055237
20404.862340	-1210.711833	1531.500000	864.867676
20404.862340	-1210.711833	1530.446289	870.523926
20404.862340	-1210.711833	1529.393555	826.371399
20404.862340	-1210.711833	1528.338867	895.716736
20404.862340	-1210.711833	1527.285156	645.406982
20404.862340	-1210.711833	1526.231445	821.511292
20404.862340	-1210.711833	1525.176758	1002.168457
20404.862340	-1210.711833	1524.122070	688.811401
20404.862340	-1210.711833	1523.067383	919.464294
20404.862340	-1210.711833	1522.012695	774.076904
20404.862340	-1210.711833	1520.957031	839.474976
20404.862340	-1210.711833	1519.901367	676.236511
20404.862340	-1210.711833	1518.845703	750.882629
20404.862340	-1210.711833	1517.790039	560.764587
20404.862340	-1210.711833	1516.734375	689.919006
20404.862340	-1210.711833	1515.677734	674.308777
20404.862340	-1210.711833	1514.621094	638.447998
20404.862340	-1210.711833	1513.564453	555.207275
20404.862340	-1210.711833	1512.507813	485.671143
20404.862340	-1210.711833	1511.450195	423.044037
20404.862340	-1210.711833	1510.393555	426.103455
20404.862340	-1210.711833	1509.335938	164.847504
20404.862340	-1210.711833	1508.278320	321.810181
20404.862340	-1210.711833	1507.219727	216.760681
20404.862340	-1210.711833	1506.162109	319.658295
20404.862340	-1210.711833	1505.103516	180.994141
20404.862340	-1210.711833	1504.044922	69.585884
20404.862340	-1210.711833	1502.986328	118.597107
20404.862340	-1210.711833	1501.926758	201.546478
20404.862340	-1210.711833	1500.868164	203.348267
20404.862340	-1210.711833	1499.808594	254.885193
20404.862340	-1210.711833	1498.749023	42.620884
20404.862340	-1210.711833	1497.688477	-18.363102
20404.862340	-1210.711833	1496.628906	101.159142
20404.862340	-1210.711833	1495.568359	-56.515804
20404.862340	-1210.711833	1494.507813	124.038132
20404.862340	-1210.711833	1493.447266	232.530319
20404.862340	-1210.711833	1492.386719	88.780426
20404.862340	-1210.711833	1491.325195	78.086441
20404.862340	-1210.711833	1490.263672	283.694275
20404.862340	-1210.711833	1489.202148	113.343506
20404.862340	-1210.711833	1488.140625	-79.334671
20404.862340	-1210.711833	1487.079102	-49.014759
20404.862340	-1210.711833	1486.016602	102.912247
20404.862340	-1210.711833	1484.954102	68.174103
20404.862340	-1210.711833	1483.891602	58.308186
20404.862340	-1210.711833	1482.829102	199.228836
20404.862340	-1210.711833	1481.765625	-77.977989
20404.862340	-1210.711833	1480.702148	-325.729553
20404.862340	-1210.711833	1479.638672	-170.991409
20404.862340	-1210.711833	1478.575195	-270.084656
20404.862340	-1210.711833	1477.511719	-169.134033
20404.862340	-1210.711833	1476.447266	-319.591187
20404.862340	-1210.711833	1475.382813	-184.755814
20404.862340	-1210.711833	1474.318359	-5.044721
20404.862340	-1210.711833	1473.253906	76.094032
20404.862340	-1210.711833	1472.189453	114.733864
20404.862340	-1210.711833	1471.124023	285.631653
20404.862340	-1210.711833	1470.058594	445.390442
20404.862340	-1210.711833	1468.993164	479.606995
20404.862340	-1210.711833	1467.927734	377.230713
20404.862340	-1210.711833	1466.861328	550.470032
20404.862340	-1210.711833	1465.794922	468.356201
20404.862340	-1210.711833	1464.728516	400.576813
20404.862340	-1210.711833	1463.662109	661.214966
20404.862340	-1210.711833	1462.594727	579.522522
20404.862340	-1210.711833	1461.528320	267.787079
20404.862340	-1210.711833	1460.460938	437.243866
20404.862340	-1210.711833	1459.393555	521.360779
20404.862340	-1210.711833	1458.326172	322.691681
20404.862340	-1210.711833	1457.257813	445.193970
20404.862340	-1210.711833	1456.189453	655.967041
20404.862340	-1210.711833	1455.121094	606.786377
20404.862340	-1210.711833	1454.052734	693.677368
20404.862340	-1210.711833	1452.984375	751.931885
20404.862340	-1210.711833	1451.915039	852.419128
20404.862340	-1210.711833	1450.845703	946.911682
20404.862340	-1210.711833	1449.776367	966.688843
20404.862340	-1210.711833	1448.707031	929.274963
20404.862340	-1210.711833	1447.636719	982.836365
20404.862340	-1210.711833	1446.567383	887.029541
20404.862340	-1210.711833	1445.497070	1043.258667
20404.862340	-1210.711833	1444.425781	858.445801
20404.862340	-1210.711833	1443.355469	1017.419556
20404.862340	-1210.711833	1442.285156	736.650085
20404.862340	-1210.711833	1441.213867	984.146301
20404.862340	-1210.711833	1440.142578	577.322205
20404.862340	-1210.711833	1439.070313	747.027527
20404.862340	-1210.711833	1437.999023	375.785034
20404.862340	-1210.711833	1436.926758	481.842377
20404.862340	-1210.711833	1435.854492	622.795715
20404.862340	-1210.711833	1434.782227	258.196655
20404.862340	-1210.711833	1433.709961	461.854553
20404.862340	-1210.711833	1432.636719	364.570953
20404.862340	-1210.711833	1431.563477	227.832199
20404.862340	-1210.711833	1430.490234	402.271820
20404.862340	-1210.711833	1429.416992	382.049713
20404.862340	-1210.711833	1428.343750	237.495712
20404.862340	-1210.711833	1427.269531	237.338715
20404.862340	-1210.711833	1426.195313	37.155182
20404.862340	-1210.711833	1425.121094	63.729012
20404.862340	-1210.711833	1424.046875	23.955418
20404.862340	-1210.711833	1422.971680	-105.725372
20404.862340	-1210.711833	1421.896484	-132.294983
20404.862340	-1210.711833	1420.821289	158.431793
20404.862340	-1210.711833	1419.746094	151.337463
20404.862340	-1210.711833	1418.669922	274.696594
20404.862340	-1210.711833	1417.594727	258.884888
20404.862340	-1210.711833	1416.518555	294.603333
20404.862340	-1210.711833	1415.442383	314.734802
20404.862340	-1210.711833	1414.365234	241.161743
20404.862340	-1210.711833	1413.289063	58.629967
20404.862340	-1210.711833	1412.211914	-109.717262
20404.862340	-1210.711833	1411.134766	-51.194801
20404.862340	-1210.711833	1410.057617	109.871750
20404.862340	-1210.711833	1408.979492	119.687553
20404.862340	-1210.711833	1407.902344	191.300079
20404.862340	-1210.711833	1406.824219	246.711975
20404.862340	-1210.711833	1405.746094	163.255295
20404.862340	-1210.711833	1404.666992	140.357254
20404.862340	-1210.711833	1403.588867	265.212891
20404.862340	-1210.711833	1402.509766	194.988754
20404.862340	-1210.711833	1401.430664	355.174622
20404.862340	-1210.711833	1400.351563	342.309052
20404.862340	-1210.711833	1399.271484	564.518005
20404.862340	-1210.711833	1398.192383	269.460236
20404.862340	-1210.711833	1397.112305	300.559204
20404.862340	-1210.711833	1396.031250	312.159363
20404.862340	-1210.711833	1394.951172	78.236237
20404.862340	-1210.711833	1393.871094	-18.250046
20404.862340	-1210.711833	1392.790039	-0.870258
20404.862340	-1210.711833	1391.708984	-46.247917
20404.862340	-1210.711833	1390.626953	234.887207
20404.862340	-1210.711833	1389.545898	-74.064583
20404.862340	-1210.711833	1388.463867	3.079425
20404.862340	-1210.711833	1387.381836	55.035133
20404.862340	-1210.711833	1386.299805	182.760925
20404.862340	-1210.711833	1385.217773	121.381180
20404.862340	-1210.711833	1384.134766	110.686211
20404.862340	-1210.711833	1383.051758	64.804573
20404.862340	-1210.711833	1381.968750	103.986610
20404.862340	-1210.711833	1380.885742	104.604729
20404.862340	-1210.711833	1379.802734	302.795959
20404.862340	-1210.711833	1378.718750	122.324692
20404.862340	-1210.711833	1377.634766	-118.293343
20404.862340	-1210.711833	1376.550781	14.936297
20404.862340	-1210.711833	1375.465820	-33.032314
20404.862340	-1210.711833	1374.381836	27.203224
20404.862340	-1210.711833	1373.296875	189.647507
20404.862340	-1210.711833	1372.211914	94.035522
20404.862340	-1210.711833	1371.126953	20.930029
20404.862340	-1210.711833	1370.041016	45.773788
20404.862340	-1210.711833	1368.955078	280.490936
20404.862340	-1210.711833	1367.869141	189.566101
20404.862340	-1210.711833	1366.783203	128.841324
20404.862340	-1210.711833	1365.697266	173.223068
20404.862340	-1210.711833	1364.610352	130.067596
20404.862340	-1210.711833	1363.523438	165.139389
20404.862340	-1210.711833	1362.436523	233.868347
20404.862340	-1210.711833	1361.349609	214.692184
20404.862340	-1210.711833	1360.261719	86.082680
20404.862340	-1210.711833	1359.174805	136.690704
20404.862340	-1210.711833	1358.086914	131.515335
20404.862340	-1210.711833	1356.998047	-6.352168
20404.862340	-1210.711833	1355.910156	-102.205780
20404.862340	-1210.711833	1354.821289	9.364206
20404.862340	-1210.711833	1353.732422	137.536530
20404.862340	-1210.711833	1352.643555	3.332830
20404.862340	-1210.711833	1351.554688	-185.939117
20404.862340	-1210.711833	1350.464844	-22.512943
20404.862340	-1210.711833	1349.375000	75.260460
20404.862340	-1210.711833	1348.285156	116.902718
20404.862340	-1210.711833	1347.195313	217.155167
20404.862340	-1210.711833	1346.105469	34.213264
20404.862340	-1210.711833	1345.014648	158.358353
20404.862340	-1210.711833	1343.923828	9.380738
20404.862340	-1210.711833	1342.833008	176.550079
20404.862340	-1210.711833	1341.741211	56.993626
20404.862340	-1210.711833	1340.650391	36.676975
20404.862340	-1210.711833	1339.558594	94.449326
20404.862340	-1210.711833	1338.466797	-56.487286
20404.862340	-1210.711833	1337.374023	69.758324
20404.862340	-1210.711833	1336.282227	61.821110
20404.862340	-1210.711833	1335.189453	-110.526360
20404.862340	-1210.711833	1334.096680	-155.292297
20404.862340	-1210.711833	1333.003906	133.417908
20404.862340	-1210.711833	1331.910156	-21.538443
20404.862340	-1210.711833	1330.817383	-0.408902
20404.862340	-1210.711833	1329.723633	-34.421265
20404.862340	-1210.711833	1328.629883	-66.410240
20404.862340	-1210.711833	1327.535156	-155.477295
20404.862340	-1210.711833	1326.441406	19.809212
20404.862340	-1210.711833	1325.346680	-209.327850
20404.862340	-1210.711833	1324.251953	-132.373840
20404.862340	-1210.711833	1323.156250	-85.179039
20404.862340	-1210.711833	1322.061523	-86.531990
20404.862340	-1210.711833	1320.965820	-182.183029
20404.862340	-1210.711833	1319.870117	-158.266190
20404.862340	-1210.711833	1318.774414	108.680443
20404.862340	-1210.711833	1317.678711	161.066101
20404.862340	-1210.711833	1316.582031	-30.257057
20404.862340	-1210.711833	1315.485352	-22.053171
20404.862340	-1210.711833	1314.388672	112.622108
20404.862340	-1210.711833	1313.291016	56.664063
20404.862340	-1210.711833	1312.194336	171.756821
20404.862340	-1210.711833	1311.096680	120.797417
20404.862340	-1210.711833	1309.999023	31.538057
20404.862340	-1210.711833	1308.901367	87.913307
20404.862340	-1210.711833	1307.802734	137.851868
20404.862340	-1210.711833	1306.705078	-123.803421
20404.862340	-1210.711833	1305.606445	39.276562
20404.862340	-1210.711833	1304.506836	58.800926
20404.862340	-1210.711833	1303.408203	74.183533
20404.862340	-1210.711833	1302.308594	40.288902
20404.862340	-1210.711833	1301.208984	-7.278595
20404.862340	-1210.711833	1300.109375	117.054268
20404.862340	-1210.711833	1299.009766	225.995499
20404.862340	-1210.711833	1297.909180	255.091309
20404.862340	-1210.711833	1296.808594	124.837524
20404.862340	-1210.711833	1295.708008	66.745842
20404.862340	-1210.711833	1294.607422	108.693192
20404.862340	-1210.711833	1293.506836	29.409061
20404.862340	-1210.711833	1292.405273	92.309959
20404.862340	-1210.711833	1291.303711	53.163967
20404.862340	-1210.711833	1290.202148	-65.515251
20404.862340	-1210.711833	1289.099609	201.652756
20404.862340	-1210.711833	1287.998047	7.771315
20404.862340	-1210.711833	1286.895508	89.460754
20404.862340	-1210.711833	1285.792969	-180.044189
20404.862340	-1210.711833	1284.689453	-6.093409
20404.862340	-1210.711833	1283.586914	76.825356
20404.862340	-1210.711833	1282.483398	19.429348
20404.862340	-1210.711833	1281.379883	35.505924
20404.862340	-1210.711833	1280.276367	92.334366
20404.862340	-1210.711833	1279.171875	244.729935
20404.862340	-1210.711833	1278.067383	72.193779
20404.862340	-1210.711833	1276.962891	129.613586
20404.862340	-1210.711833	1275.858398	188.047913
20404.862340	-1210.711833	1274.753906	108.752640
20404.862340	-1210.711833	1273.648438	62.984501
20404.862340	-1210.711833	1272.542969	73.659599
20404.862340	-1210.711833	1271.437500	166.358994
20404.862340	-1210.711833	1270.331055	110.726189
20404.862340	-1210.711833	1269.225586	-96.406731
20404.862340	-1210.711833	1268.119141	-105.111084
20404.862340	-1210.711833	1267.012695	177.067245
20404.862340	-1210.711833	1265.906250	-129.966492
20404.862340	-1210.711833	1264.798828	114.340500
20404.862340	-1210.711833	1263.691406	-81.899506
20404.862340	-1210.711833	1262.583984	-24.931625
20404.862340	-1210.711833	1261.476563	-58.399410
20404.862340	-1210.711833	1260.368164	-192.974655
20404.862340	-1210.711833	1259.260742	2.111052
20404.862340	-1210.711833	1258.152344	21.639135
20404.862340	-1210.711833	1257.043945	-197.302582
20404.862340	-1210.711833	1255.934570	-86.065552
20404.862340	-1210.711833	1254.825195	-45.892033
20404.862340	-1210.711833	1253.716797	-88.765495
20404.862340	-1210.711833	1252.606445	-216.056732
20404.862340	-1210.711833	1251.497070	-142.846085
20404.862340	-1210.711833	1250.387695	-207.501587
20404.862340	-1210.711833	1249.277344	-230.173508
20404.862340	-1210.711833	1248.166992	-254.253510
20404.862340	-1210.711833	1247.055664	-25.626230
20404.862340	-1210.711833	1245.945313	-146.379700
20404.862340	-1210.711833	1244.833984	-106.808624
20404.862340	-1210.711833	1243.722656	-145.041962
20404.862340	-1210.711833	1242.611328	-80.329643
20404.862340	-1210.711833	1241.499023	-166.431351
20404.862340	-1210.711833	1240.387695	-58.973083
20404.862340	-1210.711833	1239.275391	89.057014
20404.862340	-1210.711833	1238.162109	-26.763872
20404.862340	-1210.711833	1237.049805	29.816229
20404.862340	-1210.711833	1235.936523	-187.409607
20404.862340	-1210.711833	1234.823242	47.679764
20404.862340	-1210.711833	1233.709961	116.964317
20404.862340	-1210.711833	1232.596680	13.344515
20404.862340	-1210.711833	1231.482422	14.551849
20404.862340	-1210.711833	1230.369141	130.225174
20404.862340	-1210.711833	1229.253906	203.781387
20404.862340	-1210.711833	1228.139648	-139.681564
20404.862340	-1210.711833	1227.025391	2.849078
20404.862340	-1210.711833	1225.910156	58.194561
20404.862340	-1210.711833	1224.794922	-49.127312
20404.862340	-1210.711833	1223.679688	49.930458
20404.862340	-1210.711833	1222.563477	6.537720
20404.862340	-1210.711833	1221.447266	29.465275
20404.862340	-1210.711833	1220.331055	-19.080683
20404.862340	-1210.711833	1219.214844	-42.505287
20404.862340	-1210.711833	1218.098633	-15.642369
20404.862340	-1210.711833	1216.981445	74.247162
20404.862340	-1210.711833	1215.864258	-25.247393
20404.862340	-1210.711833	1214.747070	26.889753
20404.862340	-1210.711833	1213.629883	54.025959
20404.862340	-1210.711833	1212.511719	28.892422
20404.862340	-1210.711833	1211.393555	60.108837
20404.862340	-1210.711833	1210.275391	101.644135
20404.862340	-1210.711833	1209.157227	-0.809096
20404.862340	-1210.711833	1208.038086	-31.024643
20404.862340	-1210.711833	1206.918945	-40.065292
20404.862340	-1210.711833	1205.799805	-50.778492
20404.862340	-1210.711833	1204.680664	-19.880817
20404.862340	-1210.711833	1203.560547	-62.979160
20404.862340	-1210.711833	1202.441406	-121.507530
20404.862340	-1210.711833	1201.321289	-110.333275
20404.862340	-1210.711833	1200.200195	-191.298050
20404.862340	-1210.711833	1199.080078	-82.485062
20404.862340	-1210.711833	1197.958984	-162.630005
20404.862340	-1210.711833	1196.837891	-45.791405
20404.862340	-1210.711833	1195.716797	-77.978775
20404.862340	-1210.711833	1194.594727	57.650963
20404.862340	-1210.711833	1193.473633	32.661484
20404.862340	-1210.711833	1192.351563	-52.337536
20404.862340	-1210.711833	1191.229492	107.574089
20404.862340	-1210.711833	1190.106445	116.854546
20404.862340	-1210.711833	1188.984375	105.470192
20404.862340	-1210.711833	1187.861328	174.335098
20404.862340	-1210.711833	1186.738281	72.170418
20404.862340	-1210.711833	1185.614258	77.672478
20404.862340	-1210.711833	1184.491211	105.002327
20404.862340	-1210.711833	1183.367188	91.450691
20404.862340	-1210.711833	1182.243164	133.976227
20404.862340	-1210.711833	1181.119141	231.295120
20404.862340	-1210.711833	1179.994141	297.024384
20404.862340	-1210.711833	1178.869141	246.496887
20404.862340	-1210.711833	1177.744141	262.931763
20404.862340	-1210.711833	1176.619141	204.933853
20404.862340	-1210.711833	1175.493164	243.702103
20404.862340	-1210.711833	1174.368164	458.708008
20404.862340	-1210.711833	1173.242188	417.612610
20404.862340	-1210.711833	1172.115234	450.533386
20404.862340	-1210.711833	1170.989258	498.275177
20404.862340	-1210.711833	1169.862305	536.775085
20404.862340	-1210.711833	1168.735352	563.749329
20404.862340	-1210.711833	1167.608398	546.746155
20404.862340	-1210.711833	1166.481445	630.326599
20404.862340	-1210.711833	1165.353516	551.355164
20404.862340	-1210.711833	1164.225586	583.280701
20404.862340	-1210.711833	1163.097656	555.382996
20404.862340	-1210.711833	1161.968750	434.470703
20404.862340	-1210.711833	1160.840820	520.510864
20404.862340	-1210.711833	1159.711914	559.976868
20404.862340	-1210.711833	1158.583008	530.862732
20404.862340	-1210.711833	1157.453125	509.299255
20404.862340	-1210.711833	1156.324219	566.261658
20404.862340	-1210.711833	1155.194336	627.474976
20404.862340	-1210.711833	1154.064453	557.136536
20404.862340	-1210.711833	1152.933594	339.758881
20404.862340	-1210.711833	1151.803711	346.763916
20404.862340	-1210.711833	1150.672852	394.971924
20404.862340	-1210.711833	1149.541992	413.257324
20404.862340	-1210.711833	1148.411133	349.182220
20404.862340	-1210.711833	1147.279297	272.752014
20404.862340	-1210.711833	1146.147461	353.706543
20404.862340	-1210.711833	1145.015625	183.069870
20404.862340	-1210.711833	1143.883789	334.052582
20404.862340	-1210.711833	1142.750977	98.253609
20404.862340	-1210.711833	1141.619141	199.327515
20404.862340	-1210.711833	1140.486328	114.150208
20404.862340	-1210.711833	1139.352539	198.371597
20404.862340	-1210.711833	1138.219727	270.029419
20404.862340	-1210.711833	1137.085938	268.172119
20404.862340	-1210.711833	1135.952148	199.876068
20404.862340	-1210.711833	1134.818359	258.470123
20404.862340	-1210.711833	1133.683594	257.212921
20404.862340	-1210.711833	1132.549805	316.225891
20404.862340	-1210.711833	1131.415039	351.373291
20404.862340	-1210.711833	1130.279297	443.884216
20404.862340	-1210.711833	1129.144531	617.111938
20404.862340	-1210.711833	1128.008789	551.099976
20404.862340	-1210.711833	1126.873047	447.322815
20404.862340	-1210.711833	1125.737305	345.957947
20404.862340	-1210.711833	1124.601563	507.662415
20404.862340	-1210.711833	1123.464844	417.240265
20404.862340	-1210.711833	1122.328125	427.746338
20404.862340	-1210.711833	1121.191406	453.917725
20404.862340	-1210.711833	1120.054688	328.959351
20404.862340	-1210.711833	1118.916992	438.802002
20404.862340	-1210.711833	1117.779297	403.559387
20404.862340	-1210.711833	1116.641602	186.153183
20404.862340	-1210.711833	1115.503906	330.173126
20404.862340	-1210.711833	1114.365234	243.620148
20404.862340	-1210.711833	1113.226563	164.622818
20404.862340	-1210.711833	1112.087891	125.418343
20404.862340	-1210.711833	1110.949219	279.074005
20404.862340	-1210.711833	1109.809570	310.634430
20404.862340	-1210.711833	1108.669922	342.004883
20404.862340	-1210.711833	1107.530273	405.724365
20404.862340	-1210.711833	1106.390625	390.998810
20404.862340	-1210.711833	1105.250000	161.257462
20404.862340	-1210.711833	1104.109375	438.841370
20404.862340	-1210.711833	1102.968750	344.802277
20404.862340	-1210.711833	1101.828125	270.500488
20404.862340	-1210.711833	1100.686523	366.013397
20404.862340	-1210.711833	1099.544922	255.471451
20404.862340	-1210.711833	1098.403320	413.029907
20404.862340	-1210.711833	1097.261719	260.354828
20404.862340	-1210.711833	1096.120117	207.495956
20404.862340	-1210.711833	1094.977539	323.028473
20404.862340	-1210.711833	1093.834961	351.163300
20404.862340	-1210.711833	1092.691406	206.919785
20404.862340	-1210.711833	1091.548828	250.687943
20404.862340	-1210.711833	1090.405273	214.512299
20404.862340	-1210.711833	1089.261719	278.799347
20404.862340	-1210.711833	1088.118164	181.128265
20404.862340	-1210.711833	1086.973633	142.667542
20404.862340	-1210.711833	1085.829102	161.097366
20404.862340	-1210.711833	1084.684570	113.774246
20404.862340	-1210.711833	1083.540039	128.117233
20404.862340	-1210.711833	1082.395508	75.314919
20404.862340	-1210.711833	1081.250000	115.230827
20404.862340	-1210.711833	1080.104492	283.374573
20404.862340	-1210.711833	1078.958984	150.327377
20404.862340	-1210.711833	1077.812500	286.226990
20404.862340	-1210.711833	1076.666016	307.846924
20404.862340	-1210.711833	1075.519531	127.130676
20404.862340	-1210.711833	1074.373047	300.053070
20404.862340	-1210.711833	1073.226563	180.400345
20404.862340	-1210.711833	1072.079102	247.897934
20404.862340	-1210.711833	1070.931641	169.707382
20404.862340	-1210.711833	1069.784180	352.844513
20404.862340	-1210.711833	1068.635742	321.547241
20404.862340	-1210.711833	1067.487305	345.562317
20404.862340	-1210.711833	1066.338867	531.649719
20404.862340	-1210.711833	1065.190430	407.310608
20404.862340	-1210.711833	1064.041992	388.836243
20404.862340	-1210.711833	1062.892578	314.101990
20404.862340	-1210.711833	1061.743164	303.445740
20404.862340	-1210.711833	1060.593750	312.126556
20404.862340	-1210.711833	1059.443359	310.422852
20404.862340	-1210.711833	1058.292969	255.895493
20404.862340	-1210.711833	1057.142578	151.839615
20404.862340	-1210.711833	1055.992188	179.901031
20404.862340	-1210.711833	1054.841797	67.749939
20404.862340	-1210.711833	1053.690430	156.650879
20404.862340	-1210.711833	1052.539063	-0.988352
20404.862340	-1210.711833	1051.387695	-37.269005
20404.862340	-1210.711833	1050.235352	122.226616
20404.862340	-1210.711833	1049.083984	-7.563552
20404.862340	-1210.711833	1047.931641	-47.996845
20404.862340	-1210.711833	1046.778320	3.777471
20404.862340	-1210.711833	1045.625977	50.480919
20404.862340	-1210.711833	1044.472656	-56.031296
20404.862340	-1210.711833	1043.319336	-110.635986
20404.862340	-1210.711833	1042.166016	-114.518356
20404.862340	-1210.711833	1041.012695	-94.259094
20404.862340	-1210.711833	1039.858398	66.667419
20404.862340	-1210.711833	1038.704102	-125.328262
20404.862340	-1210.711833	1037.549805	-159.065109
20404.862340	-1210.711833	1036.394531	51.182560
20404.862340	-1210.711833	1035.239258	-58.281960
20404.862340	-1210.711833	1034.083984	45.388412
20404.862340	-1210.711833	1032.928711	27.236071
20404.862340	-1210.711833	1031.773438	-29.876280
20404.862340	-1210.711833	1030.617188	-63.659748
20404.862340	-1210.711833	1029.460938	149.381668
20404.862340	-1210.711833	1028.304688	-166.266251
20404.862340	-1210.711833	1027.147461	-89.141922
20404.862340	-1210.711833	1025.991211	-79.674141
20404.862340	-1210.711833	1024.833984	22.670158
20404.862340	-1210.711833	1023.675781	96.219391
20404.862340	-1210.711833	1022.518555	-10.111163
20404.862340	-1210.711833	1021.360352	-57.638348
20404.862340	-1210.711833	1020.202148	-128.483841
20404.862340	-1210.711833	1019.043945	57.514896
20404.862340	-1210.711833	1017.884766	-170.818588
20404.862340	-1210.711833	1016.726563	105.223503
20404.862340	-1210.711833	1015.567383	28.487906
20404.862340	-1210.711833	1014.407227	-80.734039
20404.862340	-1210.711833	1013.248047	76.870285
20404.862340	-1210.711833	1012.087891	76.369972
20404.862340	-1210.711833	1010.927734	-56.877697
20404.862340	-1210.711833	1009.767578	-14.326351
20404.862340	-1210.711833	1008.606445	123.537605
20404.862340	-1210.711833	1007.446289	-91.585991
20404.862340	-1210.711833	1006.285156	100.113693
20404.862340	-1210.711833	1005.123047	354.004181
20404.862340	-1210.711833	1003.961914	217.533691
20404.862340	-1210.711833	1002.799805	327.336975
20404.862340	-1210.711833	1001.637695	189.486542
20404.862340	-1210.711833	1000.475586	221.528824
20404.862340	-1210.711833	999.312500	121.513184
20404.862340	-1210.711833	998.149414	190.758377
20404.862340	-1210.711833	996.986328	208.661423
20404.862340	-1210.711833	995.823242	138.768738
20404.862340	-1210.711833	994.659180	222.080719
20404.862340	-1210.711833	993.496094	154.511200
20404.862340	-1210.711833	992.332031	236.843597
20404.862340	-1210.711833	991.166992	287.790222
20404.862340	-1210.711833	990.002930	202.829681
20404.862340	-1210.711833	988.837891	205.291992
20404.862340	-1210.711833	987.672852	7.842978
20404.862340	-1210.711833	986.506836	189.975937
20404.862340	-1210.711833	985.341797	27.716648
20404.862340	-1210.711833	984.175781	6.802053
20404.862340	-1210.711833	983.009766	89.872772
20404.862340	-1210.711833	981.843750	173.172531
20404.862340	-1210.711833	980.676758	116.334045
20404.862340	-1210.711833	979.509766	-57.829079
20404.862340	-1210.711833	978.342773	124.630974
20404.862340	-1210.711833	977.175781	66.433510
20404.862340	-1210.711833	976.007813	-14.882635
20404.862340	-1210.711833	974.839844	-189.336716
20404.862340	-1210.711833	973.671875	35.794468
20404.862340	-1210.711833	972.503906	-12.010013
20404.862340	-1210.711833	971.334961	-6.225113
20404.862340	-1210.711833	970.166016	-66.749840
20404.862340	-1210.711833	968.997070	-79.973289
20404.862340	-1210.711833	967.828125	-95.374405
20404.862340	-1210.711833	966.658203	-105.227097
20404.862340	-1210.711833	965.488281	17.078550
20404.862340	-1210.711833	964.318359	85.170044
20404.862340	-1210.711833	963.148438	137.693436
20404.862340	-1210.711833	961.977539	200.296555
20404.862340	-1210.711833	960.806641	131.224228
20404.862340	-1210.711833	959.635742	-109.135315
20404.862340	-1210.711833	958.463867	132.578568
20404.862340	-1210.711833	957.292969	313.174530
20404.862340	-1210.711833	956.121094	385.467010
20404.862340	-1210.711833	954.948242	302.528778
20404.862340	-1210.711833	953.776367	179.103180
20404.862340	-1210.711833	952.603516	63.874626
20404.862340	-1210.711833	951.430664	353.294189
20404.862340	-1210.711833	950.257813	241.738419
20404.862340	-1210.711833	949.084961	133.357239
20404.862340	-1210.711833	947.911133	198.781525
20404.862340	-1210.711833	946.737305	294.845306
20404.862340	-1210.711833	945.563477	296.497345
20404.862340	-1210.711833	944.388672	32.844990
20404.862340	-1210.711833	943.213867	263.242828
20404.862340	-1210.711833	942.039063	-15.265617
20404.862340	-1210.711833	940.864258	-19.895687
20404.862340	-1210.711833	939.688477	32.197216
20404.862340	-1210.711833	938.513672	177.540298
20404.862340	-1210.711833	937.337891	-79.327225
20404.862340	-1210.711833	936.161133	4.924181
20404.862340	-1210.711833	934.985352	143.902908
20404.862340	-1210.711833	933.808594	176.245682
20404.862340	-1210.711833	932.631836	175.687119
20404.862340	-1210.711833	931.454102	314.409546
20404.862340	-1210.711833	930.277344	361.683594
20404.862340	-1210.711833	929.099609	295.937805
20404.862340	-1210.711833	927.921875	123.636383
20404.862340	-1210.711833	926.743164	286.105072
20404.862340	-1210.711833	925.565430	235.481873
20404.862340	-1210.711833	924.386719	121.882629
20404.862340	-1210.711833	923.208008	164.721802
20404.862340	-1210.711833	922.028320	164.078995
20404.862340	-1210.711833	920.849609	87.402817
20404.862340	-1210.711833	919.669922	88.599060
20404.862340	-1210.711833	919.474609	-134.550323
20404.862340	-1210.711833	918.309570	131.825592
20404.862340	-1210.711833	917.143555	-40.372017
20404.862340	-1210.711833	915.977539	110.827995
20404.862340	-1210.711833	914.810547	94.887909
20404.862340	-1210.711833	913.644531	50.737915
20404.862340	-1210.711833	912.477539	-132.210541
20404.862340	-1210.711833	911.310547	25.329107
20404.862340	-1210.711833	910.143555	-38.336071
20404.862340	-1210.711833	908.975586	-141.001694
20404.862340	-1210.711833	907.807617	1.232118
20404.862340	-1210.711833	906.639648	91.396049
20404.862340	-1210.711833	905.471680	71.039299
20404.862340	-1210.711833	904.303711	124.309700
20404.862340	-1210.711833	903.134766	12.989703
20404.862340	-1210.711833	901.965820	-26.859648
20404.862340	-1210.711833	900.796875	156.224899
20404.862340	-1210.711833	899.626953	99.029648
20404.862340	-1210.711833	898.457031	167.327576
20404.862340	-1210.711833	897.287109	185.837784
20404.862340	-1210.711833	896.117188	37.809624
20404.862340	-1210.711833	894.947266	149.291290
20404.862340	-1210.711833	893.776367	-33.275738
20404.862340	-1210.711833	892.605469	199.187225
20404.862340	-1210.711833	891.434570	87.974411
20404.862340	-1210.711833	890.262695	-38.324261
20404.862340	-1210.711833	889.091797	25.494156
20404.862340	-1210.711833	887.919922	-64.045181
20404.862340	-1210.711833	886.748047	103.372742
20404.862340	-1210.711833	885.575195	240.494980
20404.862340	-1210.711833	884.403320	161.734467
20404.862340	-1210.711833	883.230469	-102.567284
20404.862340	-1210.711833	882.057617	15.075614
20404.862340	-1210.711833	880.883789	-78.707985
20404.862340	-1210.711833	879.710938	-226.371323
20404.862340	-1210.711833	878.537109	-16.086666
20404.862340	-1210.711833	877.362305	-81.803001
20404.862340	-1210.711833	876.188477	-156.118103
20404.862340	-1210.711833	875.013672	-129.139816
20404.862340	-1210.711833	873.839844	-46.168072
20404.862340	-1210.711833	872.664063	8.766079
20404.862340	-1210.711833	871.489258	-102.134026
20404.862340	-1210.711833	870.313477	109.941673
20404.862340	-1210.711833	869.138672	-97.803818
20404.862340	-1210.711833	867.962891	-57.986233
20404.862340	-1210.711833	866.786133	-91.341751
20404.862340	-1210.711833	865.610352	-64.457413
20404.862340	-1210.711833	864.433594	-252.656021
20404.862340	-1210.711833	863.256836	-116.093330
20404.862340	-1210.711833	862.079102	-287.012756
20404.862340	-1210.711833	860.902344	-118.264977
20404.862340	-1210.711833	859.724609	-67.781281
20404.862340	-1210.711833	858.546875	40.688805
20404.862340	-1210.711833	857.368164	-35.621578
20404.862340	-1210.711833	856.190430	12.657538
20404.862340	-1210.711833	855.011719	-3.500862
20404.862340	-1210.711833	853.833008	-21.801407
20404.862340	-1210.711833	852.654297	-29.367071
20404.862340	-1210.711833	851.474609	25.298903
20404.862340	-1210.711833	850.294922	112.119797
20404.862340	-1210.711833	849.115234	20.871052
20404.862340	-1210.711833	847.935547	99.074196
20404.862340	-1210.711833	846.754883	78.615585
20404.862340	-1210.711833	845.575195	116.039963
20404.862340	-1210.711833	844.393555	63.433102
20404.862340	-1210.711833	843.212891	-175.574921
20404.862340	-1210.711833	842.032227	-105.993294
20404.862340	-1210.711833	840.850586	70.651222
20404.862340	-1210.711833	839.668945	-7.609748
20404.862340	-1210.711833	838.486328	132.540741
20404.862340	-1210.711833	837.304688	37.168907
20404.862340	-1210.711833	836.122070	-43.185097
20404.862340	-1210.711833	834.939453	-121.369553
20404.862340	-1210.711833	833.756836	196.235611
20404.862340	-1210.711833	832.573242	-127.932602
20404.862340	-1210.711833	831.389648	121.109550
20404.862340	-1210.711833	830.206055	288.805359
20404.862340	-1210.711833	829.022461	251.230865
20404.862340	-1210.711833	827.838867	141.010010
20404.862340	-1210.711833	826.654297	159.028030
20404.862340	-1210.711833	825.469727	221.893585
20404.862340	-1210.711833	824.284180	156.586624
20404.862340	-1210.711833	823.099609	89.168388
20404.862340	-1210.711833	821.914063	-10.248829
20404.862340	-1210.711833	820.728516	93.138962
20404.862340	-1210.711833	819.542969	-110.810005
20404.862340	-1210.711833	818.356445	-39.455711
20404.862340	-1210.711833	817.169922	144.917923
20404.862340	-1210.711833	815.983398	-29.071110
20404.862340	-1210.711833	814.796875	-55.872231
20404.862340	-1210.711833	813.609375	17.525621
20404.862340	-1210.711833	812.422852	-62.567276
20404.862340	-1210.711833	811.235352	221.746384
20404.862340	-1210.711833	810.046875	13.808157
20404.862340	-1210.711833	808.859375	-23.651758
20404.862340	-1210.711833	807.670898	-88.785912
20404.862340	-1210.711833	806.482422	-30.411470
20404.862340	-1210.711833	805.293945	-140.231812
20404.862340	-1210.711833	804.104492	-71.242798
20404.862340	-1210.711833	802.915039	-2.289941
20404.862340	-1210.711833	801.725586	-16.339325
20404.862340	-1210.711833	800.536133	-49.532841
20404.862340	-1210.711833	799.345703	61.878693
20404.862340	-1210.711833	798.155273	-9.602558
20404.862340	-1210.711833	796.964844	-72.559914
20404.862340	-1210.711833	795.774414	70.638138
20404.862340	-1210.711833	794.583008	56.540543
20404.862340	-1210.711833	793.392578	23.318947
20404.862340	-1210.711833	792.200195	166.380524
20404.862340	-1210.711833	791.008789	122.512733
20404.862340	-1210.711833	789.816406	-118.781036
20404.862340	-1210.711833	788.625000	-1.282211
20404.862340	-1210.711833	787.432617	94.935394
20404.862340	-1210.711833	786.239258	-180.183304
20404.862340	-1210.711833	785.046875	113.277557
20404.862340	-1210.711833	783.853516	152.115204
20404.862340	-1210.711833	782.660156	-156.807877
20404.862340	-1210.711833	781.465820	-84.038605
20404.862340	-1210.711833	780.272461	26.835026
20404.862340	-1210.711833	779.078125	31.698980
20404.862340	-1210.711833	777.883789	-103.278542
20404.862340	-1210.711833	776.688477	7.486294
20404.862340	-1210.711833	775.494141	67.364555
20404.862340	-1210.711833	774.298828	120.851471
20404.862340	-1210.711833	773.103516	47.291035
20404.862340	-1210.711833	771.907227	62.631268
20404.862340	-1210.711833	770.711914	80.062653
20404.862340	-1210.711833	769.515625	74.199425
20404.862340	-1210.711833	768.318359	93.700241
20404.862340	-1210.711833	767.122070	195.642380
20404.862340	-1210.711833	765.924805	71.308922
20404.862340	-1210.711833	764.727539	158.378876
20404.862340	-1210.711833	763.530273	167.200394
20404.862340	-1210.711833	762.333008	80.919456
20404.862340	-1210.711833	761.134766	41.125492
20404.862340	-1210.711833	759.936523	98.476089
20404.862340	-1210.711833	758.738281	183.229523
20404.862340	-1210.711833	757.540039	8.263199
20404.862340	-1210.711833	756.340820	-101.224152
20404.862340	-1210.711833	755.141602	139.600876
20404.862340	-1210.711833	753.942383	-164.015182
20404.862340	-1210.711833	752.742188	-83.634422
20404.862340	-1210.711833	751.541992	-13.857955
20404.862340	-1210.711833	750.341797	192.910355
20404.862340	-1210.711833	749.141602	-112.675728
20404.862340	-1210.711833	747.941406	-11.404843
20404.862340	-1210.711833	746.740234	30.796524
20404.862340	-1210.711833	745.539063	-17.635542
20404.862340	-1210.711833	744.337891	123.483948
20404.862340	-1210.711833	743.135742	18.137613
20404.862340	-1210.711833	741.933594	-131.409302
20404.862340	-1210.711833	740.731445	-5.179836
20404.862340	-1210.711833	739.529297	-87.377670
20404.862340	-1210.711833	738.326172	-53.852325
20404.862340	-1210.711833	737.124023	-102.413322
20404.862340	-1210.711833	735.919922	10.954311
20404.862340	-1210.711833	734.716797	-176.448166
20404.862340	-1210.711833	733.513672	-77.896080
20404.862340	-1210.711833	732.309570	20.579248
20404.862340	-1210.711833	731.105469	-21.816301
20404.862340	-1210.711833	729.900391	-7.505700
20404.862340	-1210.711833	728.696289	189.507568
20404.862340	-1210.711833	727.491211	218.394730
20404.862340	-1210.711833	726.286133	-48.819897
20404.862340	-1210.711833	725.080078	118.574402
20404.862340	-1210.711833	723.874023	-18.463408
20404.862340	-1210.711833	722.668945	127.792389
20404.862340	-1210.711833	721.461914	62.056873
20404.862340	-1210.711833	720.255859	-93.881325
20404.862340	-1210.711833	719.048828	117.179817
20404.862340	-1210.711833	717.841797	-19.921661
20404.862340	-1210.711833	716.634766	-29.144348
20404.862340	-1210.711833	715.427734	-30.024954
20404.862340	-1210.711833	714.219727	-227.903870
20404.862340	-1210.711833	713.011719	20.450659
20404.862340	-1210.711833	711.803711	40.368118
20404.862340	-1210.711833	710.594727	-13.057406
20404.862340	-1210.711833	709.385742	-74.881172
20404.862340	-1210.711833	708.176758	-23.702389
20404.862340	-1210.711833	706.967773	79.722527
20404.862340	-1210.711833	705.758789	-40.807194
20404.862340	-1210.711833	704.548828	129.414658
20404.862340	-1210.711833	703.338867	42.285175
20404.862340	-1210.711833	702.127930	13.684315
20404.862340	-1210.711833	700.917969	133.465683
20404.862340	-1210.711833	699.707031	-87.524338
20404.862340	-1210.711833	698.496094	-26.384579
20404.862340	-1210.711833	697.285156	145.399063
20404.862340	-1210.711833	696.073242	-33.840515
20404.862340	-1210.711833	694.861328	68.852676
20404.862340	-1210.711833	693.649414	204.852127
20404.862340	-1210.711833	692.436523	286.466217
20404.862340	-1210.711833	691.224609	171.822678
20404.862340	-1210.711833	690.011719	148.973312
20404.862340	-1210.711833	688.798828	119.819672
20404.862340	-1210.711833	687.584961	232.438507
20404.862340	-1210.711833	686.372070	365.806580
20404.862340	-1210.711833	685.158203	63.350330
20404.862340	-1210.711833	683.943359	202.828934
20404.862340	-1210.711833	682.729492	373.448914
20404.862340	-1210.711833	681.514648	379.345490
20404.862340	-1210.711833	680.299805	166.467377
20404.862340	-1210.711833	679.084961	199.356155
20404.862340	-1210.711833	677.869141	452.869476
20404.862340	-1210.711833	676.653320	333.597931
20404.862340	-1210.711833	675.437500	453.653351
20404.862340	-1210.711833	674.221680	571.514771
20404.862340	-1210.711833	673.004883	406.333740
20404.862340	-1210.711833	671.789063	417.953430
20404.862340	-1210.711833	670.571289	466.927582
20404.862340	-1210.711833	669.354492	424.342285
20404.862340	-1210.711833	668.136719	441.986053
20404.862340	-1210.711833	666.919922	262.135132
20404.862340	-1210.711833	665.701172	329.536072
20404.862340	-1210.711833	664.483398	311.676941
20404.862340	-1210.711833	663.264648	368.520691
20404.862340	-1210.711833	662.045898	437.731812
20404.862340	-1210.711833	660.827148	357.376343
20404.862340	-1210.711833	659.608398	351.705933
20404.862340	-1210.711833	658.388672	196.560028
20404.862340	-1210.711833	657.168945	331.861176
20404.862340	-1210.711833	655.949219	265.838593
20404.862340	-1210.711833	654.728516	336.638184
20404.862340	-1210.711833	653.507813	386.605591
20404.862340	-1210.711833	652.287109	196.026657
20404.862340	-1210.711833	651.066406	380.571075
20404.862340	-1210.711833	649.844727	341.185394
20404.862340	-1210.711833	648.623047	413.610992
20404.862340	-1210.711833	647.401367	405.160126
20404.862340	-1210.711833	646.179688	357.297485
20404.862340	-1210.711833	644.957031	251.412811
20404.862340	-1210.711833	643.734375	329.715485
20404.862340	-1210.711833	642.511719	374.802032
20404.862340	-1210.711833	641.289063	281.177216
20404.862340	-1210.711833	640.065430	384.024506
20404.862340	-1210.711833	638.841797	416.440338
20404.862340	-1210.711833	637.618164	498.393341
20404.862340	-1210.711833	636.393555	365.244659
20404.862340	-1210.711833	635.168945	329.217804
20404.862340	-1210.711833	633.944336	235.275635
20404.862340	-1210.711833	632.719727	256.989380
20404.862340	-1210.711833	631.494141	406.673126
20404.862340	-1210.711833	630.269531	335.267914
20404.862340	-1210.711833	629.042969	218.390671
20404.862340	-1210.711833	627.817383	250.110016
20404.862340	-1210.711833	626.590820	547.955261
20404.862340	-1210.711833	625.365234	164.729248
20404.862340	-1210.711833	624.137695	429.308136
20404.862340	-1210.711833	622.911133	386.410645
20404.862340	-1210.711833	621.683594	285.718018
20404.862340	-1210.711833	620.456055	438.560181
20404.862340	-1210.711833	619.228516	166.682343
20404.862340	-1210.711833	618.000977	94.728157
20404.862340	-1210.711833	616.772461	206.083496
20404.862340	-1210.711833	615.543945	129.879303
20404.862340	-1210.711833	614.314453	68.044289
20404.862340	-1210.711833	613.085938	61.757603
20404.862340	-1210.711833	611.856445	106.856003
20404.862340	-1210.711833	610.626953	190.964859
20404.862340	-1210.711833	609.397461	-23.383379
20404.862340	-1210.711833	608.166992	262.165619
20404.862340	-1210.711833	606.936523	55.968853
20404.862340	-1210.711833	605.706055	211.690689
20404.862340	-1210.711833	604.474609	26.001707
20404.862340	-1210.711833	603.244141	200.017609
20404.862340	-1210.711833	602.012695	69.750183
20404.862340	-1210.711833	600.780273	103.822662
20404.862340	-1210.711833	599.548828	-16.241684
20404.862340	-1210.711833	598.316406	157.340149
20404.862340	-1210.711833	597.083984	26.904274
20404.862340	-1210.711833	595.851563	-52.227638
20404.862340	-1210.711833	594.618164	-26.732931
20404.862340	-1210.711833	593.384766	166.937576
20404.862340	-1210.711833	592.151367	-6.754707
20404.862340	-1210.711833	590.917969	6.202376
20404.862340	-1210.711833	589.683594	125.709465
20404.862340	-1210.711833	588.449219	-101.376366
20404.862340	-1210.711833	587.214844	79.459061
20404.862340	-1210.711833	585.979492	-82.082947
20404.862340	-1210.711833	584.745117	59.610203
20404.862340	-1210.711833	583.509766	-3.667825
20404.862340	-1210.711833	582.273438	2.640037
20404.862340	-1210.711833	581.038086	-7.492942
20404.862340	-1210.711833	579.801758	-5.410050
20404.862340	-1210.711833	578.565430	254.486526
20404.862340	-1210.711833	577.329102	35.394680
20404.862340	-1210.711833	576.091797	-120.253113
20404.862340	-1210.711833	574.854492	37.040569
20404.862340	-1210.711833	573.617188	138.994156
20404.862340	-1210.711833	572.378906	36.389633
20404.862340	-1210.711833	571.141602	-0.815470
20404.862340	-1210.711833	569.903320	313.427490
20404.862340	-1210.711833	568.664063	-79.461929
20404.862340	-1210.711833	567.425781	93.599045
20404.862340	-1210.711833	566.186523	80.674492
20404.862340	-1210.711833	564.947266	32.986877
20404.862340	-1210.711833	563.708008	213.902176
20404.862340	-1210.711833	562.467773	188.539078
20404.862340	-1210.711833	561.227539	183.538162
20404.862340	-1210.711833	559.987305	80.560379
20404.862340	-1210.711833	558.747070	242.730515
20404.862340	-1210.711833	557.505859	100.925926
20404.862340	-1210.711833	556.264648	128.350876
20404.862340	-1210.711833	555.023438	-68.506531
20404.862340	-1210.711833	553.781250	72.958519
20404.862340	-1210.711833	552.539063	161.340057
20404.862340	-1210.711833	551.296875	111.114487
20404.862340	-1210.711833	550.054688	162.694778
20404.862340	-1210.711833	548.811523	43.159233
20404.862340	-1210.711833	547.569336	129.246292
20404.862340	-1210.711833	546.325195	-0.506172
20404.862340	-1210.711833	545.082031	34.584419
20404.862340	-1210.711833	543.837891	71.644417
20404.862340	-1210.711833	542.593750	141.189056
20404.862340	-1210.711833	541.349609	-31.332539
20404.862340	-1210.711833	540.105469	-47.270123
20404.862340	-1210.711833	538.860352	-201.472351
20404.862340	-1210.711833	537.615234	-180.872101
20404.862340	-1210.711833	536.369141	67.236603
20404.862340	-1210.711833	535.124023	-15.907219
20404.862340	-1210.711833	533.877930	-44.225513
20404.862340	-1210.711833	532.631836	79.722954
20404.862340	-1210.711833	531.384766	-68.457512
20404.862340	-1210.711833	530.138672	-50.169312
20404.862340	-1210.711833	528.891602	-102.953743
20404.862340	-1210.711833	527.643555	-52.287598
20404.862340	-1210.711833	526.396484	136.259857
20404.862340	-1210.711833	525.148438	-3.834285
20404.862340	-1210.711833	523.900391	-133.761490
20404.862340	-1210.711833	522.652344	-46.769997
20404.862340	-1210.711833	521.403320	-107.793839
20404.862340	-1210.711833	520.154297	27.717737
20404.862340	-1210.711833	518.905273	140.860199
20404.862340	-1210.711833	517.656250	-47.842304
20404.862340	-1210.711833	516.406250	338.563782
20404.862340	-1210.711833	515.156250	289.526672
20404.862340	-1210.711833	513.906250	1.653458
20404.862340	-1210.711833	512.655273	124.654442
20404.862340	-1210.711833	511.404297	190.930939
20404.862340	-1210.711833	510.153320	32.636879
20404.862340	-1210.711833	508.902344	80.659554
20404.862340	-1210.711833	507.650391	37.649529
20404.862340	-1210.711833	506.398438	-167.074936
20404.862340	-1210.711833	505.146484	-7.961558
20404.862340	-1210.711833	503.893555	-89.386292
20404.862340	-1210.711833	502.641602	-130.385941
20404.862340	-1210.711833	501.388672	-167.356461
20404.862340	-1210.711833	500.134766	-50.879547
20404.862340	-1210.711833	498.881836	-83.852402
20404.862340	-1210.711833	497.627930	-189.498306
20404.862340	-1210.711833	496.374023	-345.564606
20404.862340	-1210.711833	495.119141	69.354713
20404.862340	-1210.711833	493.865234	-213.810516
20404.862340	-1210.711833	492.610352	-285.136353
20404.862340	-1210.711833	491.355469	-239.511871
20404.862340	-1210.711833	490.099609	-230.215866
20404.862340	-1210.711833	488.843750	-43.595512
20404.862340	-1210.711833	487.587891	-86.768051
20404.862340	-1210.711833	486.332031	15.098433
20404.862340	-1210.711833	485.075195	2.096933
20404.862340	-1210.711833	483.818359	-135.759521
20404.862340	-1210.711833	482.561523	-213.181198
20404.862340	-1210.711833	481.304688	-187.940887
20404.862340	-1210.711833	480.046875	-100.358963
20404.862340	-1210.711833	478.789063	59.591042
20404.862340	-1210.711833	477.531250	80.664444
20404.862340	-1210.711833	476.272461	-161.736710
20404.862340	-1210.711833	475.013672	40.271309
20404.862340	-1210.711833	473.754883	59.250229
20404.862340	-1210.711833	472.496094	-148.894547
20404.862340	-1210.711833	471.236328	-7.375591
20404.862340	-1210.711833	469.976563	19.553839
20404.862340	-1210.711833	468.716797	-7.780202
20404.862340	-1210.711833	467.456055	115.455299
20404.862340	-1210.711833	466.196289	-36.410301
20404.862340	-1210.711833	464.935547	164.994095
20404.862340	-1210.711833	463.673828	292.025360
20404.862340	-1210.711833	462.413086	118.046867
20404.862340	-1210.711833	461.151367	48.399025
20404.862340	-1210.711833	459.889648	91.042801
20404.862340	-1210.711833	458.626953	-10.731615
20404.862340	-1210.711833	457.364258	99.969185
20404.862340	-1210.711833	456.101563	44.243702
20404.862340	-1210.711833	454.838867	-75.617310
20404.862340	-1210.711833	453.575195	-69.284210
20404.862340	-1210.711833	452.312500	55.166428
20404.862340	-1210.711833	451.047852	137.443634
20404.862340	-1210.711833	449.784180	135.559662
20404.862340	-1210.711833	448.519531	137.611938
20404.862340	-1210.711833	447.254883	3.534150
20404.862340	-1210.711833	445.990234	61.503849
20404.862340	-1210.711833	444.725586	235.388870
20404.862340	-1210.711833	443.459961	5.176619
20404.862340	-1210.711833	442.194336	106.868729
20404.862340	-1210.711833	440.927734	-53.418907
20404.862340	-1210.711833	439.662109	12.108692
20404.862340	-1210.711833	438.395508	-12.397367
20404.862340	-1210.711833	437.127930	180.738220
20404.862340	-1210.711833	435.861328	70.143326
20404.862340	-1210.711833	434.593750	31.367571
20404.862340	-1210.711833	433.326172	116.270241
20404.862340	-1210.711833	432.058594	-154.228760
20404.862340	-1210.711833	430.790039	60.142715
20404.862340	-1210.711833	429.521484	2.986778
20404.862340	-1210.711833	428.252930	195.044052
20404.862340	-1210.711833	426.984375	151.584274
20404.862340	-1210.711833	425.714844	115.970207
20404.862340	-1210.711833	424.445313	72.254677
20404.862340	-1210.711833	423.174805	54.303696
20404.862340	-1210.711833	421.905273	249.395355
20404.862340	-1210.711833	420.634766	181.293762
20404.862340	-1210.711833	419.364258	268.387238
20404.862340	-1210.711833	418.092773	281.583374
20404.862340	-1210.711833	416.822266	161.227692
20404.862340	-1210.711833	415.550781	406.915375
20404.862340	-1210.711833	414.278320	65.303055
20404.862340	-1210.711833	413.006836	37.953224
20404.862340	-1210.711833	411.734375	253.031631
20404.862340	-1210.711833	410.461914	99.922882
20404.862340	-1210.711833	409.188477	73.864662
20404.862340	-1210.711833	407.916016	192.679459
20404.862340	-1210.711833	406.642578	239.636032
20404.862340	-1210.711833	405.368164	-55.426388
20404.862340	-1210.711833	404.094727	145.953613
20404.862340	-1210.711833	402.820313	180.132584
20404.862340	-1210.711833	401.545898	120.681885
20404.862340	-1210.711833	400.270508	116.515373
20404.862340	-1210.711833	398.996094	131.888931
20404.862340	-1210.711833	397.720703	142.941208
20404.862340	-1210.711833	396.444336	12.785448
20404.862340	-1210.711833	395.168945	-10.560258
20404.862340	-1210.711833	393.892578	-212.738144
20404.862340	-1210.711833	392.616211	161.675995
20404.862340	-1210.711833	391.339844	263.995941
20404.862340	-1210.711833	390.062500	98.330856
20404.862340	-1210.711833	388.785156	114.577339
20404.862340	-1210.711833	387.507813	86.800026
20404.862340	-1210.711833	386.229492	163.517044
20404.862340	-1210.711833	384.951172	-7.752169
20404.862340	-1210.711833	383.672852	202.591980
20404.862340	-1210.711833	382.394531	-112.090576
20404.862340	-1210.711833	381.115234	63.506191
20404.862340	-1210.711833	379.835938	92.106575
20404.862340	-1210.711833	378.556641	228.912018
20404.862340	-1210.711833	377.277344	46.743626
20404.862340	-1210.711833	375.997070	51.840523
20404.862340	-1210.711833	374.716797	333.020599
20404.862340	-1210.711833	373.435547	24.583599
20404.862340	-1210.711833	372.155273	266.827820
20404.862340	-1210.711833	370.874023	217.929962
20404.862340	-1210.711833	369.591797	274.969513
20404.862340	-1210.711833	368.310547	33.178928
20404.862340	-1210.711833	367.028320	213.131683
20404.862340	-1210.711833	365.746094	163.331161
20404.862340	-1210.711833	364.463867	363.335846
20404.862340	-1210.711833	363.180664	152.132339
20404.862340	-1210.711833	361.897461	-57.838352
20404.862340	-1210.711833	360.614258	220.402466
20404.862340	-1210.711833	359.330078	20.569271
20404.862340	-1210.711833	358.045898	196.341446
20404.862340	-1210.711833	356.761719	112.980194
20404.862340	-1210.711833	355.477539	5.053704
20404.862340	-1210.711833	354.192383	6.448988
20404.862340	-1210.711833	352.907227	42.266682
20404.862340	-1210.711833	351.622070	14.024331
20404.862340	-1210.711833	350.336914	28.017200
20404.862340	-1210.711833	349.050781	29.056259
20404.862340	-1210.711833	347.764648	-138.272980
20404.862340	-1210.711833	346.477539	-129.710480
20404.862340	-1210.711833	345.191406	-33.826694
20404.862340	-1210.711833	343.904297	50.912422
20404.862340	-1210.711833	342.616211	167.720093
20404.862340	-1210.711833	341.329102	12.004899
20404.862340	-1210.711833	340.041016	-15.346596
20404.862340	-1210.711833	338.752930	252.558121
20404.862340	-1210.711833	337.463867	35.755280
20404.862340	-1210.711833	336.175781	45.404720
20404.862340	-1210.711833	334.886719	-85.864395
20404.862340	-1210.711833	333.596680	-61.640537
20404.862340	-1210.711833	332.307617	-105.669693
20404.862340	-1210.711833	331.017578	17.377035
20404.862340	-1210.711833	329.727539	-245.717148
20404.862340	-1210.711833	328.436523	-106.487511
20404.862340	-1210.711833	327.146484	-27.825932
20404.862340	-1210.711833	325.855469	-84.322113
20404.862340	-1210.711833	324.563477	0.375284
20404.862340	-1210.711833	323.272461	36.189278
20404.862340	-1210.711833	321.980469	-139.588104
20404.862340	-1210.711833	320.688477	-168.424698
20404.862340	-1210.711833	319.395508	29.749216
20404.862340	-1210.711833	318.103516	-36.486977
20404.862340	-1210.711833	316.810547	-151.850998
20404.862340	-1210.711833	315.516602	-333.978241
20404.862340	-1210.711833	314.223633	-152.373611
20404.862340	-1210.711833	312.929688	67.872131
20404.862340	-1210.711833	311.635742	25.612391
20404.862340	-1210.711833	310.340820	-17.143749
20404.862340	-1210.711833	309.045898	66.662460
20404.862340	-1210.711833	307.750977	206.539734
20404.862340	-1210.711833	306.456055	109.339478
20404.862340	-1210.711833	305.160156	195.026657
20404.862340	-1210.711833	303.865234	352.268188
20404.862340	-1210.711833	302.568359	322.989075
20404.862340	-1210.711833	301.272461	540.833313
20404.862340	-1210.711833	299.975586	574.110718
20404.862340	-1210.711833	298.678711	635.631409
