#X		#Y		#Wave		#Intensity
12353.603404	-1219.549667	1999.980469	19.457697
12353.603404	-1219.549667	1999.016602	-70.645638
12353.603404	-1219.549667	1998.052734	-102.065315
12353.603404	-1219.549667	1997.087891	-228.129166
12353.603404	-1219.549667	1996.123047	24.453503
12353.603404	-1219.549667	1995.158203	-112.446198
12353.603404	-1219.549667	1994.193359	-54.084438
12353.603404	-1219.549667	1993.228516	80.582100
12353.603404	-1219.549667	1992.262695	14.242236
12353.603404	-1219.549667	1991.297852	135.637787
12353.603404	-1219.549667	1990.332031	-57.713997
12353.603404	-1219.549667	1989.366211	-33.623878
12353.603404	-1219.549667	1988.399414	-59.385269
12353.603404	-1219.549667	1987.433594	35.703640
12353.603404	-1219.549667	1986.466797	29.024046
12353.603404	-1219.549667	1985.500977	-52.167698
12353.603404	-1219.549667	1984.534180	106.156090
12353.603404	-1219.549667	1983.567383	73.793594
12353.603404	-1219.549667	1982.599609	-52.755371
12353.603404	-1219.549667	1981.632813	104.594162
12353.603404	-1219.549667	1980.665039	9.643701
12353.603404	-1219.549667	1979.697266	-41.076946
12353.603404	-1219.549667	1978.729492	4.275973
12353.603404	-1219.549667	1977.761719	202.446350
12353.603404	-1219.549667	1976.792969	59.662346
12353.603404	-1219.549667	1975.825195	-26.528536
12353.603404	-1219.549667	1974.856445	165.940231
12353.603404	-1219.549667	1973.887695	32.474457
12353.603404	-1219.549667	1972.918945	27.131271
12353.603404	-1219.549667	1971.949219	-37.581120
12353.603404	-1219.549667	1970.980469	264.948151
12353.603404	-1219.549667	1970.010742	-61.448009
12353.603404	-1219.549667	1969.041016	-64.990852
12353.603404	-1219.549667	1968.071289	293.578735
12353.603404	-1219.549667	1967.101563	341.419037
12353.603404	-1219.549667	1966.130859	-76.485428
12353.603404	-1219.549667	1965.161133	89.365410
12353.603404	-1219.549667	1964.190430	225.484039
12353.603404	-1219.549667	1963.219727	105.381233
12353.603404	-1219.549667	1962.249023	147.682053
12353.603404	-1219.549667	1961.277344	157.872314
12353.603404	-1219.549667	1960.306641	172.884903
12353.603404	-1219.549667	1959.334961	207.487045
12353.603404	-1219.549667	1958.363281	160.819977
12353.603404	-1219.549667	1957.391602	128.849579
12353.603404	-1219.549667	1956.419922	104.197807
12353.603404	-1219.549667	1955.447266	101.616508
12353.603404	-1219.549667	1954.474609	-19.007414
12353.603404	-1219.549667	1953.501953	253.560760
12353.603404	-1219.549667	1952.529297	353.984283
12353.603404	-1219.549667	1951.556641	9.683056
12353.603404	-1219.549667	1950.583984	73.187180
12353.603404	-1219.549667	1949.610352	67.874153
12353.603404	-1219.549667	1948.636719	-8.670567
12353.603404	-1219.549667	1947.663086	57.162724
12353.603404	-1219.549667	1946.689453	-105.301590
12353.603404	-1219.549667	1945.715820	107.713844
12353.603404	-1219.549667	1944.741211	90.016312
12353.603404	-1219.549667	1943.767578	-69.957581
12353.603404	-1219.549667	1942.792969	-38.586586
12353.603404	-1219.549667	1941.818359	-88.148415
12353.603404	-1219.549667	1940.842773	-135.242630
12353.603404	-1219.549667	1939.868164	-52.408722
12353.603404	-1219.549667	1938.892578	-101.937141
12353.603404	-1219.549667	1937.916992	86.228821
12353.603404	-1219.549667	1936.941406	61.208042
12353.603404	-1219.549667	1935.965820	-34.821159
12353.603404	-1219.549667	1934.990234	-40.193295
12353.603404	-1219.549667	1934.013672	-33.305614
12353.603404	-1219.549667	1933.037109	-80.254425
12353.603404	-1219.549667	1932.060547	56.394947
12353.603404	-1219.549667	1931.083984	82.901268
12353.603404	-1219.549667	1930.107422	-103.427986
12353.603404	-1219.549667	1929.129883	-79.296181
12353.603404	-1219.549667	1928.153320	-148.078644
12353.603404	-1219.549667	1927.175781	149.970276
12353.603404	-1219.549667	1926.198242	-102.123604
12353.603404	-1219.549667	1925.219727	112.765144
12353.603404	-1219.549667	1924.242188	163.871857
12353.603404	-1219.549667	1923.263672	-173.500351
12353.603404	-1219.549667	1922.285156	43.829105
12353.603404	-1219.549667	1921.306641	-224.932861
12353.603404	-1219.549667	1920.328125	7.050518
12353.603404	-1219.549667	1919.349609	-146.775742
12353.603404	-1219.549667	1918.370117	143.770065
12353.603404	-1219.549667	1917.391602	-171.027145
12353.603404	-1219.549667	1916.412109	-300.213928
12353.603404	-1219.549667	1915.431641	-85.312271
12353.603404	-1219.549667	1914.452148	12.465219
12353.603404	-1219.549667	1913.472656	156.585052
12353.603404	-1219.549667	1912.492188	-50.429573
12353.603404	-1219.549667	1911.511719	40.096645
12353.603404	-1219.549667	1910.531250	-18.053110
12353.603404	-1219.549667	1909.550781	-85.887726
12353.603404	-1219.549667	1908.569336	-307.155579
12353.603404	-1219.549667	1907.588867	-77.628983
12353.603404	-1219.549667	1906.607422	81.221733
12353.603404	-1219.549667	1905.625977	130.470612
12353.603404	-1219.549667	1904.644531	-185.465790
12353.603404	-1219.549667	1903.662109	-38.735401
12353.603404	-1219.549667	1902.680664	-59.953026
12353.603404	-1219.549667	1901.698242	-287.959045
12353.603404	-1219.549667	1900.715820	-75.488487
12353.603404	-1219.549667	1899.733398	-4.141715
12353.603404	-1219.549667	1898.750000	108.559242
12353.603404	-1219.549667	1897.767578	-126.455200
12353.603404	-1219.549667	1896.784180	-76.911026
12353.603404	-1219.549667	1895.800781	-90.547668
12353.603404	-1219.549667	1894.817383	-130.878799
12353.603404	-1219.549667	1893.833984	-5.942535
12353.603404	-1219.549667	1892.850586	-55.928425
12353.603404	-1219.549667	1891.866211	-62.146702
12353.603404	-1219.549667	1890.881836	-75.618431
12353.603404	-1219.549667	1889.897461	0.773360
12353.603404	-1219.549667	1888.913086	-255.395401
12353.603404	-1219.549667	1887.927734	85.594269
12353.603404	-1219.549667	1886.943359	-3.015843
12353.603404	-1219.549667	1885.958008	185.003525
12353.603404	-1219.549667	1884.972656	11.555723
12353.603404	-1219.549667	1883.987305	-16.298153
12353.603404	-1219.549667	1883.001953	-148.385712
12353.603404	-1219.549667	1882.015625	5.656487
12353.603404	-1219.549667	1881.029297	-344.493988
12353.603404	-1219.549667	1880.042969	97.934776
12353.603404	-1219.549667	1879.056641	-29.171085
12353.603404	-1219.549667	1878.070313	-32.673496
12353.603404	-1219.549667	1877.083984	87.355621
12353.603404	-1219.549667	1876.096680	52.370453
12353.603404	-1219.549667	1875.109375	12.561019
12353.603404	-1219.549667	1874.122070	103.485222
12353.603404	-1219.549667	1873.134766	-154.127182
12353.603404	-1219.549667	1872.146484	72.302910
12353.603404	-1219.549667	1871.159180	-127.145668
12353.603404	-1219.549667	1870.170898	87.096153
12353.603404	-1219.549667	1869.182617	-1.041505
12353.603404	-1219.549667	1868.194336	51.085087
12353.603404	-1219.549667	1867.205078	-90.209717
12353.603404	-1219.549667	1866.216797	41.656803
12353.603404	-1219.549667	1865.227539	-44.024754
12353.603404	-1219.549667	1864.238281	-16.130936
12353.603404	-1219.549667	1863.249023	113.191895
12353.603404	-1219.549667	1862.259766	198.977051
12353.603404	-1219.549667	1861.269531	23.920565
12353.603404	-1219.549667	1860.279297	97.579498
12353.603404	-1219.549667	1859.290039	163.944580
12353.603404	-1219.549667	1858.298828	27.540075
12353.603404	-1219.549667	1857.308594	115.559654
12353.603404	-1219.549667	1856.318359	-40.140553
12353.603404	-1219.549667	1855.327148	115.336464
12353.603404	-1219.549667	1854.335938	167.026398
12353.603404	-1219.549667	1853.344727	-73.080460
12353.603404	-1219.549667	1852.353516	128.014999
12353.603404	-1219.549667	1851.362305	121.719086
12353.603404	-1219.549667	1850.370117	137.075134
12353.603404	-1219.549667	1849.377930	-151.187653
12353.603404	-1219.549667	1848.385742	167.641724
12353.603404	-1219.549667	1847.393555	170.806534
12353.603404	-1219.549667	1846.401367	123.355667
12353.603404	-1219.549667	1845.408203	22.910360
12353.603404	-1219.549667	1844.415039	107.791855
12353.603404	-1219.549667	1843.421875	115.577400
12353.603404	-1219.549667	1842.428711	46.308105
12353.603404	-1219.549667	1841.435547	169.461624
12353.603404	-1219.549667	1840.441406	88.068146
12353.603404	-1219.549667	1839.448242	211.047119
12353.603404	-1219.549667	1838.454102	103.104233
12353.603404	-1219.549667	1837.459961	-12.073611
12353.603404	-1219.549667	1836.464844	151.520096
12353.603404	-1219.549667	1835.470703	103.524117
12353.603404	-1219.549667	1834.475586	-47.830959
12353.603404	-1219.549667	1833.480469	50.611801
12353.603404	-1219.549667	1832.485352	43.272518
12353.603404	-1219.549667	1831.490234	-57.783157
12353.603404	-1219.549667	1830.495117	-26.840155
12353.603404	-1219.549667	1829.499023	373.648651
12353.603404	-1219.549667	1828.502930	322.744873
12353.603404	-1219.549667	1827.506836	118.221283
12353.603404	-1219.549667	1826.510742	108.000023
12353.603404	-1219.549667	1825.513672	234.406265
12353.603404	-1219.549667	1824.517578	156.850098
12353.603404	-1219.549667	1823.520508	-74.208931
12353.603404	-1219.549667	1822.523438	23.127323
12353.603404	-1219.549667	1821.526367	103.557487
12353.603404	-1219.549667	1820.529297	377.952057
12353.603404	-1219.549667	1819.531250	-37.819290
12353.603404	-1219.549667	1818.533203	63.846107
12353.603404	-1219.549667	1817.535156	112.686981
12353.603404	-1219.549667	1816.537109	228.451859
12353.603404	-1219.549667	1815.539063	35.255466
12353.603404	-1219.549667	1814.540039	160.357712
12353.603404	-1219.549667	1813.541992	-32.960918
12353.603404	-1219.549667	1812.542969	-27.733944
12353.603404	-1219.549667	1811.543945	130.478058
12353.603404	-1219.549667	1810.543945	176.111420
12353.603404	-1219.549667	1809.544922	-187.276093
12353.603404	-1219.549667	1808.544922	118.766594
12353.603404	-1219.549667	1807.544922	-5.672152
12353.603404	-1219.549667	1806.544922	111.194496
12353.603404	-1219.549667	1805.544922	-15.816360
12353.603404	-1219.549667	1804.544922	-162.009644
12353.603404	-1219.549667	1803.543945	202.867706
12353.603404	-1219.549667	1802.542969	-120.268120
12353.603404	-1219.549667	1801.541992	55.601269
12353.603404	-1219.549667	1800.541016	166.829224
12353.603404	-1219.549667	1799.539063	55.926266
12353.603404	-1219.549667	1798.538086	193.111115
12353.603404	-1219.549667	1797.536133	124.938065
12353.603404	-1219.549667	1796.534180	104.369072
12353.603404	-1219.549667	1795.532227	126.607224
12353.603404	-1219.549667	1794.529297	148.703568
12353.603404	-1219.549667	1793.527344	-217.922607
12353.603404	-1219.549667	1792.524414	-2.967134
12353.603404	-1219.549667	1791.521484	78.321739
12353.603404	-1219.549667	1790.518555	135.620865
12353.603404	-1219.549667	1789.514648	111.764961
12353.603404	-1219.549667	1788.511719	44.915936
12353.603404	-1219.549667	1787.507813	-72.054855
12353.603404	-1219.549667	1786.503906	-62.935894
12353.603404	-1219.549667	1785.500000	253.107040
12353.603404	-1219.549667	1784.496094	54.831032
12353.603404	-1219.549667	1783.491211	-131.617340
12353.603404	-1219.549667	1782.486328	-30.275928
12353.603404	-1219.549667	1781.481445	-76.584831
12353.603404	-1219.549667	1780.476563	-213.386444
12353.603404	-1219.549667	1779.471680	-0.764382
12353.603404	-1219.549667	1778.465820	-116.425140
12353.603404	-1219.549667	1777.460938	-49.171360
12353.603404	-1219.549667	1776.455078	200.881302
12353.603404	-1219.549667	1775.449219	75.310364
12353.603404	-1219.549667	1774.442383	101.658890
12353.603404	-1219.549667	1773.436523	-304.381378
12353.603404	-1219.549667	1772.429688	30.420540
12353.603404	-1219.549667	1771.422852	-124.105194
12353.603404	-1219.549667	1770.416016	205.493225
12353.603404	-1219.549667	1769.409180	-22.871437
12353.603404	-1219.549667	1768.402344	213.750732
12353.603404	-1219.549667	1767.394531	75.312149
12353.603404	-1219.549667	1766.386719	-215.017334
12353.603404	-1219.549667	1765.378906	-332.279907
12353.603404	-1219.549667	1764.371094	31.643383
12353.603404	-1219.549667	1763.362305	-95.410744
12353.603404	-1219.549667	1762.354492	154.269455
12353.603404	-1219.549667	1761.345703	-179.210892
12353.603404	-1219.549667	1760.336914	1.376719
12353.603404	-1219.549667	1759.328125	-29.064445
12353.603404	-1219.549667	1758.318359	-9.921870
12353.603404	-1219.549667	1757.308594	-166.150162
12353.603404	-1219.549667	1756.299805	214.910950
12353.603404	-1219.549667	1755.290039	-168.819519
12353.603404	-1219.549667	1754.279297	34.297752
12353.603404	-1219.549667	1753.269531	-117.693611
12353.603404	-1219.549667	1752.258789	-28.510115
12353.603404	-1219.549667	1751.249023	-209.115311
12353.603404	-1219.549667	1750.238281	-82.416664
12353.603404	-1219.549667	1749.226563	-161.607727
12353.603404	-1219.549667	1748.215820	-9.268319
12353.603404	-1219.549667	1747.204102	-154.915070
12353.603404	-1219.549667	1746.193359	-137.615433
12353.603404	-1219.549667	1745.181641	-210.251816
12353.603404	-1219.549667	1744.168945	-23.214895
12353.603404	-1219.549667	1743.157227	50.262756
12353.603404	-1219.549667	1742.144531	-18.106298
12353.603404	-1219.549667	1741.132813	-46.459297
12353.603404	-1219.549667	1740.120117	-44.280464
12353.603404	-1219.549667	1739.106445	-30.464275
12353.603404	-1219.549667	1738.093750	16.237709
12353.603404	-1219.549667	1737.080078	55.686207
12353.603404	-1219.549667	1736.067383	-195.083618
12353.603404	-1219.549667	1735.053711	-118.178337
12353.603404	-1219.549667	1734.040039	-149.888580
12353.603404	-1219.549667	1733.025391	-297.234558
12353.603404	-1219.549667	1732.011719	-105.325417
12353.603404	-1219.549667	1730.997070	8.605284
12353.603404	-1219.549667	1729.982422	-37.832043
12353.603404	-1219.549667	1728.967773	-49.067333
12353.603404	-1219.549667	1727.952148	-84.001244
12353.603404	-1219.549667	1726.937500	15.138401
12353.603404	-1219.549667	1725.921875	-69.508148
12353.603404	-1219.549667	1724.906250	66.949600
12353.603404	-1219.549667	1723.890625	-43.838108
12353.603404	-1219.549667	1722.875000	-204.122375
12353.603404	-1219.549667	1721.858398	-108.133575
12353.603404	-1219.549667	1720.841797	164.044754
12353.603404	-1219.549667	1719.825195	-102.413589
12353.603404	-1219.549667	1718.808594	-65.676620
12353.603404	-1219.549667	1717.791992	102.520309
12353.603404	-1219.549667	1716.774414	87.226555
12353.603404	-1219.549667	1715.756836	273.841766
12353.603404	-1219.549667	1714.739258	-4.813683
12353.603404	-1219.549667	1713.721680	148.605972
12353.603404	-1219.549667	1712.704102	45.912357
12353.603404	-1219.549667	1711.685547	32.318401
12353.603404	-1219.549667	1710.667969	185.252960
12353.603404	-1219.549667	1709.649414	298.094849
12353.603404	-1219.549667	1708.630859	91.694901
12353.603404	-1219.549667	1707.611328	136.219757
12353.603404	-1219.549667	1706.592773	-35.142910
12353.603404	-1219.549667	1705.573242	93.552261
12353.603404	-1219.549667	1704.553711	177.533585
12353.603404	-1219.549667	1703.534180	315.271057
12353.603404	-1219.549667	1702.513672	91.932816
12353.603404	-1219.549667	1701.494141	381.688202
12353.603404	-1219.549667	1700.473633	247.201309
12353.603404	-1219.549667	1699.453125	377.304596
12353.603404	-1219.549667	1698.432617	69.358772
12353.603404	-1219.549667	1697.412109	335.004822
12353.603404	-1219.549667	1696.390625	394.436768
12353.603404	-1219.549667	1695.369141	278.213135
12353.603404	-1219.549667	1694.347656	278.915405
12353.603404	-1219.549667	1693.326172	293.545959
12353.603404	-1219.549667	1692.304688	357.179474
12353.603404	-1219.549667	1691.282227	254.634552
12353.603404	-1219.549667	1690.260742	222.182541
12353.603404	-1219.549667	1689.238281	301.826324
12353.603404	-1219.549667	1688.214844	220.058334
12353.603404	-1219.549667	1687.192383	93.841904
12353.603404	-1219.549667	1686.168945	278.276123
12353.603404	-1219.549667	1685.146484	235.988739
12353.603404	-1219.549667	1684.123047	-109.988838
12353.603404	-1219.549667	1683.099609	76.425682
12353.603404	-1219.549667	1682.075195	106.249481
12353.603404	-1219.549667	1681.051758	178.000702
12353.603404	-1219.549667	1680.027344	167.942535
12353.603404	-1219.549667	1679.002930	164.799271
12353.603404	-1219.549667	1677.978516	264.206329
12353.603404	-1219.549667	1676.953125	309.830963
12353.603404	-1219.549667	1675.928711	231.790741
12353.603404	-1219.549667	1674.903320	176.992752
12353.603404	-1219.549667	1673.877930	147.774963
12353.603404	-1219.549667	1672.852539	148.785568
12353.603404	-1219.549667	1671.826172	287.166107
12353.603404	-1219.549667	1670.800781	434.751770
12353.603404	-1219.549667	1669.774414	356.273163
12353.603404	-1219.549667	1668.748047	482.668274
12353.603404	-1219.549667	1667.721680	518.145935
12353.603404	-1219.549667	1666.694336	576.798523
12353.603404	-1219.549667	1665.667969	602.799866
12353.603404	-1219.549667	1664.640625	493.752991
12353.603404	-1219.549667	1663.613281	368.399078
12353.603404	-1219.549667	1662.585938	380.259338
12353.603404	-1219.549667	1661.557617	608.303101
12353.603404	-1219.549667	1660.530273	273.567810
12353.603404	-1219.549667	1659.501953	573.488220
12353.603404	-1219.549667	1658.473633	645.477600
12353.603404	-1219.549667	1657.444336	496.618317
12353.603404	-1219.549667	1656.416016	607.983398
12353.603404	-1219.549667	1655.386719	624.003418
12353.603404	-1219.549667	1654.358398	642.310120
12353.603404	-1219.549667	1653.328125	869.492432
12353.603404	-1219.549667	1652.298828	750.672180
12353.603404	-1219.549667	1651.269531	991.601563
12353.603404	-1219.549667	1650.239258	895.907715
12353.603404	-1219.549667	1649.208984	1118.057007
12353.603404	-1219.549667	1648.178711	915.596252
12353.603404	-1219.549667	1647.148438	1413.562378
12353.603404	-1219.549667	1646.117188	1048.725098
12353.603404	-1219.549667	1645.086914	1008.574219
12353.603404	-1219.549667	1644.055664	1304.471191
12353.603404	-1219.549667	1643.024414	1488.990112
12353.603404	-1219.549667	1641.992188	1664.127075
12353.603404	-1219.549667	1640.960938	1711.784058
12353.603404	-1219.549667	1639.928711	1824.230835
12353.603404	-1219.549667	1638.896484	1945.875366
12353.603404	-1219.549667	1637.864258	2000.315308
12353.603404	-1219.549667	1636.832031	1853.341675
12353.603404	-1219.549667	1635.798828	2113.692627
12353.603404	-1219.549667	1634.766602	2225.867920
12353.603404	-1219.549667	1633.733398	1798.965576
12353.603404	-1219.549667	1632.699219	2093.817139
12353.603404	-1219.549667	1631.666016	1960.766602
12353.603404	-1219.549667	1630.632813	2068.208252
12353.603404	-1219.549667	1629.598633	2127.044678
12353.603404	-1219.549667	1628.564453	2539.449219
12353.603404	-1219.549667	1627.530273	2207.672363
12353.603404	-1219.549667	1626.495117	2444.311279
12353.603404	-1219.549667	1625.460938	2586.184326
12353.603404	-1219.549667	1624.425781	2711.821045
12353.603404	-1219.549667	1623.390625	2678.109619
12353.603404	-1219.549667	1622.355469	2826.782959
12353.603404	-1219.549667	1621.319336	2760.752686
12353.603404	-1219.549667	1620.284180	2962.448730
12353.603404	-1219.549667	1619.248047	3000.263428
12353.603404	-1219.549667	1618.211914	2994.255371
12353.603404	-1219.549667	1617.174805	3068.965820
12353.603404	-1219.549667	1616.138672	3323.530762
12353.603404	-1219.549667	1615.101563	3241.433105
12353.603404	-1219.549667	1614.065430	3187.072998
12353.603404	-1219.549667	1613.027344	3480.675293
12353.603404	-1219.549667	1611.990234	3308.825439
12353.603404	-1219.549667	1610.953125	3643.831787
12353.603404	-1219.549667	1609.915039	3550.363037
12353.603404	-1219.549667	1608.876953	3565.184326
12353.603404	-1219.549667	1607.838867	3372.847900
12353.603404	-1219.549667	1606.800781	3387.773926
12353.603404	-1219.549667	1605.761719	3335.978516
12353.603404	-1219.549667	1604.723633	3084.100830
12353.603404	-1219.549667	1603.684570	3280.904053
12353.603404	-1219.549667	1602.644531	3438.559814
12353.603404	-1219.549667	1601.605469	3090.351563
12353.603404	-1219.549667	1600.566406	2841.184326
12353.603404	-1219.549667	1599.526367	3346.056885
12353.603404	-1219.549667	1598.486328	3016.589600
12353.603404	-1219.549667	1597.446289	3121.555420
12353.603404	-1219.549667	1596.405273	2732.627197
12353.603404	-1219.549667	1595.365234	2683.841797
12353.603404	-1219.549667	1594.324219	2972.668213
12353.603404	-1219.549667	1593.283203	3089.259033
12353.603404	-1219.549667	1592.242188	3361.952393
12353.603404	-1219.549667	1591.200195	3131.999268
12353.603404	-1219.549667	1590.159180	3177.558838
12353.603404	-1219.549667	1589.117188	3363.086914
12353.603404	-1219.549667	1588.075195	3110.540771
12353.603404	-1219.549667	1587.032227	3218.168213
12353.603404	-1219.549667	1585.990234	3156.189941
12353.603404	-1219.549667	1584.947266	3367.068604
12353.603404	-1219.549667	1583.904297	3163.129883
12353.603404	-1219.549667	1582.861328	3014.344238
12353.603404	-1219.549667	1581.818359	3087.914795
12353.603404	-1219.549667	1580.775391	3051.596924
12353.603404	-1219.549667	1579.731445	2969.562500
12353.603404	-1219.549667	1578.687500	3020.440186
12353.603404	-1219.549667	1577.643555	3027.893555
12353.603404	-1219.549667	1576.598633	3131.540039
12353.603404	-1219.549667	1575.554688	3075.081299
12353.603404	-1219.549667	1574.509766	2810.538086
12353.603404	-1219.549667	1573.464844	2973.916748
12353.603404	-1219.549667	1572.419922	2913.217285
12353.603404	-1219.549667	1571.374023	2843.477295
12353.603404	-1219.549667	1570.329102	3004.762695
12353.603404	-1219.549667	1569.283203	2964.946289
12353.603404	-1219.549667	1568.237305	2696.741943
12353.603404	-1219.549667	1567.191406	2602.379150
12353.603404	-1219.549667	1566.144531	2617.783203
12353.603404	-1219.549667	1565.098633	2347.842773
12353.603404	-1219.549667	1564.051758	2233.361816
12353.603404	-1219.549667	1563.004883	2160.129150
12353.603404	-1219.549667	1561.957031	2020.831787
12353.603404	-1219.549667	1560.910156	1799.572754
12353.603404	-1219.549667	1559.862305	1859.119385
12353.603404	-1219.549667	1558.814453	1729.437744
12353.603404	-1219.549667	1557.766602	1643.253906
12353.603404	-1219.549667	1556.718750	1550.385742
12353.603404	-1219.549667	1555.669922	1402.948608
12353.603404	-1219.549667	1554.621094	1472.220703
12353.603404	-1219.549667	1553.573242	1491.469727
12353.603404	-1219.549667	1552.523438	1462.964233
12353.603404	-1219.549667	1551.474609	1717.069092
12353.603404	-1219.549667	1550.424805	1406.384155
12353.603404	-1219.549667	1549.375000	1615.106689
12353.603404	-1219.549667	1548.325195	1525.649902
12353.603404	-1219.549667	1547.275391	1629.831665
12353.603404	-1219.549667	1546.225586	1531.572998
12353.603404	-1219.549667	1545.174805	1378.869629
12353.603404	-1219.549667	1544.124023	1660.841919
12353.603404	-1219.549667	1543.073242	1590.324951
12353.603404	-1219.549667	1542.022461	1317.603149
12353.603404	-1219.549667	1540.970703	1738.502808
12353.603404	-1219.549667	1539.919922	1495.691406
12353.603404	-1219.549667	1538.868164	1462.175903
12353.603404	-1219.549667	1537.815430	1374.276245
12353.603404	-1219.549667	1536.763672	1431.951904
12353.603404	-1219.549667	1535.710938	1380.726318
12353.603404	-1219.549667	1534.659180	1343.304688
12353.603404	-1219.549667	1533.606445	1392.304443
12353.603404	-1219.549667	1532.552734	1268.918457
12353.603404	-1219.549667	1531.500000	1032.276978
12353.603404	-1219.549667	1530.446289	1297.301025
12353.603404	-1219.549667	1529.393555	1174.477295
12353.603404	-1219.549667	1528.338867	1292.245850
12353.603404	-1219.549667	1527.285156	1240.067261
12353.603404	-1219.549667	1526.231445	1036.167358
12353.603404	-1219.549667	1525.176758	669.296204
12353.603404	-1219.549667	1524.122070	592.807556
12353.603404	-1219.549667	1523.067383	890.364441
12353.603404	-1219.549667	1522.012695	929.715698
12353.603404	-1219.549667	1520.957031	529.815125
12353.603404	-1219.549667	1519.901367	565.009827
12353.603404	-1219.549667	1518.845703	430.556519
12353.603404	-1219.549667	1517.790039	257.840729
12353.603404	-1219.549667	1516.734375	105.728546
12353.603404	-1219.549667	1515.677734	105.430237
12353.603404	-1219.549667	1514.621094	-5.545818
12353.603404	-1219.549667	1513.564453	132.484726
12353.603404	-1219.549667	1512.507813	-201.983261
12353.603404	-1219.549667	1511.450195	-117.899055
12353.603404	-1219.549667	1510.393555	-17.844225
12353.603404	-1219.549667	1509.335938	-166.258942
12353.603404	-1219.549667	1508.278320	155.535965
12353.603404	-1219.549667	1507.219727	-107.728493
12353.603404	-1219.549667	1506.162109	8.741687
12353.603404	-1219.549667	1505.103516	86.945076
12353.603404	-1219.549667	1504.044922	79.499588
12353.603404	-1219.549667	1502.986328	-115.117638
12353.603404	-1219.549667	1501.926758	-219.215881
12353.603404	-1219.549667	1500.868164	-90.680603
12353.603404	-1219.549667	1499.808594	8.650443
12353.603404	-1219.549667	1498.749023	-162.535431
12353.603404	-1219.549667	1497.688477	-144.058609
12353.603404	-1219.549667	1496.628906	77.512367
12353.603404	-1219.549667	1495.568359	-162.926514
12353.603404	-1219.549667	1494.507813	243.719482
12353.603404	-1219.549667	1493.447266	116.370705
12353.603404	-1219.549667	1492.386719	-172.948990
12353.603404	-1219.549667	1491.325195	155.171387
12353.603404	-1219.549667	1490.263672	136.552414
12353.603404	-1219.549667	1489.202148	136.135818
12353.603404	-1219.549667	1488.140625	250.707123
12353.603404	-1219.549667	1487.079102	466.694366
12353.603404	-1219.549667	1486.016602	532.019104
12353.603404	-1219.549667	1484.954102	586.256775
12353.603404	-1219.549667	1483.891602	1034.272949
12353.603404	-1219.549667	1482.829102	866.134216
12353.603404	-1219.549667	1481.765625	1091.694336
12353.603404	-1219.549667	1480.702148	1135.272339
12353.603404	-1219.549667	1479.638672	1255.442505
12353.603404	-1219.549667	1478.575195	1389.191284
12353.603404	-1219.549667	1477.511719	1496.177246
12353.603404	-1219.549667	1476.447266	1693.075073
12353.603404	-1219.549667	1475.382813	1750.831665
12353.603404	-1219.549667	1474.318359	1941.113281
12353.603404	-1219.549667	1473.253906	1667.173584
12353.603404	-1219.549667	1472.189453	1862.405518
12353.603404	-1219.549667	1471.124023	1524.017944
12353.603404	-1219.549667	1470.058594	1804.636353
12353.603404	-1219.549667	1468.993164	2159.547852
12353.603404	-1219.549667	1467.927734	1842.023804
12353.603404	-1219.549667	1466.861328	2038.147095
12353.603404	-1219.549667	1465.794922	1860.321533
12353.603404	-1219.549667	1464.728516	2018.381226
12353.603404	-1219.549667	1463.662109	1711.327881
12353.603404	-1219.549667	1462.594727	2127.026123
12353.603404	-1219.549667	1461.528320	1913.678345
12353.603404	-1219.549667	1460.460938	2036.807007
12353.603404	-1219.549667	1459.393555	2031.967041
12353.603404	-1219.549667	1458.326172	1803.955444
12353.603404	-1219.549667	1457.257813	1686.022095
12353.603404	-1219.549667	1456.189453	1775.696289
12353.603404	-1219.549667	1455.121094	1831.657471
12353.603404	-1219.549667	1454.052734	1837.471924
12353.603404	-1219.549667	1452.984375	1952.145142
12353.603404	-1219.549667	1451.915039	1824.447632
12353.603404	-1219.549667	1450.845703	1869.599121
12353.603404	-1219.549667	1449.776367	1828.204590
12353.603404	-1219.549667	1448.707031	1782.738525
12353.603404	-1219.549667	1447.636719	1543.647705
12353.603404	-1219.549667	1446.567383	1733.787720
12353.603404	-1219.549667	1445.497070	1546.417847
12353.603404	-1219.549667	1444.425781	1280.440552
12353.603404	-1219.549667	1443.355469	1586.519165
12353.603404	-1219.549667	1442.285156	1606.838745
12353.603404	-1219.549667	1441.213867	1554.722168
12353.603404	-1219.549667	1440.142578	1349.102173
12353.603404	-1219.549667	1439.070313	1490.120117
12353.603404	-1219.549667	1437.999023	1232.542603
12353.603404	-1219.549667	1436.926758	1442.676758
12353.603404	-1219.549667	1435.854492	1064.407349
12353.603404	-1219.549667	1434.782227	1168.739868
12353.603404	-1219.549667	1433.709961	1055.369019
12353.603404	-1219.549667	1432.636719	887.124817
12353.603404	-1219.549667	1431.563477	917.100403
12353.603404	-1219.549667	1430.490234	852.722900
12353.603404	-1219.549667	1429.416992	867.892151
12353.603404	-1219.549667	1428.343750	835.976746
12353.603404	-1219.549667	1427.269531	704.967468
12353.603404	-1219.549667	1426.195313	574.980042
12353.603404	-1219.549667	1425.121094	633.009949
12353.603404	-1219.549667	1424.046875	690.902161
12353.603404	-1219.549667	1422.971680	553.450928
12353.603404	-1219.549667	1421.896484	995.972412
12353.603404	-1219.549667	1420.821289	870.229553
12353.603404	-1219.549667	1419.746094	836.129822
12353.603404	-1219.549667	1418.669922	864.524719
12353.603404	-1219.549667	1417.594727	1142.392944
12353.603404	-1219.549667	1416.518555	974.953796
12353.603404	-1219.549667	1415.442383	1148.836792
12353.603404	-1219.549667	1414.365234	1021.212402
12353.603404	-1219.549667	1413.289063	1015.370422
12353.603404	-1219.549667	1412.211914	1259.115479
12353.603404	-1219.549667	1411.134766	1105.209106
12353.603404	-1219.549667	1410.057617	1129.863403
12353.603404	-1219.549667	1408.979492	1062.833496
12353.603404	-1219.549667	1407.902344	1112.220215
12353.603404	-1219.549667	1406.824219	1182.319702
12353.603404	-1219.549667	1405.746094	1383.019653
12353.603404	-1219.549667	1404.666992	1420.271240
12353.603404	-1219.549667	1403.588867	1105.902222
12353.603404	-1219.549667	1402.509766	1193.620361
12353.603404	-1219.549667	1401.430664	1326.654541
12353.603404	-1219.549667	1400.351563	1040.603271
12353.603404	-1219.549667	1399.271484	1121.795410
12353.603404	-1219.549667	1398.192383	994.846191
12353.603404	-1219.549667	1397.112305	937.048828
12353.603404	-1219.549667	1396.031250	1270.779663
12353.603404	-1219.549667	1394.951172	1144.321289
12353.603404	-1219.549667	1393.871094	1307.355957
12353.603404	-1219.549667	1392.790039	1358.506104
12353.603404	-1219.549667	1391.708984	1482.122192
12353.603404	-1219.549667	1390.626953	1463.498779
12353.603404	-1219.549667	1389.545898	1430.090698
12353.603404	-1219.549667	1388.463867	1313.122925
12353.603404	-1219.549667	1387.381836	1337.869141
12353.603404	-1219.549667	1386.299805	1623.431763
12353.603404	-1219.549667	1385.217773	1781.813721
12353.603404	-1219.549667	1384.134766	1876.993774
12353.603404	-1219.549667	1383.051758	1579.721558
12353.603404	-1219.549667	1381.968750	1945.279297
12353.603404	-1219.549667	1380.885742	1899.595459
12353.603404	-1219.549667	1379.802734	2001.373901
12353.603404	-1219.549667	1378.718750	2143.105957
12353.603404	-1219.549667	1377.634766	2362.083740
12353.603404	-1219.549667	1376.550781	2335.614258
12353.603404	-1219.549667	1375.465820	2401.185303
12353.603404	-1219.549667	1374.381836	2374.966797
12353.603404	-1219.549667	1373.296875	2366.310303
12353.603404	-1219.549667	1372.211914	2133.129883
12353.603404	-1219.549667	1371.126953	1903.504395
12353.603404	-1219.549667	1370.041016	1664.951660
12353.603404	-1219.549667	1368.955078	1942.098267
12353.603404	-1219.549667	1367.869141	1618.829712
12353.603404	-1219.549667	1366.783203	1413.492432
12353.603404	-1219.549667	1365.697266	1525.751221
12353.603404	-1219.549667	1364.610352	1192.049927
12353.603404	-1219.549667	1363.523438	1587.165039
12353.603404	-1219.549667	1362.436523	1396.919556
12353.603404	-1219.549667	1361.349609	1065.679321
12353.603404	-1219.549667	1360.261719	842.681641
12353.603404	-1219.549667	1359.174805	1098.041992
12353.603404	-1219.549667	1358.086914	1088.710938
12353.603404	-1219.549667	1356.998047	896.128967
12353.603404	-1219.549667	1355.910156	988.457581
12353.603404	-1219.549667	1354.821289	888.974243
12353.603404	-1219.549667	1353.732422	1286.796143
12353.603404	-1219.549667	1352.643555	1074.078125
12353.603404	-1219.549667	1351.554688	962.629578
12353.603404	-1219.549667	1350.464844	1114.094849
12353.603404	-1219.549667	1349.375000	924.430481
12353.603404	-1219.549667	1348.285156	1002.707520
12353.603404	-1219.549667	1347.195313	886.942078
12353.603404	-1219.549667	1346.105469	1344.742188
12353.603404	-1219.549667	1345.014648	1393.510742
12353.603404	-1219.549667	1343.923828	1091.941895
12353.603404	-1219.549667	1342.833008	1316.118286
12353.603404	-1219.549667	1341.741211	1231.499756
12353.603404	-1219.549667	1340.650391	1151.201782
12353.603404	-1219.549667	1339.558594	1658.057373
12353.603404	-1219.549667	1338.466797	1342.924316
12353.603404	-1219.549667	1337.374023	1342.493286
12353.603404	-1219.549667	1336.282227	1386.607544
12353.603404	-1219.549667	1335.189453	1171.483643
12353.603404	-1219.549667	1334.096680	1226.826782
12353.603404	-1219.549667	1333.003906	918.727173
12353.603404	-1219.549667	1331.910156	1037.832886
12353.603404	-1219.549667	1330.817383	1130.390747
12353.603404	-1219.549667	1329.723633	960.063416
12353.603404	-1219.549667	1328.629883	960.989075
12353.603404	-1219.549667	1327.535156	1191.503540
12353.603404	-1219.549667	1326.441406	1076.269043
12353.603404	-1219.549667	1325.346680	877.884338
12353.603404	-1219.549667	1324.251953	1061.930786
12353.603404	-1219.549667	1323.156250	1149.755981
12353.603404	-1219.549667	1322.061523	1059.199463
12353.603404	-1219.549667	1320.965820	1333.130127
12353.603404	-1219.549667	1319.870117	1054.667969
12353.603404	-1219.549667	1318.774414	810.491150
12353.603404	-1219.549667	1317.678711	998.395325
12353.603404	-1219.549667	1316.582031	1187.294922
12353.603404	-1219.549667	1315.485352	1008.536377
12353.603404	-1219.549667	1314.388672	1212.518555
12353.603404	-1219.549667	1313.291016	1177.201294
12353.603404	-1219.549667	1312.194336	1144.166748
12353.603404	-1219.549667	1311.096680	1317.866943
12353.603404	-1219.549667	1309.999023	1258.384399
12353.603404	-1219.549667	1308.901367	1185.684448
12353.603404	-1219.549667	1307.802734	1147.262207
12353.603404	-1219.549667	1306.705078	1345.425903
12353.603404	-1219.549667	1305.606445	1336.649536
12353.603404	-1219.549667	1304.506836	1381.484863
12353.603404	-1219.549667	1303.408203	1570.677124
12353.603404	-1219.549667	1302.308594	1809.124634
12353.603404	-1219.549667	1301.208984	1500.559692
12353.603404	-1219.549667	1300.109375	1634.332520
12353.603404	-1219.549667	1299.009766	1729.703369
12353.603404	-1219.549667	1297.909180	1643.497803
12353.603404	-1219.549667	1296.808594	1663.051636
12353.603404	-1219.549667	1295.708008	1653.697266
12353.603404	-1219.549667	1294.607422	1579.277222
12353.603404	-1219.549667	1293.506836	1375.291870
12353.603404	-1219.549667	1292.405273	1318.334595
12353.603404	-1219.549667	1291.303711	1293.071167
12353.603404	-1219.549667	1290.202148	1257.994019
12353.603404	-1219.549667	1289.099609	1326.710571
12353.603404	-1219.549667	1287.998047	1050.207275
12353.603404	-1219.549667	1286.895508	1117.266357
12353.603404	-1219.549667	1285.792969	772.635254
12353.603404	-1219.549667	1284.689453	923.052063
12353.603404	-1219.549667	1283.586914	1056.940674
12353.603404	-1219.549667	1282.483398	868.124451
12353.603404	-1219.549667	1281.379883	846.843018
12353.603404	-1219.549667	1280.276367	751.614441
12353.603404	-1219.549667	1279.171875	840.460327
12353.603404	-1219.549667	1278.067383	868.317322
12353.603404	-1219.549667	1276.962891	839.709412
12353.603404	-1219.549667	1275.858398	705.645081
12353.603404	-1219.549667	1274.753906	751.909973
12353.603404	-1219.549667	1273.648438	679.992615
12353.603404	-1219.549667	1272.542969	761.511292
12353.603404	-1219.549667	1271.437500	734.150085
12353.603404	-1219.549667	1270.331055	375.376038
12353.603404	-1219.549667	1269.225586	572.356628
12353.603404	-1219.549667	1268.119141	343.329926
12353.603404	-1219.549667	1267.012695	488.632935
12353.603404	-1219.549667	1265.906250	498.998657
12353.603404	-1219.549667	1264.798828	273.790710
12353.603404	-1219.549667	1263.691406	244.804962
12353.603404	-1219.549667	1262.583984	225.237396
12353.603404	-1219.549667	1261.476563	504.614044
12353.603404	-1219.549667	1260.368164	530.200867
12353.603404	-1219.549667	1259.260742	315.288269
12353.603404	-1219.549667	1258.152344	151.587173
12353.603404	-1219.549667	1257.043945	160.215759
12353.603404	-1219.549667	1255.934570	264.250549
12353.603404	-1219.549667	1254.825195	102.952354
12353.603404	-1219.549667	1253.716797	41.933506
12353.603404	-1219.549667	1252.606445	6.650720
12353.603404	-1219.549667	1251.497070	-0.609122
12353.603404	-1219.549667	1250.387695	124.248108
12353.603404	-1219.549667	1249.277344	83.191505
12353.603404	-1219.549667	1248.166992	-17.861830
12353.603404	-1219.549667	1247.055664	-58.048271
12353.603404	-1219.549667	1245.945313	52.346573
12353.603404	-1219.549667	1244.833984	-128.486908
12353.603404	-1219.549667	1243.722656	114.687790
12353.603404	-1219.549667	1242.611328	96.684891
12353.603404	-1219.549667	1241.499023	83.077965
12353.603404	-1219.549667	1240.387695	166.116714
12353.603404	-1219.549667	1239.275391	84.228760
12353.603404	-1219.549667	1238.162109	182.690201
12353.603404	-1219.549667	1237.049805	183.186447
12353.603404	-1219.549667	1235.936523	-78.533707
12353.603404	-1219.549667	1234.823242	147.605286
12353.603404	-1219.549667	1233.709961	177.305405
12353.603404	-1219.549667	1232.596680	357.952271
12353.603404	-1219.549667	1231.482422	281.779449
12353.603404	-1219.549667	1230.369141	181.229523
12353.603404	-1219.549667	1229.253906	90.117729
12353.603404	-1219.549667	1228.139648	65.326828
12353.603404	-1219.549667	1227.025391	61.041603
12353.603404	-1219.549667	1225.910156	-27.187071
12353.603404	-1219.549667	1224.794922	82.917824
12353.603404	-1219.549667	1223.679688	68.465576
12353.603404	-1219.549667	1222.563477	-200.039856
12353.603404	-1219.549667	1221.447266	-0.126059
12353.603404	-1219.549667	1220.331055	-84.673920
12353.603404	-1219.549667	1219.214844	-240.840698
12353.603404	-1219.549667	1218.098633	-8.492654
12353.603404	-1219.549667	1216.981445	-45.593739
12353.603404	-1219.549667	1215.864258	-85.723053
12353.603404	-1219.549667	1214.747070	-163.208740
12353.603404	-1219.549667	1213.629883	-106.075172
12353.603404	-1219.549667	1212.511719	-201.110687
12353.603404	-1219.549667	1211.393555	-91.816055
12353.603404	-1219.549667	1210.275391	61.014809
12353.603404	-1219.549667	1209.157227	39.725708
12353.603404	-1219.549667	1208.038086	135.243042
12353.603404	-1219.549667	1206.918945	152.157059
12353.603404	-1219.549667	1205.799805	-81.581001
12353.603404	-1219.549667	1204.680664	195.670563
12353.603404	-1219.549667	1203.560547	-33.217674
12353.603404	-1219.549667	1202.441406	160.320984
12353.603404	-1219.549667	1201.321289	256.220978
12353.603404	-1219.549667	1200.200195	256.367035
12353.603404	-1219.549667	1199.080078	305.452118
12353.603404	-1219.549667	1197.958984	318.600891
12353.603404	-1219.549667	1196.837891	474.089569
12353.603404	-1219.549667	1195.716797	368.539429
12353.603404	-1219.549667	1194.594727	440.487762
12353.603404	-1219.549667	1193.473633	350.385925
12353.603404	-1219.549667	1192.351563	221.643204
12353.603404	-1219.549667	1191.229492	463.092804
12353.603404	-1219.549667	1190.106445	57.502335
12353.603404	-1219.549667	1188.984375	201.275726
12353.603404	-1219.549667	1187.861328	25.540657
12353.603404	-1219.549667	1186.738281	7.572988
12353.603404	-1219.549667	1185.614258	128.462372
12353.603404	-1219.549667	1184.491211	81.053703
12353.603404	-1219.549667	1183.367188	265.724213
12353.603404	-1219.549667	1182.243164	260.050812
12353.603404	-1219.549667	1181.119141	70.299492
12353.603404	-1219.549667	1179.994141	174.265656
12353.603404	-1219.549667	1178.869141	23.632900
12353.603404	-1219.549667	1177.744141	-164.900177
12353.603404	-1219.549667	1176.619141	51.806412
12353.603404	-1219.549667	1175.493164	-65.830002
12353.603404	-1219.549667	1174.368164	-45.231899
12353.603404	-1219.549667	1173.242188	67.677147
12353.603404	-1219.549667	1172.115234	159.008667
12353.603404	-1219.549667	1170.989258	-106.109573
12353.603404	-1219.549667	1169.862305	-202.958954
12353.603404	-1219.549667	1168.735352	-53.971416
12353.603404	-1219.549667	1167.608398	-108.550827
12353.603404	-1219.549667	1166.481445	-27.282667
12353.603404	-1219.549667	1165.353516	-152.221786
12353.603404	-1219.549667	1164.225586	-197.708054
12353.603404	-1219.549667	1163.097656	-163.091553
12353.603404	-1219.549667	1161.968750	-232.196854
12353.603404	-1219.549667	1160.840820	-226.555054
12353.603404	-1219.549667	1159.711914	-346.439819
12353.603404	-1219.549667	1158.583008	-350.184784
12353.603404	-1219.549667	1157.453125	-297.709412
12353.603404	-1219.549667	1156.324219	-267.132141
12353.603404	-1219.549667	1155.194336	-394.702728
12353.603404	-1219.549667	1154.064453	-258.730042
12353.603404	-1219.549667	1152.933594	-158.258835
12353.603404	-1219.549667	1151.803711	-255.016281
12353.603404	-1219.549667	1150.672852	-217.391342
12353.603404	-1219.549667	1149.541992	-92.829262
12353.603404	-1219.549667	1148.411133	-108.645844
12353.603404	-1219.549667	1147.279297	-129.211334
12353.603404	-1219.549667	1146.147461	-149.278351
12353.603404	-1219.549667	1145.015625	-80.768127
12353.603404	-1219.549667	1143.883789	160.286819
12353.603404	-1219.549667	1142.750977	-25.500629
12353.603404	-1219.549667	1141.619141	-66.489021
12353.603404	-1219.549667	1140.486328	23.519321
12353.603404	-1219.549667	1139.352539	69.650871
12353.603404	-1219.549667	1138.219727	100.725288
12353.603404	-1219.549667	1137.085938	-147.332611
12353.603404	-1219.549667	1135.952148	19.223360
12353.603404	-1219.549667	1134.818359	-86.613853
12353.603404	-1219.549667	1133.683594	28.886272
12353.603404	-1219.549667	1132.549805	18.703405
12353.603404	-1219.549667	1131.415039	194.538986
12353.603404	-1219.549667	1130.279297	190.908218
12353.603404	-1219.549667	1129.144531	131.207275
12353.603404	-1219.549667	1128.008789	277.072723
12353.603404	-1219.549667	1126.873047	289.304199
12353.603404	-1219.549667	1125.737305	210.057785
12353.603404	-1219.549667	1124.601563	178.890991
12353.603404	-1219.549667	1123.464844	235.894073
12353.603404	-1219.549667	1122.328125	368.105316
12353.603404	-1219.549667	1121.191406	448.729706
12353.603404	-1219.549667	1120.054688	253.963409
12353.603404	-1219.549667	1118.916992	282.885712
12353.603404	-1219.549667	1117.779297	252.456131
12353.603404	-1219.549667	1116.641602	123.166786
12353.603404	-1219.549667	1115.503906	174.469772
12353.603404	-1219.549667	1114.365234	-29.583241
12353.603404	-1219.549667	1113.226563	84.507622
12353.603404	-1219.549667	1112.087891	40.593922
12353.603404	-1219.549667	1110.949219	197.060410
12353.603404	-1219.549667	1109.809570	129.002411
12353.603404	-1219.549667	1108.669922	106.732674
12353.603404	-1219.549667	1107.530273	70.135002
12353.603404	-1219.549667	1106.390625	156.409622
12353.603404	-1219.549667	1105.250000	11.231674
12353.603404	-1219.549667	1104.109375	67.669121
12353.603404	-1219.549667	1102.968750	26.264027
12353.603404	-1219.549667	1101.828125	161.976425
12353.603404	-1219.549667	1100.686523	324.120789
12353.603404	-1219.549667	1099.544922	231.509598
12353.603404	-1219.549667	1098.403320	117.042389
12353.603404	-1219.549667	1097.261719	72.658699
12353.603404	-1219.549667	1096.120117	232.432861
12353.603404	-1219.549667	1094.977539	62.218098
12353.603404	-1219.549667	1093.834961	250.123199
12353.603404	-1219.549667	1092.691406	401.115509
12353.603404	-1219.549667	1091.548828	-78.457047
12353.603404	-1219.549667	1090.405273	55.399540
12353.603404	-1219.549667	1089.261719	80.772957
12353.603404	-1219.549667	1088.118164	90.582314
12353.603404	-1219.549667	1086.973633	247.300446
12353.603404	-1219.549667	1085.829102	-77.696617
12353.603404	-1219.549667	1084.684570	180.580582
12353.603404	-1219.549667	1083.540039	-13.840418
12353.603404	-1219.549667	1082.395508	142.864822
12353.603404	-1219.549667	1081.250000	49.958855
12353.603404	-1219.549667	1080.104492	84.571999
12353.603404	-1219.549667	1078.958984	90.730881
12353.603404	-1219.549667	1077.812500	132.450760
12353.603404	-1219.549667	1076.666016	91.487213
12353.603404	-1219.549667	1075.519531	-20.650686
12353.603404	-1219.549667	1074.373047	-57.931427
12353.603404	-1219.549667	1073.226563	38.518318
12353.603404	-1219.549667	1072.079102	-15.651770
12353.603404	-1219.549667	1070.931641	-94.701302
12353.603404	-1219.549667	1069.784180	280.513580
12353.603404	-1219.549667	1068.635742	150.556412
12353.603404	-1219.549667	1067.487305	-48.954243
12353.603404	-1219.549667	1066.338867	204.771011
12353.603404	-1219.549667	1065.190430	212.035202
12353.603404	-1219.549667	1064.041992	181.459793
12353.603404	-1219.549667	1062.892578	234.050354
12353.603404	-1219.549667	1061.743164	232.177811
12353.603404	-1219.549667	1060.593750	392.761444
12353.603404	-1219.549667	1059.443359	242.167999
12353.603404	-1219.549667	1058.292969	47.451244
12353.603404	-1219.549667	1057.142578	209.013885
12353.603404	-1219.549667	1055.992188	101.663902
12353.603404	-1219.549667	1054.841797	296.087250
12353.603404	-1219.549667	1053.690430	88.810440
12353.603404	-1219.549667	1052.539063	-20.841824
12353.603404	-1219.549667	1051.387695	-64.112328
12353.603404	-1219.549667	1050.235352	295.995026
12353.603404	-1219.549667	1049.083984	-106.324287
12353.603404	-1219.549667	1047.931641	-40.791431
12353.603404	-1219.549667	1046.778320	-142.531204
12353.603404	-1219.549667	1045.625977	-7.127962
12353.603404	-1219.549667	1044.472656	-4.842339
12353.603404	-1219.549667	1043.319336	205.627487
12353.603404	-1219.549667	1042.166016	136.172577
12353.603404	-1219.549667	1041.012695	66.456451
12353.603404	-1219.549667	1039.858398	110.253944
12353.603404	-1219.549667	1038.704102	134.676712
12353.603404	-1219.549667	1037.549805	44.939102
12353.603404	-1219.549667	1036.394531	54.219055
12353.603404	-1219.549667	1035.239258	-100.396927
12353.603404	-1219.549667	1034.083984	-25.714050
12353.603404	-1219.549667	1032.928711	34.373627
12353.603404	-1219.549667	1031.773438	72.284538
12353.603404	-1219.549667	1030.617188	-114.267517
12353.603404	-1219.549667	1029.460938	-91.517975
12353.603404	-1219.549667	1028.304688	-189.772995
12353.603404	-1219.549667	1027.147461	64.046280
12353.603404	-1219.549667	1025.991211	160.502274
12353.603404	-1219.549667	1024.833984	-133.195099
12353.603404	-1219.549667	1023.675781	41.376339
12353.603404	-1219.549667	1022.518555	-45.026268
12353.603404	-1219.549667	1021.360352	-136.449234
12353.603404	-1219.549667	1020.202148	78.978004
12353.603404	-1219.549667	1019.043945	172.063553
12353.603404	-1219.549667	1017.884766	27.631907
12353.603404	-1219.549667	1016.726563	-48.284767
12353.603404	-1219.549667	1015.567383	-149.308563
12353.603404	-1219.549667	1014.407227	161.651672
12353.603404	-1219.549667	1013.248047	69.913628
12353.603404	-1219.549667	1012.087891	216.113647
12353.603404	-1219.549667	1010.927734	-52.761978
12353.603404	-1219.549667	1009.767578	130.021622
12353.603404	-1219.549667	1008.606445	71.216248
12353.603404	-1219.549667	1007.446289	293.315918
12353.603404	-1219.549667	1006.285156	246.057022
12353.603404	-1219.549667	1005.123047	254.341293
12353.603404	-1219.549667	1003.961914	154.623032
12353.603404	-1219.549667	1002.799805	367.867828
12353.603404	-1219.549667	1001.637695	202.678589
12353.603404	-1219.549667	1000.475586	129.298035
12353.603404	-1219.549667	999.312500	72.585930
12353.603404	-1219.549667	998.149414	219.508652
12353.603404	-1219.549667	996.986328	155.127274
12353.603404	-1219.549667	995.823242	-116.376038
12353.603404	-1219.549667	994.659180	29.134624
12353.603404	-1219.549667	993.496094	-74.375702
12353.603404	-1219.549667	992.332031	-175.203140
12353.603404	-1219.549667	991.166992	38.671261
12353.603404	-1219.549667	990.002930	135.346588
12353.603404	-1219.549667	988.837891	-42.735264
12353.603404	-1219.549667	987.672852	66.423775
12353.603404	-1219.549667	986.506836	-0.759465
12353.603404	-1219.549667	985.341797	-43.528267
12353.603404	-1219.549667	984.175781	27.787380
12353.603404	-1219.549667	983.009766	-36.771290
12353.603404	-1219.549667	981.843750	-49.456688
12353.603404	-1219.549667	980.676758	134.440750
12353.603404	-1219.549667	979.509766	-93.566917
12353.603404	-1219.549667	978.342773	-30.899082
12353.603404	-1219.549667	977.175781	-51.690006
12353.603404	-1219.549667	976.007813	-52.128750
12353.603404	-1219.549667	974.839844	-185.708923
12353.603404	-1219.549667	973.671875	-261.958344
12353.603404	-1219.549667	972.503906	66.685020
12353.603404	-1219.549667	971.334961	117.112000
12353.603404	-1219.549667	970.166016	127.297905
12353.603404	-1219.549667	968.997070	90.214905
12353.603404	-1219.549667	967.828125	239.222870
12353.603404	-1219.549667	966.658203	121.976143
12353.603404	-1219.549667	965.488281	137.716782
12353.603404	-1219.549667	964.318359	29.440372
12353.603404	-1219.549667	963.148438	76.947220
12353.603404	-1219.549667	961.977539	-222.022568
12353.603404	-1219.549667	960.806641	-126.232651
12353.603404	-1219.549667	959.635742	-85.246025
12353.603404	-1219.549667	958.463867	-6.922319
12353.603404	-1219.549667	957.292969	-37.971592
12353.603404	-1219.549667	956.121094	-204.496414
12353.603404	-1219.549667	954.948242	100.414711
12353.603404	-1219.549667	953.776367	469.006989
12353.603404	-1219.549667	952.603516	399.882721
12353.603404	-1219.549667	951.430664	428.820526
12353.603404	-1219.549667	950.257813	288.672363
12353.603404	-1219.549667	949.084961	64.836182
12353.603404	-1219.549667	947.911133	-20.915197
12353.603404	-1219.549667	946.737305	-51.666325
12353.603404	-1219.549667	945.563477	-82.312279
12353.603404	-1219.549667	944.388672	4.119860
12353.603404	-1219.549667	943.213867	161.623764
12353.603404	-1219.549667	942.039063	-13.960313
12353.603404	-1219.549667	940.864258	105.297722
12353.603404	-1219.549667	939.688477	314.264191
12353.603404	-1219.549667	938.513672	141.539673
12353.603404	-1219.549667	937.337891	91.517471
12353.603404	-1219.549667	936.161133	-128.027679
12353.603404	-1219.549667	934.985352	67.290070
12353.603404	-1219.549667	933.808594	246.225220
12353.603404	-1219.549667	932.631836	-55.088684
12353.603404	-1219.549667	931.454102	142.877533
12353.603404	-1219.549667	930.277344	122.462120
12353.603404	-1219.549667	929.099609	104.793297
12353.603404	-1219.549667	927.921875	403.426605
12353.603404	-1219.549667	926.743164	254.793442
12353.603404	-1219.549667	925.565430	-19.196486
12353.603404	-1219.549667	924.386719	159.260605
12353.603404	-1219.549667	923.208008	-41.135117
12353.603404	-1219.549667	922.028320	60.930389
12353.603404	-1219.549667	920.849609	102.997925
12353.603404	-1219.549667	919.669922	106.795822
12353.603404	-1219.549667	919.474609	4.035752
12353.603404	-1219.549667	918.309570	103.165573
12353.603404	-1219.549667	917.143555	166.839584
12353.603404	-1219.549667	915.977539	-28.099352
12353.603404	-1219.549667	914.810547	-160.400864
12353.603404	-1219.549667	913.644531	-289.960419
12353.603404	-1219.549667	912.477539	-204.616425
12353.603404	-1219.549667	911.310547	-282.501556
12353.603404	-1219.549667	910.143555	-202.689774
12353.603404	-1219.549667	908.975586	-90.316597
12353.603404	-1219.549667	907.807617	5.674833
12353.603404	-1219.549667	906.639648	-132.081451
12353.603404	-1219.549667	905.471680	-112.243439
12353.603404	-1219.549667	904.303711	195.465469
12353.603404	-1219.549667	903.134766	-276.339417
12353.603404	-1219.549667	901.965820	-77.375587
12353.603404	-1219.549667	900.796875	-206.968002
12353.603404	-1219.549667	899.626953	-198.123535
12353.603404	-1219.549667	898.457031	-34.650417
12353.603404	-1219.549667	897.287109	47.346077
12353.603404	-1219.549667	896.117188	150.979401
12353.603404	-1219.549667	894.947266	230.139389
12353.603404	-1219.549667	893.776367	-108.270828
12353.603404	-1219.549667	892.605469	114.519722
12353.603404	-1219.549667	891.434570	106.840294
12353.603404	-1219.549667	890.262695	188.552917
12353.603404	-1219.549667	889.091797	118.505226
12353.603404	-1219.549667	887.919922	118.879120
12353.603404	-1219.549667	886.748047	387.300140
12353.603404	-1219.549667	885.575195	173.697601
12353.603404	-1219.549667	884.403320	0.754206
12353.603404	-1219.549667	883.230469	-23.304359
12353.603404	-1219.549667	882.057617	133.896515
12353.603404	-1219.549667	880.883789	212.564346
12353.603404	-1219.549667	879.710938	20.723803
12353.603404	-1219.549667	878.537109	-22.345940
12353.603404	-1219.549667	877.362305	-130.302094
12353.603404	-1219.549667	876.188477	32.042210
12353.603404	-1219.549667	875.013672	113.227730
12353.603404	-1219.549667	873.839844	-43.398441
12353.603404	-1219.549667	872.664063	-64.922340
12353.603404	-1219.549667	871.489258	-97.267593
12353.603404	-1219.549667	870.313477	-221.424896
12353.603404	-1219.549667	869.138672	13.477401
12353.603404	-1219.549667	867.962891	-180.874725
12353.603404	-1219.549667	866.786133	70.066544
12353.603404	-1219.549667	865.610352	207.568466
12353.603404	-1219.549667	864.433594	83.352997
12353.603404	-1219.549667	863.256836	261.198303
12353.603404	-1219.549667	862.079102	409.290009
12353.603404	-1219.549667	860.902344	376.686523
12353.603404	-1219.549667	859.724609	203.927002
12353.603404	-1219.549667	858.546875	562.037720
12353.603404	-1219.549667	857.368164	294.973694
12353.603404	-1219.549667	856.190430	340.429230
12353.603404	-1219.549667	855.011719	348.142548
12353.603404	-1219.549667	853.833008	503.905548
12353.603404	-1219.549667	852.654297	315.031677
12353.603404	-1219.549667	851.474609	201.565689
12353.603404	-1219.549667	850.294922	77.357162
12353.603404	-1219.549667	849.115234	370.142365
12353.603404	-1219.549667	847.935547	256.656586
12353.603404	-1219.549667	846.754883	237.309631
12353.603404	-1219.549667	845.575195	250.203415
12353.603404	-1219.549667	844.393555	558.738525
12353.603404	-1219.549667	843.212891	431.767029
12353.603404	-1219.549667	842.032227	116.745689
12353.603404	-1219.549667	840.850586	215.510956
12353.603404	-1219.549667	839.668945	263.180176
12353.603404	-1219.549667	838.486328	251.731384
12353.603404	-1219.549667	837.304688	492.609467
12353.603404	-1219.549667	836.122070	161.663147
12353.603404	-1219.549667	834.939453	313.852600
12353.603404	-1219.549667	833.756836	143.999969
12353.603404	-1219.549667	832.573242	97.580177
12353.603404	-1219.549667	831.389648	83.333740
12353.603404	-1219.549667	830.206055	144.140381
12353.603404	-1219.549667	829.022461	507.815338
12353.603404	-1219.549667	827.838867	485.367279
12353.603404	-1219.549667	826.654297	465.579529
12353.603404	-1219.549667	825.469727	769.938843
12353.603404	-1219.549667	824.284180	594.690491
12353.603404	-1219.549667	823.099609	652.466309
12353.603404	-1219.549667	821.914063	308.578339
12353.603404	-1219.549667	820.728516	178.950851
12353.603404	-1219.549667	819.542969	-95.173218
12353.603404	-1219.549667	818.356445	-64.178627
12353.603404	-1219.549667	817.169922	-92.081482
12353.603404	-1219.549667	815.983398	-31.740410
12353.603404	-1219.549667	814.796875	74.004532
12353.603404	-1219.549667	813.609375	-213.335052
12353.603404	-1219.549667	812.422852	-91.621956
12353.603404	-1219.549667	811.235352	185.012924
12353.603404	-1219.549667	810.046875	106.140572
12353.603404	-1219.549667	808.859375	-298.635834
12353.603404	-1219.549667	807.670898	49.884644
12353.603404	-1219.549667	806.482422	-63.723053
12353.603404	-1219.549667	805.293945	-6.456253
12353.603404	-1219.549667	804.104492	-10.635624
12353.603404	-1219.549667	802.915039	-158.950836
12353.603404	-1219.549667	801.725586	114.308792
12353.603404	-1219.549667	800.536133	-68.716393
12353.603404	-1219.549667	799.345703	103.000496
12353.603404	-1219.549667	798.155273	-205.334610
12353.603404	-1219.549667	796.964844	-97.710274
12353.603404	-1219.549667	795.774414	-43.471485
12353.603404	-1219.549667	794.583008	-26.596388
12353.603404	-1219.549667	793.392578	-132.317062
12353.603404	-1219.549667	792.200195	41.650314
12353.603404	-1219.549667	791.008789	15.779165
12353.603404	-1219.549667	789.816406	-39.405216
12353.603404	-1219.549667	788.625000	155.618256
12353.603404	-1219.549667	787.432617	7.202847
12353.603404	-1219.549667	786.239258	148.844299
12353.603404	-1219.549667	785.046875	178.654663
12353.603404	-1219.549667	783.853516	-33.621326
12353.603404	-1219.549667	782.660156	-33.113335
12353.603404	-1219.549667	781.465820	-338.388702
12353.603404	-1219.549667	780.272461	-383.084137
12353.603404	-1219.549667	779.078125	71.816269
12353.603404	-1219.549667	777.883789	98.712334
12353.603404	-1219.549667	776.688477	-33.828674
12353.603404	-1219.549667	775.494141	24.867340
12353.603404	-1219.549667	774.298828	48.978161
12353.603404	-1219.549667	773.103516	4.014049
12353.603404	-1219.549667	771.907227	97.046059
12353.603404	-1219.549667	770.711914	261.645996
12353.603404	-1219.549667	769.515625	184.700409
12353.603404	-1219.549667	768.318359	158.142471
12353.603404	-1219.549667	767.122070	192.549088
12353.603404	-1219.549667	765.924805	-19.688536
12353.603404	-1219.549667	764.727539	184.311188
12353.603404	-1219.549667	763.530273	136.397568
12353.603404	-1219.549667	762.333008	-51.980457
12353.603404	-1219.549667	761.134766	127.921700
12353.603404	-1219.549667	759.936523	26.940844
12353.603404	-1219.549667	758.738281	-76.692825
12353.603404	-1219.549667	757.540039	-79.718857
12353.603404	-1219.549667	756.340820	-188.673080
12353.603404	-1219.549667	755.141602	-112.372818
12353.603404	-1219.549667	753.942383	-46.734360
12353.603404	-1219.549667	752.742188	-182.222366
12353.603404	-1219.549667	751.541992	-34.701878
12353.603404	-1219.549667	750.341797	-127.922195
12353.603404	-1219.549667	749.141602	98.742401
12353.603404	-1219.549667	747.941406	243.324860
12353.603404	-1219.549667	746.740234	15.184562
12353.603404	-1219.549667	745.539063	-128.362671
12353.603404	-1219.549667	744.337891	126.973938
12353.603404	-1219.549667	743.135742	-156.608444
12353.603404	-1219.549667	741.933594	-144.393494
12353.603404	-1219.549667	740.731445	229.432037
12353.603404	-1219.549667	739.529297	11.839597
12353.603404	-1219.549667	738.326172	-52.665180
12353.603404	-1219.549667	737.124023	-169.956573
12353.603404	-1219.549667	735.919922	-128.990982
12353.603404	-1219.549667	734.716797	-74.907150
12353.603404	-1219.549667	733.513672	-110.541275
12353.603404	-1219.549667	732.309570	-19.683794
12353.603404	-1219.549667	731.105469	-2.710759
12353.603404	-1219.549667	729.900391	-117.543541
12353.603404	-1219.549667	728.696289	-90.124176
12353.603404	-1219.549667	727.491211	21.513346
12353.603404	-1219.549667	726.286133	17.186522
12353.603404	-1219.549667	725.080078	-142.524216
12353.603404	-1219.549667	723.874023	-125.865723
12353.603404	-1219.549667	722.668945	-19.790737
12353.603404	-1219.549667	721.461914	157.222412
12353.603404	-1219.549667	720.255859	21.075611
12353.603404	-1219.549667	719.048828	-115.069412
12353.603404	-1219.549667	717.841797	-61.892849
12353.603404	-1219.549667	716.634766	-92.917282
12353.603404	-1219.549667	715.427734	-152.894775
12353.603404	-1219.549667	714.219727	-47.353622
12353.603404	-1219.549667	713.011719	68.597481
12353.603404	-1219.549667	711.803711	187.071716
12353.603404	-1219.549667	710.594727	-20.200521
12353.603404	-1219.549667	709.385742	-161.801422
12353.603404	-1219.549667	708.176758	-177.397049
12353.603404	-1219.549667	706.967773	40.535950
12353.603404	-1219.549667	705.758789	-61.796391
12353.603404	-1219.549667	704.548828	-85.442177
12353.603404	-1219.549667	703.338867	-12.089788
12353.603404	-1219.549667	702.127930	236.865936
12353.603404	-1219.549667	700.917969	176.301483
12353.603404	-1219.549667	699.707031	65.901802
12353.603404	-1219.549667	698.496094	125.832207
12353.603404	-1219.549667	697.285156	264.284149
12353.603404	-1219.549667	696.073242	59.463169
12353.603404	-1219.549667	694.861328	37.998653
12353.603404	-1219.549667	693.649414	68.856468
12353.603404	-1219.549667	692.436523	-259.004974
12353.603404	-1219.549667	691.224609	9.966372
12353.603404	-1219.549667	690.011719	-32.629139
12353.603404	-1219.549667	688.798828	-67.414810
12353.603404	-1219.549667	687.584961	384.270752
12353.603404	-1219.549667	686.372070	77.328636
12353.603404	-1219.549667	685.158203	0.539538
12353.603404	-1219.549667	683.943359	-5.697130
12353.603404	-1219.549667	682.729492	71.646973
12353.603404	-1219.549667	681.514648	331.804443
12353.603404	-1219.549667	680.299805	202.554733
12353.603404	-1219.549667	679.084961	203.895050
12353.603404	-1219.549667	677.869141	113.782463
12353.603404	-1219.549667	676.653320	224.678177
12353.603404	-1219.549667	675.437500	131.879272
12353.603404	-1219.549667	674.221680	101.695549
12353.603404	-1219.549667	673.004883	165.393494
12353.603404	-1219.549667	671.789063	289.010101
12353.603404	-1219.549667	670.571289	73.478119
12353.603404	-1219.549667	669.354492	178.699310
12353.603404	-1219.549667	668.136719	64.842010
12353.603404	-1219.549667	666.919922	287.197510
12353.603404	-1219.549667	665.701172	-19.571423
12353.603404	-1219.549667	664.483398	114.022469
12353.603404	-1219.549667	663.264648	28.710726
12353.603404	-1219.549667	662.045898	120.464005
12353.603404	-1219.549667	660.827148	217.333435
12353.603404	-1219.549667	659.608398	150.120132
12353.603404	-1219.549667	658.388672	249.438919
12353.603404	-1219.549667	657.168945	114.492073
12353.603404	-1219.549667	655.949219	429.588593
12353.603404	-1219.549667	654.728516	291.955475
12353.603404	-1219.549667	653.507813	307.746338
12353.603404	-1219.549667	652.287109	635.447937
12353.603404	-1219.549667	651.066406	344.358643
12353.603404	-1219.549667	649.844727	19.557798
12353.603404	-1219.549667	648.623047	250.835022
12353.603404	-1219.549667	647.401367	230.006226
12353.603404	-1219.549667	646.179688	338.987915
12353.603404	-1219.549667	644.957031	180.440475
12353.603404	-1219.549667	643.734375	115.365601
12353.603404	-1219.549667	642.511719	73.630020
12353.603404	-1219.549667	641.289063	358.809479
12353.603404	-1219.549667	640.065430	246.902176
12353.603404	-1219.549667	638.841797	134.997879
12353.603404	-1219.549667	637.618164	308.341278
12353.603404	-1219.549667	636.393555	341.565308
12353.603404	-1219.549667	635.168945	455.085052
12353.603404	-1219.549667	633.944336	431.165771
12353.603404	-1219.549667	632.719727	539.353943
12353.603404	-1219.549667	631.494141	354.736542
12353.603404	-1219.549667	630.269531	524.969666
12353.603404	-1219.549667	629.042969	133.205460
12353.603404	-1219.549667	627.817383	236.023544
12353.603404	-1219.549667	626.590820	382.753387
12353.603404	-1219.549667	625.365234	469.872589
12353.603404	-1219.549667	624.137695	631.934387
12353.603404	-1219.549667	622.911133	646.463196
12353.603404	-1219.549667	621.683594	642.842896
12353.603404	-1219.549667	620.456055	644.360107
12353.603404	-1219.549667	619.228516	819.030334
12353.603404	-1219.549667	618.000977	841.116882
12353.603404	-1219.549667	616.772461	728.798401
12353.603404	-1219.549667	615.543945	373.669312
12353.603404	-1219.549667	614.314453	496.455902
12353.603404	-1219.549667	613.085938	309.305450
12353.603404	-1219.549667	611.856445	393.269531
12353.603404	-1219.549667	610.626953	402.317657
12353.603404	-1219.549667	609.397461	390.689941
12353.603404	-1219.549667	608.166992	252.616577
12353.603404	-1219.549667	606.936523	55.248848
12353.603404	-1219.549667	605.706055	146.772141
12353.603404	-1219.549667	604.474609	395.504578
12353.603404	-1219.549667	603.244141	133.712814
12353.603404	-1219.549667	602.012695	85.914101
12353.603404	-1219.549667	600.780273	151.481293
12353.603404	-1219.549667	599.548828	247.918533
12353.603404	-1219.549667	598.316406	359.741943
12353.603404	-1219.549667	597.083984	468.923309
12353.603404	-1219.549667	595.851563	176.419525
12353.603404	-1219.549667	594.618164	118.244957
12353.603404	-1219.549667	593.384766	170.733704
12353.603404	-1219.549667	592.151367	333.816345
12353.603404	-1219.549667	590.917969	80.102211
12353.603404	-1219.549667	589.683594	428.264740
12353.603404	-1219.549667	588.449219	506.290497
12353.603404	-1219.549667	587.214844	437.741882
12353.603404	-1219.549667	585.979492	268.972076
12353.603404	-1219.549667	584.745117	-30.778177
12353.603404	-1219.549667	583.509766	54.934803
12353.603404	-1219.549667	582.273438	212.513290
12353.603404	-1219.549667	581.038086	164.588699
12353.603404	-1219.549667	579.801758	209.097839
12353.603404	-1219.549667	578.565430	45.668915
12353.603404	-1219.549667	577.329102	131.232513
12353.603404	-1219.549667	576.091797	14.057784
12353.603404	-1219.549667	574.854492	197.055145
12353.603404	-1219.549667	573.617188	-127.824303
12353.603404	-1219.549667	572.378906	19.218863
12353.603404	-1219.549667	571.141602	4.699841
12353.603404	-1219.549667	569.903320	-81.581284
12353.603404	-1219.549667	568.664063	-90.956604
12353.603404	-1219.549667	567.425781	40.583168
12353.603404	-1219.549667	566.186523	341.113525
12353.603404	-1219.549667	564.947266	-3.802833
12353.603404	-1219.549667	563.708008	-38.776371
12353.603404	-1219.549667	562.467773	38.891754
12353.603404	-1219.549667	561.227539	-75.403778
12353.603404	-1219.549667	559.987305	-20.774424
12353.603404	-1219.549667	558.747070	13.373422
12353.603404	-1219.549667	557.505859	-82.922539
12353.603404	-1219.549667	556.264648	212.049683
12353.603404	-1219.549667	555.023438	266.600464
12353.603404	-1219.549667	553.781250	303.244080
12353.603404	-1219.549667	552.539063	46.020542
12353.603404	-1219.549667	551.296875	-9.251969
12353.603404	-1219.549667	550.054688	134.742706
12353.603404	-1219.549667	548.811523	225.056900
12353.603404	-1219.549667	547.569336	187.695541
12353.603404	-1219.549667	546.325195	293.301514
12353.603404	-1219.549667	545.082031	166.646347
12353.603404	-1219.549667	543.837891	295.208069
12353.603404	-1219.549667	542.593750	-20.133677
12353.603404	-1219.549667	541.349609	77.843384
12353.603404	-1219.549667	540.105469	-7.792766
12353.603404	-1219.549667	538.860352	153.906662
12353.603404	-1219.549667	537.615234	-97.344833
12353.603404	-1219.549667	536.369141	122.949364
12353.603404	-1219.549667	535.124023	282.030914
12353.603404	-1219.549667	533.877930	-162.610352
12353.603404	-1219.549667	532.631836	-100.267998
12353.603404	-1219.549667	531.384766	-208.519638
12353.603404	-1219.549667	530.138672	90.582191
12353.603404	-1219.549667	528.891602	18.011696
12353.603404	-1219.549667	527.643555	-120.664345
12353.603404	-1219.549667	526.396484	12.941724
12353.603404	-1219.549667	525.148438	123.619576
12353.603404	-1219.549667	523.900391	216.474716
12353.603404	-1219.549667	522.652344	113.562973
12353.603404	-1219.549667	521.403320	-14.701170
12353.603404	-1219.549667	520.154297	-84.438950
12353.603404	-1219.549667	518.905273	-32.173744
12353.603404	-1219.549667	517.656250	-89.128212
12353.603404	-1219.549667	516.406250	-62.234615
12353.603404	-1219.549667	515.156250	-190.203323
12353.603404	-1219.549667	513.906250	-272.401642
12353.603404	-1219.549667	512.655273	-184.508041
12353.603404	-1219.549667	511.404297	-294.537750
12353.603404	-1219.549667	510.153320	-338.539856
12353.603404	-1219.549667	508.902344	-341.919952
12353.603404	-1219.549667	507.650391	-81.568542
12353.603404	-1219.549667	506.398438	-475.371277
12353.603404	-1219.549667	505.146484	-496.396973
12353.603404	-1219.549667	503.893555	-218.378036
12353.603404	-1219.549667	502.641602	-145.666779
12353.603404	-1219.549667	501.388672	-93.234352
12353.603404	-1219.549667	500.134766	-182.622437
12353.603404	-1219.549667	498.881836	-87.123093
12353.603404	-1219.549667	497.627930	-92.902878
12353.603404	-1219.549667	496.374023	-298.593201
12353.603404	-1219.549667	495.119141	-228.387741
12353.603404	-1219.549667	493.865234	-72.182434
12353.603404	-1219.549667	492.610352	-259.997498
12353.603404	-1219.549667	491.355469	-93.715721
12353.603404	-1219.549667	490.099609	-215.694016
12353.603404	-1219.549667	488.843750	102.176865
12353.603404	-1219.549667	487.587891	164.696274
12353.603404	-1219.549667	486.332031	2.347101
12353.603404	-1219.549667	485.075195	-114.465202
12353.603404	-1219.549667	483.818359	97.071381
12353.603404	-1219.549667	482.561523	121.684601
12353.603404	-1219.549667	481.304688	156.386292
12353.603404	-1219.549667	480.046875	27.027866
12353.603404	-1219.549667	478.789063	286.288177
12353.603404	-1219.549667	477.531250	255.331085
12353.603404	-1219.549667	476.272461	688.436462
12353.603404	-1219.549667	475.013672	501.051453
12353.603404	-1219.549667	473.754883	525.497803
12353.603404	-1219.549667	472.496094	678.461487
12353.603404	-1219.549667	471.236328	443.274750
12353.603404	-1219.549667	469.976563	125.032623
12353.603404	-1219.549667	468.716797	89.010666
12353.603404	-1219.549667	467.456055	128.522095
12353.603404	-1219.549667	466.196289	296.395447
12353.603404	-1219.549667	464.935547	232.581100
12353.603404	-1219.549667	463.673828	261.870667
12353.603404	-1219.549667	462.413086	321.307312
12353.603404	-1219.549667	461.151367	164.334091
12353.603404	-1219.549667	459.889648	311.698700
12353.603404	-1219.549667	458.626953	182.356873
12353.603404	-1219.549667	457.364258	211.393005
12353.603404	-1219.549667	456.101563	295.653687
12353.603404	-1219.549667	454.838867	171.251984
12353.603404	-1219.549667	453.575195	187.521820
12353.603404	-1219.549667	452.312500	432.287170
12353.603404	-1219.549667	451.047852	177.135178
12353.603404	-1219.549667	449.784180	371.424530
12353.603404	-1219.549667	448.519531	284.409576
12353.603404	-1219.549667	447.254883	187.302872
12353.603404	-1219.549667	445.990234	157.888351
12353.603404	-1219.549667	444.725586	231.233978
12353.603404	-1219.549667	443.459961	179.040146
12353.603404	-1219.549667	442.194336	287.231018
12353.603404	-1219.549667	440.927734	232.306274
12353.603404	-1219.549667	439.662109	-88.379936
12353.603404	-1219.549667	438.395508	583.221069
12353.603404	-1219.549667	437.127930	129.544220
12353.603404	-1219.549667	435.861328	124.264900
12353.603404	-1219.549667	434.593750	176.427811
12353.603404	-1219.549667	433.326172	208.384262
12353.603404	-1219.549667	432.058594	242.666351
12353.603404	-1219.549667	430.790039	404.385773
12353.603404	-1219.549667	429.521484	313.158295
12353.603404	-1219.549667	428.252930	139.237091
12353.603404	-1219.549667	426.984375	87.742393
12353.603404	-1219.549667	425.714844	196.083405
12353.603404	-1219.549667	424.445313	419.158783
12353.603404	-1219.549667	423.174805	302.011810
12353.603404	-1219.549667	421.905273	284.644928
12353.603404	-1219.549667	420.634766	369.468750
12353.603404	-1219.549667	419.364258	346.611267
12353.603404	-1219.549667	418.092773	388.426575
12353.603404	-1219.549667	416.822266	449.939301
12353.603404	-1219.549667	415.550781	398.824249
12353.603404	-1219.549667	414.278320	287.546509
12353.603404	-1219.549667	413.006836	433.010193
12353.603404	-1219.549667	411.734375	99.174210
12353.603404	-1219.549667	410.461914	154.207382
12353.603404	-1219.549667	409.188477	154.029022
12353.603404	-1219.549667	407.916016	310.565613
12353.603404	-1219.549667	406.642578	357.018280
12353.603404	-1219.549667	405.368164	64.210724
12353.603404	-1219.549667	404.094727	144.837769
12353.603404	-1219.549667	402.820313	439.226135
12353.603404	-1219.549667	401.545898	416.850311
12353.603404	-1219.549667	400.270508	277.055511
12353.603404	-1219.549667	398.996094	338.515442
12353.603404	-1219.549667	397.720703	307.426392
12353.603404	-1219.549667	396.444336	479.896057
12353.603404	-1219.549667	395.168945	333.455750
12353.603404	-1219.549667	393.892578	748.607422
12353.603404	-1219.549667	392.616211	539.027954
12353.603404	-1219.549667	391.339844	599.976379
12353.603404	-1219.549667	390.062500	695.153076
12353.603404	-1219.549667	388.785156	511.466583
12353.603404	-1219.549667	387.507813	508.644653
12353.603404	-1219.549667	386.229492	552.423706
12353.603404	-1219.549667	384.951172	399.436096
12353.603404	-1219.549667	383.672852	402.306183
12353.603404	-1219.549667	382.394531	411.998749
12353.603404	-1219.549667	381.115234	626.988159
12353.603404	-1219.549667	379.835938	270.623260
12353.603404	-1219.549667	378.556641	518.940002
12353.603404	-1219.549667	377.277344	496.156860
12353.603404	-1219.549667	375.997070	522.236023
12353.603404	-1219.549667	374.716797	582.272827
12353.603404	-1219.549667	373.435547	435.822540
12353.603404	-1219.549667	372.155273	382.833099
12353.603404	-1219.549667	370.874023	569.332825
12353.603404	-1219.549667	369.591797	544.406311
12353.603404	-1219.549667	368.310547	803.421936
12353.603404	-1219.549667	367.028320	561.396484
12353.603404	-1219.549667	365.746094	516.593811
12353.603404	-1219.549667	364.463867	545.142700
12353.603404	-1219.549667	363.180664	449.036469
12353.603404	-1219.549667	361.897461	342.132507
12353.603404	-1219.549667	360.614258	271.396362
12353.603404	-1219.549667	359.330078	179.891129
12353.603404	-1219.549667	358.045898	181.331589
12353.603404	-1219.549667	356.761719	171.842163
12353.603404	-1219.549667	355.477539	-24.008776
12353.603404	-1219.549667	354.192383	28.580183
12353.603404	-1219.549667	352.907227	-70.618156
12353.603404	-1219.549667	351.622070	-12.903911
12353.603404	-1219.549667	350.336914	-23.037588
12353.603404	-1219.549667	349.050781	19.891251
12353.603404	-1219.549667	347.764648	157.800552
12353.603404	-1219.549667	346.477539	-43.607105
12353.603404	-1219.549667	345.191406	-85.866608
12353.603404	-1219.549667	343.904297	-210.833389
12353.603404	-1219.549667	342.616211	-58.558857
12353.603404	-1219.549667	341.329102	75.056496
12353.603404	-1219.549667	340.041016	-46.646130
12353.603404	-1219.549667	338.752930	-243.644836
12353.603404	-1219.549667	337.463867	-65.219345
12353.603404	-1219.549667	336.175781	-1.612238
12353.603404	-1219.549667	334.886719	-222.747849
12353.603404	-1219.549667	333.596680	81.352661
12353.603404	-1219.549667	332.307617	-14.914150
12353.603404	-1219.549667	331.017578	-19.331781
12353.603404	-1219.549667	329.727539	-89.380951
12353.603404	-1219.549667	328.436523	-271.833893
12353.603404	-1219.549667	327.146484	-77.247269
12353.603404	-1219.549667	325.855469	-44.371811
12353.603404	-1219.549667	324.563477	-74.833542
12353.603404	-1219.549667	323.272461	89.488144
12353.603404	-1219.549667	321.980469	-67.584351
12353.603404	-1219.549667	320.688477	6.803529
12353.603404	-1219.549667	319.395508	-181.175156
12353.603404	-1219.549667	318.103516	-135.344757
12353.603404	-1219.549667	316.810547	124.340508
12353.603404	-1219.549667	315.516602	-283.287079
12353.603404	-1219.549667	314.223633	21.137169
12353.603404	-1219.549667	312.929688	-69.293533
12353.603404	-1219.549667	311.635742	53.891003
12353.603404	-1219.549667	310.340820	34.916775
12353.603404	-1219.549667	309.045898	40.593822
12353.603404	-1219.549667	307.750977	264.468262
12353.603404	-1219.549667	306.456055	-195.332413
12353.603404	-1219.549667	305.160156	55.386719
12353.603404	-1219.549667	303.865234	19.467678
12353.603404	-1219.549667	302.568359	365.277252
12353.603404	-1219.549667	301.272461	789.197205
12353.603404	-1219.549667	299.975586	559.142334
12353.603404	-1219.549667	298.678711	744.917969
