#X		#Y		#Wave		#Intensity
20472.722447	-751.536167	1999.980469	163.044388
20472.722447	-751.536167	1999.016602	144.179932
20472.722447	-751.536167	1998.052734	100.741447
20472.722447	-751.536167	1997.087891	-106.343796
20472.722447	-751.536167	1996.123047	-179.664047
20472.722447	-751.536167	1995.158203	-62.315918
20472.722447	-751.536167	1994.193359	20.214317
20472.722447	-751.536167	1993.228516	-53.390762
20472.722447	-751.536167	1992.262695	212.128296
20472.722447	-751.536167	1991.297852	-86.930435
20472.722447	-751.536167	1990.332031	-108.774727
20472.722447	-751.536167	1989.366211	-29.245430
20472.722447	-751.536167	1988.399414	-71.053383
20472.722447	-751.536167	1987.433594	-38.724243
20472.722447	-751.536167	1986.466797	-122.718643
20472.722447	-751.536167	1985.500977	216.057129
20472.722447	-751.536167	1984.534180	52.785564
20472.722447	-751.536167	1983.567383	208.352585
20472.722447	-751.536167	1982.599609	-58.789375
20472.722447	-751.536167	1981.632813	170.726257
20472.722447	-751.536167	1980.665039	88.831192
20472.722447	-751.536167	1979.697266	21.721981
20472.722447	-751.536167	1978.729492	122.496445
20472.722447	-751.536167	1977.761719	-70.631447
20472.722447	-751.536167	1976.792969	-68.732361
20472.722447	-751.536167	1975.825195	118.211090
20472.722447	-751.536167	1974.856445	90.353264
20472.722447	-751.536167	1973.887695	116.731598
20472.722447	-751.536167	1972.918945	271.314728
20472.722447	-751.536167	1971.949219	447.990448
20472.722447	-751.536167	1970.980469	45.102665
20472.722447	-751.536167	1970.010742	34.301056
20472.722447	-751.536167	1969.041016	-107.175713
20472.722447	-751.536167	1968.071289	-95.850456
20472.722447	-751.536167	1967.101563	223.418045
20472.722447	-751.536167	1966.130859	67.084465
20472.722447	-751.536167	1965.161133	260.515411
20472.722447	-751.536167	1964.190430	146.022873
20472.722447	-751.536167	1963.219727	-81.717911
20472.722447	-751.536167	1962.249023	81.990662
20472.722447	-751.536167	1961.277344	134.855850
20472.722447	-751.536167	1960.306641	-124.840584
20472.722447	-751.536167	1959.334961	208.450165
20472.722447	-751.536167	1958.363281	145.562439
20472.722447	-751.536167	1957.391602	55.618492
20472.722447	-751.536167	1956.419922	2.565725
20472.722447	-751.536167	1955.447266	114.221336
20472.722447	-751.536167	1954.474609	97.997765
20472.722447	-751.536167	1953.501953	37.522957
20472.722447	-751.536167	1952.529297	117.099663
20472.722447	-751.536167	1951.556641	-110.448921
20472.722447	-751.536167	1950.583984	153.294144
20472.722447	-751.536167	1949.610352	-59.480289
20472.722447	-751.536167	1948.636719	12.610858
20472.722447	-751.536167	1947.663086	13.468774
20472.722447	-751.536167	1946.689453	-34.775887
20472.722447	-751.536167	1945.715820	59.303398
20472.722447	-751.536167	1944.741211	-33.124222
20472.722447	-751.536167	1943.767578	-7.792438
20472.722447	-751.536167	1942.792969	88.638222
20472.722447	-751.536167	1941.818359	35.445244
20472.722447	-751.536167	1940.842773	-101.093025
20472.722447	-751.536167	1939.868164	-88.076508
20472.722447	-751.536167	1938.892578	182.242264
20472.722447	-751.536167	1937.916992	-0.836845
20472.722447	-751.536167	1936.941406	-49.123909
20472.722447	-751.536167	1935.965820	-102.302086
20472.722447	-751.536167	1934.990234	28.191532
20472.722447	-751.536167	1934.013672	-127.832748
20472.722447	-751.536167	1933.037109	-14.538029
20472.722447	-751.536167	1932.060547	86.468605
20472.722447	-751.536167	1931.083984	-135.576218
20472.722447	-751.536167	1930.107422	43.687141
20472.722447	-751.536167	1929.129883	247.336411
20472.722447	-751.536167	1928.153320	101.174904
20472.722447	-751.536167	1927.175781	13.744439
20472.722447	-751.536167	1926.198242	-142.113312
20472.722447	-751.536167	1925.219727	-205.037567
20472.722447	-751.536167	1924.242188	30.197821
20472.722447	-751.536167	1923.263672	-71.844009
20472.722447	-751.536167	1922.285156	4.476412
20472.722447	-751.536167	1921.306641	5.044888
20472.722447	-751.536167	1920.328125	-94.515488
20472.722447	-751.536167	1919.349609	-164.747665
20472.722447	-751.536167	1918.370117	-44.555710
20472.722447	-751.536167	1917.391602	-22.042645
20472.722447	-751.536167	1916.412109	-21.504930
20472.722447	-751.536167	1915.431641	110.768288
20472.722447	-751.536167	1914.452148	62.480614
20472.722447	-751.536167	1913.472656	-12.623697
20472.722447	-751.536167	1912.492188	121.989609
20472.722447	-751.536167	1911.511719	-36.001102
20472.722447	-751.536167	1910.531250	-20.884062
20472.722447	-751.536167	1909.550781	28.337633
20472.722447	-751.536167	1908.569336	-78.404411
20472.722447	-751.536167	1907.588867	-163.191772
20472.722447	-751.536167	1906.607422	-1.957964
20472.722447	-751.536167	1905.625977	-130.578369
20472.722447	-751.536167	1904.644531	-54.645054
20472.722447	-751.536167	1903.662109	-37.170853
20472.722447	-751.536167	1902.680664	9.492148
20472.722447	-751.536167	1901.698242	-87.439339
20472.722447	-751.536167	1900.715820	-89.462799
20472.722447	-751.536167	1899.733398	-149.874466
20472.722447	-751.536167	1898.750000	49.946480
20472.722447	-751.536167	1897.767578	-132.067841
20472.722447	-751.536167	1896.784180	-56.332706
20472.722447	-751.536167	1895.800781	140.892639
20472.722447	-751.536167	1894.817383	-21.632420
20472.722447	-751.536167	1893.833984	-21.319426
20472.722447	-751.536167	1892.850586	100.442535
20472.722447	-751.536167	1891.866211	15.697934
20472.722447	-751.536167	1890.881836	132.521530
20472.722447	-751.536167	1889.897461	-37.203350
20472.722447	-751.536167	1888.913086	101.403709
20472.722447	-751.536167	1887.927734	-22.170549
20472.722447	-751.536167	1886.943359	16.861631
20472.722447	-751.536167	1885.958008	75.271072
20472.722447	-751.536167	1884.972656	111.811249
20472.722447	-751.536167	1883.987305	85.264870
20472.722447	-751.536167	1883.001953	-212.856873
20472.722447	-751.536167	1882.015625	235.784195
20472.722447	-751.536167	1881.029297	-55.021309
20472.722447	-751.536167	1880.042969	92.887207
20472.722447	-751.536167	1879.056641	-86.370689
20472.722447	-751.536167	1878.070313	8.153666
20472.722447	-751.536167	1877.083984	-20.900639
20472.722447	-751.536167	1876.096680	177.656921
20472.722447	-751.536167	1875.109375	-74.203247
20472.722447	-751.536167	1874.122070	34.680370
20472.722447	-751.536167	1873.134766	237.885300
20472.722447	-751.536167	1872.146484	61.093193
20472.722447	-751.536167	1871.159180	5.306155
20472.722447	-751.536167	1870.170898	-86.768250
20472.722447	-751.536167	1869.182617	-2.295267
20472.722447	-751.536167	1868.194336	33.760616
20472.722447	-751.536167	1867.205078	62.522282
20472.722447	-751.536167	1866.216797	-5.434670
20472.722447	-751.536167	1865.227539	182.757187
20472.722447	-751.536167	1864.238281	61.588974
20472.722447	-751.536167	1863.249023	44.309071
20472.722447	-751.536167	1862.259766	0.436376
20472.722447	-751.536167	1861.269531	45.893375
20472.722447	-751.536167	1860.279297	-109.083603
20472.722447	-751.536167	1859.290039	139.071976
20472.722447	-751.536167	1858.298828	63.708706
20472.722447	-751.536167	1857.308594	58.313618
20472.722447	-751.536167	1856.318359	60.123562
20472.722447	-751.536167	1855.327148	271.740509
20472.722447	-751.536167	1854.335938	-196.816818
20472.722447	-751.536167	1853.344727	-11.827372
20472.722447	-751.536167	1852.353516	-68.010574
20472.722447	-751.536167	1851.362305	46.913197
20472.722447	-751.536167	1850.370117	120.787910
20472.722447	-751.536167	1849.377930	42.810204
20472.722447	-751.536167	1848.385742	92.488213
20472.722447	-751.536167	1847.393555	-2.396491
20472.722447	-751.536167	1846.401367	194.072433
20472.722447	-751.536167	1845.408203	84.674294
20472.722447	-751.536167	1844.415039	177.463348
20472.722447	-751.536167	1843.421875	0.637205
20472.722447	-751.536167	1842.428711	232.872925
20472.722447	-751.536167	1841.435547	149.833939
20472.722447	-751.536167	1840.441406	201.470230
20472.722447	-751.536167	1839.448242	127.994095
20472.722447	-751.536167	1838.454102	109.796356
20472.722447	-751.536167	1837.459961	12.229440
20472.722447	-751.536167	1836.464844	-97.368149
20472.722447	-751.536167	1835.470703	-98.839439
20472.722447	-751.536167	1834.475586	-23.482410
20472.722447	-751.536167	1833.480469	-92.327271
20472.722447	-751.536167	1832.485352	74.158554
20472.722447	-751.536167	1831.490234	84.454926
20472.722447	-751.536167	1830.495117	8.270187
20472.722447	-751.536167	1829.499023	136.079239
20472.722447	-751.536167	1828.502930	38.205677
20472.722447	-751.536167	1827.506836	175.448685
20472.722447	-751.536167	1826.510742	31.915066
20472.722447	-751.536167	1825.513672	-161.988815
20472.722447	-751.536167	1824.517578	202.853165
20472.722447	-751.536167	1823.520508	155.124344
20472.722447	-751.536167	1822.523438	-204.263443
20472.722447	-751.536167	1821.526367	14.010510
20472.722447	-751.536167	1820.529297	-108.112007
20472.722447	-751.536167	1819.531250	21.298487
20472.722447	-751.536167	1818.533203	-96.112564
20472.722447	-751.536167	1817.535156	33.125969
20472.722447	-751.536167	1816.537109	4.225438
20472.722447	-751.536167	1815.539063	106.939201
20472.722447	-751.536167	1814.540039	75.513847
20472.722447	-751.536167	1813.541992	58.398865
20472.722447	-751.536167	1812.542969	156.065445
20472.722447	-751.536167	1811.543945	-33.420574
20472.722447	-751.536167	1810.543945	-33.964203
20472.722447	-751.536167	1809.544922	-113.479698
20472.722447	-751.536167	1808.544922	-202.596909
20472.722447	-751.536167	1807.544922	157.627213
20472.722447	-751.536167	1806.544922	-36.795139
20472.722447	-751.536167	1805.544922	-80.679863
20472.722447	-751.536167	1804.544922	40.219635
20472.722447	-751.536167	1803.543945	-125.617287
20472.722447	-751.536167	1802.542969	-4.896637
20472.722447	-751.536167	1801.541992	139.584259
20472.722447	-751.536167	1800.541016	116.840561
20472.722447	-751.536167	1799.539063	113.124855
20472.722447	-751.536167	1798.538086	142.748993
20472.722447	-751.536167	1797.536133	222.388397
20472.722447	-751.536167	1796.534180	72.933220
20472.722447	-751.536167	1795.532227	40.321526
20472.722447	-751.536167	1794.529297	169.785065
20472.722447	-751.536167	1793.527344	225.226257
20472.722447	-751.536167	1792.524414	92.271080
20472.722447	-751.536167	1791.521484	176.149887
20472.722447	-751.536167	1790.518555	259.921875
20472.722447	-751.536167	1789.514648	212.563614
20472.722447	-751.536167	1788.511719	222.312256
20472.722447	-751.536167	1787.507813	236.739395
20472.722447	-751.536167	1786.503906	317.747650
20472.722447	-751.536167	1785.500000	246.304504
20472.722447	-751.536167	1784.496094	134.352966
20472.722447	-751.536167	1783.491211	319.793060
20472.722447	-751.536167	1782.486328	302.868591
20472.722447	-751.536167	1781.481445	250.194473
20472.722447	-751.536167	1780.476563	59.531181
20472.722447	-751.536167	1779.471680	294.461456
20472.722447	-751.536167	1778.465820	267.724854
20472.722447	-751.536167	1777.460938	212.403931
20472.722447	-751.536167	1776.455078	78.600067
20472.722447	-751.536167	1775.449219	4.163066
20472.722447	-751.536167	1774.442383	79.317551
20472.722447	-751.536167	1773.436523	14.247355
20472.722447	-751.536167	1772.429688	65.465355
20472.722447	-751.536167	1771.422852	-11.616764
20472.722447	-751.536167	1770.416016	-36.532375
20472.722447	-751.536167	1769.409180	-168.310944
20472.722447	-751.536167	1768.402344	141.198730
20472.722447	-751.536167	1767.394531	350.869232
20472.722447	-751.536167	1766.386719	116.851982
20472.722447	-751.536167	1765.378906	22.749348
20472.722447	-751.536167	1764.371094	-2.643852
20472.722447	-751.536167	1763.362305	-70.784401
20472.722447	-751.536167	1762.354492	-143.716156
20472.722447	-751.536167	1761.345703	-84.015717
20472.722447	-751.536167	1760.336914	-102.601486
20472.722447	-751.536167	1759.328125	13.748141
20472.722447	-751.536167	1758.318359	-156.587036
20472.722447	-751.536167	1757.308594	113.457275
20472.722447	-751.536167	1756.299805	-68.829735
20472.722447	-751.536167	1755.290039	82.585815
20472.722447	-751.536167	1754.279297	224.386276
20472.722447	-751.536167	1753.269531	-270.379883
20472.722447	-751.536167	1752.258789	-79.059151
20472.722447	-751.536167	1751.249023	-114.931816
20472.722447	-751.536167	1750.238281	-37.381748
20472.722447	-751.536167	1749.226563	63.687538
20472.722447	-751.536167	1748.215820	32.275517
20472.722447	-751.536167	1747.204102	-174.095856
20472.722447	-751.536167	1746.193359	-113.470703
20472.722447	-751.536167	1745.181641	-31.700422
20472.722447	-751.536167	1744.168945	-103.575188
20472.722447	-751.536167	1743.157227	84.258820
20472.722447	-751.536167	1742.144531	-169.574631
20472.722447	-751.536167	1741.132813	-163.729187
20472.722447	-751.536167	1740.120117	-134.377258
20472.722447	-751.536167	1739.106445	-39.059978
20472.722447	-751.536167	1738.093750	1.884939
20472.722447	-751.536167	1737.080078	-143.617706
20472.722447	-751.536167	1736.067383	-93.403343
20472.722447	-751.536167	1735.053711	140.609756
20472.722447	-751.536167	1734.040039	34.988876
20472.722447	-751.536167	1733.025391	4.737149
20472.722447	-751.536167	1732.011719	-44.428467
20472.722447	-751.536167	1730.997070	-53.615273
20472.722447	-751.536167	1729.982422	-124.126724
20472.722447	-751.536167	1728.967773	47.884106
20472.722447	-751.536167	1727.952148	106.713959
20472.722447	-751.536167	1726.937500	47.735878
20472.722447	-751.536167	1725.921875	-114.875916
20472.722447	-751.536167	1724.906250	82.550171
20472.722447	-751.536167	1723.890625	61.002708
20472.722447	-751.536167	1722.875000	-115.878349
20472.722447	-751.536167	1721.858398	-29.361084
20472.722447	-751.536167	1720.841797	73.502777
20472.722447	-751.536167	1719.825195	-16.541298
20472.722447	-751.536167	1718.808594	140.184769
20472.722447	-751.536167	1717.791992	-4.051083
20472.722447	-751.536167	1716.774414	-40.235031
20472.722447	-751.536167	1715.756836	-111.723061
20472.722447	-751.536167	1714.739258	-16.496225
20472.722447	-751.536167	1713.721680	130.278885
20472.722447	-751.536167	1712.704102	86.739388
20472.722447	-751.536167	1711.685547	75.991592
20472.722447	-751.536167	1710.667969	102.733292
20472.722447	-751.536167	1709.649414	-20.802902
20472.722447	-751.536167	1708.630859	177.050064
20472.722447	-751.536167	1707.611328	-33.407425
20472.722447	-751.536167	1706.592773	-91.409599
20472.722447	-751.536167	1705.573242	-231.542694
20472.722447	-751.536167	1704.553711	24.493452
20472.722447	-751.536167	1703.534180	62.377071
20472.722447	-751.536167	1702.513672	4.079168
20472.722447	-751.536167	1701.494141	-19.113258
20472.722447	-751.536167	1700.473633	191.871140
20472.722447	-751.536167	1699.453125	2.205937
20472.722447	-751.536167	1698.432617	-58.667870
20472.722447	-751.536167	1697.412109	-82.132545
20472.722447	-751.536167	1696.390625	51.158562
20472.722447	-751.536167	1695.369141	-26.297409
20472.722447	-751.536167	1694.347656	6.177856
20472.722447	-751.536167	1693.326172	363.744141
20472.722447	-751.536167	1692.304688	80.238930
20472.722447	-751.536167	1691.282227	119.471542
20472.722447	-751.536167	1690.260742	362.040985
20472.722447	-751.536167	1689.238281	171.986099
20472.722447	-751.536167	1688.214844	91.771187
20472.722447	-751.536167	1687.192383	294.270081
20472.722447	-751.536167	1686.168945	118.144341
20472.722447	-751.536167	1685.146484	93.859810
20472.722447	-751.536167	1684.123047	403.459656
20472.722447	-751.536167	1683.099609	308.942841
20472.722447	-751.536167	1682.075195	186.373062
20472.722447	-751.536167	1681.051758	292.531128
20472.722447	-751.536167	1680.027344	284.231323
20472.722447	-751.536167	1679.002930	254.875122
20472.722447	-751.536167	1677.978516	22.530672
20472.722447	-751.536167	1676.953125	408.232178
20472.722447	-751.536167	1675.928711	292.416260
20472.722447	-751.536167	1674.903320	309.456268
20472.722447	-751.536167	1673.877930	477.936676
20472.722447	-751.536167	1672.852539	352.666809
20472.722447	-751.536167	1671.826172	425.419922
20472.722447	-751.536167	1670.800781	819.572693
20472.722447	-751.536167	1669.774414	684.813416
20472.722447	-751.536167	1668.748047	596.624268
20472.722447	-751.536167	1667.721680	818.057800
20472.722447	-751.536167	1666.694336	815.882202
20472.722447	-751.536167	1665.667969	701.960999
20472.722447	-751.536167	1664.640625	750.896057
20472.722447	-751.536167	1663.613281	1002.152344
20472.722447	-751.536167	1662.585938	885.772583
20472.722447	-751.536167	1661.557617	997.268066
20472.722447	-751.536167	1660.530273	1029.637451
20472.722447	-751.536167	1659.501953	1017.766418
20472.722447	-751.536167	1658.473633	984.937500
20472.722447	-751.536167	1657.444336	1040.361938
20472.722447	-751.536167	1656.416016	921.492981
20472.722447	-751.536167	1655.386719	930.364441
20472.722447	-751.536167	1654.358398	913.657043
20472.722447	-751.536167	1653.328125	1001.371826
20472.722447	-751.536167	1652.298828	1082.060425
20472.722447	-751.536167	1651.269531	1246.231812
20472.722447	-751.536167	1650.239258	1271.056030
20472.722447	-751.536167	1649.208984	1291.192993
20472.722447	-751.536167	1648.178711	1162.829224
20472.722447	-751.536167	1647.148438	1152.755493
20472.722447	-751.536167	1646.117188	1042.932007
20472.722447	-751.536167	1645.086914	1280.868164
20472.722447	-751.536167	1644.055664	1293.837524
20472.722447	-751.536167	1643.024414	1508.379150
20472.722447	-751.536167	1641.992188	1384.523193
20472.722447	-751.536167	1640.960938	1517.824219
20472.722447	-751.536167	1639.928711	1688.086060
20472.722447	-751.536167	1638.896484	1559.544922
20472.722447	-751.536167	1637.864258	1701.894287
20472.722447	-751.536167	1636.832031	1689.077393
20472.722447	-751.536167	1635.798828	1525.802124
20472.722447	-751.536167	1634.766602	1573.131348
20472.722447	-751.536167	1633.733398	1456.157349
20472.722447	-751.536167	1632.699219	1630.613770
20472.722447	-751.536167	1631.666016	1874.366089
20472.722447	-751.536167	1630.632813	1611.680786
20472.722447	-751.536167	1629.598633	1631.068237
20472.722447	-751.536167	1628.564453	1440.120728
20472.722447	-751.536167	1627.530273	1579.648804
20472.722447	-751.536167	1626.495117	1829.980225
20472.722447	-751.536167	1625.460938	1740.681030
20472.722447	-751.536167	1624.425781	1787.633667
20472.722447	-751.536167	1623.390625	1945.378296
20472.722447	-751.536167	1622.355469	1849.126099
20472.722447	-751.536167	1621.319336	2177.544678
20472.722447	-751.536167	1620.284180	2097.413086
20472.722447	-751.536167	1619.248047	2084.192627
20472.722447	-751.536167	1618.211914	2370.824219
20472.722447	-751.536167	1617.174805	2309.094482
20472.722447	-751.536167	1616.138672	2452.602051
20472.722447	-751.536167	1615.101563	2427.751465
20472.722447	-751.536167	1614.065430	2725.589355
20472.722447	-751.536167	1613.027344	2417.237061
20472.722447	-751.536167	1611.990234	2650.430664
20472.722447	-751.536167	1610.953125	2584.084473
20472.722447	-751.536167	1609.915039	2619.080566
20472.722447	-751.536167	1608.876953	2718.533936
20472.722447	-751.536167	1607.838867	2730.469971
20472.722447	-751.536167	1606.800781	2737.800049
20472.722447	-751.536167	1605.761719	2715.201416
20472.722447	-751.536167	1604.723633	2478.660156
20472.722447	-751.536167	1603.684570	2527.439697
20472.722447	-751.536167	1602.644531	2675.086914
20472.722447	-751.536167	1601.605469	2427.199951
20472.722447	-751.536167	1600.566406	2708.178223
20472.722447	-751.536167	1599.526367	2586.803711
20472.722447	-751.536167	1598.486328	2741.255615
20472.722447	-751.536167	1597.446289	2704.956055
20472.722447	-751.536167	1596.405273	2415.982666
20472.722447	-751.536167	1595.365234	2558.932861
20472.722447	-751.536167	1594.324219	2527.311279
20472.722447	-751.536167	1593.283203	2849.275391
20472.722447	-751.536167	1592.242188	2507.767822
20472.722447	-751.536167	1591.200195	2579.485596
20472.722447	-751.536167	1590.159180	2348.337402
20472.722447	-751.536167	1589.117188	2771.084961
20472.722447	-751.536167	1588.075195	2441.394287
20472.722447	-751.536167	1587.032227	2444.345703
20472.722447	-751.536167	1585.990234	2325.822021
20472.722447	-751.536167	1584.947266	2179.849854
20472.722447	-751.536167	1583.904297	2538.153076
20472.722447	-751.536167	1582.861328	2371.626953
20472.722447	-751.536167	1581.818359	2459.482666
20472.722447	-751.536167	1580.775391	2471.748779
20472.722447	-751.536167	1579.731445	2429.069092
20472.722447	-751.536167	1578.687500	2507.783203
20472.722447	-751.536167	1577.643555	2160.726563
20472.722447	-751.536167	1576.598633	2163.990234
20472.722447	-751.536167	1575.554688	2055.178711
20472.722447	-751.536167	1574.509766	1973.886353
20472.722447	-751.536167	1573.464844	2217.458984
20472.722447	-751.536167	1572.419922	2138.527832
20472.722447	-751.536167	1571.374023	2089.378662
20472.722447	-751.536167	1570.329102	1823.135376
20472.722447	-751.536167	1569.283203	2110.117676
20472.722447	-751.536167	1568.237305	2207.371094
20472.722447	-751.536167	1567.191406	1916.246094
20472.722447	-751.536167	1566.144531	1709.781738
20472.722447	-751.536167	1565.098633	1752.380737
20472.722447	-751.536167	1564.051758	1767.599487
20472.722447	-751.536167	1563.004883	1705.243164
20472.722447	-751.536167	1561.957031	1601.866455
20472.722447	-751.536167	1560.910156	1653.763062
20472.722447	-751.536167	1559.862305	1564.227539
20472.722447	-751.536167	1558.814453	1317.388550
20472.722447	-751.536167	1557.766602	1305.599731
20472.722447	-751.536167	1556.718750	1111.459717
20472.722447	-751.536167	1555.669922	1206.958374
20472.722447	-751.536167	1554.621094	1480.256348
20472.722447	-751.536167	1553.573242	1416.256592
20472.722447	-751.536167	1552.523438	1391.048706
20472.722447	-751.536167	1551.474609	1272.529419
20472.722447	-751.536167	1550.424805	1507.108398
20472.722447	-751.536167	1549.375000	1363.677490
20472.722447	-751.536167	1548.325195	1477.614624
20472.722447	-751.536167	1547.275391	1350.305664
20472.722447	-751.536167	1546.225586	1193.527954
20472.722447	-751.536167	1545.174805	1157.452393
20472.722447	-751.536167	1544.124023	1162.403320
20472.722447	-751.536167	1543.073242	1322.073120
20472.722447	-751.536167	1542.022461	1431.725464
20472.722447	-751.536167	1540.970703	1241.303101
20472.722447	-751.536167	1539.919922	1464.716431
20472.722447	-751.536167	1538.868164	1351.771973
20472.722447	-751.536167	1537.815430	1225.301880
20472.722447	-751.536167	1536.763672	1128.498535
20472.722447	-751.536167	1535.710938	1018.169556
20472.722447	-751.536167	1534.659180	1019.237427
20472.722447	-751.536167	1533.606445	834.209595
20472.722447	-751.536167	1532.552734	862.684814
20472.722447	-751.536167	1531.500000	900.316467
20472.722447	-751.536167	1530.446289	949.346680
20472.722447	-751.536167	1529.393555	780.677551
20472.722447	-751.536167	1528.338867	888.834167
20472.722447	-751.536167	1527.285156	768.016846
20472.722447	-751.536167	1526.231445	640.530396
20472.722447	-751.536167	1525.176758	558.502380
20472.722447	-751.536167	1524.122070	762.138245
20472.722447	-751.536167	1523.067383	578.332458
20472.722447	-751.536167	1522.012695	711.833923
20472.722447	-751.536167	1520.957031	578.104370
20472.722447	-751.536167	1519.901367	675.490601
20472.722447	-751.536167	1518.845703	786.513000
20472.722447	-751.536167	1517.790039	623.694885
20472.722447	-751.536167	1516.734375	537.978455
20472.722447	-751.536167	1515.677734	603.977234
20472.722447	-751.536167	1514.621094	593.130371
20472.722447	-751.536167	1513.564453	679.637878
20472.722447	-751.536167	1512.507813	573.996582
20472.722447	-751.536167	1511.450195	728.483582
20472.722447	-751.536167	1510.393555	699.923279
20472.722447	-751.536167	1509.335938	594.625793
20472.722447	-751.536167	1508.278320	747.054016
20472.722447	-751.536167	1507.219727	707.492065
20472.722447	-751.536167	1506.162109	582.229553
20472.722447	-751.536167	1505.103516	615.181702
20472.722447	-751.536167	1504.044922	612.100159
20472.722447	-751.536167	1502.986328	500.774628
20472.722447	-751.536167	1501.926758	576.906738
20472.722447	-751.536167	1500.868164	278.563385
20472.722447	-751.536167	1499.808594	287.242798
20472.722447	-751.536167	1498.749023	287.004608
20472.722447	-751.536167	1497.688477	325.202118
20472.722447	-751.536167	1496.628906	437.901398
20472.722447	-751.536167	1495.568359	135.896408
20472.722447	-751.536167	1494.507813	314.158417
20472.722447	-751.536167	1493.447266	118.422440
20472.722447	-751.536167	1492.386719	193.210663
20472.722447	-751.536167	1491.325195	123.924873
20472.722447	-751.536167	1490.263672	286.725342
20472.722447	-751.536167	1489.202148	98.348022
20472.722447	-751.536167	1488.140625	81.236946
20472.722447	-751.536167	1487.079102	43.993290
20472.722447	-751.536167	1486.016602	78.876801
20472.722447	-751.536167	1484.954102	19.378195
20472.722447	-751.536167	1483.891602	-46.727516
20472.722447	-751.536167	1482.829102	-216.134079
20472.722447	-751.536167	1481.765625	-21.138971
20472.722447	-751.536167	1480.702148	-129.574203
20472.722447	-751.536167	1479.638672	-258.069122
20472.722447	-751.536167	1478.575195	-186.415131
20472.722447	-751.536167	1477.511719	-134.886139
20472.722447	-751.536167	1476.447266	-40.594501
20472.722447	-751.536167	1475.382813	-89.950981
20472.722447	-751.536167	1474.318359	47.169937
20472.722447	-751.536167	1473.253906	74.417191
20472.722447	-751.536167	1472.189453	34.497334
20472.722447	-751.536167	1471.124023	178.683289
20472.722447	-751.536167	1470.058594	94.041229
20472.722447	-751.536167	1468.993164	200.096985
20472.722447	-751.536167	1467.927734	131.502411
20472.722447	-751.536167	1466.861328	354.252533
20472.722447	-751.536167	1465.794922	612.674683
20472.722447	-751.536167	1464.728516	575.702026
20472.722447	-751.536167	1463.662109	449.503784
20472.722447	-751.536167	1462.594727	580.399719
20472.722447	-751.536167	1461.528320	311.171722
20472.722447	-751.536167	1460.460938	259.373871
20472.722447	-751.536167	1459.393555	357.105255
20472.722447	-751.536167	1458.326172	280.768555
20472.722447	-751.536167	1457.257813	377.064941
20472.722447	-751.536167	1456.189453	522.412415
20472.722447	-751.536167	1455.121094	359.413788
20472.722447	-751.536167	1454.052734	368.725677
20472.722447	-751.536167	1452.984375	288.531006
20472.722447	-751.536167	1451.915039	643.119385
20472.722447	-751.536167	1450.845703	787.105408
20472.722447	-751.536167	1449.776367	804.160217
20472.722447	-751.536167	1448.707031	810.569336
20472.722447	-751.536167	1447.636719	911.718445
20472.722447	-751.536167	1446.567383	801.026367
20472.722447	-751.536167	1445.497070	785.393494
20472.722447	-751.536167	1444.425781	794.676758
20472.722447	-751.536167	1443.355469	732.154663
20472.722447	-751.536167	1442.285156	954.895752
20472.722447	-751.536167	1441.213867	836.916382
20472.722447	-751.536167	1440.142578	859.812134
20472.722447	-751.536167	1439.070313	1063.612427
20472.722447	-751.536167	1437.999023	1006.236755
20472.722447	-751.536167	1436.926758	670.234924
20472.722447	-751.536167	1435.854492	654.509583
20472.722447	-751.536167	1434.782227	778.319702
20472.722447	-751.536167	1433.709961	654.221069
20472.722447	-751.536167	1432.636719	659.645935
20472.722447	-751.536167	1431.563477	600.975098
20472.722447	-751.536167	1430.490234	511.848236
20472.722447	-751.536167	1429.416992	526.305481
20472.722447	-751.536167	1428.343750	497.733643
20472.722447	-751.536167	1427.269531	310.740448
20472.722447	-751.536167	1426.195313	139.707825
20472.722447	-751.536167	1425.121094	28.493233
20472.722447	-751.536167	1424.046875	182.117233
20472.722447	-751.536167	1422.971680	241.230972
20472.722447	-751.536167	1421.896484	-64.493141
20472.722447	-751.536167	1420.821289	31.706610
20472.722447	-751.536167	1419.746094	98.589005
20472.722447	-751.536167	1418.669922	-8.751927
20472.722447	-751.536167	1417.594727	189.284912
20472.722447	-751.536167	1416.518555	39.252918
20472.722447	-751.536167	1415.442383	65.271881
20472.722447	-751.536167	1414.365234	190.764420
20472.722447	-751.536167	1413.289063	91.864746
20472.722447	-751.536167	1412.211914	27.797167
20472.722447	-751.536167	1411.134766	120.743408
20472.722447	-751.536167	1410.057617	51.579346
20472.722447	-751.536167	1408.979492	-77.544258
20472.722447	-751.536167	1407.902344	37.142166
20472.722447	-751.536167	1406.824219	-12.651450
20472.722447	-751.536167	1405.746094	-143.445251
20472.722447	-751.536167	1404.666992	-44.317501
20472.722447	-751.536167	1403.588867	324.659485
20472.722447	-751.536167	1402.509766	82.383125
20472.722447	-751.536167	1401.430664	-9.499290
20472.722447	-751.536167	1400.351563	261.968109
20472.722447	-751.536167	1399.271484	483.337494
20472.722447	-751.536167	1398.192383	474.201263
20472.722447	-751.536167	1397.112305	588.342834
20472.722447	-751.536167	1396.031250	464.957672
20472.722447	-751.536167	1394.951172	655.560181
20472.722447	-751.536167	1393.871094	316.812134
20472.722447	-751.536167	1392.790039	478.965698
20472.722447	-751.536167	1391.708984	649.581909
20472.722447	-751.536167	1390.626953	525.712952
20472.722447	-751.536167	1389.545898	591.811401
20472.722447	-751.536167	1388.463867	469.579529
20472.722447	-751.536167	1387.381836	462.639435
20472.722447	-751.536167	1386.299805	463.362885
20472.722447	-751.536167	1385.217773	549.047363
20472.722447	-751.536167	1384.134766	444.479126
20472.722447	-751.536167	1383.051758	421.936890
20472.722447	-751.536167	1381.968750	339.064850
20472.722447	-751.536167	1380.885742	617.595032
20472.722447	-751.536167	1379.802734	262.373688
20472.722447	-751.536167	1378.718750	619.558777
20472.722447	-751.536167	1377.634766	526.910767
20472.722447	-751.536167	1376.550781	555.466309
20472.722447	-751.536167	1375.465820	507.958954
20472.722447	-751.536167	1374.381836	378.567963
20472.722447	-751.536167	1373.296875	339.654419
20472.722447	-751.536167	1372.211914	70.328644
20472.722447	-751.536167	1371.126953	446.178101
20472.722447	-751.536167	1370.041016	366.614532
20472.722447	-751.536167	1368.955078	347.859222
20472.722447	-751.536167	1367.869141	254.175400
20472.722447	-751.536167	1366.783203	336.670929
20472.722447	-751.536167	1365.697266	155.219299
20472.722447	-751.536167	1364.610352	221.197678
20472.722447	-751.536167	1363.523438	263.934143
20472.722447	-751.536167	1362.436523	355.328552
20472.722447	-751.536167	1361.349609	175.805145
20472.722447	-751.536167	1360.261719	296.759064
20472.722447	-751.536167	1359.174805	201.360367
20472.722447	-751.536167	1358.086914	192.258377
20472.722447	-751.536167	1356.998047	51.442127
20472.722447	-751.536167	1355.910156	113.634644
20472.722447	-751.536167	1354.821289	188.247650
20472.722447	-751.536167	1353.732422	210.508514
20472.722447	-751.536167	1352.643555	431.175354
20472.722447	-751.536167	1351.554688	265.470245
20472.722447	-751.536167	1350.464844	203.246277
20472.722447	-751.536167	1349.375000	584.544739
20472.722447	-751.536167	1348.285156	283.524200
20472.722447	-751.536167	1347.195313	427.867554
20472.722447	-751.536167	1346.105469	325.702026
20472.722447	-751.536167	1345.014648	511.813904
20472.722447	-751.536167	1343.923828	253.668671
20472.722447	-751.536167	1342.833008	323.419922
20472.722447	-751.536167	1341.741211	474.040741
20472.722447	-751.536167	1340.650391	489.423737
20472.722447	-751.536167	1339.558594	626.817627
20472.722447	-751.536167	1338.466797	359.800629
20472.722447	-751.536167	1337.374023	463.825684
20472.722447	-751.536167	1336.282227	719.509155
20472.722447	-751.536167	1335.189453	744.036072
20472.722447	-751.536167	1334.096680	541.641479
20472.722447	-751.536167	1333.003906	835.072571
20472.722447	-751.536167	1331.910156	718.141235
20472.722447	-751.536167	1330.817383	779.180481
20472.722447	-751.536167	1329.723633	813.654724
20472.722447	-751.536167	1328.629883	710.858887
20472.722447	-751.536167	1327.535156	865.026001
20472.722447	-751.536167	1326.441406	711.196472
20472.722447	-751.536167	1325.346680	621.661499
20472.722447	-751.536167	1324.251953	683.450989
20472.722447	-751.536167	1323.156250	822.686096
20472.722447	-751.536167	1322.061523	774.066406
20472.722447	-751.536167	1320.965820	847.137817
20472.722447	-751.536167	1319.870117	655.316589
20472.722447	-751.536167	1318.774414	700.241516
20472.722447	-751.536167	1317.678711	906.766113
20472.722447	-751.536167	1316.582031	791.301147
20472.722447	-751.536167	1315.485352	780.167664
20472.722447	-751.536167	1314.388672	677.228088
20472.722447	-751.536167	1313.291016	783.051575
20472.722447	-751.536167	1312.194336	905.417969
20472.722447	-751.536167	1311.096680	986.870972
20472.722447	-751.536167	1309.999023	827.612976
20472.722447	-751.536167	1308.901367	833.230896
20472.722447	-751.536167	1307.802734	829.892944
20472.722447	-751.536167	1306.705078	1125.781494
20472.722447	-751.536167	1305.606445	996.688049
20472.722447	-751.536167	1304.506836	735.638184
20472.722447	-751.536167	1303.408203	888.745422
20472.722447	-751.536167	1302.308594	651.534180
20472.722447	-751.536167	1301.208984	790.493225
20472.722447	-751.536167	1300.109375	755.410645
20472.722447	-751.536167	1299.009766	882.563782
20472.722447	-751.536167	1297.909180	901.432007
20472.722447	-751.536167	1296.808594	845.800720
20472.722447	-751.536167	1295.708008	835.978455
20472.722447	-751.536167	1294.607422	575.845032
20472.722447	-751.536167	1293.506836	767.318481
20472.722447	-751.536167	1292.405273	582.072693
20472.722447	-751.536167	1291.303711	422.516785
20472.722447	-751.536167	1290.202148	282.239502
20472.722447	-751.536167	1289.099609	181.055771
20472.722447	-751.536167	1287.998047	431.421600
20472.722447	-751.536167	1286.895508	312.064575
20472.722447	-751.536167	1285.792969	207.175491
20472.722447	-751.536167	1284.689453	70.791168
20472.722447	-751.536167	1283.586914	83.799728
20472.722447	-751.536167	1282.483398	173.206543
20472.722447	-751.536167	1281.379883	-17.264601
20472.722447	-751.536167	1280.276367	66.628365
20472.722447	-751.536167	1279.171875	58.326828
20472.722447	-751.536167	1278.067383	-130.527679
20472.722447	-751.536167	1276.962891	-53.969437
20472.722447	-751.536167	1275.858398	38.928177
20472.722447	-751.536167	1274.753906	-136.649399
20472.722447	-751.536167	1273.648438	-123.364021
20472.722447	-751.536167	1272.542969	-263.159424
20472.722447	-751.536167	1271.437500	-225.124649
20472.722447	-751.536167	1270.331055	-167.810028
20472.722447	-751.536167	1269.225586	-165.924759
20472.722447	-751.536167	1268.119141	-137.488342
20472.722447	-751.536167	1267.012695	-183.067871
20472.722447	-751.536167	1265.906250	-153.087311
20472.722447	-751.536167	1264.798828	-156.614395
20472.722447	-751.536167	1263.691406	73.403748
20472.722447	-751.536167	1262.583984	115.113457
20472.722447	-751.536167	1261.476563	189.169830
20472.722447	-751.536167	1260.368164	154.184052
20472.722447	-751.536167	1259.260742	271.504639
20472.722447	-751.536167	1258.152344	233.409775
20472.722447	-751.536167	1257.043945	412.042877
20472.722447	-751.536167	1255.934570	543.577698
20472.722447	-751.536167	1254.825195	332.310974
20472.722447	-751.536167	1253.716797	276.368195
20472.722447	-751.536167	1252.606445	241.153229
20472.722447	-751.536167	1251.497070	209.528473
20472.722447	-751.536167	1250.387695	267.209808
20472.722447	-751.536167	1249.277344	200.175003
20472.722447	-751.536167	1248.166992	128.206726
20472.722447	-751.536167	1247.055664	30.211523
20472.722447	-751.536167	1245.945313	-128.485489
20472.722447	-751.536167	1244.833984	-53.907982
20472.722447	-751.536167	1243.722656	103.405327
20472.722447	-751.536167	1242.611328	48.635899
20472.722447	-751.536167	1241.499023	-78.131889
20472.722447	-751.536167	1240.387695	-114.541946
20472.722447	-751.536167	1239.275391	-65.633293
20472.722447	-751.536167	1238.162109	38.488495
20472.722447	-751.536167	1237.049805	16.576790
20472.722447	-751.536167	1235.936523	-87.066452
20472.722447	-751.536167	1234.823242	-70.477242
20472.722447	-751.536167	1233.709961	-198.959488
20472.722447	-751.536167	1232.596680	-100.277039
20472.722447	-751.536167	1231.482422	-166.805283
20472.722447	-751.536167	1230.369141	-76.596733
20472.722447	-751.536167	1229.253906	-130.363037
20472.722447	-751.536167	1228.139648	-242.853882
20472.722447	-751.536167	1227.025391	-85.440689
20472.722447	-751.536167	1225.910156	-1.970463
20472.722447	-751.536167	1224.794922	-41.411015
20472.722447	-751.536167	1223.679688	-19.898266
20472.722447	-751.536167	1222.563477	-94.054558
20472.722447	-751.536167	1221.447266	84.162018
20472.722447	-751.536167	1220.331055	184.143860
20472.722447	-751.536167	1219.214844	190.173019
20472.722447	-751.536167	1218.098633	316.051056
20472.722447	-751.536167	1216.981445	180.952576
20472.722447	-751.536167	1215.864258	213.492676
20472.722447	-751.536167	1214.747070	180.058884
20472.722447	-751.536167	1213.629883	271.543610
20472.722447	-751.536167	1212.511719	136.525726
20472.722447	-751.536167	1211.393555	153.129150
20472.722447	-751.536167	1210.275391	107.986519
20472.722447	-751.536167	1209.157227	4.958987
20472.722447	-751.536167	1208.038086	22.413544
20472.722447	-751.536167	1206.918945	171.021942
20472.722447	-751.536167	1205.799805	185.005692
20472.722447	-751.536167	1204.680664	194.076569
20472.722447	-751.536167	1203.560547	91.661095
20472.722447	-751.536167	1202.441406	42.138161
20472.722447	-751.536167	1201.321289	93.750641
20472.722447	-751.536167	1200.200195	43.313793
20472.722447	-751.536167	1199.080078	57.509293
20472.722447	-751.536167	1197.958984	17.059458
20472.722447	-751.536167	1196.837891	120.375381
20472.722447	-751.536167	1195.716797	123.798721
20472.722447	-751.536167	1194.594727	172.851654
20472.722447	-751.536167	1193.473633	165.662292
20472.722447	-751.536167	1192.351563	170.702835
20472.722447	-751.536167	1191.229492	188.404953
20472.722447	-751.536167	1190.106445	62.410889
20472.722447	-751.536167	1188.984375	196.901642
20472.722447	-751.536167	1187.861328	327.531891
20472.722447	-751.536167	1186.738281	198.334000
20472.722447	-751.536167	1185.614258	290.184479
20472.722447	-751.536167	1184.491211	362.311432
20472.722447	-751.536167	1183.367188	335.646698
20472.722447	-751.536167	1182.243164	317.828186
20472.722447	-751.536167	1181.119141	228.294327
20472.722447	-751.536167	1179.994141	166.844391
20472.722447	-751.536167	1178.869141	69.465034
20472.722447	-751.536167	1177.744141	42.777264
20472.722447	-751.536167	1176.619141	37.211689
20472.722447	-751.536167	1175.493164	88.247192
20472.722447	-751.536167	1174.368164	94.824257
20472.722447	-751.536167	1173.242188	56.612583
20472.722447	-751.536167	1172.115234	90.446991
20472.722447	-751.536167	1170.989258	42.813110
20472.722447	-751.536167	1169.862305	-36.777756
20472.722447	-751.536167	1168.735352	26.563704
20472.722447	-751.536167	1167.608398	-89.717224
20472.722447	-751.536167	1166.481445	-85.316841
20472.722447	-751.536167	1165.353516	-92.803413
20472.722447	-751.536167	1164.225586	-160.174194
20472.722447	-751.536167	1163.097656	-82.660629
20472.722447	-751.536167	1161.968750	40.723606
20472.722447	-751.536167	1160.840820	102.926773
20472.722447	-751.536167	1159.711914	112.209534
20472.722447	-751.536167	1158.583008	7.966484
20472.722447	-751.536167	1157.453125	52.647648
20472.722447	-751.536167	1156.324219	208.456543
20472.722447	-751.536167	1155.194336	83.263870
20472.722447	-751.536167	1154.064453	62.680233
20472.722447	-751.536167	1152.933594	-9.214623
20472.722447	-751.536167	1151.803711	115.324242
20472.722447	-751.536167	1150.672852	99.694504
20472.722447	-751.536167	1149.541992	232.822433
20472.722447	-751.536167	1148.411133	115.809654
20472.722447	-751.536167	1147.279297	128.070679
20472.722447	-751.536167	1146.147461	87.539719
20472.722447	-751.536167	1145.015625	120.806747
20472.722447	-751.536167	1143.883789	53.505657
20472.722447	-751.536167	1142.750977	87.837868
20472.722447	-751.536167	1141.619141	204.202621
20472.722447	-751.536167	1140.486328	203.442062
20472.722447	-751.536167	1139.352539	175.928192
20472.722447	-751.536167	1138.219727	170.042099
20472.722447	-751.536167	1137.085938	245.810150
20472.722447	-751.536167	1135.952148	40.348766
20472.722447	-751.536167	1134.818359	183.002838
20472.722447	-751.536167	1133.683594	17.343519
20472.722447	-751.536167	1132.549805	90.180199
20472.722447	-751.536167	1131.415039	176.820938
20472.722447	-751.536167	1130.279297	283.668091
20472.722447	-751.536167	1129.144531	330.957245
20472.722447	-751.536167	1128.008789	249.390656
20472.722447	-751.536167	1126.873047	207.572556
20472.722447	-751.536167	1125.737305	96.502220
20472.722447	-751.536167	1124.601563	44.607639
20472.722447	-751.536167	1123.464844	115.295387
20472.722447	-751.536167	1122.328125	-38.157135
20472.722447	-751.536167	1121.191406	-5.381477
20472.722447	-751.536167	1120.054688	-137.378342
20472.722447	-751.536167	1118.916992	-198.224792
20472.722447	-751.536167	1117.779297	30.883257
20472.722447	-751.536167	1116.641602	-160.240417
20472.722447	-751.536167	1115.503906	-109.441193
20472.722447	-751.536167	1114.365234	-141.484863
20472.722447	-751.536167	1113.226563	-357.266235
20472.722447	-751.536167	1112.087891	-213.372894
20472.722447	-751.536167	1110.949219	-186.408951
20472.722447	-751.536167	1109.809570	-264.905121
20472.722447	-751.536167	1108.669922	-176.985352
20472.722447	-751.536167	1107.530273	-185.046783
20472.722447	-751.536167	1106.390625	-213.129990
20472.722447	-751.536167	1105.250000	-195.353851
20472.722447	-751.536167	1104.109375	-155.425034
20472.722447	-751.536167	1102.968750	49.847324
20472.722447	-751.536167	1101.828125	99.907974
20472.722447	-751.536167	1100.686523	-23.519426
20472.722447	-751.536167	1099.544922	-29.399015
20472.722447	-751.536167	1098.403320	-19.410030
20472.722447	-751.536167	1097.261719	121.211670
20472.722447	-751.536167	1096.120117	67.057373
20472.722447	-751.536167	1094.977539	27.805475
20472.722447	-751.536167	1093.834961	128.002029
20472.722447	-751.536167	1092.691406	47.271584
20472.722447	-751.536167	1091.548828	85.585243
20472.722447	-751.536167	1090.405273	102.104599
20472.722447	-751.536167	1089.261719	140.568466
20472.722447	-751.536167	1088.118164	80.325027
20472.722447	-751.536167	1086.973633	34.231865
20472.722447	-751.536167	1085.829102	-38.508076
20472.722447	-751.536167	1084.684570	119.906555
20472.722447	-751.536167	1083.540039	156.771255
20472.722447	-751.536167	1082.395508	12.944041
20472.722447	-751.536167	1081.250000	124.120987
20472.722447	-751.536167	1080.104492	69.824837
20472.722447	-751.536167	1078.958984	171.194870
20472.722447	-751.536167	1077.812500	-21.741013
20472.722447	-751.536167	1076.666016	51.284340
20472.722447	-751.536167	1075.519531	30.210060
20472.722447	-751.536167	1074.373047	56.224308
20472.722447	-751.536167	1073.226563	198.461533
20472.722447	-751.536167	1072.079102	281.145538
20472.722447	-751.536167	1070.931641	357.834991
20472.722447	-751.536167	1069.784180	95.109665
20472.722447	-751.536167	1068.635742	72.274185
20472.722447	-751.536167	1067.487305	120.368950
20472.722447	-751.536167	1066.338867	212.327316
20472.722447	-751.536167	1065.190430	207.828705
20472.722447	-751.536167	1064.041992	105.514534
20472.722447	-751.536167	1062.892578	224.236847
20472.722447	-751.536167	1061.743164	98.721100
20472.722447	-751.536167	1060.593750	299.796204
20472.722447	-751.536167	1059.443359	341.342346
20472.722447	-751.536167	1058.292969	310.825470
20472.722447	-751.536167	1057.142578	200.168259
20472.722447	-751.536167	1055.992188	132.324692
20472.722447	-751.536167	1054.841797	223.788757
20472.722447	-751.536167	1053.690430	584.987061
20472.722447	-751.536167	1052.539063	356.132233
20472.722447	-751.536167	1051.387695	416.017090
20472.722447	-751.536167	1050.235352	334.100250
20472.722447	-751.536167	1049.083984	373.163300
20472.722447	-751.536167	1047.931641	319.573730
20472.722447	-751.536167	1046.778320	191.952286
20472.722447	-751.536167	1045.625977	9.332096
20472.722447	-751.536167	1044.472656	98.626015
20472.722447	-751.536167	1043.319336	240.439026
20472.722447	-751.536167	1042.166016	21.534761
20472.722447	-751.536167	1041.012695	49.905392
20472.722447	-751.536167	1039.858398	193.832062
20472.722447	-751.536167	1038.704102	110.731667
20472.722447	-751.536167	1037.549805	106.685272
20472.722447	-751.536167	1036.394531	72.690567
20472.722447	-751.536167	1035.239258	58.758518
20472.722447	-751.536167	1034.083984	180.216309
20472.722447	-751.536167	1032.928711	226.557144
20472.722447	-751.536167	1031.773438	344.801575
20472.722447	-751.536167	1030.617188	366.426422
20472.722447	-751.536167	1029.460938	104.262459
20472.722447	-751.536167	1028.304688	367.686707
20472.722447	-751.536167	1027.147461	188.757782
20472.722447	-751.536167	1025.991211	254.045227
20472.722447	-751.536167	1024.833984	469.056671
20472.722447	-751.536167	1023.675781	175.645447
20472.722447	-751.536167	1022.518555	91.354416
20472.722447	-751.536167	1021.360352	132.577362
20472.722447	-751.536167	1020.202148	111.359741
20472.722447	-751.536167	1019.043945	17.823807
20472.722447	-751.536167	1017.884766	135.589005
20472.722447	-751.536167	1016.726563	109.577003
20472.722447	-751.536167	1015.567383	-10.838743
20472.722447	-751.536167	1014.407227	163.253799
20472.722447	-751.536167	1013.248047	137.922379
20472.722447	-751.536167	1012.087891	77.907120
20472.722447	-751.536167	1010.927734	81.815796
20472.722447	-751.536167	1009.767578	80.890823
20472.722447	-751.536167	1008.606445	136.735413
20472.722447	-751.536167	1007.446289	475.409454
20472.722447	-751.536167	1006.285156	360.936371
20472.722447	-751.536167	1005.123047	363.504700
20472.722447	-751.536167	1003.961914	404.467834
20472.722447	-751.536167	1002.799805	532.294067
20472.722447	-751.536167	1001.637695	838.852661
20472.722447	-751.536167	1000.475586	829.010132
20472.722447	-751.536167	999.312500	709.755798
20472.722447	-751.536167	998.149414	441.459229
20472.722447	-751.536167	996.986328	479.473297
20472.722447	-751.536167	995.823242	256.092285
20472.722447	-751.536167	994.659180	166.105957
20472.722447	-751.536167	993.496094	355.895752
20472.722447	-751.536167	992.332031	242.832748
20472.722447	-751.536167	991.166992	270.208069
20472.722447	-751.536167	990.002930	53.118526
20472.722447	-751.536167	988.837891	159.265793
20472.722447	-751.536167	987.672852	-49.525623
20472.722447	-751.536167	986.506836	253.215164
20472.722447	-751.536167	985.341797	192.040726
20472.722447	-751.536167	984.175781	48.475334
20472.722447	-751.536167	983.009766	88.302872
20472.722447	-751.536167	981.843750	-19.061182
20472.722447	-751.536167	980.676758	205.840973
20472.722447	-751.536167	979.509766	8.263209
20472.722447	-751.536167	978.342773	229.477478
20472.722447	-751.536167	977.175781	-55.321400
20472.722447	-751.536167	976.007813	-37.711090
20472.722447	-751.536167	974.839844	0.523588
20472.722447	-751.536167	973.671875	-67.104179
20472.722447	-751.536167	972.503906	-207.005997
20472.722447	-751.536167	971.334961	-17.658257
20472.722447	-751.536167	970.166016	-181.426468
20472.722447	-751.536167	968.997070	-67.715401
20472.722447	-751.536167	967.828125	-125.249130
20472.722447	-751.536167	966.658203	-224.192780
20472.722447	-751.536167	965.488281	-78.565857
20472.722447	-751.536167	964.318359	-23.422497
20472.722447	-751.536167	963.148438	-152.176193
20472.722447	-751.536167	961.977539	-87.900581
20472.722447	-751.536167	960.806641	-110.260315
20472.722447	-751.536167	959.635742	11.690491
20472.722447	-751.536167	958.463867	-173.638580
20472.722447	-751.536167	957.292969	-97.746666
20472.722447	-751.536167	956.121094	-119.209770
20472.722447	-751.536167	954.948242	-192.702316
20472.722447	-751.536167	953.776367	-166.702484
20472.722447	-751.536167	952.603516	67.601982
20472.722447	-751.536167	951.430664	-109.287910
20472.722447	-751.536167	950.257813	-162.906693
20472.722447	-751.536167	949.084961	64.109535
20472.722447	-751.536167	947.911133	37.185390
20472.722447	-751.536167	946.737305	-24.539133
20472.722447	-751.536167	945.563477	104.474686
20472.722447	-751.536167	944.388672	237.388580
20472.722447	-751.536167	943.213867	31.203123
20472.722447	-751.536167	942.039063	113.338875
20472.722447	-751.536167	940.864258	-94.729858
20472.722447	-751.536167	939.688477	-53.326946
20472.722447	-751.536167	938.513672	34.458988
20472.722447	-751.536167	937.337891	118.627945
20472.722447	-751.536167	936.161133	-29.200457
20472.722447	-751.536167	934.985352	186.674622
20472.722447	-751.536167	933.808594	-3.839962
20472.722447	-751.536167	932.631836	18.868305
20472.722447	-751.536167	931.454102	63.822807
20472.722447	-751.536167	930.277344	283.227814
20472.722447	-751.536167	929.099609	354.379395
20472.722447	-751.536167	927.921875	169.732056
20472.722447	-751.536167	926.743164	228.569748
20472.722447	-751.536167	925.565430	206.130432
20472.722447	-751.536167	924.386719	205.958710
20472.722447	-751.536167	923.208008	90.102158
20472.722447	-751.536167	922.028320	-62.265877
20472.722447	-751.536167	920.849609	-141.662796
20472.722447	-751.536167	919.669922	-142.057175
20472.722447	-751.536167	919.474609	111.265930
20472.722447	-751.536167	918.309570	100.636940
20472.722447	-751.536167	917.143555	-114.695511
20472.722447	-751.536167	915.977539	-74.760612
20472.722447	-751.536167	914.810547	64.335312
20472.722447	-751.536167	913.644531	-179.401047
20472.722447	-751.536167	912.477539	-68.809021
20472.722447	-751.536167	911.310547	-89.892212
20472.722447	-751.536167	910.143555	-125.193848
20472.722447	-751.536167	908.975586	-0.702318
20472.722447	-751.536167	907.807617	-163.570465
20472.722447	-751.536167	906.639648	110.421196
20472.722447	-751.536167	905.471680	91.043892
20472.722447	-751.536167	904.303711	251.543457
20472.722447	-751.536167	903.134766	124.904922
20472.722447	-751.536167	901.965820	2.301856
20472.722447	-751.536167	900.796875	227.203735
20472.722447	-751.536167	899.626953	54.018303
20472.722447	-751.536167	898.457031	-70.681320
20472.722447	-751.536167	897.287109	-100.483253
20472.722447	-751.536167	896.117188	-49.575249
20472.722447	-751.536167	894.947266	25.478979
20472.722447	-751.536167	893.776367	134.754913
20472.722447	-751.536167	892.605469	68.410881
20472.722447	-751.536167	891.434570	169.463226
20472.722447	-751.536167	890.262695	296.639679
20472.722447	-751.536167	889.091797	205.958664
20472.722447	-751.536167	887.919922	56.803513
20472.722447	-751.536167	886.748047	107.193123
20472.722447	-751.536167	885.575195	-25.856867
20472.722447	-751.536167	884.403320	105.020905
20472.722447	-751.536167	883.230469	241.841324
20472.722447	-751.536167	882.057617	-26.216421
20472.722447	-751.536167	880.883789	-117.031364
20472.722447	-751.536167	879.710938	-85.058136
20472.722447	-751.536167	878.537109	-185.972549
20472.722447	-751.536167	877.362305	-158.111862
20472.722447	-751.536167	876.188477	-84.030121
20472.722447	-751.536167	875.013672	60.374977
20472.722447	-751.536167	873.839844	-12.497340
20472.722447	-751.536167	872.664063	41.279182
20472.722447	-751.536167	871.489258	-35.660694
20472.722447	-751.536167	870.313477	-28.200302
20472.722447	-751.536167	869.138672	-66.992897
20472.722447	-751.536167	867.962891	-3.355526
20472.722447	-751.536167	866.786133	44.150917
20472.722447	-751.536167	865.610352	-4.781935
20472.722447	-751.536167	864.433594	-55.739857
20472.722447	-751.536167	863.256836	-162.913284
20472.722447	-751.536167	862.079102	-79.428841
20472.722447	-751.536167	860.902344	74.214890
20472.722447	-751.536167	859.724609	-14.964579
20472.722447	-751.536167	858.546875	-126.200546
20472.722447	-751.536167	857.368164	99.446663
20472.722447	-751.536167	856.190430	-75.979370
20472.722447	-751.536167	855.011719	3.188101
20472.722447	-751.536167	853.833008	-90.044907
20472.722447	-751.536167	852.654297	-18.977507
20472.722447	-751.536167	851.474609	-120.237526
20472.722447	-751.536167	850.294922	-211.468292
20472.722447	-751.536167	849.115234	-62.412289
20472.722447	-751.536167	847.935547	-373.876465
20472.722447	-751.536167	846.754883	-96.806145
20472.722447	-751.536167	845.575195	-204.075348
20472.722447	-751.536167	844.393555	72.797028
20472.722447	-751.536167	843.212891	-266.538940
20472.722447	-751.536167	842.032227	-145.797104
20472.722447	-751.536167	840.850586	-137.095749
20472.722447	-751.536167	839.668945	33.501057
20472.722447	-751.536167	838.486328	221.991226
20472.722447	-751.536167	837.304688	134.638626
20472.722447	-751.536167	836.122070	147.188431
20472.722447	-751.536167	834.939453	147.730896
20472.722447	-751.536167	833.756836	82.355515
20472.722447	-751.536167	832.573242	166.728073
20472.722447	-751.536167	831.389648	65.408585
20472.722447	-751.536167	830.206055	-27.901169
20472.722447	-751.536167	829.022461	92.309166
20472.722447	-751.536167	827.838867	52.864403
20472.722447	-751.536167	826.654297	11.424414
20472.722447	-751.536167	825.469727	215.258209
20472.722447	-751.536167	824.284180	197.696548
20472.722447	-751.536167	823.099609	365.504456
20472.722447	-751.536167	821.914063	9.110385
20472.722447	-751.536167	820.728516	144.983582
20472.722447	-751.536167	819.542969	143.339462
20472.722447	-751.536167	818.356445	175.540894
20472.722447	-751.536167	817.169922	227.631348
20472.722447	-751.536167	815.983398	257.792023
20472.722447	-751.536167	814.796875	244.143570
20472.722447	-751.536167	813.609375	83.231468
20472.722447	-751.536167	812.422852	284.480988
20472.722447	-751.536167	811.235352	129.580185
20472.722447	-751.536167	810.046875	314.806915
20472.722447	-751.536167	808.859375	153.986816
20472.722447	-751.536167	807.670898	203.942703
20472.722447	-751.536167	806.482422	63.072514
20472.722447	-751.536167	805.293945	87.184341
20472.722447	-751.536167	804.104492	230.479828
20472.722447	-751.536167	802.915039	135.360825
20472.722447	-751.536167	801.725586	56.164707
20472.722447	-751.536167	800.536133	88.182945
20472.722447	-751.536167	799.345703	118.197235
20472.722447	-751.536167	798.155273	148.198273
20472.722447	-751.536167	796.964844	92.864227
20472.722447	-751.536167	795.774414	55.405479
20472.722447	-751.536167	794.583008	83.411339
20472.722447	-751.536167	793.392578	49.934944
20472.722447	-751.536167	792.200195	73.962082
20472.722447	-751.536167	791.008789	203.037079
20472.722447	-751.536167	789.816406	121.991417
20472.722447	-751.536167	788.625000	132.126236
20472.722447	-751.536167	787.432617	219.510315
20472.722447	-751.536167	786.239258	96.923332
20472.722447	-751.536167	785.046875	8.055063
20472.722447	-751.536167	783.853516	73.639336
20472.722447	-751.536167	782.660156	119.406937
20472.722447	-751.536167	781.465820	117.662949
20472.722447	-751.536167	780.272461	191.108810
20472.722447	-751.536167	779.078125	147.820145
20472.722447	-751.536167	777.883789	244.967148
20472.722447	-751.536167	776.688477	152.261154
20472.722447	-751.536167	775.494141	269.144714
20472.722447	-751.536167	774.298828	152.766739
20472.722447	-751.536167	773.103516	216.258286
20472.722447	-751.536167	771.907227	48.583637
20472.722447	-751.536167	770.711914	303.675507
20472.722447	-751.536167	769.515625	240.728683
20472.722447	-751.536167	768.318359	385.118469
20472.722447	-751.536167	767.122070	547.224792
20472.722447	-751.536167	765.924805	478.364563
20472.722447	-751.536167	764.727539	362.185333
20472.722447	-751.536167	763.530273	182.936417
20472.722447	-751.536167	762.333008	108.302589
20472.722447	-751.536167	761.134766	-98.412048
20472.722447	-751.536167	759.936523	-42.823627
20472.722447	-751.536167	758.738281	-28.642881
20472.722447	-751.536167	757.540039	-30.223118
20472.722447	-751.536167	756.340820	27.311062
20472.722447	-751.536167	755.141602	157.714539
20472.722447	-751.536167	753.942383	-113.689247
20472.722447	-751.536167	752.742188	26.552248
20472.722447	-751.536167	751.541992	192.337418
20472.722447	-751.536167	750.341797	-133.985916
20472.722447	-751.536167	749.141602	39.654659
20472.722447	-751.536167	747.941406	-136.958481
20472.722447	-751.536167	746.740234	-8.610071
20472.722447	-751.536167	745.539063	-17.963326
20472.722447	-751.536167	744.337891	-218.018112
20472.722447	-751.536167	743.135742	40.036530
20472.722447	-751.536167	741.933594	123.080315
20472.722447	-751.536167	740.731445	15.503970
20472.722447	-751.536167	739.529297	43.535130
20472.722447	-751.536167	738.326172	167.804138
20472.722447	-751.536167	737.124023	170.287888
20472.722447	-751.536167	735.919922	-5.881562
20472.722447	-751.536167	734.716797	116.393379
20472.722447	-751.536167	733.513672	-0.791145
20472.722447	-751.536167	732.309570	50.819237
20472.722447	-751.536167	731.105469	267.197815
20472.722447	-751.536167	729.900391	199.117538
20472.722447	-751.536167	728.696289	44.805107
20472.722447	-751.536167	727.491211	-17.294212
20472.722447	-751.536167	726.286133	-28.395687
20472.722447	-751.536167	725.080078	-49.280056
20472.722447	-751.536167	723.874023	16.060038
20472.722447	-751.536167	722.668945	63.758850
20472.722447	-751.536167	721.461914	60.527885
20472.722447	-751.536167	720.255859	-67.994759
20472.722447	-751.536167	719.048828	130.454666
20472.722447	-751.536167	717.841797	170.306274
20472.722447	-751.536167	716.634766	145.581543
20472.722447	-751.536167	715.427734	66.102684
20472.722447	-751.536167	714.219727	51.213043
20472.722447	-751.536167	713.011719	204.512589
20472.722447	-751.536167	711.803711	15.622372
20472.722447	-751.536167	710.594727	-87.173828
20472.722447	-751.536167	709.385742	81.726837
20472.722447	-751.536167	708.176758	-24.922762
20472.722447	-751.536167	706.967773	89.222031
20472.722447	-751.536167	705.758789	222.862320
20472.722447	-751.536167	704.548828	159.240891
20472.722447	-751.536167	703.338867	339.684143
20472.722447	-751.536167	702.127930	235.098953
20472.722447	-751.536167	700.917969	66.175247
20472.722447	-751.536167	699.707031	266.067657
20472.722447	-751.536167	698.496094	-125.134796
20472.722447	-751.536167	697.285156	-200.235916
20472.722447	-751.536167	696.073242	-25.728201
20472.722447	-751.536167	694.861328	-206.062714
20472.722447	-751.536167	693.649414	-273.272797
20472.722447	-751.536167	692.436523	-106.622383
20472.722447	-751.536167	691.224609	-339.391541
20472.722447	-751.536167	690.011719	-129.926422
20472.722447	-751.536167	688.798828	-208.737762
20472.722447	-751.536167	687.584961	-421.842407
20472.722447	-751.536167	686.372070	-323.409149
20472.722447	-751.536167	685.158203	-153.004837
20472.722447	-751.536167	683.943359	-116.913750
20472.722447	-751.536167	682.729492	-100.278389
20472.722447	-751.536167	681.514648	-5.849123
20472.722447	-751.536167	680.299805	154.661118
20472.722447	-751.536167	679.084961	99.327354
20472.722447	-751.536167	677.869141	290.862274
20472.722447	-751.536167	676.653320	447.347778
20472.722447	-751.536167	675.437500	345.386322
20472.722447	-751.536167	674.221680	422.174927
20472.722447	-751.536167	673.004883	316.393097
20472.722447	-751.536167	671.789063	191.250717
20472.722447	-751.536167	670.571289	15.695761
20472.722447	-751.536167	669.354492	-37.508202
20472.722447	-751.536167	668.136719	142.156204
20472.722447	-751.536167	666.919922	151.041351
20472.722447	-751.536167	665.701172	22.221306
20472.722447	-751.536167	664.483398	143.609909
20472.722447	-751.536167	663.264648	195.159180
20472.722447	-751.536167	662.045898	659.550537
20472.722447	-751.536167	660.827148	633.468384
20472.722447	-751.536167	659.608398	801.151794
20472.722447	-751.536167	658.388672	848.670959
20472.722447	-751.536167	657.168945	921.352722
20472.722447	-751.536167	655.949219	901.071045
20472.722447	-751.536167	654.728516	822.726074
20472.722447	-751.536167	653.507813	974.736633
20472.722447	-751.536167	652.287109	648.739136
20472.722447	-751.536167	651.066406	636.291138
20472.722447	-751.536167	649.844727	678.010559
20472.722447	-751.536167	648.623047	487.661926
20472.722447	-751.536167	647.401367	357.333832
20472.722447	-751.536167	646.179688	472.553467
20472.722447	-751.536167	644.957031	293.976990
20472.722447	-751.536167	643.734375	414.964478
20472.722447	-751.536167	642.511719	528.178833
20472.722447	-751.536167	641.289063	477.185303
20472.722447	-751.536167	640.065430	513.107910
20472.722447	-751.536167	638.841797	568.323242
20472.722447	-751.536167	637.618164	469.110413
20472.722447	-751.536167	636.393555	589.927429
20472.722447	-751.536167	635.168945	693.333618
20472.722447	-751.536167	633.944336	422.494690
20472.722447	-751.536167	632.719727	419.831482
20472.722447	-751.536167	631.494141	259.068542
20472.722447	-751.536167	630.269531	175.484726
20472.722447	-751.536167	629.042969	103.499290
20472.722447	-751.536167	627.817383	41.182858
20472.722447	-751.536167	626.590820	32.832516
20472.722447	-751.536167	625.365234	145.830551
20472.722447	-751.536167	624.137695	-8.883169
20472.722447	-751.536167	622.911133	-11.435331
20472.722447	-751.536167	621.683594	88.027824
20472.722447	-751.536167	620.456055	-208.975479
20472.722447	-751.536167	619.228516	82.888596
20472.722447	-751.536167	618.000977	82.246880
20472.722447	-751.536167	616.772461	102.758621
20472.722447	-751.536167	615.543945	104.035812
20472.722447	-751.536167	614.314453	59.175209
20472.722447	-751.536167	613.085938	154.637207
20472.722447	-751.536167	611.856445	338.448486
20472.722447	-751.536167	610.626953	368.492554
20472.722447	-751.536167	609.397461	521.449890
20472.722447	-751.536167	608.166992	443.902710
20472.722447	-751.536167	606.936523	404.788147
20472.722447	-751.536167	605.706055	123.832733
20472.722447	-751.536167	604.474609	157.726013
20472.722447	-751.536167	603.244141	180.094406
20472.722447	-751.536167	602.012695	-6.640800
20472.722447	-751.536167	600.780273	103.970512
20472.722447	-751.536167	599.548828	-4.052653
20472.722447	-751.536167	598.316406	2.990292
20472.722447	-751.536167	597.083984	31.112730
20472.722447	-751.536167	595.851563	-48.086765
20472.722447	-751.536167	594.618164	-90.853127
20472.722447	-751.536167	593.384766	50.277237
20472.722447	-751.536167	592.151367	-32.708420
20472.722447	-751.536167	590.917969	35.594173
20472.722447	-751.536167	589.683594	126.835602
20472.722447	-751.536167	588.449219	233.347641
20472.722447	-751.536167	587.214844	182.916397
20472.722447	-751.536167	585.979492	180.328217
20472.722447	-751.536167	584.745117	321.185181
20472.722447	-751.536167	583.509766	435.208405
20472.722447	-751.536167	582.273438	604.622559
20472.722447	-751.536167	581.038086	550.337280
20472.722447	-751.536167	579.801758	446.389191
20472.722447	-751.536167	578.565430	518.252686
20472.722447	-751.536167	577.329102	471.658234
20472.722447	-751.536167	576.091797	291.400085
20472.722447	-751.536167	574.854492	389.977966
20472.722447	-751.536167	573.617188	280.442688
20472.722447	-751.536167	572.378906	304.545563
20472.722447	-751.536167	571.141602	219.878860
20472.722447	-751.536167	569.903320	175.308350
20472.722447	-751.536167	568.664063	329.109497
20472.722447	-751.536167	567.425781	250.208572
20472.722447	-751.536167	566.186523	76.018272
20472.722447	-751.536167	564.947266	117.283508
20472.722447	-751.536167	563.708008	120.419373
20472.722447	-751.536167	562.467773	85.446693
20472.722447	-751.536167	561.227539	94.299850
20472.722447	-751.536167	559.987305	66.966217
20472.722447	-751.536167	558.747070	270.027893
20472.722447	-751.536167	557.505859	257.895386
20472.722447	-751.536167	556.264648	232.444473
20472.722447	-751.536167	555.023438	227.935974
20472.722447	-751.536167	553.781250	217.721786
20472.722447	-751.536167	552.539063	380.590820
20472.722447	-751.536167	551.296875	199.207184
20472.722447	-751.536167	550.054688	363.913757
20472.722447	-751.536167	548.811523	308.060486
20472.722447	-751.536167	547.569336	409.962372
20472.722447	-751.536167	546.325195	276.225769
20472.722447	-751.536167	545.082031	305.908508
20472.722447	-751.536167	543.837891	269.108917
20472.722447	-751.536167	542.593750	306.375641
20472.722447	-751.536167	541.349609	165.186264
20472.722447	-751.536167	540.105469	192.972504
20472.722447	-751.536167	538.860352	275.773834
20472.722447	-751.536167	537.615234	121.404434
20472.722447	-751.536167	536.369141	156.769989
20472.722447	-751.536167	535.124023	129.545731
20472.722447	-751.536167	533.877930	-56.919998
20472.722447	-751.536167	532.631836	-118.202652
20472.722447	-751.536167	531.384766	-152.928818
20472.722447	-751.536167	530.138672	-206.583435
20472.722447	-751.536167	528.891602	-226.117981
20472.722447	-751.536167	527.643555	-97.924034
20472.722447	-751.536167	526.396484	-259.477783
20472.722447	-751.536167	525.148438	-10.174036
20472.722447	-751.536167	523.900391	-131.930130
20472.722447	-751.536167	522.652344	32.093788
20472.722447	-751.536167	521.403320	-144.478897
20472.722447	-751.536167	520.154297	-241.535263
20472.722447	-751.536167	518.905273	62.344608
20472.722447	-751.536167	517.656250	27.679216
20472.722447	-751.536167	516.406250	-141.174698
20472.722447	-751.536167	515.156250	-211.685303
20472.722447	-751.536167	513.906250	-78.111481
20472.722447	-751.536167	512.655273	-110.824051
20472.722447	-751.536167	511.404297	-1.879135
20472.722447	-751.536167	510.153320	-2.492680
20472.722447	-751.536167	508.902344	189.445526
20472.722447	-751.536167	507.650391	7.606580
20472.722447	-751.536167	506.398438	101.339561
20472.722447	-751.536167	505.146484	29.018290
20472.722447	-751.536167	503.893555	11.425142
20472.722447	-751.536167	502.641602	18.355049
20472.722447	-751.536167	501.388672	-151.939575
20472.722447	-751.536167	500.134766	52.935524
20472.722447	-751.536167	498.881836	-24.953321
20472.722447	-751.536167	497.627930	108.208740
20472.722447	-751.536167	496.374023	-103.404221
20472.722447	-751.536167	495.119141	-60.685787
20472.722447	-751.536167	493.865234	34.734951
20472.722447	-751.536167	492.610352	54.811409
20472.722447	-751.536167	491.355469	-39.930908
20472.722447	-751.536167	490.099609	-123.346642
20472.722447	-751.536167	488.843750	-184.156448
20472.722447	-751.536167	487.587891	-209.208572
20472.722447	-751.536167	486.332031	-38.687222
20472.722447	-751.536167	485.075195	-44.971630
20472.722447	-751.536167	483.818359	-68.177116
20472.722447	-751.536167	482.561523	-204.134491
20472.722447	-751.536167	481.304688	-75.126801
20472.722447	-751.536167	480.046875	-130.270721
20472.722447	-751.536167	478.789063	-46.426884
20472.722447	-751.536167	477.531250	37.369625
20472.722447	-751.536167	476.272461	66.677696
20472.722447	-751.536167	475.013672	101.589745
20472.722447	-751.536167	473.754883	38.899590
20472.722447	-751.536167	472.496094	195.714508
20472.722447	-751.536167	471.236328	63.600956
20472.722447	-751.536167	469.976563	149.048615
20472.722447	-751.536167	468.716797	256.937988
20472.722447	-751.536167	467.456055	160.451553
20472.722447	-751.536167	466.196289	112.710442
20472.722447	-751.536167	464.935547	8.756567
20472.722447	-751.536167	463.673828	182.050217
20472.722447	-751.536167	462.413086	226.022995
20472.722447	-751.536167	461.151367	-1.544257
20472.722447	-751.536167	459.889648	253.919739
20472.722447	-751.536167	458.626953	183.590958
20472.722447	-751.536167	457.364258	32.798374
20472.722447	-751.536167	456.101563	-65.584045
20472.722447	-751.536167	454.838867	107.237495
20472.722447	-751.536167	453.575195	156.525421
20472.722447	-751.536167	452.312500	273.054871
20472.722447	-751.536167	451.047852	299.766602
20472.722447	-751.536167	449.784180	21.819513
20472.722447	-751.536167	448.519531	50.345585
20472.722447	-751.536167	447.254883	261.860809
20472.722447	-751.536167	445.990234	109.064606
20472.722447	-751.536167	444.725586	150.455078
20472.722447	-751.536167	443.459961	59.228153
20472.722447	-751.536167	442.194336	89.285316
20472.722447	-751.536167	440.927734	244.274323
20472.722447	-751.536167	439.662109	331.970032
20472.722447	-751.536167	438.395508	337.486298
20472.722447	-751.536167	437.127930	260.873077
20472.722447	-751.536167	435.861328	404.198242
20472.722447	-751.536167	434.593750	538.054321
20472.722447	-751.536167	433.326172	455.599243
20472.722447	-751.536167	432.058594	550.077881
20472.722447	-751.536167	430.790039	288.645325
20472.722447	-751.536167	429.521484	302.838043
20472.722447	-751.536167	428.252930	255.475861
20472.722447	-751.536167	426.984375	230.359772
20472.722447	-751.536167	425.714844	112.082367
20472.722447	-751.536167	424.445313	261.667206
20472.722447	-751.536167	423.174805	360.830383
20472.722447	-751.536167	421.905273	132.489456
20472.722447	-751.536167	420.634766	205.336151
20472.722447	-751.536167	419.364258	212.940582
20472.722447	-751.536167	418.092773	465.727722
20472.722447	-751.536167	416.822266	329.884796
20472.722447	-751.536167	415.550781	402.010193
20472.722447	-751.536167	414.278320	446.071808
20472.722447	-751.536167	413.006836	385.950470
20472.722447	-751.536167	411.734375	294.107391
20472.722447	-751.536167	410.461914	215.108368
20472.722447	-751.536167	409.188477	52.431705
20472.722447	-751.536167	407.916016	203.190933
20472.722447	-751.536167	406.642578	142.197876
20472.722447	-751.536167	405.368164	-26.558592
20472.722447	-751.536167	404.094727	112.333199
20472.722447	-751.536167	402.820313	-3.046077
20472.722447	-751.536167	401.545898	290.980164
20472.722447	-751.536167	400.270508	269.612122
20472.722447	-751.536167	398.996094	316.543213
20472.722447	-751.536167	397.720703	266.863373
20472.722447	-751.536167	396.444336	235.434692
20472.722447	-751.536167	395.168945	342.589722
20472.722447	-751.536167	393.892578	410.519897
20472.722447	-751.536167	392.616211	211.626007
20472.722447	-751.536167	391.339844	419.535278
20472.722447	-751.536167	390.062500	532.675476
20472.722447	-751.536167	388.785156	190.476517
20472.722447	-751.536167	387.507813	251.145874
20472.722447	-751.536167	386.229492	383.507019
20472.722447	-751.536167	384.951172	153.189972
20472.722447	-751.536167	383.672852	155.398315
20472.722447	-751.536167	382.394531	327.158630
20472.722447	-751.536167	381.115234	443.006744
20472.722447	-751.536167	379.835938	274.002258
20472.722447	-751.536167	378.556641	627.087646
20472.722447	-751.536167	377.277344	636.249146
20472.722447	-751.536167	375.997070	954.940735
20472.722447	-751.536167	374.716797	946.446533
20472.722447	-751.536167	373.435547	939.284485
20472.722447	-751.536167	372.155273	962.965881
20472.722447	-751.536167	370.874023	993.464294
20472.722447	-751.536167	369.591797	851.949951
20472.722447	-751.536167	368.310547	634.380798
20472.722447	-751.536167	367.028320	571.077148
20472.722447	-751.536167	365.746094	672.989136
20472.722447	-751.536167	364.463867	682.146057
20472.722447	-751.536167	363.180664	675.910706
20472.722447	-751.536167	361.897461	703.993958
20472.722447	-751.536167	360.614258	613.589783
20472.722447	-751.536167	359.330078	640.276917
20472.722447	-751.536167	358.045898	471.217438
20472.722447	-751.536167	356.761719	467.029785
20472.722447	-751.536167	355.477539	566.899170
20472.722447	-751.536167	354.192383	235.702896
20472.722447	-751.536167	352.907227	464.474487
20472.722447	-751.536167	351.622070	370.711243
20472.722447	-751.536167	350.336914	380.862000
20472.722447	-751.536167	349.050781	101.710670
20472.722447	-751.536167	347.764648	223.978638
20472.722447	-751.536167	346.477539	-9.132788
20472.722447	-751.536167	345.191406	87.358444
20472.722447	-751.536167	343.904297	10.282718
20472.722447	-751.536167	342.616211	34.963322
20472.722447	-751.536167	341.329102	73.299065
20472.722447	-751.536167	340.041016	-10.522638
20472.722447	-751.536167	338.752930	29.293840
20472.722447	-751.536167	337.463867	-53.056812
20472.722447	-751.536167	336.175781	-174.985214
20472.722447	-751.536167	334.886719	-292.573792
20472.722447	-751.536167	333.596680	-112.718750
20472.722447	-751.536167	332.307617	-60.545177
20472.722447	-751.536167	331.017578	1.283906
20472.722447	-751.536167	329.727539	-62.728348
20472.722447	-751.536167	328.436523	-102.466774
20472.722447	-751.536167	327.146484	-141.701767
20472.722447	-751.536167	325.855469	-79.905907
20472.722447	-751.536167	324.563477	-48.897747
20472.722447	-751.536167	323.272461	62.949020
20472.722447	-751.536167	321.980469	-60.872246
20472.722447	-751.536167	320.688477	-173.409073
20472.722447	-751.536167	319.395508	3.065709
20472.722447	-751.536167	318.103516	-19.491205
20472.722447	-751.536167	316.810547	-34.634155
20472.722447	-751.536167	315.516602	-86.249260
20472.722447	-751.536167	314.223633	-50.086647
20472.722447	-751.536167	312.929688	-15.802660
20472.722447	-751.536167	311.635742	85.969101
20472.722447	-751.536167	310.340820	-5.879624
20472.722447	-751.536167	309.045898	55.444252
20472.722447	-751.536167	307.750977	196.828629
20472.722447	-751.536167	306.456055	-48.705696
20472.722447	-751.536167	305.160156	230.659882
20472.722447	-751.536167	303.865234	137.757492
20472.722447	-751.536167	302.568359	173.800034
20472.722447	-751.536167	301.272461	306.034424
20472.722447	-751.536167	299.975586	393.941803
20472.722447	-751.536167	298.678711	430.276917
