#X		#Y		#Wave		#Intensity
12358.664628	-1218.815167	1999.980469	70.381569
12358.664628	-1218.815167	1999.016602	-16.897188
12358.664628	-1218.815167	1998.052734	-171.094681
12358.664628	-1218.815167	1997.087891	-10.636400
12358.664628	-1218.815167	1996.123047	-177.409515
12358.664628	-1218.815167	1995.158203	27.345167
12358.664628	-1218.815167	1994.193359	-8.331999
12358.664628	-1218.815167	1993.228516	-41.628284
12358.664628	-1218.815167	1992.262695	-99.771919
12358.664628	-1218.815167	1991.297852	96.968201
12358.664628	-1218.815167	1990.332031	-97.495628
12358.664628	-1218.815167	1989.366211	-76.701759
12358.664628	-1218.815167	1988.399414	42.956825
12358.664628	-1218.815167	1987.433594	66.016365
12358.664628	-1218.815167	1986.466797	-116.277939
12358.664628	-1218.815167	1985.500977	-6.814477
12358.664628	-1218.815167	1984.534180	-23.545786
12358.664628	-1218.815167	1983.567383	21.449823
12358.664628	-1218.815167	1982.599609	-143.694229
12358.664628	-1218.815167	1981.632813	86.483566
12358.664628	-1218.815167	1980.665039	-19.450661
12358.664628	-1218.815167	1979.697266	212.966751
12358.664628	-1218.815167	1978.729492	82.239731
12358.664628	-1218.815167	1977.761719	114.458076
12358.664628	-1218.815167	1976.792969	52.812061
12358.664628	-1218.815167	1975.825195	119.477295
12358.664628	-1218.815167	1974.856445	-16.267313
12358.664628	-1218.815167	1973.887695	-85.391769
12358.664628	-1218.815167	1972.918945	200.666992
12358.664628	-1218.815167	1971.949219	239.962952
12358.664628	-1218.815167	1970.980469	116.469666
12358.664628	-1218.815167	1970.010742	200.072723
12358.664628	-1218.815167	1969.041016	-24.490004
12358.664628	-1218.815167	1968.071289	226.626450
12358.664628	-1218.815167	1967.101563	4.551188
12358.664628	-1218.815167	1966.130859	233.346405
12358.664628	-1218.815167	1965.161133	294.551056
12358.664628	-1218.815167	1964.190430	52.819550
12358.664628	-1218.815167	1963.219727	67.215729
12358.664628	-1218.815167	1962.249023	49.588100
12358.664628	-1218.815167	1961.277344	179.621521
12358.664628	-1218.815167	1960.306641	164.412460
12358.664628	-1218.815167	1959.334961	127.054314
12358.664628	-1218.815167	1958.363281	193.011093
12358.664628	-1218.815167	1957.391602	155.643738
12358.664628	-1218.815167	1956.419922	-14.497455
12358.664628	-1218.815167	1955.447266	162.056183
12358.664628	-1218.815167	1954.474609	141.903229
12358.664628	-1218.815167	1953.501953	-23.238182
12358.664628	-1218.815167	1952.529297	249.034592
12358.664628	-1218.815167	1951.556641	120.781364
12358.664628	-1218.815167	1950.583984	-0.055299
12358.664628	-1218.815167	1949.610352	107.532021
12358.664628	-1218.815167	1948.636719	99.687515
12358.664628	-1218.815167	1947.663086	-82.439362
12358.664628	-1218.815167	1946.689453	120.833038
12358.664628	-1218.815167	1945.715820	-14.594965
12358.664628	-1218.815167	1944.741211	2.143214
12358.664628	-1218.815167	1943.767578	1.712521
12358.664628	-1218.815167	1942.792969	-3.614817
12358.664628	-1218.815167	1941.818359	35.205421
12358.664628	-1218.815167	1940.842773	-195.651733
12358.664628	-1218.815167	1939.868164	-24.430777
12358.664628	-1218.815167	1938.892578	-51.764839
12358.664628	-1218.815167	1937.916992	141.439896
12358.664628	-1218.815167	1936.941406	-108.818016
12358.664628	-1218.815167	1935.965820	-55.258785
12358.664628	-1218.815167	1934.990234	10.536978
12358.664628	-1218.815167	1934.013672	164.463821
12358.664628	-1218.815167	1933.037109	-80.664001
12358.664628	-1218.815167	1932.060547	92.829613
12358.664628	-1218.815167	1931.083984	48.489876
12358.664628	-1218.815167	1930.107422	-145.057968
12358.664628	-1218.815167	1929.129883	-91.463425
12358.664628	-1218.815167	1928.153320	-79.450294
12358.664628	-1218.815167	1927.175781	-106.548332
12358.664628	-1218.815167	1926.198242	-30.942669
12358.664628	-1218.815167	1925.219727	301.298157
12358.664628	-1218.815167	1924.242188	139.780167
12358.664628	-1218.815167	1923.263672	144.486282
12358.664628	-1218.815167	1922.285156	146.764389
12358.664628	-1218.815167	1921.306641	-146.480316
12358.664628	-1218.815167	1920.328125	307.649567
12358.664628	-1218.815167	1919.349609	-63.613712
12358.664628	-1218.815167	1918.370117	-114.941284
12358.664628	-1218.815167	1917.391602	-17.357485
12358.664628	-1218.815167	1916.412109	-93.046364
12358.664628	-1218.815167	1915.431641	9.405955
12358.664628	-1218.815167	1914.452148	77.684929
12358.664628	-1218.815167	1913.472656	192.290161
12358.664628	-1218.815167	1912.492188	262.975220
12358.664628	-1218.815167	1911.511719	-2.781692
12358.664628	-1218.815167	1910.531250	21.629433
12358.664628	-1218.815167	1909.550781	-78.242989
12358.664628	-1218.815167	1908.569336	-58.675720
12358.664628	-1218.815167	1907.588867	72.955765
12358.664628	-1218.815167	1906.607422	-148.615555
12358.664628	-1218.815167	1905.625977	-124.141167
12358.664628	-1218.815167	1904.644531	-41.232918
12358.664628	-1218.815167	1903.662109	-24.070959
12358.664628	-1218.815167	1902.680664	14.998316
12358.664628	-1218.815167	1901.698242	241.428574
12358.664628	-1218.815167	1900.715820	-47.988846
12358.664628	-1218.815167	1899.733398	93.249329
12358.664628	-1218.815167	1898.750000	-196.018570
12358.664628	-1218.815167	1897.767578	-30.476995
12358.664628	-1218.815167	1896.784180	6.161682
12358.664628	-1218.815167	1895.800781	35.499195
12358.664628	-1218.815167	1894.817383	312.706696
12358.664628	-1218.815167	1893.833984	-90.503624
12358.664628	-1218.815167	1892.850586	-163.182343
12358.664628	-1218.815167	1891.866211	-201.829102
12358.664628	-1218.815167	1890.881836	92.223152
12358.664628	-1218.815167	1889.897461	-152.826172
12358.664628	-1218.815167	1888.913086	68.283836
12358.664628	-1218.815167	1887.927734	-101.434807
12358.664628	-1218.815167	1886.943359	-6.600419
12358.664628	-1218.815167	1885.958008	29.970034
12358.664628	-1218.815167	1884.972656	-185.741058
12358.664628	-1218.815167	1883.987305	35.153118
12358.664628	-1218.815167	1883.001953	-20.458664
12358.664628	-1218.815167	1882.015625	37.884724
12358.664628	-1218.815167	1881.029297	205.269150
12358.664628	-1218.815167	1880.042969	45.431992
12358.664628	-1218.815167	1879.056641	26.172100
12358.664628	-1218.815167	1878.070313	-10.047589
12358.664628	-1218.815167	1877.083984	-264.243652
12358.664628	-1218.815167	1876.096680	-65.530266
12358.664628	-1218.815167	1875.109375	87.094452
12358.664628	-1218.815167	1874.122070	104.093376
12358.664628	-1218.815167	1873.134766	-9.618455
12358.664628	-1218.815167	1872.146484	31.557585
12358.664628	-1218.815167	1871.159180	-67.614891
12358.664628	-1218.815167	1870.170898	-183.701340
12358.664628	-1218.815167	1869.182617	89.592148
12358.664628	-1218.815167	1868.194336	12.166877
12358.664628	-1218.815167	1867.205078	234.512955
12358.664628	-1218.815167	1866.216797	86.953735
12358.664628	-1218.815167	1865.227539	11.921575
12358.664628	-1218.815167	1864.238281	-17.200697
12358.664628	-1218.815167	1863.249023	47.872993
12358.664628	-1218.815167	1862.259766	-147.945313
12358.664628	-1218.815167	1861.269531	-186.759460
12358.664628	-1218.815167	1860.279297	-124.189430
12358.664628	-1218.815167	1859.290039	-64.085617
12358.664628	-1218.815167	1858.298828	-209.171631
12358.664628	-1218.815167	1857.308594	101.805260
12358.664628	-1218.815167	1856.318359	58.000950
12358.664628	-1218.815167	1855.327148	313.266479
12358.664628	-1218.815167	1854.335938	47.506432
12358.664628	-1218.815167	1853.344727	97.663071
12358.664628	-1218.815167	1852.353516	104.373047
12358.664628	-1218.815167	1851.362305	-110.697731
12358.664628	-1218.815167	1850.370117	-152.224747
12358.664628	-1218.815167	1849.377930	-104.634315
12358.664628	-1218.815167	1848.385742	15.162323
12358.664628	-1218.815167	1847.393555	137.278366
12358.664628	-1218.815167	1846.401367	-34.462040
12358.664628	-1218.815167	1845.408203	-13.586167
12358.664628	-1218.815167	1844.415039	93.889046
12358.664628	-1218.815167	1843.421875	56.881493
12358.664628	-1218.815167	1842.428711	176.237762
12358.664628	-1218.815167	1841.435547	30.876749
12358.664628	-1218.815167	1840.441406	25.020948
12358.664628	-1218.815167	1839.448242	4.687966
12358.664628	-1218.815167	1838.454102	-8.478896
12358.664628	-1218.815167	1837.459961	-16.885880
12358.664628	-1218.815167	1836.464844	-8.522573
12358.664628	-1218.815167	1835.470703	95.901505
12358.664628	-1218.815167	1834.475586	8.027306
12358.664628	-1218.815167	1833.480469	109.890213
12358.664628	-1218.815167	1832.485352	202.049759
12358.664628	-1218.815167	1831.490234	178.859436
12358.664628	-1218.815167	1830.495117	122.005745
12358.664628	-1218.815167	1829.499023	333.937195
12358.664628	-1218.815167	1828.502930	15.373073
12358.664628	-1218.815167	1827.506836	68.760651
12358.664628	-1218.815167	1826.510742	160.445633
12358.664628	-1218.815167	1825.513672	31.371418
12358.664628	-1218.815167	1824.517578	46.159939
12358.664628	-1218.815167	1823.520508	-37.427032
12358.664628	-1218.815167	1822.523438	-39.550659
12358.664628	-1218.815167	1821.526367	1.394569
12358.664628	-1218.815167	1820.529297	140.496582
12358.664628	-1218.815167	1819.531250	37.503132
12358.664628	-1218.815167	1818.533203	181.188889
12358.664628	-1218.815167	1817.535156	142.739502
12358.664628	-1218.815167	1816.537109	-156.756134
12358.664628	-1218.815167	1815.539063	-13.341832
12358.664628	-1218.815167	1814.540039	86.856758
12358.664628	-1218.815167	1813.541992	387.953430
12358.664628	-1218.815167	1812.542969	284.514130
12358.664628	-1218.815167	1811.543945	-41.430965
12358.664628	-1218.815167	1810.543945	8.151416
12358.664628	-1218.815167	1809.544922	-148.006134
12358.664628	-1218.815167	1808.544922	-81.850922
12358.664628	-1218.815167	1807.544922	125.221771
12358.664628	-1218.815167	1806.544922	174.403534
12358.664628	-1218.815167	1805.544922	125.516792
12358.664628	-1218.815167	1804.544922	200.786362
12358.664628	-1218.815167	1803.543945	232.944275
12358.664628	-1218.815167	1802.542969	126.497032
12358.664628	-1218.815167	1801.541992	158.481003
12358.664628	-1218.815167	1800.541016	259.589783
12358.664628	-1218.815167	1799.539063	26.432072
12358.664628	-1218.815167	1798.538086	182.230621
12358.664628	-1218.815167	1797.536133	63.510105
12358.664628	-1218.815167	1796.534180	114.099876
12358.664628	-1218.815167	1795.532227	245.663330
12358.664628	-1218.815167	1794.529297	238.782379
12358.664628	-1218.815167	1793.527344	0.568450
12358.664628	-1218.815167	1792.524414	160.392059
12358.664628	-1218.815167	1791.521484	79.370163
12358.664628	-1218.815167	1790.518555	269.900604
12358.664628	-1218.815167	1789.514648	-37.616737
12358.664628	-1218.815167	1788.511719	52.635616
12358.664628	-1218.815167	1787.507813	364.207977
12358.664628	-1218.815167	1786.503906	194.638763
12358.664628	-1218.815167	1785.500000	158.333633
12358.664628	-1218.815167	1784.496094	-37.511616
12358.664628	-1218.815167	1783.491211	135.427200
12358.664628	-1218.815167	1782.486328	-74.821831
12358.664628	-1218.815167	1781.481445	121.639236
12358.664628	-1218.815167	1780.476563	-138.673477
12358.664628	-1218.815167	1779.471680	-85.140327
12358.664628	-1218.815167	1778.465820	18.183571
12358.664628	-1218.815167	1777.460938	69.081810
12358.664628	-1218.815167	1776.455078	1.034392
12358.664628	-1218.815167	1775.449219	-212.018692
12358.664628	-1218.815167	1774.442383	73.729385
12358.664628	-1218.815167	1773.436523	36.276958
12358.664628	-1218.815167	1772.429688	-67.760986
12358.664628	-1218.815167	1771.422852	-48.415688
12358.664628	-1218.815167	1770.416016	75.251976
12358.664628	-1218.815167	1769.409180	-10.072773
12358.664628	-1218.815167	1768.402344	113.324593
12358.664628	-1218.815167	1767.394531	103.713203
12358.664628	-1218.815167	1766.386719	286.111237
12358.664628	-1218.815167	1765.378906	103.143433
12358.664628	-1218.815167	1764.371094	-134.394577
12358.664628	-1218.815167	1763.362305	-89.877563
12358.664628	-1218.815167	1762.354492	110.938339
12358.664628	-1218.815167	1761.345703	143.322311
12358.664628	-1218.815167	1760.336914	9.746338
12358.664628	-1218.815167	1759.328125	210.088181
12358.664628	-1218.815167	1758.318359	-1.830119
12358.664628	-1218.815167	1757.308594	-38.567451
12358.664628	-1218.815167	1756.299805	-9.111961
12358.664628	-1218.815167	1755.290039	121.986969
12358.664628	-1218.815167	1754.279297	89.634209
12358.664628	-1218.815167	1753.269531	-193.598206
12358.664628	-1218.815167	1752.258789	38.829620
12358.664628	-1218.815167	1751.249023	-38.754932
12358.664628	-1218.815167	1750.238281	-54.951042
12358.664628	-1218.815167	1749.226563	9.115948
12358.664628	-1218.815167	1748.215820	68.327812
12358.664628	-1218.815167	1747.204102	162.842606
12358.664628	-1218.815167	1746.193359	-35.767029
12358.664628	-1218.815167	1745.181641	8.895826
12358.664628	-1218.815167	1744.168945	119.550636
12358.664628	-1218.815167	1743.157227	-1.360134
12358.664628	-1218.815167	1742.144531	-9.021203
12358.664628	-1218.815167	1741.132813	-101.761131
12358.664628	-1218.815167	1740.120117	119.299408
12358.664628	-1218.815167	1739.106445	-37.386642
12358.664628	-1218.815167	1738.093750	81.906548
12358.664628	-1218.815167	1737.080078	132.628036
12358.664628	-1218.815167	1736.067383	-231.828903
12358.664628	-1218.815167	1735.053711	-13.888651
12358.664628	-1218.815167	1734.040039	5.837010
12358.664628	-1218.815167	1733.025391	-288.040131
12358.664628	-1218.815167	1732.011719	-277.921814
12358.664628	-1218.815167	1730.997070	12.436750
12358.664628	-1218.815167	1729.982422	-239.210526
12358.664628	-1218.815167	1728.967773	-201.193451
12358.664628	-1218.815167	1727.952148	81.571014
12358.664628	-1218.815167	1726.937500	-90.237679
12358.664628	-1218.815167	1725.921875	-118.523178
12358.664628	-1218.815167	1724.906250	-81.016319
12358.664628	-1218.815167	1723.890625	45.774460
12358.664628	-1218.815167	1722.875000	-13.435637
12358.664628	-1218.815167	1721.858398	-77.448868
12358.664628	-1218.815167	1720.841797	77.143074
12358.664628	-1218.815167	1719.825195	83.448982
12358.664628	-1218.815167	1718.808594	87.292534
12358.664628	-1218.815167	1717.791992	145.078445
12358.664628	-1218.815167	1716.774414	-41.649261
12358.664628	-1218.815167	1715.756836	-78.059860
12358.664628	-1218.815167	1714.739258	33.410614
12358.664628	-1218.815167	1713.721680	-26.701212
12358.664628	-1218.815167	1712.704102	-105.679008
12358.664628	-1218.815167	1711.685547	-46.245804
12358.664628	-1218.815167	1710.667969	109.297890
12358.664628	-1218.815167	1709.649414	74.592354
12358.664628	-1218.815167	1708.630859	65.601929
12358.664628	-1218.815167	1707.611328	-133.502213
12358.664628	-1218.815167	1706.592773	73.101349
12358.664628	-1218.815167	1705.573242	-233.995682
12358.664628	-1218.815167	1704.553711	-137.854889
12358.664628	-1218.815167	1703.534180	-11.382853
12358.664628	-1218.815167	1702.513672	7.127330
12358.664628	-1218.815167	1701.494141	-143.152328
12358.664628	-1218.815167	1700.473633	-77.976669
12358.664628	-1218.815167	1699.453125	176.782700
12358.664628	-1218.815167	1698.432617	251.038605
12358.664628	-1218.815167	1697.412109	41.884510
12358.664628	-1218.815167	1696.390625	94.859901
12358.664628	-1218.815167	1695.369141	-16.101730
12358.664628	-1218.815167	1694.347656	-61.603149
12358.664628	-1218.815167	1693.326172	96.341759
12358.664628	-1218.815167	1692.304688	162.912491
12358.664628	-1218.815167	1691.282227	-37.237602
12358.664628	-1218.815167	1690.260742	139.031387
12358.664628	-1218.815167	1689.238281	312.787048
12358.664628	-1218.815167	1688.214844	462.996765
12358.664628	-1218.815167	1687.192383	264.906464
12358.664628	-1218.815167	1686.168945	272.375244
12358.664628	-1218.815167	1685.146484	403.560516
12358.664628	-1218.815167	1684.123047	368.783997
12358.664628	-1218.815167	1683.099609	408.647339
12358.664628	-1218.815167	1682.075195	467.066956
12358.664628	-1218.815167	1681.051758	597.746826
12358.664628	-1218.815167	1680.027344	469.251221
12358.664628	-1218.815167	1679.002930	648.688049
12358.664628	-1218.815167	1677.978516	732.332703
12358.664628	-1218.815167	1676.953125	769.201782
12358.664628	-1218.815167	1675.928711	600.796997
12358.664628	-1218.815167	1674.903320	817.021851
12358.664628	-1218.815167	1673.877930	809.322388
12358.664628	-1218.815167	1672.852539	925.056213
12358.664628	-1218.815167	1671.826172	940.463257
12358.664628	-1218.815167	1670.800781	1212.044922
12358.664628	-1218.815167	1669.774414	1199.287231
12358.664628	-1218.815167	1668.748047	1123.585693
12358.664628	-1218.815167	1667.721680	1094.400635
12358.664628	-1218.815167	1666.694336	1207.125854
12358.664628	-1218.815167	1665.667969	1322.078125
12358.664628	-1218.815167	1664.640625	1234.467163
12358.664628	-1218.815167	1663.613281	1305.009644
12358.664628	-1218.815167	1662.585938	1373.128296
12358.664628	-1218.815167	1661.557617	1369.047119
12358.664628	-1218.815167	1660.530273	1371.890991
12358.664628	-1218.815167	1659.501953	1295.615356
12358.664628	-1218.815167	1658.473633	1416.851929
12358.664628	-1218.815167	1657.444336	1270.740479
12358.664628	-1218.815167	1656.416016	1552.106689
12358.664628	-1218.815167	1655.386719	1538.295898
12358.664628	-1218.815167	1654.358398	1373.496338
12358.664628	-1218.815167	1653.328125	1176.161621
12358.664628	-1218.815167	1652.298828	1452.425293
12358.664628	-1218.815167	1651.269531	1514.997559
12358.664628	-1218.815167	1650.239258	1647.086914
12358.664628	-1218.815167	1649.208984	1628.265381
12358.664628	-1218.815167	1648.178711	1546.767456
12358.664628	-1218.815167	1647.148438	1676.290771
12358.664628	-1218.815167	1646.117188	1812.651367
12358.664628	-1218.815167	1645.086914	1784.327271
12358.664628	-1218.815167	1644.055664	1971.504761
12358.664628	-1218.815167	1643.024414	1975.489746
12358.664628	-1218.815167	1641.992188	1840.394775
12358.664628	-1218.815167	1640.960938	2238.107422
12358.664628	-1218.815167	1639.928711	2471.168457
12358.664628	-1218.815167	1638.896484	2465.590576
12358.664628	-1218.815167	1637.864258	2446.084229
12358.664628	-1218.815167	1636.832031	2472.836182
12358.664628	-1218.815167	1635.798828	2643.001709
12358.664628	-1218.815167	1634.766602	2579.389160
12358.664628	-1218.815167	1633.733398	2663.800537
12358.664628	-1218.815167	1632.699219	2650.982910
12358.664628	-1218.815167	1631.666016	2880.959473
12358.664628	-1218.815167	1630.632813	2761.704102
12358.664628	-1218.815167	1629.598633	2788.071289
12358.664628	-1218.815167	1628.564453	3131.013672
12358.664628	-1218.815167	1627.530273	3002.427490
12358.664628	-1218.815167	1626.495117	3167.235352
12358.664628	-1218.815167	1625.460938	3276.538818
12358.664628	-1218.815167	1624.425781	3533.549561
12358.664628	-1218.815167	1623.390625	3439.493896
12358.664628	-1218.815167	1622.355469	3553.205322
12358.664628	-1218.815167	1621.319336	3731.456299
12358.664628	-1218.815167	1620.284180	3551.975098
12358.664628	-1218.815167	1619.248047	3683.975586
12358.664628	-1218.815167	1618.211914	3868.961426
12358.664628	-1218.815167	1617.174805	3611.060791
12358.664628	-1218.815167	1616.138672	3567.693115
12358.664628	-1218.815167	1615.101563	3572.721191
12358.664628	-1218.815167	1614.065430	3796.706787
12358.664628	-1218.815167	1613.027344	3520.518311
12358.664628	-1218.815167	1611.990234	3723.655518
12358.664628	-1218.815167	1610.953125	3809.229248
12358.664628	-1218.815167	1609.915039	3574.629150
12358.664628	-1218.815167	1608.876953	3821.348877
12358.664628	-1218.815167	1607.838867	3787.111084
12358.664628	-1218.815167	1606.800781	3999.160889
12358.664628	-1218.815167	1605.761719	4066.134277
12358.664628	-1218.815167	1604.723633	4013.460938
12358.664628	-1218.815167	1603.684570	4441.555664
12358.664628	-1218.815167	1602.644531	4375.000488
12358.664628	-1218.815167	1601.605469	4432.660156
12358.664628	-1218.815167	1600.566406	4658.127441
12358.664628	-1218.815167	1599.526367	4520.333984
12358.664628	-1218.815167	1598.486328	4575.638184
12358.664628	-1218.815167	1597.446289	4458.611816
12358.664628	-1218.815167	1596.405273	4307.166504
12358.664628	-1218.815167	1595.365234	4456.682617
12358.664628	-1218.815167	1594.324219	4367.323730
12358.664628	-1218.815167	1593.283203	4284.904297
12358.664628	-1218.815167	1592.242188	4537.657227
12358.664628	-1218.815167	1591.200195	4049.054932
12358.664628	-1218.815167	1590.159180	4017.280762
12358.664628	-1218.815167	1589.117188	4123.164063
12358.664628	-1218.815167	1588.075195	3841.415527
12358.664628	-1218.815167	1587.032227	3555.198242
12358.664628	-1218.815167	1585.990234	3537.381104
12358.664628	-1218.815167	1584.947266	3576.885742
12358.664628	-1218.815167	1583.904297	3662.238281
12358.664628	-1218.815167	1582.861328	3435.968018
12358.664628	-1218.815167	1581.818359	3273.962891
12358.664628	-1218.815167	1580.775391	3325.065918
12358.664628	-1218.815167	1579.731445	3364.714844
12358.664628	-1218.815167	1578.687500	3397.515869
12358.664628	-1218.815167	1577.643555	3535.640381
12358.664628	-1218.815167	1576.598633	3497.508301
12358.664628	-1218.815167	1575.554688	3415.971680
12358.664628	-1218.815167	1574.509766	3384.821777
12358.664628	-1218.815167	1573.464844	3454.368408
12358.664628	-1218.815167	1572.419922	3407.304199
12358.664628	-1218.815167	1571.374023	3344.283691
12358.664628	-1218.815167	1570.329102	3445.939697
12358.664628	-1218.815167	1569.283203	3211.618408
12358.664628	-1218.815167	1568.237305	3461.871826
12358.664628	-1218.815167	1567.191406	3202.611084
12358.664628	-1218.815167	1566.144531	3037.139648
12358.664628	-1218.815167	1565.098633	3052.216553
12358.664628	-1218.815167	1564.051758	3316.204346
12358.664628	-1218.815167	1563.004883	3262.832275
12358.664628	-1218.815167	1561.957031	2999.548096
12358.664628	-1218.815167	1560.910156	3199.673096
12358.664628	-1218.815167	1559.862305	2991.380615
12358.664628	-1218.815167	1558.814453	2949.747559
12358.664628	-1218.815167	1557.766602	2821.534668
12358.664628	-1218.815167	1556.718750	2709.397705
12358.664628	-1218.815167	1555.669922	2551.763184
12358.664628	-1218.815167	1554.621094	2633.576660
12358.664628	-1218.815167	1553.573242	2724.560059
12358.664628	-1218.815167	1552.523438	2893.010986
12358.664628	-1218.815167	1551.474609	2915.698975
12358.664628	-1218.815167	1550.424805	2674.251953
12358.664628	-1218.815167	1549.375000	2692.554443
12358.664628	-1218.815167	1548.325195	2471.888672
12358.664628	-1218.815167	1547.275391	2558.660400
12358.664628	-1218.815167	1546.225586	2531.693115
12358.664628	-1218.815167	1545.174805	2789.203369
12358.664628	-1218.815167	1544.124023	2550.799561
12358.664628	-1218.815167	1543.073242	2458.127441
12358.664628	-1218.815167	1542.022461	2185.942139
12358.664628	-1218.815167	1540.970703	2182.196777
12358.664628	-1218.815167	1539.919922	1971.715454
12358.664628	-1218.815167	1538.868164	2029.546021
12358.664628	-1218.815167	1537.815430	1962.467163
12358.664628	-1218.815167	1536.763672	1922.778809
12358.664628	-1218.815167	1535.710938	1928.607666
12358.664628	-1218.815167	1534.659180	2075.327148
12358.664628	-1218.815167	1533.606445	2163.041016
12358.664628	-1218.815167	1532.552734	2035.170532
12358.664628	-1218.815167	1531.500000	1877.959717
12358.664628	-1218.815167	1530.446289	1711.819580
12358.664628	-1218.815167	1529.393555	1904.278809
12358.664628	-1218.815167	1528.338867	1674.881348
12358.664628	-1218.815167	1527.285156	1779.025146
12358.664628	-1218.815167	1526.231445	1706.394775
12358.664628	-1218.815167	1525.176758	1608.950684
12358.664628	-1218.815167	1524.122070	1468.594116
12358.664628	-1218.815167	1523.067383	1285.347900
12358.664628	-1218.815167	1522.012695	1288.042969
12358.664628	-1218.815167	1520.957031	1351.982056
12358.664628	-1218.815167	1519.901367	1282.407959
12358.664628	-1218.815167	1518.845703	1443.897705
12358.664628	-1218.815167	1517.790039	1134.620605
12358.664628	-1218.815167	1516.734375	1022.468079
12358.664628	-1218.815167	1515.677734	1150.303833
12358.664628	-1218.815167	1514.621094	1133.424927
12358.664628	-1218.815167	1513.564453	1227.496094
12358.664628	-1218.815167	1512.507813	1161.096680
12358.664628	-1218.815167	1511.450195	1015.700134
12358.664628	-1218.815167	1510.393555	1275.106689
12358.664628	-1218.815167	1509.335938	1242.987061
12358.664628	-1218.815167	1508.278320	976.012329
12358.664628	-1218.815167	1507.219727	971.306702
12358.664628	-1218.815167	1506.162109	774.757446
12358.664628	-1218.815167	1505.103516	955.516602
12358.664628	-1218.815167	1504.044922	799.928528
12358.664628	-1218.815167	1502.986328	786.740234
12358.664628	-1218.815167	1501.926758	827.838379
12358.664628	-1218.815167	1500.868164	817.163391
12358.664628	-1218.815167	1499.808594	617.116699
12358.664628	-1218.815167	1498.749023	633.807617
12358.664628	-1218.815167	1497.688477	461.189514
12358.664628	-1218.815167	1496.628906	367.696136
12358.664628	-1218.815167	1495.568359	94.034416
12358.664628	-1218.815167	1494.507813	215.012344
12358.664628	-1218.815167	1493.447266	-19.933720
12358.664628	-1218.815167	1492.386719	139.591568
12358.664628	-1218.815167	1491.325195	-236.877548
12358.664628	-1218.815167	1490.263672	-101.875420
12358.664628	-1218.815167	1489.202148	26.460039
12358.664628	-1218.815167	1488.140625	-97.227829
12358.664628	-1218.815167	1487.079102	-112.698044
12358.664628	-1218.815167	1486.016602	60.982689
12358.664628	-1218.815167	1484.954102	-75.716797
12358.664628	-1218.815167	1483.891602	152.157318
12358.664628	-1218.815167	1482.829102	-53.927464
12358.664628	-1218.815167	1481.765625	-68.677956
12358.664628	-1218.815167	1480.702148	44.846718
12358.664628	-1218.815167	1479.638672	-187.612549
12358.664628	-1218.815167	1478.575195	-111.967216
12358.664628	-1218.815167	1477.511719	103.007965
12358.664628	-1218.815167	1476.447266	268.659546
12358.664628	-1218.815167	1475.382813	97.613220
12358.664628	-1218.815167	1474.318359	274.703552
12358.664628	-1218.815167	1473.253906	227.427200
12358.664628	-1218.815167	1472.189453	299.222260
12358.664628	-1218.815167	1471.124023	510.199646
12358.664628	-1218.815167	1470.058594	454.511566
12358.664628	-1218.815167	1468.993164	593.804993
12358.664628	-1218.815167	1467.927734	488.807098
12358.664628	-1218.815167	1466.861328	722.330444
12358.664628	-1218.815167	1465.794922	631.550049
12358.664628	-1218.815167	1464.728516	449.222260
12358.664628	-1218.815167	1463.662109	516.976440
12358.664628	-1218.815167	1462.594727	838.715637
12358.664628	-1218.815167	1461.528320	746.023987
12358.664628	-1218.815167	1460.460938	899.523560
12358.664628	-1218.815167	1459.393555	905.232239
12358.664628	-1218.815167	1458.326172	661.830017
12358.664628	-1218.815167	1457.257813	593.062378
12358.664628	-1218.815167	1456.189453	582.817749
12358.664628	-1218.815167	1455.121094	779.602417
12358.664628	-1218.815167	1454.052734	427.828766
12358.664628	-1218.815167	1452.984375	515.686584
12358.664628	-1218.815167	1451.915039	402.951416
12358.664628	-1218.815167	1450.845703	541.157288
12358.664628	-1218.815167	1449.776367	381.833740
12358.664628	-1218.815167	1448.707031	354.660828
12358.664628	-1218.815167	1447.636719	556.994629
12358.664628	-1218.815167	1446.567383	157.135590
12358.664628	-1218.815167	1445.497070	297.571167
12358.664628	-1218.815167	1444.425781	502.927063
12358.664628	-1218.815167	1443.355469	442.885620
12358.664628	-1218.815167	1442.285156	692.978943
12358.664628	-1218.815167	1441.213867	388.063934
12358.664628	-1218.815167	1440.142578	562.581238
12358.664628	-1218.815167	1439.070313	598.495544
12358.664628	-1218.815167	1437.999023	820.766724
12358.664628	-1218.815167	1436.926758	714.552734
12358.664628	-1218.815167	1435.854492	944.588318
12358.664628	-1218.815167	1434.782227	644.064941
12358.664628	-1218.815167	1433.709961	823.060974
12358.664628	-1218.815167	1432.636719	587.340637
12358.664628	-1218.815167	1431.563477	652.835388
12358.664628	-1218.815167	1430.490234	492.320679
12358.664628	-1218.815167	1429.416992	581.097351
12358.664628	-1218.815167	1428.343750	532.235718
12358.664628	-1218.815167	1427.269531	727.508606
12358.664628	-1218.815167	1426.195313	854.977539
12358.664628	-1218.815167	1425.121094	280.117004
12358.664628	-1218.815167	1424.046875	554.850891
12358.664628	-1218.815167	1422.971680	652.128418
12358.664628	-1218.815167	1421.896484	578.135315
12358.664628	-1218.815167	1420.821289	733.506226
12358.664628	-1218.815167	1419.746094	683.536072
12358.664628	-1218.815167	1418.669922	878.397217
12358.664628	-1218.815167	1417.594727	1217.621704
12358.664628	-1218.815167	1416.518555	1087.638428
12358.664628	-1218.815167	1415.442383	1462.583496
12358.664628	-1218.815167	1414.365234	1355.432495
12358.664628	-1218.815167	1413.289063	1232.040405
12358.664628	-1218.815167	1412.211914	1260.153931
12358.664628	-1218.815167	1411.134766	993.103394
12358.664628	-1218.815167	1410.057617	1143.931763
12358.664628	-1218.815167	1408.979492	865.365417
12358.664628	-1218.815167	1407.902344	952.575928
12358.664628	-1218.815167	1406.824219	706.745056
12358.664628	-1218.815167	1405.746094	736.683044
12358.664628	-1218.815167	1404.666992	750.169556
12358.664628	-1218.815167	1403.588867	573.548706
12358.664628	-1218.815167	1402.509766	486.263306
12358.664628	-1218.815167	1401.430664	278.232147
12358.664628	-1218.815167	1400.351563	315.202942
12358.664628	-1218.815167	1399.271484	438.809723
12358.664628	-1218.815167	1398.192383	262.644897
12358.664628	-1218.815167	1397.112305	618.475037
12358.664628	-1218.815167	1396.031250	466.702454
12358.664628	-1218.815167	1394.951172	408.774200
12358.664628	-1218.815167	1393.871094	159.898712
12358.664628	-1218.815167	1392.790039	497.044769
12358.664628	-1218.815167	1391.708984	246.211792
12358.664628	-1218.815167	1390.626953	484.536804
12358.664628	-1218.815167	1389.545898	313.562866
12358.664628	-1218.815167	1388.463867	531.390808
12358.664628	-1218.815167	1387.381836	671.804565
12358.664628	-1218.815167	1386.299805	591.733337
12358.664628	-1218.815167	1385.217773	682.492920
12358.664628	-1218.815167	1384.134766	696.051331
12358.664628	-1218.815167	1383.051758	660.801147
12358.664628	-1218.815167	1381.968750	571.038696
12358.664628	-1218.815167	1380.885742	399.025208
12358.664628	-1218.815167	1379.802734	373.597931
12358.664628	-1218.815167	1378.718750	332.022339
12358.664628	-1218.815167	1377.634766	532.442261
12358.664628	-1218.815167	1376.550781	83.886299
12358.664628	-1218.815167	1375.465820	384.675110
12358.664628	-1218.815167	1374.381836	47.661842
12358.664628	-1218.815167	1373.296875	464.228638
12358.664628	-1218.815167	1372.211914	275.170837
12358.664628	-1218.815167	1371.126953	207.942841
12358.664628	-1218.815167	1370.041016	299.215454
12358.664628	-1218.815167	1368.955078	239.367538
12358.664628	-1218.815167	1367.869141	241.294891
12358.664628	-1218.815167	1366.783203	274.643250
12358.664628	-1218.815167	1365.697266	340.767365
12358.664628	-1218.815167	1364.610352	185.889465
12358.664628	-1218.815167	1363.523438	430.573212
12358.664628	-1218.815167	1362.436523	323.780701
12358.664628	-1218.815167	1361.349609	355.784607
12358.664628	-1218.815167	1360.261719	337.049866
12358.664628	-1218.815167	1359.174805	445.429504
12358.664628	-1218.815167	1358.086914	555.436340
12358.664628	-1218.815167	1356.998047	687.052368
12358.664628	-1218.815167	1355.910156	630.618103
12358.664628	-1218.815167	1354.821289	734.455627
12358.664628	-1218.815167	1353.732422	979.945679
12358.664628	-1218.815167	1352.643555	790.247559
12358.664628	-1218.815167	1351.554688	1009.530273
12358.664628	-1218.815167	1350.464844	841.412170
12358.664628	-1218.815167	1349.375000	991.869080
12358.664628	-1218.815167	1348.285156	998.769287
12358.664628	-1218.815167	1347.195313	1121.039429
12358.664628	-1218.815167	1346.105469	977.608521
12358.664628	-1218.815167	1345.014648	1077.132446
12358.664628	-1218.815167	1343.923828	823.801208
12358.664628	-1218.815167	1342.833008	862.383362
12358.664628	-1218.815167	1341.741211	1137.445435
12358.664628	-1218.815167	1340.650391	1041.714844
12358.664628	-1218.815167	1339.558594	836.278992
12358.664628	-1218.815167	1338.466797	1135.090576
12358.664628	-1218.815167	1337.374023	858.464966
12358.664628	-1218.815167	1336.282227	982.157532
12358.664628	-1218.815167	1335.189453	962.317261
12358.664628	-1218.815167	1334.096680	1180.496094
12358.664628	-1218.815167	1333.003906	1051.269165
12358.664628	-1218.815167	1331.910156	1200.379761
12358.664628	-1218.815167	1330.817383	1081.043335
12358.664628	-1218.815167	1329.723633	921.954712
12358.664628	-1218.815167	1328.629883	1253.688721
12358.664628	-1218.815167	1327.535156	1398.227295
12358.664628	-1218.815167	1326.441406	1486.058472
12358.664628	-1218.815167	1325.346680	1292.100464
12358.664628	-1218.815167	1324.251953	1106.097656
12358.664628	-1218.815167	1323.156250	1527.106567
12358.664628	-1218.815167	1322.061523	1460.002930
12358.664628	-1218.815167	1320.965820	1504.578979
12358.664628	-1218.815167	1319.870117	1412.922241
12358.664628	-1218.815167	1318.774414	1401.691772
12358.664628	-1218.815167	1317.678711	1408.261230
12358.664628	-1218.815167	1316.582031	1433.410767
12358.664628	-1218.815167	1315.485352	1395.418701
12358.664628	-1218.815167	1314.388672	1450.418701
12358.664628	-1218.815167	1313.291016	1346.391968
12358.664628	-1218.815167	1312.194336	1375.640137
12358.664628	-1218.815167	1311.096680	1112.074341
12358.664628	-1218.815167	1309.999023	1093.728271
12358.664628	-1218.815167	1308.901367	1132.929077
12358.664628	-1218.815167	1307.802734	1043.724731
12358.664628	-1218.815167	1306.705078	1099.960693
12358.664628	-1218.815167	1305.606445	1106.670166
12358.664628	-1218.815167	1304.506836	1038.379395
12358.664628	-1218.815167	1303.408203	1095.429565
12358.664628	-1218.815167	1302.308594	1110.291504
12358.664628	-1218.815167	1301.208984	982.897095
12358.664628	-1218.815167	1300.109375	1015.959656
12358.664628	-1218.815167	1299.009766	830.599060
12358.664628	-1218.815167	1297.909180	933.289978
12358.664628	-1218.815167	1296.808594	862.508545
12358.664628	-1218.815167	1295.708008	814.731873
12358.664628	-1218.815167	1294.607422	548.929443
12358.664628	-1218.815167	1293.506836	675.344055
12358.664628	-1218.815167	1292.405273	411.626556
12358.664628	-1218.815167	1291.303711	457.369720
12358.664628	-1218.815167	1290.202148	335.787109
12358.664628	-1218.815167	1289.099609	473.340271
12358.664628	-1218.815167	1287.998047	348.803375
12358.664628	-1218.815167	1286.895508	228.311874
12358.664628	-1218.815167	1285.792969	254.057770
12358.664628	-1218.815167	1284.689453	253.584915
12358.664628	-1218.815167	1283.586914	188.714783
12358.664628	-1218.815167	1282.483398	294.447571
12358.664628	-1218.815167	1281.379883	102.638145
12358.664628	-1218.815167	1280.276367	214.908173
12358.664628	-1218.815167	1279.171875	243.263718
12358.664628	-1218.815167	1278.067383	297.567230
12358.664628	-1218.815167	1276.962891	241.123001
12358.664628	-1218.815167	1275.858398	184.709961
12358.664628	-1218.815167	1274.753906	307.116760
12358.664628	-1218.815167	1273.648438	198.844864
12358.664628	-1218.815167	1272.542969	307.832581
12358.664628	-1218.815167	1271.437500	321.037506
12358.664628	-1218.815167	1270.331055	184.310852
12358.664628	-1218.815167	1269.225586	134.378738
12358.664628	-1218.815167	1268.119141	181.287781
12358.664628	-1218.815167	1267.012695	303.180115
12358.664628	-1218.815167	1265.906250	151.899033
12358.664628	-1218.815167	1264.798828	155.130035
12358.664628	-1218.815167	1263.691406	92.744545
12358.664628	-1218.815167	1262.583984	48.544880
12358.664628	-1218.815167	1261.476563	83.095078
12358.664628	-1218.815167	1260.368164	26.942078
12358.664628	-1218.815167	1259.260742	-7.905693
12358.664628	-1218.815167	1258.152344	-106.636116
12358.664628	-1218.815167	1257.043945	-177.977646
12358.664628	-1218.815167	1255.934570	-111.868515
12358.664628	-1218.815167	1254.825195	-196.014801
12358.664628	-1218.815167	1253.716797	-84.416672
12358.664628	-1218.815167	1252.606445	52.020374
12358.664628	-1218.815167	1251.497070	-120.268723
12358.664628	-1218.815167	1250.387695	-11.285617
12358.664628	-1218.815167	1249.277344	131.066788
12358.664628	-1218.815167	1248.166992	-66.690254
12358.664628	-1218.815167	1247.055664	-122.193954
12358.664628	-1218.815167	1245.945313	73.432419
12358.664628	-1218.815167	1244.833984	-1.341975
12358.664628	-1218.815167	1243.722656	-114.492073
12358.664628	-1218.815167	1242.611328	49.544197
12358.664628	-1218.815167	1241.499023	26.040882
12358.664628	-1218.815167	1240.387695	116.431107
12358.664628	-1218.815167	1239.275391	122.043663
12358.664628	-1218.815167	1238.162109	211.532471
12358.664628	-1218.815167	1237.049805	164.122559
12358.664628	-1218.815167	1235.936523	222.132080
12358.664628	-1218.815167	1234.823242	105.621078
12358.664628	-1218.815167	1233.709961	151.708282
12358.664628	-1218.815167	1232.596680	132.262436
12358.664628	-1218.815167	1231.482422	157.062622
12358.664628	-1218.815167	1230.369141	213.467468
12358.664628	-1218.815167	1229.253906	248.700760
12358.664628	-1218.815167	1228.139648	283.466675
12358.664628	-1218.815167	1227.025391	194.650696
12358.664628	-1218.815167	1225.910156	291.551514
12358.664628	-1218.815167	1224.794922	224.064026
12358.664628	-1218.815167	1223.679688	250.500397
12358.664628	-1218.815167	1222.563477	223.738358
12358.664628	-1218.815167	1221.447266	278.505859
12358.664628	-1218.815167	1220.331055	340.685333
12358.664628	-1218.815167	1219.214844	105.415077
12358.664628	-1218.815167	1218.098633	127.403740
12358.664628	-1218.815167	1216.981445	222.864059
12358.664628	-1218.815167	1215.864258	245.281769
12358.664628	-1218.815167	1214.747070	93.149719
12358.664628	-1218.815167	1213.629883	-39.932838
12358.664628	-1218.815167	1212.511719	181.825912
12358.664628	-1218.815167	1211.393555	256.097351
12358.664628	-1218.815167	1210.275391	225.722900
12358.664628	-1218.815167	1209.157227	102.905388
12358.664628	-1218.815167	1208.038086	253.994232
12358.664628	-1218.815167	1206.918945	331.228210
12358.664628	-1218.815167	1205.799805	-48.997482
12358.664628	-1218.815167	1204.680664	433.883270
12358.664628	-1218.815167	1203.560547	449.581177
12358.664628	-1218.815167	1202.441406	431.744202
12358.664628	-1218.815167	1201.321289	418.491333
12358.664628	-1218.815167	1200.200195	382.748016
12358.664628	-1218.815167	1199.080078	337.817627
12358.664628	-1218.815167	1197.958984	343.652069
12358.664628	-1218.815167	1196.837891	328.224670
12358.664628	-1218.815167	1195.716797	322.476624
12358.664628	-1218.815167	1194.594727	412.947540
12358.664628	-1218.815167	1193.473633	324.008545
12358.664628	-1218.815167	1192.351563	348.482330
12358.664628	-1218.815167	1191.229492	364.315094
12358.664628	-1218.815167	1190.106445	607.658691
12358.664628	-1218.815167	1188.984375	456.487030
12358.664628	-1218.815167	1187.861328	402.132355
12358.664628	-1218.815167	1186.738281	439.858398
12358.664628	-1218.815167	1185.614258	491.072784
12358.664628	-1218.815167	1184.491211	502.151093
12358.664628	-1218.815167	1183.367188	388.501465
12358.664628	-1218.815167	1182.243164	352.423920
12358.664628	-1218.815167	1181.119141	396.403687
12358.664628	-1218.815167	1179.994141	354.711456
12358.664628	-1218.815167	1178.869141	198.651352
12358.664628	-1218.815167	1177.744141	343.249573
12358.664628	-1218.815167	1176.619141	252.259903
12358.664628	-1218.815167	1175.493164	306.262482
12358.664628	-1218.815167	1174.368164	74.655212
12358.664628	-1218.815167	1173.242188	125.778175
12358.664628	-1218.815167	1172.115234	146.898727
12358.664628	-1218.815167	1170.989258	144.176727
12358.664628	-1218.815167	1169.862305	-164.462997
12358.664628	-1218.815167	1168.735352	-31.315495
12358.664628	-1218.815167	1167.608398	20.635752
12358.664628	-1218.815167	1166.481445	-97.848564
12358.664628	-1218.815167	1165.353516	-8.590972
12358.664628	-1218.815167	1164.225586	-226.557205
12358.664628	-1218.815167	1163.097656	-154.776596
12358.664628	-1218.815167	1161.968750	-78.311073
12358.664628	-1218.815167	1160.840820	-29.332750
12358.664628	-1218.815167	1159.711914	-79.129593
12358.664628	-1218.815167	1158.583008	-75.092781
12358.664628	-1218.815167	1157.453125	-53.265900
12358.664628	-1218.815167	1156.324219	12.927485
12358.664628	-1218.815167	1155.194336	-102.927971
12358.664628	-1218.815167	1154.064453	-107.828644
12358.664628	-1218.815167	1152.933594	-179.906219
12358.664628	-1218.815167	1151.803711	-134.573959
12358.664628	-1218.815167	1150.672852	-351.432251
12358.664628	-1218.815167	1149.541992	-168.388290
12358.664628	-1218.815167	1148.411133	-314.693970
12358.664628	-1218.815167	1147.279297	-201.547592
12358.664628	-1218.815167	1146.147461	-134.967529
12358.664628	-1218.815167	1145.015625	-139.078629
12358.664628	-1218.815167	1143.883789	-147.376846
12358.664628	-1218.815167	1142.750977	-292.370331
12358.664628	-1218.815167	1141.619141	-200.572632
12358.664628	-1218.815167	1140.486328	-98.918236
12358.664628	-1218.815167	1139.352539	-71.377846
12358.664628	-1218.815167	1138.219727	-116.452866
12358.664628	-1218.815167	1137.085938	-186.558609
12358.664628	-1218.815167	1135.952148	-32.054523
12358.664628	-1218.815167	1134.818359	-16.919846
12358.664628	-1218.815167	1133.683594	-70.597786
12358.664628	-1218.815167	1132.549805	-61.909264
12358.664628	-1218.815167	1131.415039	112.957253
12358.664628	-1218.815167	1130.279297	87.137573
12358.664628	-1218.815167	1129.144531	273.475311
12358.664628	-1218.815167	1128.008789	312.931976
12358.664628	-1218.815167	1126.873047	165.222061
12358.664628	-1218.815167	1125.737305	68.746307
12358.664628	-1218.815167	1124.601563	273.007965
12358.664628	-1218.815167	1123.464844	471.574005
12358.664628	-1218.815167	1122.328125	345.893646
12358.664628	-1218.815167	1121.191406	418.055145
12358.664628	-1218.815167	1120.054688	335.237610
12358.664628	-1218.815167	1118.916992	452.674713
12358.664628	-1218.815167	1117.779297	185.984024
12358.664628	-1218.815167	1116.641602	211.895462
12358.664628	-1218.815167	1115.503906	208.958282
12358.664628	-1218.815167	1114.365234	196.722275
12358.664628	-1218.815167	1113.226563	175.052460
12358.664628	-1218.815167	1112.087891	189.240326
12358.664628	-1218.815167	1110.949219	160.681870
12358.664628	-1218.815167	1109.809570	27.975418
12358.664628	-1218.815167	1108.669922	106.910194
12358.664628	-1218.815167	1107.530273	236.138092
12358.664628	-1218.815167	1106.390625	280.490723
12358.664628	-1218.815167	1105.250000	261.449860
12358.664628	-1218.815167	1104.109375	277.384247
12358.664628	-1218.815167	1102.968750	344.281799
12358.664628	-1218.815167	1101.828125	668.220215
12358.664628	-1218.815167	1100.686523	632.818665
12358.664628	-1218.815167	1099.544922	490.291077
12358.664628	-1218.815167	1098.403320	499.479858
12358.664628	-1218.815167	1097.261719	643.036011
12358.664628	-1218.815167	1096.120117	562.204285
12358.664628	-1218.815167	1094.977539	541.562561
12358.664628	-1218.815167	1093.834961	500.088867
12358.664628	-1218.815167	1092.691406	515.057129
12358.664628	-1218.815167	1091.548828	395.097168
12358.664628	-1218.815167	1090.405273	385.558960
12358.664628	-1218.815167	1089.261719	391.940399
12358.664628	-1218.815167	1088.118164	124.070358
12358.664628	-1218.815167	1086.973633	341.852295
12358.664628	-1218.815167	1085.829102	324.607727
12358.664628	-1218.815167	1084.684570	585.938965
12358.664628	-1218.815167	1083.540039	224.289261
12358.664628	-1218.815167	1082.395508	231.773575
12358.664628	-1218.815167	1081.250000	327.007874
12358.664628	-1218.815167	1080.104492	321.392365
12358.664628	-1218.815167	1078.958984	581.348694
12358.664628	-1218.815167	1077.812500	378.026855
12358.664628	-1218.815167	1076.666016	432.065521
12358.664628	-1218.815167	1075.519531	439.239014
12358.664628	-1218.815167	1074.373047	477.608795
12358.664628	-1218.815167	1073.226563	674.805664
12358.664628	-1218.815167	1072.079102	517.196838
12358.664628	-1218.815167	1070.931641	890.863953
12358.664628	-1218.815167	1069.784180	749.021851
12358.664628	-1218.815167	1068.635742	939.720215
12358.664628	-1218.815167	1067.487305	1008.866089
12358.664628	-1218.815167	1066.338867	688.178345
12358.664628	-1218.815167	1065.190430	505.151123
12358.664628	-1218.815167	1064.041992	611.252136
12358.664628	-1218.815167	1062.892578	442.568787
12358.664628	-1218.815167	1061.743164	403.039948
12358.664628	-1218.815167	1060.593750	363.574921
12358.664628	-1218.815167	1059.443359	162.832016
12358.664628	-1218.815167	1058.292969	451.522003
12358.664628	-1218.815167	1057.142578	119.679199
12358.664628	-1218.815167	1055.992188	252.164017
12358.664628	-1218.815167	1054.841797	120.366257
12358.664628	-1218.815167	1053.690430	282.090332
12358.664628	-1218.815167	1052.539063	208.003555
12358.664628	-1218.815167	1051.387695	-122.876282
12358.664628	-1218.815167	1050.235352	145.082108
12358.664628	-1218.815167	1049.083984	240.809875
12358.664628	-1218.815167	1047.931641	42.910259
12358.664628	-1218.815167	1046.778320	60.716171
12358.664628	-1218.815167	1045.625977	79.295090
12358.664628	-1218.815167	1044.472656	177.078827
12358.664628	-1218.815167	1043.319336	132.670151
12358.664628	-1218.815167	1042.166016	195.489227
12358.664628	-1218.815167	1041.012695	295.029449
12358.664628	-1218.815167	1039.858398	-15.898831
12358.664628	-1218.815167	1038.704102	-200.879990
12358.664628	-1218.815167	1037.549805	110.477875
12358.664628	-1218.815167	1036.394531	-57.779831
12358.664628	-1218.815167	1035.239258	150.172058
12358.664628	-1218.815167	1034.083984	-55.507942
12358.664628	-1218.815167	1032.928711	138.029144
12358.664628	-1218.815167	1031.773438	-0.925304
12358.664628	-1218.815167	1030.617188	-150.524536
12358.664628	-1218.815167	1029.460938	258.166473
12358.664628	-1218.815167	1028.304688	196.203796
12358.664628	-1218.815167	1027.147461	33.353874
12358.664628	-1218.815167	1025.991211	155.945236
12358.664628	-1218.815167	1024.833984	-69.515038
12358.664628	-1218.815167	1023.675781	161.259323
12358.664628	-1218.815167	1022.518555	62.230240
12358.664628	-1218.815167	1021.360352	196.380844
12358.664628	-1218.815167	1020.202148	120.249489
12358.664628	-1218.815167	1019.043945	282.691132
12358.664628	-1218.815167	1017.884766	144.699158
12358.664628	-1218.815167	1016.726563	271.004944
12358.664628	-1218.815167	1015.567383	11.635702
12358.664628	-1218.815167	1014.407227	25.515541
12358.664628	-1218.815167	1013.248047	20.304096
12358.664628	-1218.815167	1012.087891	-136.723831
12358.664628	-1218.815167	1010.927734	84.986526
12358.664628	-1218.815167	1009.767578	282.983521
12358.664628	-1218.815167	1008.606445	-117.657974
12358.664628	-1218.815167	1007.446289	182.890472
12358.664628	-1218.815167	1006.285156	109.299416
12358.664628	-1218.815167	1005.123047	-1.460140
12358.664628	-1218.815167	1003.961914	117.811913
12358.664628	-1218.815167	1002.799805	298.293457
12358.664628	-1218.815167	1001.637695	83.716682
12358.664628	-1218.815167	1000.475586	202.336136
12358.664628	-1218.815167	999.312500	203.169403
12358.664628	-1218.815167	998.149414	-2.448466
12358.664628	-1218.815167	996.986328	71.197998
12358.664628	-1218.815167	995.823242	-80.605423
12358.664628	-1218.815167	994.659180	-147.896072
12358.664628	-1218.815167	993.496094	66.475861
12358.664628	-1218.815167	992.332031	-133.995712
12358.664628	-1218.815167	991.166992	-42.630642
12358.664628	-1218.815167	990.002930	24.286774
12358.664628	-1218.815167	988.837891	194.106476
12358.664628	-1218.815167	987.672852	51.345890
12358.664628	-1218.815167	986.506836	105.336342
12358.664628	-1218.815167	985.341797	-59.178501
12358.664628	-1218.815167	984.175781	168.750351
12358.664628	-1218.815167	983.009766	181.150421
12358.664628	-1218.815167	981.843750	5.648396
12358.664628	-1218.815167	980.676758	80.451248
12358.664628	-1218.815167	979.509766	-198.564651
12358.664628	-1218.815167	978.342773	-67.985481
12358.664628	-1218.815167	977.175781	105.327202
12358.664628	-1218.815167	976.007813	65.634804
12358.664628	-1218.815167	974.839844	59.990761
12358.664628	-1218.815167	973.671875	210.562820
12358.664628	-1218.815167	972.503906	92.952316
12358.664628	-1218.815167	971.334961	94.547386
12358.664628	-1218.815167	970.166016	105.817757
12358.664628	-1218.815167	968.997070	268.797424
12358.664628	-1218.815167	967.828125	311.940247
12358.664628	-1218.815167	966.658203	391.775757
12358.664628	-1218.815167	965.488281	752.563049
12358.664628	-1218.815167	964.318359	950.228577
12358.664628	-1218.815167	963.148438	1337.588745
12358.664628	-1218.815167	961.977539	1530.577881
12358.664628	-1218.815167	960.806641	1517.736816
12358.664628	-1218.815167	959.635742	1291.942993
12358.664628	-1218.815167	958.463867	703.333252
12358.664628	-1218.815167	957.292969	664.832092
12358.664628	-1218.815167	956.121094	549.325928
12358.664628	-1218.815167	954.948242	322.973633
12358.664628	-1218.815167	953.776367	295.709961
12358.664628	-1218.815167	952.603516	96.542160
12358.664628	-1218.815167	951.430664	181.186066
12358.664628	-1218.815167	950.257813	85.914970
12358.664628	-1218.815167	949.084961	103.234581
12358.664628	-1218.815167	947.911133	10.343467
12358.664628	-1218.815167	946.737305	199.118835
12358.664628	-1218.815167	945.563477	-105.678696
12358.664628	-1218.815167	944.388672	-4.847797
12358.664628	-1218.815167	943.213867	43.325825
12358.664628	-1218.815167	942.039063	64.835197
12358.664628	-1218.815167	940.864258	176.288589
12358.664628	-1218.815167	939.688477	78.252373
12358.664628	-1218.815167	938.513672	-6.026802
12358.664628	-1218.815167	937.337891	130.075150
12358.664628	-1218.815167	936.161133	47.844093
12358.664628	-1218.815167	934.985352	500.646088
12358.664628	-1218.815167	933.808594	333.071716
12358.664628	-1218.815167	932.631836	360.756622
12358.664628	-1218.815167	931.454102	372.752258
12358.664628	-1218.815167	930.277344	332.892761
12358.664628	-1218.815167	929.099609	391.923676
12358.664628	-1218.815167	927.921875	271.213226
12358.664628	-1218.815167	926.743164	123.421089
12358.664628	-1218.815167	925.565430	344.016510
12358.664628	-1218.815167	924.386719	95.162666
12358.664628	-1218.815167	923.208008	138.232819
12358.664628	-1218.815167	922.028320	161.047607
12358.664628	-1218.815167	920.849609	31.186935
12358.664628	-1218.815167	919.669922	31.711151
12358.664628	-1218.815167	919.474609	-4.330927
12358.664628	-1218.815167	918.309570	45.283813
12358.664628	-1218.815167	917.143555	9.600523
12358.664628	-1218.815167	915.977539	319.263123
12358.664628	-1218.815167	914.810547	9.910380
12358.664628	-1218.815167	913.644531	16.732904
12358.664628	-1218.815167	912.477539	-16.828541
12358.664628	-1218.815167	911.310547	70.592751
12358.664628	-1218.815167	910.143555	115.375473
12358.664628	-1218.815167	908.975586	155.625015
12358.664628	-1218.815167	907.807617	5.468916
12358.664628	-1218.815167	906.639648	21.027065
12358.664628	-1218.815167	905.471680	14.160569
12358.664628	-1218.815167	904.303711	197.502991
12358.664628	-1218.815167	903.134766	85.369537
12358.664628	-1218.815167	901.965820	149.990372
12358.664628	-1218.815167	900.796875	73.638718
12358.664628	-1218.815167	899.626953	-112.288300
12358.664628	-1218.815167	898.457031	-43.284065
12358.664628	-1218.815167	897.287109	117.314255
12358.664628	-1218.815167	896.117188	23.039608
12358.664628	-1218.815167	894.947266	328.744263
12358.664628	-1218.815167	893.776367	129.414093
12358.664628	-1218.815167	892.605469	108.823380
12358.664628	-1218.815167	891.434570	237.834152
12358.664628	-1218.815167	890.262695	241.739807
12358.664628	-1218.815167	889.091797	20.171383
12358.664628	-1218.815167	887.919922	8.452301
12358.664628	-1218.815167	886.748047	168.523895
12358.664628	-1218.815167	885.575195	54.117970
12358.664628	-1218.815167	884.403320	-53.569889
12358.664628	-1218.815167	883.230469	128.652725
12358.664628	-1218.815167	882.057617	47.707649
12358.664628	-1218.815167	880.883789	-77.804253
12358.664628	-1218.815167	879.710938	39.628120
12358.664628	-1218.815167	878.537109	-123.743393
12358.664628	-1218.815167	877.362305	22.573956
12358.664628	-1218.815167	876.188477	-118.488731
12358.664628	-1218.815167	875.013672	-117.000053
12358.664628	-1218.815167	873.839844	-4.214417
12358.664628	-1218.815167	872.664063	-18.361097
12358.664628	-1218.815167	871.489258	45.371384
12358.664628	-1218.815167	870.313477	-164.597412
12358.664628	-1218.815167	869.138672	126.004532
12358.664628	-1218.815167	867.962891	98.446312
12358.664628	-1218.815167	866.786133	19.745060
12358.664628	-1218.815167	865.610352	-232.334030
12358.664628	-1218.815167	864.433594	-59.801235
12358.664628	-1218.815167	863.256836	-111.788338
12358.664628	-1218.815167	862.079102	-99.334427
12358.664628	-1218.815167	860.902344	-46.912571
12358.664628	-1218.815167	859.724609	52.115314
12358.664628	-1218.815167	858.546875	80.043205
12358.664628	-1218.815167	857.368164	-187.294022
12358.664628	-1218.815167	856.190430	-234.804001
12358.664628	-1218.815167	855.011719	-184.668060
12358.664628	-1218.815167	853.833008	-236.610809
12358.664628	-1218.815167	852.654297	-2.409144
12358.664628	-1218.815167	851.474609	-234.006607
12358.664628	-1218.815167	850.294922	-101.902214
12358.664628	-1218.815167	849.115234	-14.190306
12358.664628	-1218.815167	847.935547	-26.250380
12358.664628	-1218.815167	846.754883	-71.547501
12358.664628	-1218.815167	845.575195	-298.486389
12358.664628	-1218.815167	844.393555	-146.592865
12358.664628	-1218.815167	843.212891	-63.411694
12358.664628	-1218.815167	842.032227	-141.886520
12358.664628	-1218.815167	840.850586	-103.016617
12358.664628	-1218.815167	839.668945	-59.738613
12358.664628	-1218.815167	838.486328	-23.119205
12358.664628	-1218.815167	837.304688	124.090157
12358.664628	-1218.815167	836.122070	-104.748177
12358.664628	-1218.815167	834.939453	-15.077677
12358.664628	-1218.815167	833.756836	14.864594
12358.664628	-1218.815167	832.573242	13.848784
12358.664628	-1218.815167	831.389648	-53.463150
12358.664628	-1218.815167	830.206055	-92.025101
12358.664628	-1218.815167	829.022461	-40.003849
12358.664628	-1218.815167	827.838867	80.459183
12358.664628	-1218.815167	826.654297	-273.857117
12358.664628	-1218.815167	825.469727	-27.563335
12358.664628	-1218.815167	824.284180	-108.026100
12358.664628	-1218.815167	823.099609	-0.887647
12358.664628	-1218.815167	821.914063	143.713272
12358.664628	-1218.815167	820.728516	-64.666969
12358.664628	-1218.815167	819.542969	148.253967
12358.664628	-1218.815167	818.356445	8.310535
12358.664628	-1218.815167	817.169922	-30.171392
12358.664628	-1218.815167	815.983398	-6.925155
12358.664628	-1218.815167	814.796875	-60.810070
12358.664628	-1218.815167	813.609375	43.947746
12358.664628	-1218.815167	812.422852	-45.164204
12358.664628	-1218.815167	811.235352	88.177170
12358.664628	-1218.815167	810.046875	-22.920698
12358.664628	-1218.815167	808.859375	-127.367813
12358.664628	-1218.815167	807.670898	3.710642
12358.664628	-1218.815167	806.482422	-320.726776
12358.664628	-1218.815167	805.293945	105.120636
12358.664628	-1218.815167	804.104492	-151.020172
12358.664628	-1218.815167	802.915039	61.321003
12358.664628	-1218.815167	801.725586	-1.235802
12358.664628	-1218.815167	800.536133	8.769274
12358.664628	-1218.815167	799.345703	51.734985
12358.664628	-1218.815167	798.155273	-116.240585
12358.664628	-1218.815167	796.964844	82.697906
12358.664628	-1218.815167	795.774414	-78.624512
12358.664628	-1218.815167	794.583008	-22.500525
12358.664628	-1218.815167	793.392578	-21.280787
12358.664628	-1218.815167	792.200195	-149.558899
12358.664628	-1218.815167	791.008789	-56.149853
12358.664628	-1218.815167	789.816406	-6.659423
12358.664628	-1218.815167	788.625000	-106.346527
12358.664628	-1218.815167	787.432617	-94.149002
12358.664628	-1218.815167	786.239258	-53.454796
12358.664628	-1218.815167	785.046875	-109.231834
12358.664628	-1218.815167	783.853516	-22.529331
12358.664628	-1218.815167	782.660156	-49.806988
12358.664628	-1218.815167	781.465820	-28.880100
12358.664628	-1218.815167	780.272461	99.360497
12358.664628	-1218.815167	779.078125	214.406570
12358.664628	-1218.815167	777.883789	103.893074
12358.664628	-1218.815167	776.688477	396.186310
12358.664628	-1218.815167	775.494141	209.077057
12358.664628	-1218.815167	774.298828	6.724964
12358.664628	-1218.815167	773.103516	150.088211
12358.664628	-1218.815167	771.907227	-84.985519
12358.664628	-1218.815167	770.711914	-24.766037
12358.664628	-1218.815167	769.515625	-17.047848
12358.664628	-1218.815167	768.318359	5.961579
12358.664628	-1218.815167	767.122070	9.286368
12358.664628	-1218.815167	765.924805	-203.697144
12358.664628	-1218.815167	764.727539	22.463293
12358.664628	-1218.815167	763.530273	-70.334358
12358.664628	-1218.815167	762.333008	164.422104
12358.664628	-1218.815167	761.134766	172.034332
12358.664628	-1218.815167	759.936523	328.050232
12358.664628	-1218.815167	758.738281	62.840412
12358.664628	-1218.815167	757.540039	-110.639633
12358.664628	-1218.815167	756.340820	19.129444
12358.664628	-1218.815167	755.141602	-73.605225
12358.664628	-1218.815167	753.942383	267.567902
12358.664628	-1218.815167	752.742188	-145.643387
12358.664628	-1218.815167	751.541992	18.842953
12358.664628	-1218.815167	750.341797	120.058578
12358.664628	-1218.815167	749.141602	-20.595741
12358.664628	-1218.815167	747.941406	-61.017109
12358.664628	-1218.815167	746.740234	29.216000
12358.664628	-1218.815167	745.539063	149.875122
12358.664628	-1218.815167	744.337891	68.035805
12358.664628	-1218.815167	743.135742	142.899765
12358.664628	-1218.815167	741.933594	119.803986
12358.664628	-1218.815167	740.731445	266.372803
12358.664628	-1218.815167	739.529297	199.724701
12358.664628	-1218.815167	738.326172	285.290771
12358.664628	-1218.815167	737.124023	255.580780
12358.664628	-1218.815167	735.919922	123.705734
12358.664628	-1218.815167	734.716797	54.882301
12358.664628	-1218.815167	733.513672	64.275925
12358.664628	-1218.815167	732.309570	149.665268
12358.664628	-1218.815167	731.105469	182.874664
12358.664628	-1218.815167	729.900391	150.905380
12358.664628	-1218.815167	728.696289	84.192154
12358.664628	-1218.815167	727.491211	414.645416
12358.664628	-1218.815167	726.286133	425.963562
12358.664628	-1218.815167	725.080078	443.754211
12358.664628	-1218.815167	723.874023	272.809570
12358.664628	-1218.815167	722.668945	290.566498
12358.664628	-1218.815167	721.461914	299.609802
12358.664628	-1218.815167	720.255859	347.634369
12358.664628	-1218.815167	719.048828	315.421326
12358.664628	-1218.815167	717.841797	294.021790
12358.664628	-1218.815167	716.634766	16.980850
12358.664628	-1218.815167	715.427734	56.224487
12358.664628	-1218.815167	714.219727	225.332657
12358.664628	-1218.815167	713.011719	-97.091698
12358.664628	-1218.815167	711.803711	-57.961498
12358.664628	-1218.815167	710.594727	-47.019135
12358.664628	-1218.815167	709.385742	-408.244598
12358.664628	-1218.815167	708.176758	93.700157
12358.664628	-1218.815167	706.967773	52.579941
12358.664628	-1218.815167	705.758789	160.622452
12358.664628	-1218.815167	704.548828	177.784332
12358.664628	-1218.815167	703.338867	69.543739
12358.664628	-1218.815167	702.127930	198.989090
12358.664628	-1218.815167	700.917969	120.943016
12358.664628	-1218.815167	699.707031	127.117294
12358.664628	-1218.815167	698.496094	-69.744156
12358.664628	-1218.815167	697.285156	-13.971256
12358.664628	-1218.815167	696.073242	149.653122
12358.664628	-1218.815167	694.861328	192.307587
12358.664628	-1218.815167	693.649414	155.061600
12358.664628	-1218.815167	692.436523	163.077530
12358.664628	-1218.815167	691.224609	89.084816
12358.664628	-1218.815167	690.011719	148.756577
12358.664628	-1218.815167	688.798828	279.489380
12358.664628	-1218.815167	687.584961	207.507889
12358.664628	-1218.815167	686.372070	368.230408
12358.664628	-1218.815167	685.158203	496.510345
12358.664628	-1218.815167	683.943359	204.649551
12358.664628	-1218.815167	682.729492	358.636841
12358.664628	-1218.815167	681.514648	486.659424
12358.664628	-1218.815167	680.299805	358.406158
12358.664628	-1218.815167	679.084961	447.515961
12358.664628	-1218.815167	677.869141	394.508972
12358.664628	-1218.815167	676.653320	494.202240
12358.664628	-1218.815167	675.437500	350.748260
12358.664628	-1218.815167	674.221680	299.755707
12358.664628	-1218.815167	673.004883	405.659607
12358.664628	-1218.815167	671.789063	275.016174
12358.664628	-1218.815167	670.571289	165.845001
12358.664628	-1218.815167	669.354492	267.213867
12358.664628	-1218.815167	668.136719	344.839203
12358.664628	-1218.815167	666.919922	214.043289
12358.664628	-1218.815167	665.701172	-30.572901
12358.664628	-1218.815167	664.483398	162.779831
12358.664628	-1218.815167	663.264648	212.175919
12358.664628	-1218.815167	662.045898	250.749420
12358.664628	-1218.815167	660.827148	246.325851
12358.664628	-1218.815167	659.608398	295.454346
12358.664628	-1218.815167	658.388672	271.572388
12358.664628	-1218.815167	657.168945	324.810394
12358.664628	-1218.815167	655.949219	180.740997
12358.664628	-1218.815167	654.728516	190.957764
12358.664628	-1218.815167	653.507813	413.216339
12358.664628	-1218.815167	652.287109	309.687042
12358.664628	-1218.815167	651.066406	493.118286
12358.664628	-1218.815167	649.844727	275.965759
12358.664628	-1218.815167	648.623047	305.023529
12358.664628	-1218.815167	647.401367	430.305695
12358.664628	-1218.815167	646.179688	748.049927
12358.664628	-1218.815167	644.957031	678.325134
12358.664628	-1218.815167	643.734375	495.179443
12358.664628	-1218.815167	642.511719	423.234467
12358.664628	-1218.815167	641.289063	381.171387
12358.664628	-1218.815167	640.065430	495.088104
12358.664628	-1218.815167	638.841797	461.404205
12358.664628	-1218.815167	637.618164	675.515808
12358.664628	-1218.815167	636.393555	554.044067
12358.664628	-1218.815167	635.168945	475.255554
12358.664628	-1218.815167	633.944336	332.352051
12358.664628	-1218.815167	632.719727	520.341980
12358.664628	-1218.815167	631.494141	565.149048
12358.664628	-1218.815167	630.269531	722.958923
12358.664628	-1218.815167	629.042969	805.929077
12358.664628	-1218.815167	627.817383	487.746246
12358.664628	-1218.815167	626.590820	367.946381
12358.664628	-1218.815167	625.365234	512.513672
12358.664628	-1218.815167	624.137695	654.789246
12358.664628	-1218.815167	622.911133	487.873993
12358.664628	-1218.815167	621.683594	450.919556
12358.664628	-1218.815167	620.456055	531.065613
12358.664628	-1218.815167	619.228516	472.638245
12358.664628	-1218.815167	618.000977	441.829681
12358.664628	-1218.815167	616.772461	293.838440
12358.664628	-1218.815167	615.543945	441.700073
12358.664628	-1218.815167	614.314453	295.713654
12358.664628	-1218.815167	613.085938	496.524048
12358.664628	-1218.815167	611.856445	671.625854
12358.664628	-1218.815167	610.626953	769.996338
12358.664628	-1218.815167	609.397461	817.201050
12358.664628	-1218.815167	608.166992	706.970398
12358.664628	-1218.815167	606.936523	762.483093
12358.664628	-1218.815167	605.706055	756.254944
12358.664628	-1218.815167	604.474609	868.909790
12358.664628	-1218.815167	603.244141	873.100708
12358.664628	-1218.815167	602.012695	624.477539
12358.664628	-1218.815167	600.780273	709.208313
12358.664628	-1218.815167	599.548828	424.457336
12358.664628	-1218.815167	598.316406	587.540161
12358.664628	-1218.815167	597.083984	563.738831
12358.664628	-1218.815167	595.851563	431.666992
12358.664628	-1218.815167	594.618164	534.982300
12358.664628	-1218.815167	593.384766	464.281555
12358.664628	-1218.815167	592.151367	399.883545
12358.664628	-1218.815167	590.917969	316.348236
12358.664628	-1218.815167	589.683594	273.016785
12358.664628	-1218.815167	588.449219	49.527351
12358.664628	-1218.815167	587.214844	145.901962
12358.664628	-1218.815167	585.979492	229.434738
12358.664628	-1218.815167	584.745117	190.047745
12358.664628	-1218.815167	583.509766	175.985962
12358.664628	-1218.815167	582.273438	329.037903
12358.664628	-1218.815167	581.038086	308.436646
12358.664628	-1218.815167	579.801758	427.378052
12358.664628	-1218.815167	578.565430	305.064484
12358.664628	-1218.815167	577.329102	34.695904
12358.664628	-1218.815167	576.091797	242.160919
12358.664628	-1218.815167	574.854492	159.873108
12358.664628	-1218.815167	573.617188	314.228821
12358.664628	-1218.815167	572.378906	200.100891
12358.664628	-1218.815167	571.141602	37.365227
12358.664628	-1218.815167	569.903320	41.456173
12358.664628	-1218.815167	568.664063	53.906712
12358.664628	-1218.815167	567.425781	-157.486954
12358.664628	-1218.815167	566.186523	74.349937
12358.664628	-1218.815167	564.947266	48.576763
12358.664628	-1218.815167	563.708008	37.509014
12358.664628	-1218.815167	562.467773	169.792786
12358.664628	-1218.815167	561.227539	278.752747
12358.664628	-1218.815167	559.987305	242.120514
12358.664628	-1218.815167	558.747070	91.609093
12358.664628	-1218.815167	557.505859	223.480713
12358.664628	-1218.815167	556.264648	285.698059
12358.664628	-1218.815167	555.023438	301.480103
12358.664628	-1218.815167	553.781250	127.634903
12358.664628	-1218.815167	552.539063	195.947632
12358.664628	-1218.815167	551.296875	144.173492
12358.664628	-1218.815167	550.054688	102.884087
12358.664628	-1218.815167	548.811523	13.146178
12358.664628	-1218.815167	547.569336	116.948402
12358.664628	-1218.815167	546.325195	50.257790
12358.664628	-1218.815167	545.082031	130.753647
12358.664628	-1218.815167	543.837891	131.258438
12358.664628	-1218.815167	542.593750	148.525681
12358.664628	-1218.815167	541.349609	83.772644
12358.664628	-1218.815167	540.105469	-71.351723
12358.664628	-1218.815167	538.860352	-131.936081
12358.664628	-1218.815167	537.615234	90.988136
12358.664628	-1218.815167	536.369141	40.791237
12358.664628	-1218.815167	535.124023	156.427643
12358.664628	-1218.815167	533.877930	-84.845978
12358.664628	-1218.815167	532.631836	-210.643875
12358.664628	-1218.815167	531.384766	-191.675873
12358.664628	-1218.815167	530.138672	-25.917913
12358.664628	-1218.815167	528.891602	-294.371307
12358.664628	-1218.815167	527.643555	-156.009079
12358.664628	-1218.815167	526.396484	-338.443726
12358.664628	-1218.815167	525.148438	-288.215698
12358.664628	-1218.815167	523.900391	-181.466309
12358.664628	-1218.815167	522.652344	103.269966
12358.664628	-1218.815167	521.403320	12.954175
12358.664628	-1218.815167	520.154297	77.603287
12358.664628	-1218.815167	518.905273	-90.174545
12358.664628	-1218.815167	517.656250	-169.993805
12358.664628	-1218.815167	516.406250	-19.624931
12358.664628	-1218.815167	515.156250	185.057510
12358.664628	-1218.815167	513.906250	-101.908623
12358.664628	-1218.815167	512.655273	-409.688293
12358.664628	-1218.815167	511.404297	-186.289856
12358.664628	-1218.815167	510.153320	-42.430305
12358.664628	-1218.815167	508.902344	-95.091316
12358.664628	-1218.815167	507.650391	-319.080475
12358.664628	-1218.815167	506.398438	-323.635590
12358.664628	-1218.815167	505.146484	-303.129944
12358.664628	-1218.815167	503.893555	-295.173920
12358.664628	-1218.815167	502.641602	-1.206712
12358.664628	-1218.815167	501.388672	8.768956
12358.664628	-1218.815167	500.134766	29.166891
12358.664628	-1218.815167	498.881836	41.224499
12358.664628	-1218.815167	497.627930	76.218407
12358.664628	-1218.815167	496.374023	44.471230
12358.664628	-1218.815167	495.119141	-47.726051
12358.664628	-1218.815167	493.865234	104.022987
12358.664628	-1218.815167	492.610352	220.281097
12358.664628	-1218.815167	491.355469	84.387375
12358.664628	-1218.815167	490.099609	213.118103
12358.664628	-1218.815167	488.843750	275.162842
12358.664628	-1218.815167	487.587891	464.217377
12358.664628	-1218.815167	486.332031	332.612152
12358.664628	-1218.815167	485.075195	373.827545
12358.664628	-1218.815167	483.818359	171.582199
12358.664628	-1218.815167	482.561523	398.020905
12358.664628	-1218.815167	481.304688	266.626373
12358.664628	-1218.815167	480.046875	235.122955
12358.664628	-1218.815167	478.789063	12.383362
12358.664628	-1218.815167	477.531250	124.432091
12358.664628	-1218.815167	476.272461	122.150681
12358.664628	-1218.815167	475.013672	151.067841
12358.664628	-1218.815167	473.754883	130.147324
12358.664628	-1218.815167	472.496094	163.266953
12358.664628	-1218.815167	471.236328	88.422386
12358.664628	-1218.815167	469.976563	-27.875643
12358.664628	-1218.815167	468.716797	42.708458
12358.664628	-1218.815167	467.456055	69.710281
12358.664628	-1218.815167	466.196289	-189.553040
12358.664628	-1218.815167	464.935547	154.908936
12358.664628	-1218.815167	463.673828	28.512613
12358.664628	-1218.815167	462.413086	-151.690933
12358.664628	-1218.815167	461.151367	41.323799
12358.664628	-1218.815167	459.889648	-6.106223
12358.664628	-1218.815167	458.626953	60.469242
12358.664628	-1218.815167	457.364258	143.624191
12358.664628	-1218.815167	456.101563	-21.746155
12358.664628	-1218.815167	454.838867	7.627351
12358.664628	-1218.815167	453.575195	-122.387390
12358.664628	-1218.815167	452.312500	-20.494583
12358.664628	-1218.815167	451.047852	66.885933
12358.664628	-1218.815167	449.784180	28.072767
12358.664628	-1218.815167	448.519531	78.239388
12358.664628	-1218.815167	447.254883	-12.201586
12358.664628	-1218.815167	445.990234	71.093292
12358.664628	-1218.815167	444.725586	-23.383261
12358.664628	-1218.815167	443.459961	101.257309
12358.664628	-1218.815167	442.194336	-110.910980
12358.664628	-1218.815167	440.927734	152.135910
12358.664628	-1218.815167	439.662109	202.378311
12358.664628	-1218.815167	438.395508	-168.605850
12358.664628	-1218.815167	437.127930	73.687965
12358.664628	-1218.815167	435.861328	-24.643379
12358.664628	-1218.815167	434.593750	-11.501855
12358.664628	-1218.815167	433.326172	226.509415
12358.664628	-1218.815167	432.058594	134.413666
12358.664628	-1218.815167	430.790039	-19.510553
12358.664628	-1218.815167	429.521484	-88.840645
12358.664628	-1218.815167	428.252930	6.749732
12358.664628	-1218.815167	426.984375	46.650158
12358.664628	-1218.815167	425.714844	-148.364609
12358.664628	-1218.815167	424.445313	23.343927
12358.664628	-1218.815167	423.174805	-155.154068
12358.664628	-1218.815167	421.905273	144.089432
12358.664628	-1218.815167	420.634766	49.982533
12358.664628	-1218.815167	419.364258	52.609104
12358.664628	-1218.815167	418.092773	14.029400
12358.664628	-1218.815167	416.822266	20.683769
12358.664628	-1218.815167	415.550781	76.633347
12358.664628	-1218.815167	414.278320	118.094193
12358.664628	-1218.815167	413.006836	77.241371
12358.664628	-1218.815167	411.734375	118.538231
12358.664628	-1218.815167	410.461914	-16.992702
12358.664628	-1218.815167	409.188477	-8.749600
12358.664628	-1218.815167	407.916016	112.374466
12358.664628	-1218.815167	406.642578	-193.825928
12358.664628	-1218.815167	405.368164	-9.308915
12358.664628	-1218.815167	404.094727	60.059261
12358.664628	-1218.815167	402.820313	14.324559
12358.664628	-1218.815167	401.545898	-37.691551
12358.664628	-1218.815167	400.270508	109.137032
12358.664628	-1218.815167	398.996094	106.025444
12358.664628	-1218.815167	397.720703	127.335655
12358.664628	-1218.815167	396.444336	-72.968384
12358.664628	-1218.815167	395.168945	220.581970
12358.664628	-1218.815167	393.892578	-86.624039
12358.664628	-1218.815167	392.616211	128.503616
12358.664628	-1218.815167	391.339844	52.444260
12358.664628	-1218.815167	390.062500	-3.366085
12358.664628	-1218.815167	388.785156	96.185249
12358.664628	-1218.815167	387.507813	82.831093
12358.664628	-1218.815167	386.229492	89.641212
12358.664628	-1218.815167	384.951172	122.737190
12358.664628	-1218.815167	383.672852	255.728348
12358.664628	-1218.815167	382.394531	101.995010
12358.664628	-1218.815167	381.115234	129.936951
12358.664628	-1218.815167	379.835938	102.294792
12358.664628	-1218.815167	378.556641	25.216795
12358.664628	-1218.815167	377.277344	98.970840
12358.664628	-1218.815167	375.997070	194.717972
12358.664628	-1218.815167	374.716797	169.463348
12358.664628	-1218.815167	373.435547	94.723587
12358.664628	-1218.815167	372.155273	15.453458
12358.664628	-1218.815167	370.874023	-1.036674
12358.664628	-1218.815167	369.591797	-150.718994
12358.664628	-1218.815167	368.310547	-180.505417
12358.664628	-1218.815167	367.028320	13.502860
12358.664628	-1218.815167	365.746094	-268.359680
12358.664628	-1218.815167	364.463867	-206.151550
12358.664628	-1218.815167	363.180664	-154.838379
12358.664628	-1218.815167	361.897461	-32.900833
12358.664628	-1218.815167	360.614258	-150.130020
12358.664628	-1218.815167	359.330078	-29.717926
12358.664628	-1218.815167	358.045898	-14.000400
12358.664628	-1218.815167	356.761719	-182.353745
12358.664628	-1218.815167	355.477539	226.718048
12358.664628	-1218.815167	354.192383	109.598534
12358.664628	-1218.815167	352.907227	73.038033
12358.664628	-1218.815167	351.622070	-15.293086
12358.664628	-1218.815167	350.336914	-0.804341
12358.664628	-1218.815167	349.050781	232.294815
12358.664628	-1218.815167	347.764648	23.067516
12358.664628	-1218.815167	346.477539	89.295120
12358.664628	-1218.815167	345.191406	-61.002708
12358.664628	-1218.815167	343.904297	67.997734
12358.664628	-1218.815167	342.616211	128.701309
12358.664628	-1218.815167	341.329102	17.589993
12358.664628	-1218.815167	340.041016	63.621971
12358.664628	-1218.815167	338.752930	-52.039776
12358.664628	-1218.815167	337.463867	-24.919889
12358.664628	-1218.815167	336.175781	-33.660591
12358.664628	-1218.815167	334.886719	-94.579224
12358.664628	-1218.815167	333.596680	-189.434723
12358.664628	-1218.815167	332.307617	-206.650223
12358.664628	-1218.815167	331.017578	-251.821426
12358.664628	-1218.815167	329.727539	-164.812836
12358.664628	-1218.815167	328.436523	35.958435
12358.664628	-1218.815167	327.146484	-40.586742
12358.664628	-1218.815167	325.855469	126.186729
12358.664628	-1218.815167	324.563477	159.376556
12358.664628	-1218.815167	323.272461	324.344513
12358.664628	-1218.815167	321.980469	456.889679
12358.664628	-1218.815167	320.688477	340.463654
12358.664628	-1218.815167	319.395508	325.174866
12358.664628	-1218.815167	318.103516	145.984695
12358.664628	-1218.815167	316.810547	118.354736
12358.664628	-1218.815167	315.516602	54.060452
12358.664628	-1218.815167	314.223633	129.059189
12358.664628	-1218.815167	312.929688	-10.637077
12358.664628	-1218.815167	311.635742	-156.756805
12358.664628	-1218.815167	310.340820	-271.039337
12358.664628	-1218.815167	309.045898	-36.394154
12358.664628	-1218.815167	307.750977	-87.229012
12358.664628	-1218.815167	306.456055	51.035175
12358.664628	-1218.815167	305.160156	63.234924
12358.664628	-1218.815167	303.865234	108.947906
12358.664628	-1218.815167	302.568359	32.489449
12358.664628	-1218.815167	301.272461	60.017769
12358.664628	-1218.815167	299.975586	290.050262
12358.664628	-1218.815167	298.678711	119.552391
