#X		#Y		#Wave		#Intensity
20473.445479	-742.477333	1999.980469	-37.526585
20473.445479	-742.477333	1999.016602	-71.569832
20473.445479	-742.477333	1998.052734	-60.818417
20473.445479	-742.477333	1997.087891	-75.227654
20473.445479	-742.477333	1996.123047	61.136013
20473.445479	-742.477333	1995.158203	28.636797
20473.445479	-742.477333	1994.193359	-157.757797
20473.445479	-742.477333	1993.228516	-2.696645
20473.445479	-742.477333	1992.262695	10.860192
20473.445479	-742.477333	1991.297852	142.903519
20473.445479	-742.477333	1990.332031	-66.945747
20473.445479	-742.477333	1989.366211	118.892593
20473.445479	-742.477333	1988.399414	-86.518089
20473.445479	-742.477333	1987.433594	2.209287
20473.445479	-742.477333	1986.466797	48.590893
20473.445479	-742.477333	1985.500977	-85.816475
20473.445479	-742.477333	1984.534180	-10.295974
20473.445479	-742.477333	1983.567383	-46.279385
20473.445479	-742.477333	1982.599609	53.428761
20473.445479	-742.477333	1981.632813	29.324110
20473.445479	-742.477333	1980.665039	-32.051033
20473.445479	-742.477333	1979.697266	178.063278
20473.445479	-742.477333	1978.729492	252.070099
20473.445479	-742.477333	1977.761719	-135.848358
20473.445479	-742.477333	1976.792969	105.646599
20473.445479	-742.477333	1975.825195	117.332497
20473.445479	-742.477333	1974.856445	94.286224
20473.445479	-742.477333	1973.887695	48.867657
20473.445479	-742.477333	1972.918945	-169.371689
20473.445479	-742.477333	1971.949219	88.284126
20473.445479	-742.477333	1970.980469	271.712311
20473.445479	-742.477333	1970.010742	136.900314
20473.445479	-742.477333	1969.041016	149.881027
20473.445479	-742.477333	1968.071289	-17.182482
20473.445479	-742.477333	1967.101563	-110.400696
20473.445479	-742.477333	1966.130859	163.340012
20473.445479	-742.477333	1965.161133	-43.427994
20473.445479	-742.477333	1964.190430	-127.111343
20473.445479	-742.477333	1963.219727	-68.077568
20473.445479	-742.477333	1962.249023	54.828762
20473.445479	-742.477333	1961.277344	165.278641
20473.445479	-742.477333	1960.306641	113.182838
20473.445479	-742.477333	1959.334961	68.390800
20473.445479	-742.477333	1958.363281	-89.624290
20473.445479	-742.477333	1957.391602	-4.192977
20473.445479	-742.477333	1956.419922	-137.714310
20473.445479	-742.477333	1955.447266	144.207031
20473.445479	-742.477333	1954.474609	42.508968
20473.445479	-742.477333	1953.501953	176.699341
20473.445479	-742.477333	1952.529297	296.030975
20473.445479	-742.477333	1951.556641	88.530006
20473.445479	-742.477333	1950.583984	222.450043
20473.445479	-742.477333	1949.610352	41.936314
20473.445479	-742.477333	1948.636719	-89.457306
20473.445479	-742.477333	1947.663086	108.087860
20473.445479	-742.477333	1946.689453	111.622826
20473.445479	-742.477333	1945.715820	132.291260
20473.445479	-742.477333	1944.741211	-26.187147
20473.445479	-742.477333	1943.767578	249.528397
20473.445479	-742.477333	1942.792969	51.776440
20473.445479	-742.477333	1941.818359	96.816521
20473.445479	-742.477333	1940.842773	254.580719
20473.445479	-742.477333	1939.868164	233.331558
20473.445479	-742.477333	1938.892578	87.079842
20473.445479	-742.477333	1937.916992	-34.636841
20473.445479	-742.477333	1936.941406	22.503042
20473.445479	-742.477333	1935.965820	-28.165413
20473.445479	-742.477333	1934.990234	87.690865
20473.445479	-742.477333	1934.013672	-151.527084
20473.445479	-742.477333	1933.037109	-47.958748
20473.445479	-742.477333	1932.060547	-140.236160
20473.445479	-742.477333	1931.083984	-105.243393
20473.445479	-742.477333	1930.107422	-62.930996
20473.445479	-742.477333	1929.129883	-84.241127
20473.445479	-742.477333	1928.153320	16.737469
20473.445479	-742.477333	1927.175781	-136.625351
20473.445479	-742.477333	1926.198242	-21.012529
20473.445479	-742.477333	1925.219727	-52.101891
20473.445479	-742.477333	1924.242188	178.312454
20473.445479	-742.477333	1923.263672	103.220200
20473.445479	-742.477333	1922.285156	8.615843
20473.445479	-742.477333	1921.306641	58.155598
20473.445479	-742.477333	1920.328125	-141.400879
20473.445479	-742.477333	1919.349609	-191.944366
20473.445479	-742.477333	1918.370117	72.435738
20473.445479	-742.477333	1917.391602	-61.096237
20473.445479	-742.477333	1916.412109	-38.401535
20473.445479	-742.477333	1915.431641	-93.780350
20473.445479	-742.477333	1914.452148	106.994873
20473.445479	-742.477333	1913.472656	61.385273
20473.445479	-742.477333	1912.492188	-106.116806
20473.445479	-742.477333	1911.511719	-22.443415
20473.445479	-742.477333	1910.531250	-172.785675
20473.445479	-742.477333	1909.550781	259.378113
20473.445479	-742.477333	1908.569336	45.710045
20473.445479	-742.477333	1907.588867	0.222327
20473.445479	-742.477333	1906.607422	-54.980812
20473.445479	-742.477333	1905.625977	109.011948
20473.445479	-742.477333	1904.644531	-106.860947
20473.445479	-742.477333	1903.662109	-15.927797
20473.445479	-742.477333	1902.680664	242.916962
20473.445479	-742.477333	1901.698242	-19.063362
20473.445479	-742.477333	1900.715820	-149.558319
20473.445479	-742.477333	1899.733398	-9.993959
20473.445479	-742.477333	1898.750000	183.028809
20473.445479	-742.477333	1897.767578	42.872051
20473.445479	-742.477333	1896.784180	-162.863129
20473.445479	-742.477333	1895.800781	-18.505209
20473.445479	-742.477333	1894.817383	-46.733360
20473.445479	-742.477333	1893.833984	-14.201386
20473.445479	-742.477333	1892.850586	-88.560196
20473.445479	-742.477333	1891.866211	-148.314240
20473.445479	-742.477333	1890.881836	-89.051033
20473.445479	-742.477333	1889.897461	-56.510437
20473.445479	-742.477333	1888.913086	-9.413821
20473.445479	-742.477333	1887.927734	30.387587
20473.445479	-742.477333	1886.943359	70.179123
20473.445479	-742.477333	1885.958008	-16.199045
20473.445479	-742.477333	1884.972656	-15.220396
20473.445479	-742.477333	1883.987305	-43.342758
20473.445479	-742.477333	1883.001953	-25.385324
20473.445479	-742.477333	1882.015625	87.109123
20473.445479	-742.477333	1881.029297	25.046867
20473.445479	-742.477333	1880.042969	67.209236
20473.445479	-742.477333	1879.056641	-11.791411
20473.445479	-742.477333	1878.070313	73.958031
20473.445479	-742.477333	1877.083984	-196.360794
20473.445479	-742.477333	1876.096680	75.836136
20473.445479	-742.477333	1875.109375	79.185448
20473.445479	-742.477333	1874.122070	147.881424
20473.445479	-742.477333	1873.134766	124.575348
20473.445479	-742.477333	1872.146484	-17.299255
20473.445479	-742.477333	1871.159180	-40.587254
20473.445479	-742.477333	1870.170898	-10.666699
20473.445479	-742.477333	1869.182617	-118.616837
20473.445479	-742.477333	1868.194336	90.203766
20473.445479	-742.477333	1867.205078	-3.252951
20473.445479	-742.477333	1866.216797	-142.613068
20473.445479	-742.477333	1865.227539	-25.788021
20473.445479	-742.477333	1864.238281	115.135101
20473.445479	-742.477333	1863.249023	40.992992
20473.445479	-742.477333	1862.259766	68.295197
20473.445479	-742.477333	1861.269531	18.289337
20473.445479	-742.477333	1860.279297	-65.521774
20473.445479	-742.477333	1859.290039	5.160647
20473.445479	-742.477333	1858.298828	87.851295
20473.445479	-742.477333	1857.308594	117.400162
20473.445479	-742.477333	1856.318359	240.995224
20473.445479	-742.477333	1855.327148	24.418076
20473.445479	-742.477333	1854.335938	80.395264
20473.445479	-742.477333	1853.344727	-34.870388
20473.445479	-742.477333	1852.353516	-111.556923
20473.445479	-742.477333	1851.362305	-60.509388
20473.445479	-742.477333	1850.370117	-86.633858
20473.445479	-742.477333	1849.377930	210.058044
20473.445479	-742.477333	1848.385742	7.970306
20473.445479	-742.477333	1847.393555	-20.680609
20473.445479	-742.477333	1846.401367	164.942871
20473.445479	-742.477333	1845.408203	35.071163
20473.445479	-742.477333	1844.415039	-61.099155
20473.445479	-742.477333	1843.421875	6.366158
20473.445479	-742.477333	1842.428711	-65.795921
20473.445479	-742.477333	1841.435547	287.822479
20473.445479	-742.477333	1840.441406	169.832428
20473.445479	-742.477333	1839.448242	-8.281195
20473.445479	-742.477333	1838.454102	121.367065
20473.445479	-742.477333	1837.459961	-8.704589
20473.445479	-742.477333	1836.464844	-83.507378
20473.445479	-742.477333	1835.470703	-57.412449
20473.445479	-742.477333	1834.475586	-7.364811
20473.445479	-742.477333	1833.480469	32.995743
20473.445479	-742.477333	1832.485352	118.911095
20473.445479	-742.477333	1831.490234	53.458115
20473.445479	-742.477333	1830.495117	-7.231658
20473.445479	-742.477333	1829.499023	200.858505
20473.445479	-742.477333	1828.502930	58.435818
20473.445479	-742.477333	1827.506836	76.753906
20473.445479	-742.477333	1826.510742	224.536148
20473.445479	-742.477333	1825.513672	141.938690
20473.445479	-742.477333	1824.517578	-46.206062
20473.445479	-742.477333	1823.520508	60.538399
20473.445479	-742.477333	1822.523438	-115.685722
20473.445479	-742.477333	1821.526367	101.126244
20473.445479	-742.477333	1820.529297	63.786583
20473.445479	-742.477333	1819.531250	64.709854
20473.445479	-742.477333	1818.533203	101.482918
20473.445479	-742.477333	1817.535156	150.135880
20473.445479	-742.477333	1816.537109	165.167572
20473.445479	-742.477333	1815.539063	-6.613537
20473.445479	-742.477333	1814.540039	87.254601
20473.445479	-742.477333	1813.541992	35.033871
20473.445479	-742.477333	1812.542969	298.558655
20473.445479	-742.477333	1811.543945	73.908638
20473.445479	-742.477333	1810.543945	90.806320
20473.445479	-742.477333	1809.544922	26.312160
20473.445479	-742.477333	1808.544922	172.131989
20473.445479	-742.477333	1807.544922	-38.349461
20473.445479	-742.477333	1806.544922	260.191986
20473.445479	-742.477333	1805.544922	183.393036
20473.445479	-742.477333	1804.544922	-137.143814
20473.445479	-742.477333	1803.543945	-32.511002
20473.445479	-742.477333	1802.542969	-23.536179
20473.445479	-742.477333	1801.541992	-67.190018
20473.445479	-742.477333	1800.541016	41.849796
20473.445479	-742.477333	1799.539063	-33.031982
20473.445479	-742.477333	1798.538086	-112.753235
20473.445479	-742.477333	1797.536133	-49.405865
20473.445479	-742.477333	1796.534180	1.888199
20473.445479	-742.477333	1795.532227	153.222839
20473.445479	-742.477333	1794.529297	89.790985
20473.445479	-742.477333	1793.527344	164.553757
20473.445479	-742.477333	1792.524414	-75.449837
20473.445479	-742.477333	1791.521484	-31.884104
20473.445479	-742.477333	1790.518555	-48.009590
20473.445479	-742.477333	1789.514648	104.887711
20473.445479	-742.477333	1788.511719	157.593246
20473.445479	-742.477333	1787.507813	-132.741638
20473.445479	-742.477333	1786.503906	5.467411
20473.445479	-742.477333	1785.500000	57.818314
20473.445479	-742.477333	1784.496094	43.399277
20473.445479	-742.477333	1783.491211	47.899353
20473.445479	-742.477333	1782.486328	99.863327
20473.445479	-742.477333	1781.481445	101.742737
20473.445479	-742.477333	1780.476563	77.345566
20473.445479	-742.477333	1779.471680	40.952477
20473.445479	-742.477333	1778.465820	-40.718624
20473.445479	-742.477333	1777.460938	236.419098
20473.445479	-742.477333	1776.455078	130.742340
20473.445479	-742.477333	1775.449219	32.112240
20473.445479	-742.477333	1774.442383	-16.724411
20473.445479	-742.477333	1773.436523	-89.404411
20473.445479	-742.477333	1772.429688	-138.441513
20473.445479	-742.477333	1771.422852	52.196796
20473.445479	-742.477333	1770.416016	116.840195
20473.445479	-742.477333	1769.409180	-1.395512
20473.445479	-742.477333	1768.402344	13.161178
20473.445479	-742.477333	1767.394531	48.930241
20473.445479	-742.477333	1766.386719	34.753468
20473.445479	-742.477333	1765.378906	110.569008
20473.445479	-742.477333	1764.371094	-79.307999
20473.445479	-742.477333	1763.362305	-110.429649
20473.445479	-742.477333	1762.354492	52.685223
20473.445479	-742.477333	1761.345703	92.385765
20473.445479	-742.477333	1760.336914	-81.273499
20473.445479	-742.477333	1759.328125	-127.085754
20473.445479	-742.477333	1758.318359	-2.507866
20473.445479	-742.477333	1757.308594	-117.246635
20473.445479	-742.477333	1756.299805	44.913509
20473.445479	-742.477333	1755.290039	19.895618
20473.445479	-742.477333	1754.279297	-159.067383
20473.445479	-742.477333	1753.269531	4.981630
20473.445479	-742.477333	1752.258789	-200.186340
20473.445479	-742.477333	1751.249023	-97.938873
20473.445479	-742.477333	1750.238281	20.681143
20473.445479	-742.477333	1749.226563	-68.926262
20473.445479	-742.477333	1748.215820	47.023464
20473.445479	-742.477333	1747.204102	-113.708534
20473.445479	-742.477333	1746.193359	-151.632095
20473.445479	-742.477333	1745.181641	-196.767792
20473.445479	-742.477333	1744.168945	55.568714
20473.445479	-742.477333	1743.157227	-98.472504
20473.445479	-742.477333	1742.144531	-70.801308
20473.445479	-742.477333	1741.132813	-76.303207
20473.445479	-742.477333	1740.120117	92.701324
20473.445479	-742.477333	1739.106445	-71.206833
20473.445479	-742.477333	1738.093750	-129.005188
20473.445479	-742.477333	1737.080078	60.743927
20473.445479	-742.477333	1736.067383	0.328142
20473.445479	-742.477333	1735.053711	-17.764519
20473.445479	-742.477333	1734.040039	1.739866
20473.445479	-742.477333	1733.025391	16.382914
20473.445479	-742.477333	1732.011719	-2.084811
20473.445479	-742.477333	1730.997070	-232.726929
20473.445479	-742.477333	1729.982422	43.039612
20473.445479	-742.477333	1728.967773	57.155621
20473.445479	-742.477333	1727.952148	-380.970581
20473.445479	-742.477333	1726.937500	2.581755
20473.445479	-742.477333	1725.921875	-28.415127
20473.445479	-742.477333	1724.906250	69.906677
20473.445479	-742.477333	1723.890625	-198.980698
20473.445479	-742.477333	1722.875000	-9.168547
20473.445479	-742.477333	1721.858398	18.147345
20473.445479	-742.477333	1720.841797	71.194794
20473.445479	-742.477333	1719.825195	74.727264
20473.445479	-742.477333	1718.808594	-145.173630
20473.445479	-742.477333	1717.791992	-17.287590
20473.445479	-742.477333	1716.774414	-213.847961
20473.445479	-742.477333	1715.756836	17.111984
20473.445479	-742.477333	1714.739258	-36.343636
20473.445479	-742.477333	1713.721680	166.072922
20473.445479	-742.477333	1712.704102	156.980484
20473.445479	-742.477333	1711.685547	65.594475
20473.445479	-742.477333	1710.667969	-16.470078
20473.445479	-742.477333	1709.649414	-58.745968
20473.445479	-742.477333	1708.630859	4.453174
20473.445479	-742.477333	1707.611328	-54.478874
20473.445479	-742.477333	1706.592773	-92.381233
20473.445479	-742.477333	1705.573242	-34.265026
20473.445479	-742.477333	1704.553711	138.586884
20473.445479	-742.477333	1703.534180	34.681175
20473.445479	-742.477333	1702.513672	68.948288
20473.445479	-742.477333	1701.494141	60.933022
20473.445479	-742.477333	1700.473633	-15.140350
20473.445479	-742.477333	1699.453125	91.387299
20473.445479	-742.477333	1698.432617	251.620377
20473.445479	-742.477333	1697.412109	285.259979
20473.445479	-742.477333	1696.390625	173.637421
20473.445479	-742.477333	1695.369141	80.671089
20473.445479	-742.477333	1694.347656	397.104095
20473.445479	-742.477333	1693.326172	226.719666
20473.445479	-742.477333	1692.304688	72.669121
20473.445479	-742.477333	1691.282227	348.835175
20473.445479	-742.477333	1690.260742	243.712173
20473.445479	-742.477333	1689.238281	201.624969
20473.445479	-742.477333	1688.214844	332.381989
20473.445479	-742.477333	1687.192383	159.237854
20473.445479	-742.477333	1686.168945	240.692780
20473.445479	-742.477333	1685.146484	455.176636
20473.445479	-742.477333	1684.123047	265.449982
20473.445479	-742.477333	1683.099609	197.114136
20473.445479	-742.477333	1682.075195	336.455414
20473.445479	-742.477333	1681.051758	316.957153
20473.445479	-742.477333	1680.027344	393.030670
20473.445479	-742.477333	1679.002930	424.653656
20473.445479	-742.477333	1677.978516	449.175873
20473.445479	-742.477333	1676.953125	513.228027
20473.445479	-742.477333	1675.928711	528.219177
20473.445479	-742.477333	1674.903320	470.828461
20473.445479	-742.477333	1673.877930	536.907959
20473.445479	-742.477333	1672.852539	518.983398
20473.445479	-742.477333	1671.826172	538.240784
20473.445479	-742.477333	1670.800781	776.400452
20473.445479	-742.477333	1669.774414	648.707336
20473.445479	-742.477333	1668.748047	676.999390
20473.445479	-742.477333	1667.721680	1075.375488
20473.445479	-742.477333	1666.694336	877.612183
20473.445479	-742.477333	1665.667969	789.248047
20473.445479	-742.477333	1664.640625	933.501892
20473.445479	-742.477333	1663.613281	844.992310
20473.445479	-742.477333	1662.585938	979.729492
20473.445479	-742.477333	1661.557617	881.778748
20473.445479	-742.477333	1660.530273	1009.340332
20473.445479	-742.477333	1659.501953	927.554565
20473.445479	-742.477333	1658.473633	1043.280518
20473.445479	-742.477333	1657.444336	991.573669
20473.445479	-742.477333	1656.416016	1225.594727
20473.445479	-742.477333	1655.386719	1222.520630
20473.445479	-742.477333	1654.358398	1140.447876
20473.445479	-742.477333	1653.328125	1204.581665
20473.445479	-742.477333	1652.298828	1173.474487
20473.445479	-742.477333	1651.269531	1274.615234
20473.445479	-742.477333	1650.239258	1593.767090
20473.445479	-742.477333	1649.208984	1504.410034
20473.445479	-742.477333	1648.178711	1660.911499
20473.445479	-742.477333	1647.148438	1455.511475
20473.445479	-742.477333	1646.117188	1384.604614
20473.445479	-742.477333	1645.086914	1659.116455
20473.445479	-742.477333	1644.055664	1602.005371
20473.445479	-742.477333	1643.024414	1572.679077
20473.445479	-742.477333	1641.992188	1742.551880
20473.445479	-742.477333	1640.960938	1555.599487
20473.445479	-742.477333	1639.928711	1771.644043
20473.445479	-742.477333	1638.896484	2140.389404
20473.445479	-742.477333	1637.864258	1714.868530
20473.445479	-742.477333	1636.832031	1807.959595
20473.445479	-742.477333	1635.798828	1954.184448
20473.445479	-742.477333	1634.766602	1892.098022
20473.445479	-742.477333	1633.733398	2116.833984
20473.445479	-742.477333	1632.699219	2126.332031
20473.445479	-742.477333	1631.666016	2068.756836
20473.445479	-742.477333	1630.632813	2140.644531
20473.445479	-742.477333	1629.598633	2228.636963
20473.445479	-742.477333	1628.564453	2457.544678
20473.445479	-742.477333	1627.530273	2413.684570
20473.445479	-742.477333	1626.495117	2531.510010
20473.445479	-742.477333	1625.460938	2579.997070
20473.445479	-742.477333	1624.425781	2755.435303
20473.445479	-742.477333	1623.390625	2605.240723
20473.445479	-742.477333	1622.355469	2822.121338
20473.445479	-742.477333	1621.319336	2561.139404
20473.445479	-742.477333	1620.284180	2782.529053
20473.445479	-742.477333	1619.248047	2720.034912
20473.445479	-742.477333	1618.211914	2802.869141
20473.445479	-742.477333	1617.174805	2952.519043
20473.445479	-742.477333	1616.138672	2894.612305
20473.445479	-742.477333	1615.101563	3076.446289
20473.445479	-742.477333	1614.065430	2937.859375
20473.445479	-742.477333	1613.027344	3055.063721
20473.445479	-742.477333	1611.990234	3116.948486
20473.445479	-742.477333	1610.953125	3330.837402
20473.445479	-742.477333	1609.915039	2989.602051
20473.445479	-742.477333	1608.876953	3000.791992
20473.445479	-742.477333	1607.838867	2984.358643
20473.445479	-742.477333	1606.800781	3396.045166
20473.445479	-742.477333	1605.761719	3234.559082
20473.445479	-742.477333	1604.723633	2889.105957
20473.445479	-742.477333	1603.684570	2990.038086
20473.445479	-742.477333	1602.644531	3238.112793
20473.445479	-742.477333	1601.605469	3014.748779
20473.445479	-742.477333	1600.566406	3271.969482
20473.445479	-742.477333	1599.526367	3060.191162
20473.445479	-742.477333	1598.486328	3087.514404
20473.445479	-742.477333	1597.446289	2942.524902
20473.445479	-742.477333	1596.405273	2850.429688
20473.445479	-742.477333	1595.365234	3139.670898
20473.445479	-742.477333	1594.324219	2983.327148
20473.445479	-742.477333	1593.283203	2886.765137
20473.445479	-742.477333	1592.242188	2843.062012
20473.445479	-742.477333	1591.200195	2604.316162
20473.445479	-742.477333	1590.159180	2652.527588
20473.445479	-742.477333	1589.117188	2732.849609
20473.445479	-742.477333	1588.075195	2932.439453
20473.445479	-742.477333	1587.032227	2629.774414
20473.445479	-742.477333	1585.990234	2833.969238
20473.445479	-742.477333	1584.947266	2918.906006
20473.445479	-742.477333	1583.904297	3006.144287
20473.445479	-742.477333	1582.861328	2696.992188
20473.445479	-742.477333	1581.818359	2660.619141
20473.445479	-742.477333	1580.775391	3038.876221
20473.445479	-742.477333	1579.731445	2881.155273
20473.445479	-742.477333	1578.687500	2810.547852
20473.445479	-742.477333	1577.643555	2740.020752
20473.445479	-742.477333	1576.598633	2809.158691
20473.445479	-742.477333	1575.554688	2860.038574
20473.445479	-742.477333	1574.509766	2830.864258
20473.445479	-742.477333	1573.464844	2886.387451
20473.445479	-742.477333	1572.419922	3097.455322
20473.445479	-742.477333	1571.374023	3066.120361
20473.445479	-742.477333	1570.329102	3002.876221
20473.445479	-742.477333	1569.283203	3115.685059
20473.445479	-742.477333	1568.237305	2947.450928
20473.445479	-742.477333	1567.191406	3007.810303
20473.445479	-742.477333	1566.144531	2846.631592
20473.445479	-742.477333	1565.098633	2790.656250
20473.445479	-742.477333	1564.051758	2867.181396
20473.445479	-742.477333	1563.004883	3128.659180
20473.445479	-742.477333	1561.957031	2808.083740
20473.445479	-742.477333	1560.910156	2770.686035
20473.445479	-742.477333	1559.862305	2995.732178
20473.445479	-742.477333	1558.814453	2978.977051
20473.445479	-742.477333	1557.766602	2866.525635
20473.445479	-742.477333	1556.718750	2603.709229
20473.445479	-742.477333	1555.669922	2628.301758
20473.445479	-742.477333	1554.621094	2381.739502
20473.445479	-742.477333	1553.573242	2228.807373
20473.445479	-742.477333	1552.523438	2374.447998
20473.445479	-742.477333	1551.474609	2251.346680
20473.445479	-742.477333	1550.424805	2362.941162
20473.445479	-742.477333	1549.375000	1971.367798
20473.445479	-742.477333	1548.325195	2030.798218
20473.445479	-742.477333	1547.275391	2072.086914
20473.445479	-742.477333	1546.225586	1860.860474
20473.445479	-742.477333	1545.174805	2088.909180
20473.445479	-742.477333	1544.124023	2028.072144
20473.445479	-742.477333	1543.073242	2046.958374
20473.445479	-742.477333	1542.022461	1824.908813
20473.445479	-742.477333	1540.970703	2071.353027
20473.445479	-742.477333	1539.919922	2017.791260
20473.445479	-742.477333	1538.868164	2237.038330
20473.445479	-742.477333	1537.815430	2108.664307
20473.445479	-742.477333	1536.763672	2003.180420
20473.445479	-742.477333	1535.710938	1795.626709
20473.445479	-742.477333	1534.659180	1994.739014
20473.445479	-742.477333	1533.606445	1767.057373
20473.445479	-742.477333	1532.552734	2000.333618
20473.445479	-742.477333	1531.500000	1963.595459
20473.445479	-742.477333	1530.446289	1570.747314
20473.445479	-742.477333	1529.393555	1588.779541
20473.445479	-742.477333	1528.338867	1336.996948
20473.445479	-742.477333	1527.285156	1620.594971
20473.445479	-742.477333	1526.231445	1620.810669
20473.445479	-742.477333	1525.176758	1430.729492
20473.445479	-742.477333	1524.122070	1243.112061
20473.445479	-742.477333	1523.067383	1354.774170
20473.445479	-742.477333	1522.012695	1135.779175
20473.445479	-742.477333	1520.957031	964.543091
20473.445479	-742.477333	1519.901367	1237.331909
20473.445479	-742.477333	1518.845703	708.686829
20473.445479	-742.477333	1517.790039	719.103882
20473.445479	-742.477333	1516.734375	734.172058
20473.445479	-742.477333	1515.677734	563.814514
20473.445479	-742.477333	1514.621094	692.267517
20473.445479	-742.477333	1513.564453	886.393311
20473.445479	-742.477333	1512.507813	960.727112
20473.445479	-742.477333	1511.450195	883.675842
20473.445479	-742.477333	1510.393555	885.920654
20473.445479	-742.477333	1509.335938	847.606750
20473.445479	-742.477333	1508.278320	630.947144
20473.445479	-742.477333	1507.219727	687.845459
20473.445479	-742.477333	1506.162109	1083.667114
20473.445479	-742.477333	1505.103516	768.136597
20473.445479	-742.477333	1504.044922	899.903748
20473.445479	-742.477333	1502.986328	523.873718
20473.445479	-742.477333	1501.926758	606.261292
20473.445479	-742.477333	1500.868164	506.006622
20473.445479	-742.477333	1499.808594	277.337463
20473.445479	-742.477333	1498.749023	-68.379265
20473.445479	-742.477333	1497.688477	84.540474
20473.445479	-742.477333	1496.628906	102.284653
20473.445479	-742.477333	1495.568359	-98.492073
20473.445479	-742.477333	1494.507813	59.299171
20473.445479	-742.477333	1493.447266	-136.580139
20473.445479	-742.477333	1492.386719	91.295494
20473.445479	-742.477333	1491.325195	62.454700
20473.445479	-742.477333	1490.263672	139.619537
20473.445479	-742.477333	1489.202148	-28.501335
20473.445479	-742.477333	1488.140625	-52.334999
20473.445479	-742.477333	1487.079102	137.799835
20473.445479	-742.477333	1486.016602	165.996948
20473.445479	-742.477333	1484.954102	324.821320
20473.445479	-742.477333	1483.891602	137.362381
20473.445479	-742.477333	1482.829102	-29.624367
20473.445479	-742.477333	1481.765625	-7.531937
20473.445479	-742.477333	1480.702148	19.205959
20473.445479	-742.477333	1479.638672	-192.092758
20473.445479	-742.477333	1478.575195	52.943523
20473.445479	-742.477333	1477.511719	-175.936646
20473.445479	-742.477333	1476.447266	73.792412
20473.445479	-742.477333	1475.382813	51.965683
20473.445479	-742.477333	1474.318359	-16.858763
20473.445479	-742.477333	1473.253906	49.149609
20473.445479	-742.477333	1472.189453	-124.627907
20473.445479	-742.477333	1471.124023	-152.521378
20473.445479	-742.477333	1470.058594	185.575790
20473.445479	-742.477333	1468.993164	332.591736
20473.445479	-742.477333	1467.927734	105.911575
20473.445479	-742.477333	1466.861328	273.518341
20473.445479	-742.477333	1465.794922	394.551147
20473.445479	-742.477333	1464.728516	360.894073
20473.445479	-742.477333	1463.662109	542.266296
20473.445479	-742.477333	1462.594727	634.096558
20473.445479	-742.477333	1461.528320	386.176697
20473.445479	-742.477333	1460.460938	715.680664
20473.445479	-742.477333	1459.393555	778.803223
20473.445479	-742.477333	1458.326172	785.892212
20473.445479	-742.477333	1457.257813	734.371460
20473.445479	-742.477333	1456.189453	866.284729
20473.445479	-742.477333	1455.121094	970.452576
20473.445479	-742.477333	1454.052734	1166.263794
20473.445479	-742.477333	1452.984375	1145.898315
20473.445479	-742.477333	1451.915039	1110.056030
20473.445479	-742.477333	1450.845703	1359.301270
20473.445479	-742.477333	1449.776367	1340.874512
20473.445479	-742.477333	1448.707031	1009.234680
20473.445479	-742.477333	1447.636719	984.543396
20473.445479	-742.477333	1446.567383	1040.612915
20473.445479	-742.477333	1445.497070	921.500488
20473.445479	-742.477333	1444.425781	1022.161804
20473.445479	-742.477333	1443.355469	921.474548
20473.445479	-742.477333	1442.285156	1101.922729
20473.445479	-742.477333	1441.213867	791.215393
20473.445479	-742.477333	1440.142578	842.223999
20473.445479	-742.477333	1439.070313	568.648071
20473.445479	-742.477333	1437.999023	838.449646
20473.445479	-742.477333	1436.926758	749.889709
20473.445479	-742.477333	1435.854492	540.444214
20473.445479	-742.477333	1434.782227	359.216583
20473.445479	-742.477333	1433.709961	701.665710
20473.445479	-742.477333	1432.636719	725.281250
20473.445479	-742.477333	1431.563477	500.952606
20473.445479	-742.477333	1430.490234	647.609253
20473.445479	-742.477333	1429.416992	645.600769
20473.445479	-742.477333	1428.343750	515.288208
20473.445479	-742.477333	1427.269531	639.867126
20473.445479	-742.477333	1426.195313	648.970093
20473.445479	-742.477333	1425.121094	634.505127
20473.445479	-742.477333	1424.046875	679.680969
20473.445479	-742.477333	1422.971680	426.330475
20473.445479	-742.477333	1421.896484	857.567932
20473.445479	-742.477333	1420.821289	861.918396
20473.445479	-742.477333	1419.746094	976.555542
20473.445479	-742.477333	1418.669922	941.146729
20473.445479	-742.477333	1417.594727	1106.530273
20473.445479	-742.477333	1416.518555	1268.597900
20473.445479	-742.477333	1415.442383	1033.937744
20473.445479	-742.477333	1414.365234	1214.053467
20473.445479	-742.477333	1413.289063	942.559448
20473.445479	-742.477333	1412.211914	909.089111
20473.445479	-742.477333	1411.134766	802.211975
20473.445479	-742.477333	1410.057617	914.603394
20473.445479	-742.477333	1408.979492	727.941833
20473.445479	-742.477333	1407.902344	758.681885
20473.445479	-742.477333	1406.824219	705.352722
20473.445479	-742.477333	1405.746094	761.939270
20473.445479	-742.477333	1404.666992	867.491516
20473.445479	-742.477333	1403.588867	892.085754
20473.445479	-742.477333	1402.509766	829.652893
20473.445479	-742.477333	1401.430664	835.932861
20473.445479	-742.477333	1400.351563	899.132202
20473.445479	-742.477333	1399.271484	832.223633
20473.445479	-742.477333	1398.192383	935.695801
20473.445479	-742.477333	1397.112305	1101.276001
20473.445479	-742.477333	1396.031250	1051.731812
20473.445479	-742.477333	1394.951172	870.259888
20473.445479	-742.477333	1393.871094	907.280457
20473.445479	-742.477333	1392.790039	573.208435
20473.445479	-742.477333	1391.708984	893.708130
20473.445479	-742.477333	1390.626953	832.356750
20473.445479	-742.477333	1389.545898	776.398315
20473.445479	-742.477333	1388.463867	732.519592
20473.445479	-742.477333	1387.381836	967.563721
20473.445479	-742.477333	1386.299805	1048.043701
20473.445479	-742.477333	1385.217773	1024.548706
20473.445479	-742.477333	1384.134766	1063.760498
20473.445479	-742.477333	1383.051758	1304.291138
20473.445479	-742.477333	1381.968750	1250.659302
20473.445479	-742.477333	1380.885742	1177.212158
20473.445479	-742.477333	1379.802734	1373.655884
20473.445479	-742.477333	1378.718750	1341.784058
20473.445479	-742.477333	1377.634766	1510.395630
20473.445479	-742.477333	1376.550781	1521.458618
20473.445479	-742.477333	1375.465820	1931.393799
20473.445479	-742.477333	1374.381836	1976.698975
20473.445479	-742.477333	1373.296875	1979.603638
20473.445479	-742.477333	1372.211914	2071.316162
20473.445479	-742.477333	1371.126953	2263.165527
20473.445479	-742.477333	1370.041016	2222.919434
20473.445479	-742.477333	1368.955078	2233.867432
20473.445479	-742.477333	1367.869141	1934.038208
20473.445479	-742.477333	1366.783203	1834.748901
20473.445479	-742.477333	1365.697266	2146.321045
20473.445479	-742.477333	1364.610352	2034.108643
20473.445479	-742.477333	1363.523438	2026.625366
20473.445479	-742.477333	1362.436523	2057.319336
20473.445479	-742.477333	1361.349609	1934.814941
20473.445479	-742.477333	1360.261719	2046.966187
20473.445479	-742.477333	1359.174805	1768.245483
20473.445479	-742.477333	1358.086914	1703.891968
20473.445479	-742.477333	1356.998047	1526.510376
20473.445479	-742.477333	1355.910156	1833.156006
20473.445479	-742.477333	1354.821289	1650.852051
20473.445479	-742.477333	1353.732422	1810.757324
20473.445479	-742.477333	1352.643555	1595.927490
20473.445479	-742.477333	1351.554688	1897.763916
20473.445479	-742.477333	1350.464844	1866.967651
20473.445479	-742.477333	1349.375000	1753.195313
20473.445479	-742.477333	1348.285156	1841.816772
20473.445479	-742.477333	1347.195313	1765.307617
20473.445479	-742.477333	1346.105469	1694.102295
20473.445479	-742.477333	1345.014648	1853.625244
20473.445479	-742.477333	1343.923828	1831.754883
20473.445479	-742.477333	1342.833008	1801.777222
20473.445479	-742.477333	1341.741211	1492.015259
20473.445479	-742.477333	1340.650391	1794.005249
20473.445479	-742.477333	1339.558594	1475.508057
20473.445479	-742.477333	1338.466797	1237.553589
20473.445479	-742.477333	1337.374023	1180.883423
20473.445479	-742.477333	1336.282227	1046.761353
20473.445479	-742.477333	1335.189453	1118.796509
20473.445479	-742.477333	1334.096680	1102.821411
20473.445479	-742.477333	1333.003906	1067.951904
20473.445479	-742.477333	1331.910156	958.377563
20473.445479	-742.477333	1330.817383	911.032593
20473.445479	-742.477333	1329.723633	1039.849731
20473.445479	-742.477333	1328.629883	809.086426
20473.445479	-742.477333	1327.535156	1132.006714
20473.445479	-742.477333	1326.441406	1064.192505
20473.445479	-742.477333	1325.346680	1213.813599
20473.445479	-742.477333	1324.251953	931.320496
20473.445479	-742.477333	1323.156250	1115.811401
20473.445479	-742.477333	1322.061523	1176.935913
20473.445479	-742.477333	1320.965820	1025.819458
20473.445479	-742.477333	1319.870117	748.715088
20473.445479	-742.477333	1318.774414	1020.506165
20473.445479	-742.477333	1317.678711	1126.951294
20473.445479	-742.477333	1316.582031	893.860168
20473.445479	-742.477333	1315.485352	766.113159
20473.445479	-742.477333	1314.388672	762.565430
20473.445479	-742.477333	1313.291016	675.900085
20473.445479	-742.477333	1312.194336	796.505127
20473.445479	-742.477333	1311.096680	763.059448
20473.445479	-742.477333	1309.999023	801.509460
20473.445479	-742.477333	1308.901367	632.349792
20473.445479	-742.477333	1307.802734	916.755310
20473.445479	-742.477333	1306.705078	939.387390
20473.445479	-742.477333	1305.606445	1079.654541
20473.445479	-742.477333	1304.506836	1035.894409
20473.445479	-742.477333	1303.408203	1124.013184
20473.445479	-742.477333	1302.308594	1405.670654
20473.445479	-742.477333	1301.208984	1484.778198
20473.445479	-742.477333	1300.109375	1691.715332
20473.445479	-742.477333	1299.009766	1571.033569
20473.445479	-742.477333	1297.909180	1539.421021
20473.445479	-742.477333	1296.808594	1361.452515
20473.445479	-742.477333	1295.708008	1706.562500
20473.445479	-742.477333	1294.607422	1608.325684
20473.445479	-742.477333	1293.506836	1356.342529
20473.445479	-742.477333	1292.405273	1130.874390
20473.445479	-742.477333	1291.303711	1076.355591
20473.445479	-742.477333	1290.202148	1146.282715
20473.445479	-742.477333	1289.099609	1022.974243
20473.445479	-742.477333	1287.998047	915.243530
20473.445479	-742.477333	1286.895508	931.157410
20473.445479	-742.477333	1285.792969	831.898865
20473.445479	-742.477333	1284.689453	764.918274
20473.445479	-742.477333	1283.586914	805.563599
20473.445479	-742.477333	1282.483398	740.194336
20473.445479	-742.477333	1281.379883	600.556519
20473.445479	-742.477333	1280.276367	516.958313
20473.445479	-742.477333	1279.171875	606.613220
20473.445479	-742.477333	1278.067383	425.870667
20473.445479	-742.477333	1276.962891	575.218506
20473.445479	-742.477333	1275.858398	497.744232
20473.445479	-742.477333	1274.753906	373.274689
20473.445479	-742.477333	1273.648438	400.338043
20473.445479	-742.477333	1272.542969	153.572418
20473.445479	-742.477333	1271.437500	366.100525
20473.445479	-742.477333	1270.331055	412.453644
20473.445479	-742.477333	1269.225586	208.652130
20473.445479	-742.477333	1268.119141	186.272598
20473.445479	-742.477333	1267.012695	280.817230
20473.445479	-742.477333	1265.906250	201.558151
20473.445479	-742.477333	1264.798828	71.646881
20473.445479	-742.477333	1263.691406	84.622635
20473.445479	-742.477333	1262.583984	165.360031
20473.445479	-742.477333	1261.476563	340.102844
20473.445479	-742.477333	1260.368164	343.935425
20473.445479	-742.477333	1259.260742	391.149933
20473.445479	-742.477333	1258.152344	232.107849
20473.445479	-742.477333	1257.043945	301.482880
20473.445479	-742.477333	1255.934570	309.713989
20473.445479	-742.477333	1254.825195	347.168213
20473.445479	-742.477333	1253.716797	348.679291
20473.445479	-742.477333	1252.606445	434.975067
20473.445479	-742.477333	1251.497070	350.179535
20473.445479	-742.477333	1250.387695	361.909424
20473.445479	-742.477333	1249.277344	347.435852
20473.445479	-742.477333	1248.166992	407.738068
20473.445479	-742.477333	1247.055664	352.460266
20473.445479	-742.477333	1245.945313	228.409668
20473.445479	-742.477333	1244.833984	381.414185
20473.445479	-742.477333	1243.722656	57.524189
20473.445479	-742.477333	1242.611328	241.139786
20473.445479	-742.477333	1241.499023	122.494141
20473.445479	-742.477333	1240.387695	-171.708191
20473.445479	-742.477333	1239.275391	30.145998
20473.445479	-742.477333	1238.162109	-59.819561
20473.445479	-742.477333	1237.049805	-102.479477
20473.445479	-742.477333	1235.936523	-15.692153
20473.445479	-742.477333	1234.823242	-58.715851
20473.445479	-742.477333	1233.709961	47.712803
20473.445479	-742.477333	1232.596680	-144.736557
20473.445479	-742.477333	1231.482422	-96.927330
20473.445479	-742.477333	1230.369141	-152.812302
20473.445479	-742.477333	1229.253906	-155.501526
20473.445479	-742.477333	1228.139648	-14.304465
20473.445479	-742.477333	1227.025391	-75.524895
20473.445479	-742.477333	1225.910156	-79.540817
20473.445479	-742.477333	1224.794922	-79.120270
20473.445479	-742.477333	1223.679688	-53.937332
20473.445479	-742.477333	1222.563477	-164.348526
20473.445479	-742.477333	1221.447266	-172.257599
20473.445479	-742.477333	1220.331055	-58.445061
20473.445479	-742.477333	1219.214844	-53.141617
20473.445479	-742.477333	1218.098633	35.661297
20473.445479	-742.477333	1216.981445	101.764366
20473.445479	-742.477333	1215.864258	116.491455
20473.445479	-742.477333	1214.747070	188.222229
20473.445479	-742.477333	1213.629883	-36.192940
20473.445479	-742.477333	1212.511719	-5.767828
20473.445479	-742.477333	1211.393555	151.952347
20473.445479	-742.477333	1210.275391	366.728119
20473.445479	-742.477333	1209.157227	107.520287
20473.445479	-742.477333	1208.038086	125.837448
20473.445479	-742.477333	1206.918945	239.702835
20473.445479	-742.477333	1205.799805	255.381912
20473.445479	-742.477333	1204.680664	316.566925
20473.445479	-742.477333	1203.560547	273.561340
20473.445479	-742.477333	1202.441406	207.512634
20473.445479	-742.477333	1201.321289	212.310150
20473.445479	-742.477333	1200.200195	537.369690
20473.445479	-742.477333	1199.080078	291.484406
20473.445479	-742.477333	1197.958984	205.379410
20473.445479	-742.477333	1196.837891	255.682724
20473.445479	-742.477333	1195.716797	391.631531
20473.445479	-742.477333	1194.594727	351.375854
20473.445479	-742.477333	1193.473633	395.464996
20473.445479	-742.477333	1192.351563	566.791870
20473.445479	-742.477333	1191.229492	605.604675
20473.445479	-742.477333	1190.106445	636.102173
20473.445479	-742.477333	1188.984375	540.299866
20473.445479	-742.477333	1187.861328	366.811951
20473.445479	-742.477333	1186.738281	669.554871
20473.445479	-742.477333	1185.614258	506.242950
20473.445479	-742.477333	1184.491211	707.735657
20473.445479	-742.477333	1183.367188	716.545410
20473.445479	-742.477333	1182.243164	809.129822
20473.445479	-742.477333	1181.119141	741.099365
20473.445479	-742.477333	1179.994141	815.771545
20473.445479	-742.477333	1178.869141	825.189148
20473.445479	-742.477333	1177.744141	960.283813
20473.445479	-742.477333	1176.619141	902.093689
20473.445479	-742.477333	1175.493164	957.050476
20473.445479	-742.477333	1174.368164	836.809448
20473.445479	-742.477333	1173.242188	854.281799
20473.445479	-742.477333	1172.115234	729.225342
20473.445479	-742.477333	1170.989258	611.882446
20473.445479	-742.477333	1169.862305	530.491333
20473.445479	-742.477333	1168.735352	409.523834
20473.445479	-742.477333	1167.608398	348.699829
20473.445479	-742.477333	1166.481445	427.393463
20473.445479	-742.477333	1165.353516	504.300781
20473.445479	-742.477333	1164.225586	220.910492
20473.445479	-742.477333	1163.097656	92.756966
20473.445479	-742.477333	1161.968750	178.645462
20473.445479	-742.477333	1160.840820	365.445404
20473.445479	-742.477333	1159.711914	183.181198
20473.445479	-742.477333	1158.583008	179.324326
20473.445479	-742.477333	1157.453125	116.591949
20473.445479	-742.477333	1156.324219	137.721191
20473.445479	-742.477333	1155.194336	-25.299110
20473.445479	-742.477333	1154.064453	26.928545
20473.445479	-742.477333	1152.933594	-59.761642
20473.445479	-742.477333	1151.803711	138.599365
20473.445479	-742.477333	1150.672852	-83.812508
20473.445479	-742.477333	1149.541992	-125.800659
20473.445479	-742.477333	1148.411133	-142.408722
20473.445479	-742.477333	1147.279297	-157.969772
20473.445479	-742.477333	1146.147461	-214.112167
20473.445479	-742.477333	1145.015625	-112.554306
20473.445479	-742.477333	1143.883789	-97.061501
20473.445479	-742.477333	1142.750977	-132.481659
20473.445479	-742.477333	1141.619141	-267.301544
20473.445479	-742.477333	1140.486328	-52.480087
20473.445479	-742.477333	1139.352539	-1.132328
20473.445479	-742.477333	1138.219727	-53.413567
20473.445479	-742.477333	1137.085938	-86.665894
20473.445479	-742.477333	1135.952148	70.776947
20473.445479	-742.477333	1134.818359	-73.837547
20473.445479	-742.477333	1133.683594	-12.604815
20473.445479	-742.477333	1132.549805	-104.852272
20473.445479	-742.477333	1131.415039	63.204323
20473.445479	-742.477333	1130.279297	67.124794
20473.445479	-742.477333	1129.144531	299.715973
20473.445479	-742.477333	1128.008789	323.033173
20473.445479	-742.477333	1126.873047	316.073364
20473.445479	-742.477333	1125.737305	320.527527
20473.445479	-742.477333	1124.601563	230.879517
20473.445479	-742.477333	1123.464844	241.447495
20473.445479	-742.477333	1122.328125	101.581245
20473.445479	-742.477333	1121.191406	416.619232
20473.445479	-742.477333	1120.054688	287.329620
20473.445479	-742.477333	1118.916992	162.074173
20473.445479	-742.477333	1117.779297	322.068298
20473.445479	-742.477333	1116.641602	314.380951
20473.445479	-742.477333	1115.503906	121.128006
20473.445479	-742.477333	1114.365234	217.111389
20473.445479	-742.477333	1113.226563	225.426758
20473.445479	-742.477333	1112.087891	69.341339
20473.445479	-742.477333	1110.949219	163.078445
20473.445479	-742.477333	1109.809570	161.624374
20473.445479	-742.477333	1108.669922	210.063354
20473.445479	-742.477333	1107.530273	270.020111
20473.445479	-742.477333	1106.390625	82.938713
20473.445479	-742.477333	1105.250000	423.808075
20473.445479	-742.477333	1104.109375	270.569275
20473.445479	-742.477333	1102.968750	303.504303
20473.445479	-742.477333	1101.828125	257.608002
20473.445479	-742.477333	1100.686523	436.679626
20473.445479	-742.477333	1099.544922	389.243591
20473.445479	-742.477333	1098.403320	259.176636
20473.445479	-742.477333	1097.261719	427.066498
20473.445479	-742.477333	1096.120117	322.142426
20473.445479	-742.477333	1094.977539	290.105713
20473.445479	-742.477333	1093.834961	424.661865
20473.445479	-742.477333	1092.691406	175.520721
20473.445479	-742.477333	1091.548828	273.248413
20473.445479	-742.477333	1090.405273	190.403412
20473.445479	-742.477333	1089.261719	367.012939
20473.445479	-742.477333	1088.118164	256.862976
20473.445479	-742.477333	1086.973633	162.011703
20473.445479	-742.477333	1085.829102	79.835213
20473.445479	-742.477333	1084.684570	361.031677
20473.445479	-742.477333	1083.540039	325.269989
20473.445479	-742.477333	1082.395508	321.673126
20473.445479	-742.477333	1081.250000	284.663208
20473.445479	-742.477333	1080.104492	342.656769
20473.445479	-742.477333	1078.958984	584.695801
20473.445479	-742.477333	1077.812500	481.988312
20473.445479	-742.477333	1076.666016	230.645477
20473.445479	-742.477333	1075.519531	110.765938
20473.445479	-742.477333	1074.373047	454.477661
20473.445479	-742.477333	1073.226563	379.056091
20473.445479	-742.477333	1072.079102	578.335815
20473.445479	-742.477333	1070.931641	442.005585
20473.445479	-742.477333	1069.784180	585.839905
20473.445479	-742.477333	1068.635742	462.298218
20473.445479	-742.477333	1067.487305	468.172089
20473.445479	-742.477333	1066.338867	302.907867
20473.445479	-742.477333	1065.190430	258.477417
20473.445479	-742.477333	1064.041992	400.056549
20473.445479	-742.477333	1062.892578	221.874893
20473.445479	-742.477333	1061.743164	176.552597
20473.445479	-742.477333	1060.593750	400.249939
20473.445479	-742.477333	1059.443359	56.871101
20473.445479	-742.477333	1058.292969	178.301147
20473.445479	-742.477333	1057.142578	154.717041
20473.445479	-742.477333	1055.992188	411.040802
20473.445479	-742.477333	1054.841797	233.067612
20473.445479	-742.477333	1053.690430	202.748093
20473.445479	-742.477333	1052.539063	183.996109
20473.445479	-742.477333	1051.387695	-37.082626
20473.445479	-742.477333	1050.235352	116.984802
20473.445479	-742.477333	1049.083984	36.766846
20473.445479	-742.477333	1047.931641	-71.783119
20473.445479	-742.477333	1046.778320	-38.180679
20473.445479	-742.477333	1045.625977	101.278847
20473.445479	-742.477333	1044.472656	137.983948
20473.445479	-742.477333	1043.319336	43.675335
20473.445479	-742.477333	1042.166016	-99.113480
20473.445479	-742.477333	1041.012695	-12.558955
20473.445479	-742.477333	1039.858398	38.655960
20473.445479	-742.477333	1038.704102	-42.528461
20473.445479	-742.477333	1037.549805	118.814880
20473.445479	-742.477333	1036.394531	-18.621206
20473.445479	-742.477333	1035.239258	-28.533876
20473.445479	-742.477333	1034.083984	-26.487225
20473.445479	-742.477333	1032.928711	85.694893
20473.445479	-742.477333	1031.773438	187.965973
20473.445479	-742.477333	1030.617188	70.633751
20473.445479	-742.477333	1029.460938	165.264160
20473.445479	-742.477333	1028.304688	10.253103
20473.445479	-742.477333	1027.147461	-47.313564
20473.445479	-742.477333	1025.991211	16.227596
20473.445479	-742.477333	1024.833984	35.759727
20473.445479	-742.477333	1023.675781	-86.436684
20473.445479	-742.477333	1022.518555	86.080574
20473.445479	-742.477333	1021.360352	58.872955
20473.445479	-742.477333	1020.202148	5.460167
20473.445479	-742.477333	1019.043945	-84.795029
20473.445479	-742.477333	1017.884766	155.795242
20473.445479	-742.477333	1016.726563	-44.369999
20473.445479	-742.477333	1015.567383	1.806146
20473.445479	-742.477333	1014.407227	-63.989521
20473.445479	-742.477333	1013.248047	-194.534317
20473.445479	-742.477333	1012.087891	0.891343
20473.445479	-742.477333	1010.927734	163.919098
20473.445479	-742.477333	1009.767578	30.224257
20473.445479	-742.477333	1008.606445	150.827209
20473.445479	-742.477333	1007.446289	155.772659
20473.445479	-742.477333	1006.285156	208.521698
20473.445479	-742.477333	1005.123047	-11.784713
20473.445479	-742.477333	1003.961914	-3.510652
20473.445479	-742.477333	1002.799805	333.878815
20473.445479	-742.477333	1001.637695	54.522804
20473.445479	-742.477333	1000.475586	26.399364
20473.445479	-742.477333	999.312500	132.612411
20473.445479	-742.477333	998.149414	25.443802
20473.445479	-742.477333	996.986328	112.523987
20473.445479	-742.477333	995.823242	71.784210
20473.445479	-742.477333	994.659180	-67.848625
20473.445479	-742.477333	993.496094	33.702049
20473.445479	-742.477333	992.332031	-106.612923
20473.445479	-742.477333	991.166992	-102.885902
20473.445479	-742.477333	990.002930	-38.854397
20473.445479	-742.477333	988.837891	-28.453657
20473.445479	-742.477333	987.672852	-234.595551
20473.445479	-742.477333	986.506836	-175.043991
20473.445479	-742.477333	985.341797	137.965942
20473.445479	-742.477333	984.175781	48.962444
20473.445479	-742.477333	983.009766	-237.804993
20473.445479	-742.477333	981.843750	25.625191
20473.445479	-742.477333	980.676758	-50.532661
20473.445479	-742.477333	979.509766	-121.022026
20473.445479	-742.477333	978.342773	-274.541473
20473.445479	-742.477333	977.175781	-286.970306
20473.445479	-742.477333	976.007813	-182.355072
20473.445479	-742.477333	974.839844	-35.999577
20473.445479	-742.477333	973.671875	-235.514511
20473.445479	-742.477333	972.503906	-251.307449
20473.445479	-742.477333	971.334961	-175.873413
20473.445479	-742.477333	970.166016	-20.077517
20473.445479	-742.477333	968.997070	-2.585108
20473.445479	-742.477333	967.828125	51.243130
20473.445479	-742.477333	966.658203	90.669777
20473.445479	-742.477333	965.488281	186.759628
20473.445479	-742.477333	964.318359	162.863937
20473.445479	-742.477333	963.148438	147.323196
20473.445479	-742.477333	961.977539	-103.948822
20473.445479	-742.477333	960.806641	-91.346115
20473.445479	-742.477333	959.635742	21.700352
20473.445479	-742.477333	958.463867	-38.873341
20473.445479	-742.477333	957.292969	99.923904
20473.445479	-742.477333	956.121094	179.060242
20473.445479	-742.477333	954.948242	98.414116
20473.445479	-742.477333	953.776367	-28.926414
20473.445479	-742.477333	952.603516	263.959656
20473.445479	-742.477333	951.430664	135.488281
20473.445479	-742.477333	950.257813	132.807602
20473.445479	-742.477333	949.084961	212.325500
20473.445479	-742.477333	947.911133	63.487434
20473.445479	-742.477333	946.737305	85.121651
20473.445479	-742.477333	945.563477	139.621399
20473.445479	-742.477333	944.388672	48.760143
20473.445479	-742.477333	943.213867	203.813507
20473.445479	-742.477333	942.039063	162.596619
20473.445479	-742.477333	940.864258	-47.182861
20473.445479	-742.477333	939.688477	117.809937
20473.445479	-742.477333	938.513672	18.803736
20473.445479	-742.477333	937.337891	0.147215
20473.445479	-742.477333	936.161133	162.622177
20473.445479	-742.477333	934.985352	33.458527
20473.445479	-742.477333	933.808594	301.097504
20473.445479	-742.477333	932.631836	211.942032
20473.445479	-742.477333	931.454102	263.567871
20473.445479	-742.477333	930.277344	169.295074
20473.445479	-742.477333	929.099609	250.933731
20473.445479	-742.477333	927.921875	427.839996
20473.445479	-742.477333	926.743164	115.099297
20473.445479	-742.477333	925.565430	344.654938
20473.445479	-742.477333	924.386719	277.876373
20473.445479	-742.477333	923.208008	512.252625
20473.445479	-742.477333	922.028320	136.840683
20473.445479	-742.477333	920.849609	-10.203005
20473.445479	-742.477333	919.669922	-9.414545
20473.445479	-742.477333	919.474609	141.347702
20473.445479	-742.477333	918.309570	-83.447701
20473.445479	-742.477333	917.143555	65.343002
20473.445479	-742.477333	915.977539	-111.788055
20473.445479	-742.477333	914.810547	-35.785080
20473.445479	-742.477333	913.644531	-97.637833
20473.445479	-742.477333	912.477539	3.319358
20473.445479	-742.477333	911.310547	29.075788
20473.445479	-742.477333	910.143555	62.304878
20473.445479	-742.477333	908.975586	-22.165258
20473.445479	-742.477333	907.807617	126.134232
20473.445479	-742.477333	906.639648	49.137497
20473.445479	-742.477333	905.471680	-120.420547
20473.445479	-742.477333	904.303711	-109.844040
20473.445479	-742.477333	903.134766	78.259460
20473.445479	-742.477333	901.965820	11.231936
20473.445479	-742.477333	900.796875	16.700871
20473.445479	-742.477333	899.626953	-57.832973
20473.445479	-742.477333	898.457031	7.569121
20473.445479	-742.477333	897.287109	190.339310
20473.445479	-742.477333	896.117188	233.138245
20473.445479	-742.477333	894.947266	31.170534
20473.445479	-742.477333	893.776367	248.711243
20473.445479	-742.477333	892.605469	388.758728
20473.445479	-742.477333	891.434570	558.676758
20473.445479	-742.477333	890.262695	361.712921
20473.445479	-742.477333	889.091797	486.622437
20473.445479	-742.477333	887.919922	122.606125
20473.445479	-742.477333	886.748047	304.828400
20473.445479	-742.477333	885.575195	250.109085
20473.445479	-742.477333	884.403320	140.556946
20473.445479	-742.477333	883.230469	-123.480835
20473.445479	-742.477333	882.057617	48.604538
20473.445479	-742.477333	880.883789	185.726563
20473.445479	-742.477333	879.710938	38.848557
20473.445479	-742.477333	878.537109	11.539264
20473.445479	-742.477333	877.362305	180.900620
20473.445479	-742.477333	876.188477	165.987778
20473.445479	-742.477333	875.013672	225.720978
20473.445479	-742.477333	873.839844	63.979618
20473.445479	-742.477333	872.664063	287.859528
20473.445479	-742.477333	871.489258	91.324257
20473.445479	-742.477333	870.313477	190.752838
20473.445479	-742.477333	869.138672	247.865585
20473.445479	-742.477333	867.962891	297.484894
20473.445479	-742.477333	866.786133	439.016296
20473.445479	-742.477333	865.610352	294.761261
20473.445479	-742.477333	864.433594	78.517616
20473.445479	-742.477333	863.256836	237.355179
20473.445479	-742.477333	862.079102	150.303360
20473.445479	-742.477333	860.902344	100.513229
20473.445479	-742.477333	859.724609	82.997398
20473.445479	-742.477333	858.546875	415.360840
20473.445479	-742.477333	857.368164	28.109438
20473.445479	-742.477333	856.190430	-125.833229
20473.445479	-742.477333	855.011719	154.260208
20473.445479	-742.477333	853.833008	94.552299
20473.445479	-742.477333	852.654297	-61.817032
20473.445479	-742.477333	851.474609	156.103363
20473.445479	-742.477333	850.294922	-94.391136
20473.445479	-742.477333	849.115234	-62.372566
20473.445479	-742.477333	847.935547	-62.574116
20473.445479	-742.477333	846.754883	-201.459717
20473.445479	-742.477333	845.575195	38.507492
20473.445479	-742.477333	844.393555	48.162804
20473.445479	-742.477333	843.212891	-130.279877
20473.445479	-742.477333	842.032227	116.924446
20473.445479	-742.477333	840.850586	5.318610
20473.445479	-742.477333	839.668945	-51.835220
20473.445479	-742.477333	838.486328	59.175671
20473.445479	-742.477333	837.304688	-205.650894
20473.445479	-742.477333	836.122070	-292.408203
20473.445479	-742.477333	834.939453	-361.837982
20473.445479	-742.477333	833.756836	-179.229218
20473.445479	-742.477333	832.573242	-117.744240
20473.445479	-742.477333	831.389648	-206.944168
20473.445479	-742.477333	830.206055	27.354675
20473.445479	-742.477333	829.022461	-170.474594
20473.445479	-742.477333	827.838867	-116.470978
20473.445479	-742.477333	826.654297	-5.739258
20473.445479	-742.477333	825.469727	181.423096
20473.445479	-742.477333	824.284180	-393.700073
20473.445479	-742.477333	823.099609	-85.704681
20473.445479	-742.477333	821.914063	47.096046
20473.445479	-742.477333	820.728516	2.346039
20473.445479	-742.477333	819.542969	-84.291618
20473.445479	-742.477333	818.356445	-180.755798
20473.445479	-742.477333	817.169922	3.666755
20473.445479	-742.477333	815.983398	-16.431227
20473.445479	-742.477333	814.796875	81.678734
20473.445479	-742.477333	813.609375	-206.809464
20473.445479	-742.477333	812.422852	-310.564026
20473.445479	-742.477333	811.235352	-136.179581
20473.445479	-742.477333	810.046875	-212.852493
20473.445479	-742.477333	808.859375	84.429688
20473.445479	-742.477333	807.670898	-120.166962
20473.445479	-742.477333	806.482422	-157.471237
20473.445479	-742.477333	805.293945	-145.595566
20473.445479	-742.477333	804.104492	-133.731873
20473.445479	-742.477333	802.915039	118.957024
20473.445479	-742.477333	801.725586	-70.728226
20473.445479	-742.477333	800.536133	-68.735023
20473.445479	-742.477333	799.345703	-61.837414
20473.445479	-742.477333	798.155273	-45.129848
20473.445479	-742.477333	796.964844	72.218559
20473.445479	-742.477333	795.774414	-48.574608
20473.445479	-742.477333	794.583008	78.525162
20473.445479	-742.477333	793.392578	36.274460
20473.445479	-742.477333	792.200195	148.569107
20473.445479	-742.477333	791.008789	40.088070
20473.445479	-742.477333	789.816406	-36.481384
20473.445479	-742.477333	788.625000	-22.325993
20473.445479	-742.477333	787.432617	-32.695042
20473.445479	-742.477333	786.239258	59.846745
20473.445479	-742.477333	785.046875	380.181000
20473.445479	-742.477333	783.853516	200.696075
20473.445479	-742.477333	782.660156	638.394165
20473.445479	-742.477333	781.465820	951.031250
20473.445479	-742.477333	780.272461	840.046692
20473.445479	-742.477333	779.078125	966.490784
20473.445479	-742.477333	777.883789	635.309021
20473.445479	-742.477333	776.688477	480.388367
20473.445479	-742.477333	775.494141	164.095749
20473.445479	-742.477333	774.298828	1.976582
20473.445479	-742.477333	773.103516	-86.743294
20473.445479	-742.477333	771.907227	54.323822
20473.445479	-742.477333	770.711914	4.703239
20473.445479	-742.477333	769.515625	109.016396
20473.445479	-742.477333	768.318359	56.931843
20473.445479	-742.477333	767.122070	46.374336
20473.445479	-742.477333	765.924805	101.731842
20473.445479	-742.477333	764.727539	132.639389
20473.445479	-742.477333	763.530273	-0.013764
20473.445479	-742.477333	762.333008	45.510281
20473.445479	-742.477333	761.134766	83.679146
20473.445479	-742.477333	759.936523	221.822220
20473.445479	-742.477333	758.738281	16.030903
20473.445479	-742.477333	757.540039	-45.838791
20473.445479	-742.477333	756.340820	199.450226
20473.445479	-742.477333	755.141602	91.222481
20473.445479	-742.477333	753.942383	107.292984
20473.445479	-742.477333	752.742188	252.453430
20473.445479	-742.477333	751.541992	134.478592
20473.445479	-742.477333	750.341797	74.977379
20473.445479	-742.477333	749.141602	112.866341
20473.445479	-742.477333	747.941406	46.048328
20473.445479	-742.477333	746.740234	-79.172363
20473.445479	-742.477333	745.539063	-63.241615
20473.445479	-742.477333	744.337891	130.241455
20473.445479	-742.477333	743.135742	-218.745087
20473.445479	-742.477333	741.933594	84.063835
20473.445479	-742.477333	740.731445	-228.349838
20473.445479	-742.477333	739.529297	132.618881
20473.445479	-742.477333	738.326172	-2.329413
20473.445479	-742.477333	737.124023	-66.788849
20473.445479	-742.477333	735.919922	-136.108810
20473.445479	-742.477333	734.716797	5.859860
20473.445479	-742.477333	733.513672	118.604851
20473.445479	-742.477333	732.309570	117.178215
20473.445479	-742.477333	731.105469	-39.607929
20473.445479	-742.477333	729.900391	-7.089278
20473.445479	-742.477333	728.696289	15.682301
20473.445479	-742.477333	727.491211	72.370872
20473.445479	-742.477333	726.286133	70.803276
20473.445479	-742.477333	725.080078	-54.447105
20473.445479	-742.477333	723.874023	227.556961
20473.445479	-742.477333	722.668945	325.224487
20473.445479	-742.477333	721.461914	248.359543
20473.445479	-742.477333	720.255859	353.181427
20473.445479	-742.477333	719.048828	227.835251
20473.445479	-742.477333	717.841797	400.347290
20473.445479	-742.477333	716.634766	250.762863
20473.445479	-742.477333	715.427734	386.819763
20473.445479	-742.477333	714.219727	476.802032
20473.445479	-742.477333	713.011719	595.741882
20473.445479	-742.477333	711.803711	709.756897
20473.445479	-742.477333	710.594727	552.819580
20473.445479	-742.477333	709.385742	584.507141
20473.445479	-742.477333	708.176758	367.148102
20473.445479	-742.477333	706.967773	65.247810
20473.445479	-742.477333	705.758789	285.377045
20473.445479	-742.477333	704.548828	113.995399
20473.445479	-742.477333	703.338867	123.798401
20473.445479	-742.477333	702.127930	78.010246
20473.445479	-742.477333	700.917969	307.438751
20473.445479	-742.477333	699.707031	201.198807
20473.445479	-742.477333	698.496094	99.785889
20473.445479	-742.477333	697.285156	87.645767
20473.445479	-742.477333	696.073242	-57.214310
20473.445479	-742.477333	694.861328	121.127007
20473.445479	-742.477333	693.649414	26.866474
20473.445479	-742.477333	692.436523	178.500504
20473.445479	-742.477333	691.224609	-106.241638
20473.445479	-742.477333	690.011719	385.045471
20473.445479	-742.477333	688.798828	158.104630
20473.445479	-742.477333	687.584961	210.628418
20473.445479	-742.477333	686.372070	133.034897
20473.445479	-742.477333	685.158203	274.530975
20473.445479	-742.477333	683.943359	155.928497
20473.445479	-742.477333	682.729492	213.021805
20473.445479	-742.477333	681.514648	308.537079
20473.445479	-742.477333	680.299805	187.442047
20473.445479	-742.477333	679.084961	258.765564
20473.445479	-742.477333	677.869141	200.148148
20473.445479	-742.477333	676.653320	146.309631
20473.445479	-742.477333	675.437500	227.048431
20473.445479	-742.477333	674.221680	194.747910
20473.445479	-742.477333	673.004883	248.901947
20473.445479	-742.477333	671.789063	190.075165
20473.445479	-742.477333	670.571289	138.417969
20473.445479	-742.477333	669.354492	192.381714
20473.445479	-742.477333	668.136719	335.089172
20473.445479	-742.477333	666.919922	324.070190
20473.445479	-742.477333	665.701172	195.408279
20473.445479	-742.477333	664.483398	232.287750
20473.445479	-742.477333	663.264648	257.098663
20473.445479	-742.477333	662.045898	274.644470
20473.445479	-742.477333	660.827148	517.504883
20473.445479	-742.477333	659.608398	335.906158
20473.445479	-742.477333	658.388672	427.540009
20473.445479	-742.477333	657.168945	440.001129
20473.445479	-742.477333	655.949219	361.363373
20473.445479	-742.477333	654.728516	562.923889
20473.445479	-742.477333	653.507813	620.661255
20473.445479	-742.477333	652.287109	651.976624
20473.445479	-742.477333	651.066406	745.451660
20473.445479	-742.477333	649.844727	630.620728
20473.445479	-742.477333	648.623047	415.286835
20473.445479	-742.477333	647.401367	479.856018
20473.445479	-742.477333	646.179688	527.594604
20473.445479	-742.477333	644.957031	486.775085
20473.445479	-742.477333	643.734375	469.815918
20473.445479	-742.477333	642.511719	644.005005
20473.445479	-742.477333	641.289063	531.309998
20473.445479	-742.477333	640.065430	657.499146
20473.445479	-742.477333	638.841797	683.252075
20473.445479	-742.477333	637.618164	649.227783
20473.445479	-742.477333	636.393555	648.575317
20473.445479	-742.477333	635.168945	638.310303
20473.445479	-742.477333	633.944336	437.061615
20473.445479	-742.477333	632.719727	319.343842
20473.445479	-742.477333	631.494141	277.942535
20473.445479	-742.477333	630.269531	310.434692
20473.445479	-742.477333	629.042969	307.069794
20473.445479	-742.477333	627.817383	282.190063
20473.445479	-742.477333	626.590820	138.075623
20473.445479	-742.477333	625.365234	375.240387
20473.445479	-742.477333	624.137695	4.695054
20473.445479	-742.477333	622.911133	72.530533
20473.445479	-742.477333	621.683594	226.000244
20473.445479	-742.477333	620.456055	-27.807127
20473.445479	-742.477333	619.228516	-12.579008
20473.445479	-742.477333	618.000977	59.695431
20473.445479	-742.477333	616.772461	-46.590210
20473.445479	-742.477333	615.543945	142.093445
20473.445479	-742.477333	614.314453	164.135025
20473.445479	-742.477333	613.085938	288.359192
20473.445479	-742.477333	611.856445	60.599693
20473.445479	-742.477333	610.626953	-3.120653
20473.445479	-742.477333	609.397461	194.528412
20473.445479	-742.477333	608.166992	275.603333
20473.445479	-742.477333	606.936523	-54.368000
20473.445479	-742.477333	605.706055	150.091187
20473.445479	-742.477333	604.474609	64.716927
20473.445479	-742.477333	603.244141	12.554485
20473.445479	-742.477333	602.012695	240.406723
20473.445479	-742.477333	600.780273	154.869476
20473.445479	-742.477333	599.548828	256.730530
20473.445479	-742.477333	598.316406	289.694855
20473.445479	-742.477333	597.083984	479.093536
20473.445479	-742.477333	595.851563	502.387878
20473.445479	-742.477333	594.618164	362.049011
20473.445479	-742.477333	593.384766	653.023438
20473.445479	-742.477333	592.151367	339.625092
20473.445479	-742.477333	590.917969	405.316254
20473.445479	-742.477333	589.683594	243.551376
20473.445479	-742.477333	588.449219	325.682465
20473.445479	-742.477333	587.214844	246.740234
20473.445479	-742.477333	585.979492	35.223000
20473.445479	-742.477333	584.745117	145.564301
20473.445479	-742.477333	583.509766	208.476974
20473.445479	-742.477333	582.273438	-95.326645
20473.445479	-742.477333	581.038086	-70.342415
20473.445479	-742.477333	579.801758	-59.617451
20473.445479	-742.477333	578.565430	-60.772896
20473.445479	-742.477333	577.329102	4.188893
20473.445479	-742.477333	576.091797	-98.698883
20473.445479	-742.477333	574.854492	6.285576
20473.445479	-742.477333	573.617188	179.662415
20473.445479	-742.477333	572.378906	180.530167
20473.445479	-742.477333	571.141602	70.394745
20473.445479	-742.477333	569.903320	260.002411
20473.445479	-742.477333	568.664063	220.571518
20473.445479	-742.477333	567.425781	362.778107
20473.445479	-742.477333	566.186523	141.614349
20473.445479	-742.477333	564.947266	243.577881
20473.445479	-742.477333	563.708008	241.706467
20473.445479	-742.477333	562.467773	93.630699
20473.445479	-742.477333	561.227539	124.683273
20473.445479	-742.477333	559.987305	-169.488617
20473.445479	-742.477333	558.747070	2.857960
20473.445479	-742.477333	557.505859	40.828083
20473.445479	-742.477333	556.264648	-116.706322
20473.445479	-742.477333	555.023438	-57.628292
20473.445479	-742.477333	553.781250	-109.252731
20473.445479	-742.477333	552.539063	22.654697
20473.445479	-742.477333	551.296875	107.408249
20473.445479	-742.477333	550.054688	-57.252033
20473.445479	-742.477333	548.811523	-14.939020
20473.445479	-742.477333	547.569336	-94.939316
20473.445479	-742.477333	546.325195	-285.443726
20473.445479	-742.477333	545.082031	-344.286224
20473.445479	-742.477333	543.837891	-203.422928
20473.445479	-742.477333	542.593750	-205.959076
20473.445479	-742.477333	541.349609	-44.120441
20473.445479	-742.477333	540.105469	-246.359344
20473.445479	-742.477333	538.860352	-157.438248
20473.445479	-742.477333	537.615234	-251.670303
20473.445479	-742.477333	536.369141	-83.073868
20473.445479	-742.477333	535.124023	-177.348145
20473.445479	-742.477333	533.877930	-325.571716
20473.445479	-742.477333	532.631836	-49.284176
20473.445479	-742.477333	531.384766	-211.608521
20473.445479	-742.477333	530.138672	-38.667614
20473.445479	-742.477333	528.891602	120.100410
20473.445479	-742.477333	527.643555	264.706024
20473.445479	-742.477333	526.396484	285.068390
20473.445479	-742.477333	525.148438	492.761017
20473.445479	-742.477333	523.900391	784.637878
20473.445479	-742.477333	522.652344	561.309082
20473.445479	-742.477333	521.403320	616.582031
20473.445479	-742.477333	520.154297	353.545227
20473.445479	-742.477333	518.905273	441.547913
20473.445479	-742.477333	517.656250	384.460846
20473.445479	-742.477333	516.406250	313.337524
20473.445479	-742.477333	515.156250	719.205750
20473.445479	-742.477333	513.906250	549.818054
20473.445479	-742.477333	512.655273	466.948578
20473.445479	-742.477333	511.404297	587.383850
20473.445479	-742.477333	510.153320	700.738647
20473.445479	-742.477333	508.902344	470.687378
20473.445479	-742.477333	507.650391	261.724579
20473.445479	-742.477333	506.398438	412.368256
20473.445479	-742.477333	505.146484	70.427444
20473.445479	-742.477333	503.893555	-59.031109
20473.445479	-742.477333	502.641602	84.533005
20473.445479	-742.477333	501.388672	172.028275
20473.445479	-742.477333	500.134766	77.555550
20473.445479	-742.477333	498.881836	-77.505981
20473.445479	-742.477333	497.627930	19.236395
20473.445479	-742.477333	496.374023	146.219391
20473.445479	-742.477333	495.119141	154.287796
20473.445479	-742.477333	493.865234	69.161507
20473.445479	-742.477333	492.610352	-62.534561
20473.445479	-742.477333	491.355469	255.232834
20473.445479	-742.477333	490.099609	-16.171257
20473.445479	-742.477333	488.843750	-108.248817
20473.445479	-742.477333	487.587891	-139.797882
20473.445479	-742.477333	486.332031	79.923523
20473.445479	-742.477333	485.075195	122.742096
20473.445479	-742.477333	483.818359	119.014061
20473.445479	-742.477333	482.561523	324.529053
20473.445479	-742.477333	481.304688	199.845154
20473.445479	-742.477333	480.046875	119.345467
20473.445479	-742.477333	478.789063	166.660385
20473.445479	-742.477333	477.531250	127.979652
20473.445479	-742.477333	476.272461	86.965393
20473.445479	-742.477333	475.013672	203.850357
20473.445479	-742.477333	473.754883	72.251793
20473.445479	-742.477333	472.496094	-56.992432
20473.445479	-742.477333	471.236328	-144.442230
20473.445479	-742.477333	469.976563	-13.790923
20473.445479	-742.477333	468.716797	3.117463
20473.445479	-742.477333	467.456055	26.939486
20473.445479	-742.477333	466.196289	20.587395
20473.445479	-742.477333	464.935547	155.603943
20473.445479	-742.477333	463.673828	239.533340
20473.445479	-742.477333	462.413086	-10.261165
20473.445479	-742.477333	461.151367	198.693405
20473.445479	-742.477333	459.889648	108.743118
20473.445479	-742.477333	458.626953	315.179413
20473.445479	-742.477333	457.364258	185.794464
20473.445479	-742.477333	456.101563	253.162140
20473.445479	-742.477333	454.838867	267.228302
20473.445479	-742.477333	453.575195	457.063049
20473.445479	-742.477333	452.312500	318.312317
20473.445479	-742.477333	451.047852	383.057373
20473.445479	-742.477333	449.784180	258.133148
20473.445479	-742.477333	448.519531	246.460907
20473.445479	-742.477333	447.254883	419.615326
20473.445479	-742.477333	445.990234	289.940674
20473.445479	-742.477333	444.725586	467.491058
20473.445479	-742.477333	443.459961	406.993378
20473.445479	-742.477333	442.194336	448.041290
20473.445479	-742.477333	440.927734	629.804565
20473.445479	-742.477333	439.662109	587.524414
20473.445479	-742.477333	438.395508	734.384644
20473.445479	-742.477333	437.127930	606.531921
20473.445479	-742.477333	435.861328	487.868530
20473.445479	-742.477333	434.593750	479.833160
20473.445479	-742.477333	433.326172	610.026611
20473.445479	-742.477333	432.058594	498.011108
20473.445479	-742.477333	430.790039	588.718018
20473.445479	-742.477333	429.521484	665.432251
20473.445479	-742.477333	428.252930	417.172546
20473.445479	-742.477333	426.984375	558.104675
20473.445479	-742.477333	425.714844	562.965515
20473.445479	-742.477333	424.445313	523.932129
20473.445479	-742.477333	423.174805	558.397888
20473.445479	-742.477333	421.905273	629.509888
20473.445479	-742.477333	420.634766	587.677124
20473.445479	-742.477333	419.364258	561.782227
20473.445479	-742.477333	418.092773	609.285461
20473.445479	-742.477333	416.822266	750.845825
20473.445479	-742.477333	415.550781	643.879883
20473.445479	-742.477333	414.278320	442.511688
20473.445479	-742.477333	413.006836	682.162048
20473.445479	-742.477333	411.734375	565.411865
20473.445479	-742.477333	410.461914	627.608826
20473.445479	-742.477333	409.188477	744.622314
20473.445479	-742.477333	407.916016	767.216125
20473.445479	-742.477333	406.642578	693.122009
20473.445479	-742.477333	405.368164	630.240112
20473.445479	-742.477333	404.094727	509.752625
20473.445479	-742.477333	402.820313	616.069641
20473.445479	-742.477333	401.545898	582.145569
20473.445479	-742.477333	400.270508	589.164429
20473.445479	-742.477333	398.996094	462.910492
20473.445479	-742.477333	397.720703	625.092468
20473.445479	-742.477333	396.444336	660.813171
20473.445479	-742.477333	395.168945	425.860321
20473.445479	-742.477333	393.892578	435.649017
20473.445479	-742.477333	392.616211	341.994232
20473.445479	-742.477333	391.339844	444.827301
20473.445479	-742.477333	390.062500	384.672821
20473.445479	-742.477333	388.785156	239.433426
20473.445479	-742.477333	387.507813	176.148697
20473.445479	-742.477333	386.229492	265.632904
20473.445479	-742.477333	384.951172	146.495621
20473.445479	-742.477333	383.672852	230.364944
20473.445479	-742.477333	382.394531	286.238770
20473.445479	-742.477333	381.115234	83.297256
20473.445479	-742.477333	379.835938	99.205391
20473.445479	-742.477333	378.556641	162.489029
20473.445479	-742.477333	377.277344	-21.495409
20473.445479	-742.477333	375.997070	-62.204140
20473.445479	-742.477333	374.716797	-46.471344
20473.445479	-742.477333	373.435547	89.525047
20473.445479	-742.477333	372.155273	284.121002
20473.445479	-742.477333	370.874023	261.190094
20473.445479	-742.477333	369.591797	198.746307
20473.445479	-742.477333	368.310547	103.677086
20473.445479	-742.477333	367.028320	144.633377
20473.445479	-742.477333	365.746094	280.499725
20473.445479	-742.477333	364.463867	37.218418
20473.445479	-742.477333	363.180664	155.405441
20473.445479	-742.477333	361.897461	-246.651199
20473.445479	-742.477333	360.614258	111.158951
20473.445479	-742.477333	359.330078	144.566330
20473.445479	-742.477333	358.045898	-41.513966
20473.445479	-742.477333	356.761719	133.348053
20473.445479	-742.477333	355.477539	-20.510025
20473.445479	-742.477333	354.192383	-29.786083
20473.445479	-742.477333	352.907227	157.732254
20473.445479	-742.477333	351.622070	-103.858582
20473.445479	-742.477333	350.336914	-82.308517
20473.445479	-742.477333	349.050781	-102.872177
20473.445479	-742.477333	347.764648	129.871399
20473.445479	-742.477333	346.477539	281.738556
20473.445479	-742.477333	345.191406	100.708199
20473.445479	-742.477333	343.904297	-27.078558
20473.445479	-742.477333	342.616211	64.037247
20473.445479	-742.477333	341.329102	160.593781
20473.445479	-742.477333	340.041016	12.848020
20473.445479	-742.477333	338.752930	111.022141
20473.445479	-742.477333	337.463867	198.554886
20473.445479	-742.477333	336.175781	112.218407
20473.445479	-742.477333	334.886719	-152.535156
20473.445479	-742.477333	333.596680	-115.070396
20473.445479	-742.477333	332.307617	-58.822571
20473.445479	-742.477333	331.017578	-24.728056
20473.445479	-742.477333	329.727539	-427.323242
20473.445479	-742.477333	328.436523	78.895279
20473.445479	-742.477333	327.146484	30.622061
20473.445479	-742.477333	325.855469	-270.837311
20473.445479	-742.477333	324.563477	-116.939178
20473.445479	-742.477333	323.272461	-327.074127
20473.445479	-742.477333	321.980469	-226.981155
20473.445479	-742.477333	320.688477	-185.542206
20473.445479	-742.477333	319.395508	-257.106628
20473.445479	-742.477333	318.103516	-183.787201
20473.445479	-742.477333	316.810547	-85.658516
20473.445479	-742.477333	315.516602	188.616394
20473.445479	-742.477333	314.223633	241.345657
20473.445479	-742.477333	312.929688	214.792068
20473.445479	-742.477333	311.635742	149.668564
20473.445479	-742.477333	310.340820	118.124916
20473.445479	-742.477333	309.045898	409.096130
20473.445479	-742.477333	307.750977	415.198944
20473.445479	-742.477333	306.456055	684.869446
20473.445479	-742.477333	305.160156	516.194275
20473.445479	-742.477333	303.865234	441.842743
20473.445479	-742.477333	302.568359	630.557434
20473.445479	-742.477333	301.272461	617.934387
20473.445479	-742.477333	299.975586	663.067444
20473.445479	-742.477333	298.678711	747.907959
