#X		#Y		#Wave		#Intensity
12353.121383	-1220.529000	1999.980469	-4.648670
12353.121383	-1220.529000	1999.016602	40.755482
12353.121383	-1220.529000	1998.052734	-105.273903
12353.121383	-1220.529000	1997.087891	-15.961149
12353.121383	-1220.529000	1996.123047	-77.949829
12353.121383	-1220.529000	1995.158203	-28.566513
12353.121383	-1220.529000	1994.193359	13.249781
12353.121383	-1220.529000	1993.228516	54.935890
12353.121383	-1220.529000	1992.262695	220.288742
12353.121383	-1220.529000	1991.297852	61.202126
12353.121383	-1220.529000	1990.332031	75.319168
12353.121383	-1220.529000	1989.366211	133.875183
12353.121383	-1220.529000	1988.399414	110.677002
12353.121383	-1220.529000	1987.433594	-16.486752
12353.121383	-1220.529000	1986.466797	229.749466
12353.121383	-1220.529000	1985.500977	-21.179096
12353.121383	-1220.529000	1984.534180	202.565201
12353.121383	-1220.529000	1983.567383	43.044701
12353.121383	-1220.529000	1982.599609	355.523102
12353.121383	-1220.529000	1981.632813	-21.524183
12353.121383	-1220.529000	1980.665039	-94.640350
12353.121383	-1220.529000	1979.697266	-41.820824
12353.121383	-1220.529000	1978.729492	-95.257408
12353.121383	-1220.529000	1977.761719	362.351166
12353.121383	-1220.529000	1976.792969	54.511780
12353.121383	-1220.529000	1975.825195	-16.322567
12353.121383	-1220.529000	1974.856445	26.338888
12353.121383	-1220.529000	1973.887695	268.785583
12353.121383	-1220.529000	1972.918945	-98.155334
12353.121383	-1220.529000	1971.949219	-141.919006
12353.121383	-1220.529000	1970.980469	161.978668
12353.121383	-1220.529000	1970.010742	-22.389315
12353.121383	-1220.529000	1969.041016	123.576736
12353.121383	-1220.529000	1968.071289	8.245512
12353.121383	-1220.529000	1967.101563	-82.419670
12353.121383	-1220.529000	1966.130859	-17.871189
12353.121383	-1220.529000	1965.161133	-19.857651
12353.121383	-1220.529000	1964.190430	69.259621
12353.121383	-1220.529000	1963.219727	-188.818497
12353.121383	-1220.529000	1962.249023	308.909943
12353.121383	-1220.529000	1961.277344	262.531219
12353.121383	-1220.529000	1960.306641	48.840324
12353.121383	-1220.529000	1959.334961	-46.681728
12353.121383	-1220.529000	1958.363281	101.352089
12353.121383	-1220.529000	1957.391602	207.525406
12353.121383	-1220.529000	1956.419922	153.834854
12353.121383	-1220.529000	1955.447266	-44.877884
12353.121383	-1220.529000	1954.474609	-243.510239
12353.121383	-1220.529000	1953.501953	135.452759
12353.121383	-1220.529000	1952.529297	89.215469
12353.121383	-1220.529000	1951.556641	121.616974
12353.121383	-1220.529000	1950.583984	-231.595535
12353.121383	-1220.529000	1949.610352	100.468117
12353.121383	-1220.529000	1948.636719	-16.882919
12353.121383	-1220.529000	1947.663086	108.845428
12353.121383	-1220.529000	1946.689453	192.819046
12353.121383	-1220.529000	1945.715820	1.946945
12353.121383	-1220.529000	1944.741211	233.145447
12353.121383	-1220.529000	1943.767578	218.982513
12353.121383	-1220.529000	1942.792969	-160.577240
12353.121383	-1220.529000	1941.818359	107.357826
12353.121383	-1220.529000	1940.842773	-51.362522
12353.121383	-1220.529000	1939.868164	-1.657053
12353.121383	-1220.529000	1938.892578	-5.865855
12353.121383	-1220.529000	1937.916992	-100.709923
12353.121383	-1220.529000	1936.941406	-65.661606
12353.121383	-1220.529000	1935.965820	-224.097610
12353.121383	-1220.529000	1934.990234	144.043793
12353.121383	-1220.529000	1934.013672	-19.227665
12353.121383	-1220.529000	1933.037109	64.822739
12353.121383	-1220.529000	1932.060547	168.444077
12353.121383	-1220.529000	1931.083984	-19.144884
12353.121383	-1220.529000	1930.107422	-169.944168
12353.121383	-1220.529000	1929.129883	-78.503708
12353.121383	-1220.529000	1928.153320	0.697032
12353.121383	-1220.529000	1927.175781	-35.033611
12353.121383	-1220.529000	1926.198242	156.628448
12353.121383	-1220.529000	1925.219727	42.707413
12353.121383	-1220.529000	1924.242188	202.556503
12353.121383	-1220.529000	1923.263672	181.557312
12353.121383	-1220.529000	1922.285156	35.998520
12353.121383	-1220.529000	1921.306641	-89.946419
12353.121383	-1220.529000	1920.328125	89.424225
12353.121383	-1220.529000	1919.349609	68.540657
12353.121383	-1220.529000	1918.370117	189.264862
12353.121383	-1220.529000	1917.391602	82.985649
12353.121383	-1220.529000	1916.412109	23.125673
12353.121383	-1220.529000	1915.431641	85.290855
12353.121383	-1220.529000	1914.452148	-81.841141
12353.121383	-1220.529000	1913.472656	34.005611
12353.121383	-1220.529000	1912.492188	205.905914
12353.121383	-1220.529000	1911.511719	-136.638245
12353.121383	-1220.529000	1910.531250	32.820637
12353.121383	-1220.529000	1909.550781	-4.914472
12353.121383	-1220.529000	1908.569336	325.290741
12353.121383	-1220.529000	1907.588867	124.322510
12353.121383	-1220.529000	1906.607422	45.218773
12353.121383	-1220.529000	1905.625977	61.126781
12353.121383	-1220.529000	1904.644531	-17.917233
12353.121383	-1220.529000	1903.662109	-165.081757
12353.121383	-1220.529000	1902.680664	13.944038
12353.121383	-1220.529000	1901.698242	-147.759949
12353.121383	-1220.529000	1900.715820	106.626251
12353.121383	-1220.529000	1899.733398	156.596741
12353.121383	-1220.529000	1898.750000	-202.020905
12353.121383	-1220.529000	1897.767578	-207.930710
12353.121383	-1220.529000	1896.784180	-116.595734
12353.121383	-1220.529000	1895.800781	-0.988177
12353.121383	-1220.529000	1894.817383	175.328415
12353.121383	-1220.529000	1893.833984	-163.520111
12353.121383	-1220.529000	1892.850586	10.327484
12353.121383	-1220.529000	1891.866211	-199.645157
12353.121383	-1220.529000	1890.881836	83.408112
12353.121383	-1220.529000	1889.897461	19.161905
12353.121383	-1220.529000	1888.913086	-214.988434
12353.121383	-1220.529000	1887.927734	169.818619
12353.121383	-1220.529000	1886.943359	3.650464
12353.121383	-1220.529000	1885.958008	-218.265808
12353.121383	-1220.529000	1884.972656	-56.865353
12353.121383	-1220.529000	1883.987305	-19.221651
12353.121383	-1220.529000	1883.001953	59.613308
12353.121383	-1220.529000	1882.015625	114.159119
12353.121383	-1220.529000	1881.029297	-197.327011
12353.121383	-1220.529000	1880.042969	-33.738869
12353.121383	-1220.529000	1879.056641	122.499428
12353.121383	-1220.529000	1878.070313	19.456945
12353.121383	-1220.529000	1877.083984	-151.385147
12353.121383	-1220.529000	1876.096680	297.724030
12353.121383	-1220.529000	1875.109375	-76.525612
12353.121383	-1220.529000	1874.122070	38.304108
12353.121383	-1220.529000	1873.134766	-42.970703
12353.121383	-1220.529000	1872.146484	93.529617
12353.121383	-1220.529000	1871.159180	50.924698
12353.121383	-1220.529000	1870.170898	124.405762
12353.121383	-1220.529000	1869.182617	-97.213112
12353.121383	-1220.529000	1868.194336	-154.365845
12353.121383	-1220.529000	1867.205078	-93.078194
12353.121383	-1220.529000	1866.216797	74.498268
12353.121383	-1220.529000	1865.227539	92.147217
12353.121383	-1220.529000	1864.238281	133.911407
12353.121383	-1220.529000	1863.249023	412.350067
12353.121383	-1220.529000	1862.259766	2.317408
12353.121383	-1220.529000	1861.269531	217.806946
12353.121383	-1220.529000	1860.279297	240.029526
12353.121383	-1220.529000	1859.290039	64.266510
12353.121383	-1220.529000	1858.298828	1.947063
12353.121383	-1220.529000	1857.308594	250.869934
12353.121383	-1220.529000	1856.318359	43.693596
12353.121383	-1220.529000	1855.327148	-30.796673
12353.121383	-1220.529000	1854.335938	140.666901
12353.121383	-1220.529000	1853.344727	-8.664018
12353.121383	-1220.529000	1852.353516	-157.993790
12353.121383	-1220.529000	1851.362305	-18.100050
12353.121383	-1220.529000	1850.370117	150.598129
12353.121383	-1220.529000	1849.377930	18.012365
12353.121383	-1220.529000	1848.385742	196.156067
12353.121383	-1220.529000	1847.393555	244.119827
12353.121383	-1220.529000	1846.401367	-30.661062
12353.121383	-1220.529000	1845.408203	82.199715
12353.121383	-1220.529000	1844.415039	-67.413246
12353.121383	-1220.529000	1843.421875	208.926605
12353.121383	-1220.529000	1842.428711	275.763000
12353.121383	-1220.529000	1841.435547	205.381851
12353.121383	-1220.529000	1840.441406	74.824486
12353.121383	-1220.529000	1839.448242	196.746933
12353.121383	-1220.529000	1838.454102	-20.459475
12353.121383	-1220.529000	1837.459961	33.979031
12353.121383	-1220.529000	1836.464844	25.830072
12353.121383	-1220.529000	1835.470703	245.890915
12353.121383	-1220.529000	1834.475586	-9.905671
12353.121383	-1220.529000	1833.480469	-18.273844
12353.121383	-1220.529000	1832.485352	11.707180
12353.121383	-1220.529000	1831.490234	120.834175
12353.121383	-1220.529000	1830.495117	229.837524
12353.121383	-1220.529000	1829.499023	374.717804
12353.121383	-1220.529000	1828.502930	63.500492
12353.121383	-1220.529000	1827.506836	200.989273
12353.121383	-1220.529000	1826.510742	290.363800
12353.121383	-1220.529000	1825.513672	22.247372
12353.121383	-1220.529000	1824.517578	82.669586
12353.121383	-1220.529000	1823.520508	-5.670804
12353.121383	-1220.529000	1822.523438	95.301109
12353.121383	-1220.529000	1821.526367	227.299210
12353.121383	-1220.529000	1820.529297	172.254227
12353.121383	-1220.529000	1819.531250	145.880814
12353.121383	-1220.529000	1818.533203	284.695679
12353.121383	-1220.529000	1817.535156	449.705780
12353.121383	-1220.529000	1816.537109	221.882858
12353.121383	-1220.529000	1815.539063	58.684063
12353.121383	-1220.529000	1814.540039	156.329544
12353.121383	-1220.529000	1813.541992	217.949631
12353.121383	-1220.529000	1812.542969	217.235382
12353.121383	-1220.529000	1811.543945	163.794113
12353.121383	-1220.529000	1810.543945	2.642508
12353.121383	-1220.529000	1809.544922	-148.980850
12353.121383	-1220.529000	1808.544922	194.227676
12353.121383	-1220.529000	1807.544922	-38.857555
12353.121383	-1220.529000	1806.544922	-6.688451
12353.121383	-1220.529000	1805.544922	104.213768
12353.121383	-1220.529000	1804.544922	74.019310
12353.121383	-1220.529000	1803.543945	-1.658061
12353.121383	-1220.529000	1802.542969	99.299744
12353.121383	-1220.529000	1801.541992	-12.384292
12353.121383	-1220.529000	1800.541016	112.190575
12353.121383	-1220.529000	1799.539063	-123.787056
12353.121383	-1220.529000	1798.538086	-1.845730
12353.121383	-1220.529000	1797.536133	50.743866
12353.121383	-1220.529000	1796.534180	110.357384
12353.121383	-1220.529000	1795.532227	196.068481
12353.121383	-1220.529000	1794.529297	-149.952240
12353.121383	-1220.529000	1793.527344	-178.882584
12353.121383	-1220.529000	1792.524414	-148.335037
12353.121383	-1220.529000	1791.521484	-89.317131
12353.121383	-1220.529000	1790.518555	276.919708
12353.121383	-1220.529000	1789.514648	-36.021774
12353.121383	-1220.529000	1788.511719	-206.052582
12353.121383	-1220.529000	1787.507813	78.677650
12353.121383	-1220.529000	1786.503906	-105.836975
12353.121383	-1220.529000	1785.500000	57.131683
12353.121383	-1220.529000	1784.496094	108.064713
12353.121383	-1220.529000	1783.491211	123.160004
12353.121383	-1220.529000	1782.486328	-80.739212
12353.121383	-1220.529000	1781.481445	91.130424
12353.121383	-1220.529000	1780.476563	124.884857
12353.121383	-1220.529000	1779.471680	120.463264
12353.121383	-1220.529000	1778.465820	-105.165443
12353.121383	-1220.529000	1777.460938	130.268097
12353.121383	-1220.529000	1776.455078	270.430389
12353.121383	-1220.529000	1775.449219	-140.779770
12353.121383	-1220.529000	1774.442383	-169.525681
12353.121383	-1220.529000	1773.436523	-117.625847
12353.121383	-1220.529000	1772.429688	74.217194
12353.121383	-1220.529000	1771.422852	128.170380
12353.121383	-1220.529000	1770.416016	13.455308
12353.121383	-1220.529000	1769.409180	0.704686
12353.121383	-1220.529000	1768.402344	-296.886230
12353.121383	-1220.529000	1767.394531	-70.232422
12353.121383	-1220.529000	1766.386719	-178.211212
12353.121383	-1220.529000	1765.378906	19.630529
12353.121383	-1220.529000	1764.371094	-169.181808
12353.121383	-1220.529000	1763.362305	-109.160286
12353.121383	-1220.529000	1762.354492	121.362740
12353.121383	-1220.529000	1761.345703	131.298615
12353.121383	-1220.529000	1760.336914	62.926086
12353.121383	-1220.529000	1759.328125	-5.544780
12353.121383	-1220.529000	1758.318359	8.763126
12353.121383	-1220.529000	1757.308594	37.146538
12353.121383	-1220.529000	1756.299805	115.121414
12353.121383	-1220.529000	1755.290039	-133.693192
12353.121383	-1220.529000	1754.279297	-58.353088
12353.121383	-1220.529000	1753.269531	68.897507
12353.121383	-1220.529000	1752.258789	106.074486
12353.121383	-1220.529000	1751.249023	-72.090286
12353.121383	-1220.529000	1750.238281	298.258514
12353.121383	-1220.529000	1749.226563	119.856163
12353.121383	-1220.529000	1748.215820	128.139374
12353.121383	-1220.529000	1747.204102	-168.570374
12353.121383	-1220.529000	1746.193359	-115.585899
12353.121383	-1220.529000	1745.181641	-32.047062
12353.121383	-1220.529000	1744.168945	-88.025131
12353.121383	-1220.529000	1743.157227	-2.403474
12353.121383	-1220.529000	1742.144531	99.576828
12353.121383	-1220.529000	1741.132813	135.316086
12353.121383	-1220.529000	1740.120117	-79.259216
12353.121383	-1220.529000	1739.106445	-88.598183
12353.121383	-1220.529000	1738.093750	-211.282211
12353.121383	-1220.529000	1737.080078	-164.223343
12353.121383	-1220.529000	1736.067383	118.540504
12353.121383	-1220.529000	1735.053711	-216.686325
12353.121383	-1220.529000	1734.040039	-151.149994
12353.121383	-1220.529000	1733.025391	-106.982605
12353.121383	-1220.529000	1732.011719	76.097191
12353.121383	-1220.529000	1730.997070	-16.679296
12353.121383	-1220.529000	1729.982422	-15.311666
12353.121383	-1220.529000	1728.967773	73.077652
12353.121383	-1220.529000	1727.952148	10.606125
12353.121383	-1220.529000	1726.937500	277.648010
12353.121383	-1220.529000	1725.921875	174.916107
12353.121383	-1220.529000	1724.906250	105.057877
12353.121383	-1220.529000	1723.890625	-110.763870
12353.121383	-1220.529000	1722.875000	-27.858980
12353.121383	-1220.529000	1721.858398	24.313332
12353.121383	-1220.529000	1720.841797	-60.032558
12353.121383	-1220.529000	1719.825195	337.510345
12353.121383	-1220.529000	1718.808594	39.009224
12353.121383	-1220.529000	1717.791992	-188.982422
12353.121383	-1220.529000	1716.774414	45.886326
12353.121383	-1220.529000	1715.756836	-172.853180
12353.121383	-1220.529000	1714.739258	-372.823151
12353.121383	-1220.529000	1713.721680	-44.440742
12353.121383	-1220.529000	1712.704102	-40.300789
12353.121383	-1220.529000	1711.685547	294.708923
12353.121383	-1220.529000	1710.667969	150.710236
12353.121383	-1220.529000	1709.649414	-37.934681
12353.121383	-1220.529000	1708.630859	-92.881203
12353.121383	-1220.529000	1707.611328	70.222839
12353.121383	-1220.529000	1706.592773	104.193382
12353.121383	-1220.529000	1705.573242	4.382199
12353.121383	-1220.529000	1704.553711	108.468315
12353.121383	-1220.529000	1703.534180	242.886292
12353.121383	-1220.529000	1702.513672	107.648087
12353.121383	-1220.529000	1701.494141	283.994415
12353.121383	-1220.529000	1700.473633	108.785988
12353.121383	-1220.529000	1699.453125	235.676956
12353.121383	-1220.529000	1698.432617	301.545319
12353.121383	-1220.529000	1697.412109	161.271011
12353.121383	-1220.529000	1696.390625	224.588226
12353.121383	-1220.529000	1695.369141	100.567490
12353.121383	-1220.529000	1694.347656	369.596588
12353.121383	-1220.529000	1693.326172	315.600494
12353.121383	-1220.529000	1692.304688	266.215027
12353.121383	-1220.529000	1691.282227	340.685822
12353.121383	-1220.529000	1690.260742	316.862854
12353.121383	-1220.529000	1689.238281	159.706833
12353.121383	-1220.529000	1688.214844	502.656189
12353.121383	-1220.529000	1687.192383	422.471619
12353.121383	-1220.529000	1686.168945	482.392670
12353.121383	-1220.529000	1685.146484	161.498642
12353.121383	-1220.529000	1684.123047	368.415649
12353.121383	-1220.529000	1683.099609	311.334320
12353.121383	-1220.529000	1682.075195	417.591583
12353.121383	-1220.529000	1681.051758	355.704742
12353.121383	-1220.529000	1680.027344	480.432251
12353.121383	-1220.529000	1679.002930	395.062714
12353.121383	-1220.529000	1677.978516	526.589600
12353.121383	-1220.529000	1676.953125	387.443268
12353.121383	-1220.529000	1675.928711	201.667114
12353.121383	-1220.529000	1674.903320	512.438965
12353.121383	-1220.529000	1673.877930	594.604370
12353.121383	-1220.529000	1672.852539	431.983032
12353.121383	-1220.529000	1671.826172	583.882019
12353.121383	-1220.529000	1670.800781	495.741882
12353.121383	-1220.529000	1669.774414	486.743744
12353.121383	-1220.529000	1668.748047	542.889832
12353.121383	-1220.529000	1667.721680	878.333801
12353.121383	-1220.529000	1666.694336	545.523193
12353.121383	-1220.529000	1665.667969	785.305237
12353.121383	-1220.529000	1664.640625	713.132202
12353.121383	-1220.529000	1663.613281	450.172546
12353.121383	-1220.529000	1662.585938	845.490173
12353.121383	-1220.529000	1661.557617	735.966003
12353.121383	-1220.529000	1660.530273	998.451721
12353.121383	-1220.529000	1659.501953	835.377563
12353.121383	-1220.529000	1658.473633	974.451477
12353.121383	-1220.529000	1657.444336	1159.882324
12353.121383	-1220.529000	1656.416016	1201.176392
12353.121383	-1220.529000	1655.386719	1077.478516
12353.121383	-1220.529000	1654.358398	1297.508179
12353.121383	-1220.529000	1653.328125	1083.187744
12353.121383	-1220.529000	1652.298828	1395.888672
12353.121383	-1220.529000	1651.269531	1402.067871
12353.121383	-1220.529000	1650.239258	1324.650757
12353.121383	-1220.529000	1649.208984	1275.070313
12353.121383	-1220.529000	1648.178711	1234.755615
12353.121383	-1220.529000	1647.148438	1600.276489
12353.121383	-1220.529000	1646.117188	1712.868896
12353.121383	-1220.529000	1645.086914	1660.811401
12353.121383	-1220.529000	1644.055664	1689.851807
12353.121383	-1220.529000	1643.024414	1670.190796
12353.121383	-1220.529000	1641.992188	1998.030884
12353.121383	-1220.529000	1640.960938	1769.791504
12353.121383	-1220.529000	1639.928711	2176.187012
12353.121383	-1220.529000	1638.896484	2010.461304
12353.121383	-1220.529000	1637.864258	2138.801270
12353.121383	-1220.529000	1636.832031	2230.040283
12353.121383	-1220.529000	1635.798828	2138.385254
12353.121383	-1220.529000	1634.766602	2167.089111
12353.121383	-1220.529000	1633.733398	2221.197021
12353.121383	-1220.529000	1632.699219	2279.878174
12353.121383	-1220.529000	1631.666016	2336.235352
12353.121383	-1220.529000	1630.632813	2538.217285
12353.121383	-1220.529000	1629.598633	2684.621094
12353.121383	-1220.529000	1628.564453	2072.928223
12353.121383	-1220.529000	1627.530273	2552.085693
12353.121383	-1220.529000	1626.495117	2698.372314
12353.121383	-1220.529000	1625.460938	2544.355957
12353.121383	-1220.529000	1624.425781	2681.350586
12353.121383	-1220.529000	1623.390625	2721.324951
12353.121383	-1220.529000	1622.355469	3022.133545
12353.121383	-1220.529000	1621.319336	2775.834961
12353.121383	-1220.529000	1620.284180	3000.383301
12353.121383	-1220.529000	1619.248047	2419.679199
12353.121383	-1220.529000	1618.211914	2768.766846
12353.121383	-1220.529000	1617.174805	3166.140381
12353.121383	-1220.529000	1616.138672	3159.897949
12353.121383	-1220.529000	1615.101563	3183.620361
12353.121383	-1220.529000	1614.065430	2896.224121
12353.121383	-1220.529000	1613.027344	3362.438477
12353.121383	-1220.529000	1611.990234	3591.209473
12353.121383	-1220.529000	1610.953125	3485.913574
12353.121383	-1220.529000	1609.915039	3827.445557
12353.121383	-1220.529000	1608.876953	3510.337646
12353.121383	-1220.529000	1607.838867	3877.103271
12353.121383	-1220.529000	1606.800781	3684.454590
12353.121383	-1220.529000	1605.761719	3733.515137
12353.121383	-1220.529000	1604.723633	3409.884766
12353.121383	-1220.529000	1603.684570	3677.572021
12353.121383	-1220.529000	1602.644531	3839.377197
12353.121383	-1220.529000	1601.605469	3509.099609
12353.121383	-1220.529000	1600.566406	3850.281982
12353.121383	-1220.529000	1599.526367	4007.471924
12353.121383	-1220.529000	1598.486328	3957.814697
12353.121383	-1220.529000	1597.446289	3786.442627
12353.121383	-1220.529000	1596.405273	3932.172363
12353.121383	-1220.529000	1595.365234	3524.398193
12353.121383	-1220.529000	1594.324219	3638.065186
12353.121383	-1220.529000	1593.283203	3421.136475
12353.121383	-1220.529000	1592.242188	3734.570557
12353.121383	-1220.529000	1591.200195	3974.477783
12353.121383	-1220.529000	1590.159180	4060.632324
12353.121383	-1220.529000	1589.117188	3871.505127
12353.121383	-1220.529000	1588.075195	4033.422852
12353.121383	-1220.529000	1587.032227	3805.485352
12353.121383	-1220.529000	1585.990234	4093.564941
12353.121383	-1220.529000	1584.947266	4023.986084
12353.121383	-1220.529000	1583.904297	4254.717285
12353.121383	-1220.529000	1582.861328	4185.256348
12353.121383	-1220.529000	1581.818359	4115.886230
12353.121383	-1220.529000	1580.775391	4241.295410
12353.121383	-1220.529000	1579.731445	4510.975098
12353.121383	-1220.529000	1578.687500	3954.092041
12353.121383	-1220.529000	1577.643555	4127.717285
12353.121383	-1220.529000	1576.598633	4159.432129
12353.121383	-1220.529000	1575.554688	4129.443359
12353.121383	-1220.529000	1574.509766	3909.641602
12353.121383	-1220.529000	1573.464844	3715.160400
12353.121383	-1220.529000	1572.419922	3804.401367
12353.121383	-1220.529000	1571.374023	3811.357422
12353.121383	-1220.529000	1570.329102	3692.680420
12353.121383	-1220.529000	1569.283203	3558.117432
12353.121383	-1220.529000	1568.237305	3272.874512
12353.121383	-1220.529000	1567.191406	3405.911621
12353.121383	-1220.529000	1566.144531	3130.100342
12353.121383	-1220.529000	1565.098633	3085.154785
12353.121383	-1220.529000	1564.051758	2960.383545
12353.121383	-1220.529000	1563.004883	3034.356689
12353.121383	-1220.529000	1561.957031	2973.717773
12353.121383	-1220.529000	1560.910156	3143.682129
12353.121383	-1220.529000	1559.862305	2722.757813
12353.121383	-1220.529000	1558.814453	2765.140137
12353.121383	-1220.529000	1557.766602	2704.978516
12353.121383	-1220.529000	1556.718750	2815.946289
12353.121383	-1220.529000	1555.669922	2833.486328
12353.121383	-1220.529000	1554.621094	2743.996338
12353.121383	-1220.529000	1553.573242	2663.773926
12353.121383	-1220.529000	1552.523438	2686.180908
12353.121383	-1220.529000	1551.474609	2915.985107
12353.121383	-1220.529000	1550.424805	2405.623779
12353.121383	-1220.529000	1549.375000	2517.186279
12353.121383	-1220.529000	1548.325195	2528.645996
12353.121383	-1220.529000	1547.275391	2817.892822
12353.121383	-1220.529000	1546.225586	2590.566650
12353.121383	-1220.529000	1545.174805	2575.019531
12353.121383	-1220.529000	1544.124023	2627.833496
12353.121383	-1220.529000	1543.073242	2787.634766
12353.121383	-1220.529000	1542.022461	2376.750732
12353.121383	-1220.529000	1540.970703	2484.467285
12353.121383	-1220.529000	1539.919922	2249.057861
12353.121383	-1220.529000	1538.868164	2161.557861
12353.121383	-1220.529000	1537.815430	2185.531494
12353.121383	-1220.529000	1536.763672	2266.419434
12353.121383	-1220.529000	1535.710938	1725.087891
12353.121383	-1220.529000	1534.659180	1890.297363
12353.121383	-1220.529000	1533.606445	2069.176758
12353.121383	-1220.529000	1532.552734	1882.656738
12353.121383	-1220.529000	1531.500000	1925.557861
12353.121383	-1220.529000	1530.446289	1578.302246
12353.121383	-1220.529000	1529.393555	1503.541626
12353.121383	-1220.529000	1528.338867	2034.481323
12353.121383	-1220.529000	1527.285156	1851.066406
12353.121383	-1220.529000	1526.231445	1661.056641
12353.121383	-1220.529000	1525.176758	1464.442993
12353.121383	-1220.529000	1524.122070	1279.373291
12353.121383	-1220.529000	1523.067383	1500.087036
12353.121383	-1220.529000	1522.012695	1655.157349
12353.121383	-1220.529000	1520.957031	2000.542114
12353.121383	-1220.529000	1519.901367	1496.763916
12353.121383	-1220.529000	1518.845703	1235.571899
12353.121383	-1220.529000	1517.790039	1592.574219
12353.121383	-1220.529000	1516.734375	1365.695435
12353.121383	-1220.529000	1515.677734	1290.636597
12353.121383	-1220.529000	1514.621094	1080.019165
12353.121383	-1220.529000	1513.564453	1089.021484
12353.121383	-1220.529000	1512.507813	770.275391
12353.121383	-1220.529000	1511.450195	983.093506
12353.121383	-1220.529000	1510.393555	1046.798340
12353.121383	-1220.529000	1509.335938	730.942322
12353.121383	-1220.529000	1508.278320	855.966248
12353.121383	-1220.529000	1507.219727	856.831787
12353.121383	-1220.529000	1506.162109	871.411011
12353.121383	-1220.529000	1505.103516	816.122681
12353.121383	-1220.529000	1504.044922	654.895264
12353.121383	-1220.529000	1502.986328	782.819275
12353.121383	-1220.529000	1501.926758	215.732147
12353.121383	-1220.529000	1500.868164	592.201599
12353.121383	-1220.529000	1499.808594	497.181000
12353.121383	-1220.529000	1498.749023	490.316803
12353.121383	-1220.529000	1497.688477	479.095337
12353.121383	-1220.529000	1496.628906	195.239365
12353.121383	-1220.529000	1495.568359	170.873352
12353.121383	-1220.529000	1494.507813	250.346191
12353.121383	-1220.529000	1493.447266	235.312805
12353.121383	-1220.529000	1492.386719	245.226852
12353.121383	-1220.529000	1491.325195	117.897766
12353.121383	-1220.529000	1490.263672	150.667923
12353.121383	-1220.529000	1489.202148	21.483187
12353.121383	-1220.529000	1488.140625	18.570627
12353.121383	-1220.529000	1487.079102	-283.502838
12353.121383	-1220.529000	1486.016602	-13.766943
12353.121383	-1220.529000	1484.954102	-151.163330
12353.121383	-1220.529000	1483.891602	141.263550
12353.121383	-1220.529000	1482.829102	-135.194839
12353.121383	-1220.529000	1481.765625	-143.827408
12353.121383	-1220.529000	1480.702148	32.054367
12353.121383	-1220.529000	1479.638672	142.861053
12353.121383	-1220.529000	1478.575195	152.684860
12353.121383	-1220.529000	1477.511719	-189.979691
12353.121383	-1220.529000	1476.447266	-177.469635
12353.121383	-1220.529000	1475.382813	82.133186
12353.121383	-1220.529000	1474.318359	-127.223625
12353.121383	-1220.529000	1473.253906	175.302063
12353.121383	-1220.529000	1472.189453	38.175415
12353.121383	-1220.529000	1471.124023	387.917572
12353.121383	-1220.529000	1470.058594	571.709412
12353.121383	-1220.529000	1468.993164	630.121643
12353.121383	-1220.529000	1467.927734	639.472839
12353.121383	-1220.529000	1466.861328	682.298340
12353.121383	-1220.529000	1465.794922	817.510864
12353.121383	-1220.529000	1464.728516	876.050110
12353.121383	-1220.529000	1463.662109	1170.164307
12353.121383	-1220.529000	1462.594727	1046.278076
12353.121383	-1220.529000	1461.528320	1241.970581
12353.121383	-1220.529000	1460.460938	1147.593140
12353.121383	-1220.529000	1459.393555	1431.195801
12353.121383	-1220.529000	1458.326172	1429.978149
12353.121383	-1220.529000	1457.257813	1418.307007
12353.121383	-1220.529000	1456.189453	1783.817871
12353.121383	-1220.529000	1455.121094	1543.647827
12353.121383	-1220.529000	1454.052734	1463.948975
12353.121383	-1220.529000	1452.984375	1645.106445
12353.121383	-1220.529000	1451.915039	1535.282471
12353.121383	-1220.529000	1450.845703	1413.930420
12353.121383	-1220.529000	1449.776367	1607.716309
12353.121383	-1220.529000	1448.707031	1753.985718
12353.121383	-1220.529000	1447.636719	1562.562134
12353.121383	-1220.529000	1446.567383	1718.388794
12353.121383	-1220.529000	1445.497070	1420.208130
12353.121383	-1220.529000	1444.425781	1577.190552
12353.121383	-1220.529000	1443.355469	1003.964050
12353.121383	-1220.529000	1442.285156	1174.881470
12353.121383	-1220.529000	1441.213867	1229.415283
12353.121383	-1220.529000	1440.142578	1242.948608
12353.121383	-1220.529000	1439.070313	1655.554077
12353.121383	-1220.529000	1437.999023	1364.693604
12353.121383	-1220.529000	1436.926758	1258.991211
12353.121383	-1220.529000	1435.854492	1186.547852
12353.121383	-1220.529000	1434.782227	1003.312683
12353.121383	-1220.529000	1433.709961	1023.551025
12353.121383	-1220.529000	1432.636719	962.162598
12353.121383	-1220.529000	1431.563477	1087.620605
12353.121383	-1220.529000	1430.490234	1068.964111
12353.121383	-1220.529000	1429.416992	826.221985
12353.121383	-1220.529000	1428.343750	814.331604
12353.121383	-1220.529000	1427.269531	628.968689
12353.121383	-1220.529000	1426.195313	381.142792
12353.121383	-1220.529000	1425.121094	800.097778
12353.121383	-1220.529000	1424.046875	907.460388
12353.121383	-1220.529000	1422.971680	638.135376
12353.121383	-1220.529000	1421.896484	600.080872
12353.121383	-1220.529000	1420.821289	623.577820
12353.121383	-1220.529000	1419.746094	440.280151
12353.121383	-1220.529000	1418.669922	467.751526
12353.121383	-1220.529000	1417.594727	699.248474
12353.121383	-1220.529000	1416.518555	819.896790
12353.121383	-1220.529000	1415.442383	927.770813
12353.121383	-1220.529000	1414.365234	808.987488
12353.121383	-1220.529000	1413.289063	1044.393677
12353.121383	-1220.529000	1412.211914	675.331543
12353.121383	-1220.529000	1411.134766	670.399841
12353.121383	-1220.529000	1410.057617	711.176331
12353.121383	-1220.529000	1408.979492	984.200500
12353.121383	-1220.529000	1407.902344	845.224060
12353.121383	-1220.529000	1406.824219	656.576660
12353.121383	-1220.529000	1405.746094	878.489258
12353.121383	-1220.529000	1404.666992	816.597778
12353.121383	-1220.529000	1403.588867	531.281250
12353.121383	-1220.529000	1402.509766	760.433350
12353.121383	-1220.529000	1401.430664	627.879822
12353.121383	-1220.529000	1400.351563	1009.145630
12353.121383	-1220.529000	1399.271484	872.783325
12353.121383	-1220.529000	1398.192383	716.184082
12353.121383	-1220.529000	1397.112305	496.315186
12353.121383	-1220.529000	1396.031250	548.475342
12353.121383	-1220.529000	1394.951172	790.173889
12353.121383	-1220.529000	1393.871094	890.936340
12353.121383	-1220.529000	1392.790039	545.466614
12353.121383	-1220.529000	1391.708984	823.512878
12353.121383	-1220.529000	1390.626953	779.625000
12353.121383	-1220.529000	1389.545898	602.492432
12353.121383	-1220.529000	1388.463867	739.438293
12353.121383	-1220.529000	1387.381836	857.016846
12353.121383	-1220.529000	1386.299805	571.158997
12353.121383	-1220.529000	1385.217773	558.190125
12353.121383	-1220.529000	1384.134766	745.350464
12353.121383	-1220.529000	1383.051758	892.859497
12353.121383	-1220.529000	1381.968750	616.515320
12353.121383	-1220.529000	1380.885742	780.785950
12353.121383	-1220.529000	1379.802734	720.852234
12353.121383	-1220.529000	1378.718750	803.540833
12353.121383	-1220.529000	1377.634766	1120.863647
12353.121383	-1220.529000	1376.550781	810.739624
12353.121383	-1220.529000	1375.465820	795.040894
12353.121383	-1220.529000	1374.381836	799.653870
12353.121383	-1220.529000	1373.296875	869.725891
12353.121383	-1220.529000	1372.211914	794.721069
12353.121383	-1220.529000	1371.126953	974.171753
12353.121383	-1220.529000	1370.041016	1192.181030
12353.121383	-1220.529000	1368.955078	1173.533081
12353.121383	-1220.529000	1367.869141	1300.246460
12353.121383	-1220.529000	1366.783203	1399.365234
12353.121383	-1220.529000	1365.697266	1391.198853
12353.121383	-1220.529000	1364.610352	1536.173584
12353.121383	-1220.529000	1363.523438	1737.015869
12353.121383	-1220.529000	1362.436523	1477.576538
12353.121383	-1220.529000	1361.349609	1955.131714
12353.121383	-1220.529000	1360.261719	1247.223389
12353.121383	-1220.529000	1359.174805	1292.499634
12353.121383	-1220.529000	1358.086914	1674.761719
12353.121383	-1220.529000	1356.998047	1758.384033
12353.121383	-1220.529000	1355.910156	1569.570679
12353.121383	-1220.529000	1354.821289	1524.785645
12353.121383	-1220.529000	1353.732422	1556.049438
12353.121383	-1220.529000	1352.643555	1652.778931
12353.121383	-1220.529000	1351.554688	1935.268066
12353.121383	-1220.529000	1350.464844	1312.815430
12353.121383	-1220.529000	1349.375000	1416.891968
12353.121383	-1220.529000	1348.285156	1538.848389
12353.121383	-1220.529000	1347.195313	1349.851440
12353.121383	-1220.529000	1346.105469	1497.894165
12353.121383	-1220.529000	1345.014648	1337.629395
12353.121383	-1220.529000	1343.923828	1176.222656
12353.121383	-1220.529000	1342.833008	1036.622192
12353.121383	-1220.529000	1341.741211	991.533691
12353.121383	-1220.529000	1340.650391	1062.923340
12353.121383	-1220.529000	1339.558594	865.961609
12353.121383	-1220.529000	1338.466797	878.911316
12353.121383	-1220.529000	1337.374023	979.464844
12353.121383	-1220.529000	1336.282227	821.007446
12353.121383	-1220.529000	1335.189453	855.401855
12353.121383	-1220.529000	1334.096680	822.041138
12353.121383	-1220.529000	1333.003906	649.351990
12353.121383	-1220.529000	1331.910156	1027.923828
12353.121383	-1220.529000	1330.817383	804.957031
12353.121383	-1220.529000	1329.723633	626.208130
12353.121383	-1220.529000	1328.629883	550.739563
12353.121383	-1220.529000	1327.535156	791.918457
12353.121383	-1220.529000	1326.441406	652.405457
12353.121383	-1220.529000	1325.346680	733.375671
12353.121383	-1220.529000	1324.251953	682.836426
12353.121383	-1220.529000	1323.156250	846.698303
12353.121383	-1220.529000	1322.061523	673.892578
12353.121383	-1220.529000	1320.965820	677.850891
12353.121383	-1220.529000	1319.870117	488.631104
12353.121383	-1220.529000	1318.774414	403.780731
12353.121383	-1220.529000	1317.678711	447.749725
12353.121383	-1220.529000	1316.582031	721.507751
12353.121383	-1220.529000	1315.485352	628.051636
12353.121383	-1220.529000	1314.388672	501.590973
12353.121383	-1220.529000	1313.291016	461.320404
12353.121383	-1220.529000	1312.194336	530.296326
12353.121383	-1220.529000	1311.096680	696.827148
12353.121383	-1220.529000	1309.999023	495.356445
12353.121383	-1220.529000	1308.901367	504.285278
12353.121383	-1220.529000	1307.802734	633.957031
12353.121383	-1220.529000	1306.705078	701.997620
12353.121383	-1220.529000	1305.606445	598.028748
12353.121383	-1220.529000	1304.506836	685.416504
12353.121383	-1220.529000	1303.408203	902.593018
12353.121383	-1220.529000	1302.308594	1056.334717
12353.121383	-1220.529000	1301.208984	1032.178223
12353.121383	-1220.529000	1300.109375	1152.296143
12353.121383	-1220.529000	1299.009766	1179.470215
12353.121383	-1220.529000	1297.909180	1436.243896
12353.121383	-1220.529000	1296.808594	1093.657349
12353.121383	-1220.529000	1295.708008	1342.572510
12353.121383	-1220.529000	1294.607422	1379.466553
12353.121383	-1220.529000	1293.506836	1147.185913
12353.121383	-1220.529000	1292.405273	1148.701782
12353.121383	-1220.529000	1291.303711	894.810059
12353.121383	-1220.529000	1290.202148	1048.077637
12353.121383	-1220.529000	1289.099609	1088.729980
12353.121383	-1220.529000	1287.998047	1062.925781
12353.121383	-1220.529000	1286.895508	987.925659
12353.121383	-1220.529000	1285.792969	771.732056
12353.121383	-1220.529000	1284.689453	768.621460
12353.121383	-1220.529000	1283.586914	638.269592
12353.121383	-1220.529000	1282.483398	760.115295
12353.121383	-1220.529000	1281.379883	561.977234
12353.121383	-1220.529000	1280.276367	685.721252
12353.121383	-1220.529000	1279.171875	782.547852
12353.121383	-1220.529000	1278.067383	426.127075
12353.121383	-1220.529000	1276.962891	518.785706
12353.121383	-1220.529000	1275.858398	427.493073
12353.121383	-1220.529000	1274.753906	381.099487
12353.121383	-1220.529000	1273.648438	329.288025
12353.121383	-1220.529000	1272.542969	392.474579
12353.121383	-1220.529000	1271.437500	297.657837
12353.121383	-1220.529000	1270.331055	271.106995
12353.121383	-1220.529000	1269.225586	177.154709
12353.121383	-1220.529000	1268.119141	121.907158
12353.121383	-1220.529000	1267.012695	288.906921
12353.121383	-1220.529000	1265.906250	286.476959
12353.121383	-1220.529000	1264.798828	281.576050
12353.121383	-1220.529000	1263.691406	182.111954
12353.121383	-1220.529000	1262.583984	197.940781
12353.121383	-1220.529000	1261.476563	244.444000
12353.121383	-1220.529000	1260.368164	321.666565
12353.121383	-1220.529000	1259.260742	230.428726
12353.121383	-1220.529000	1258.152344	-43.619667
12353.121383	-1220.529000	1257.043945	142.149582
12353.121383	-1220.529000	1255.934570	39.896782
12353.121383	-1220.529000	1254.825195	-22.660076
12353.121383	-1220.529000	1253.716797	116.273087
12353.121383	-1220.529000	1252.606445	144.080307
12353.121383	-1220.529000	1251.497070	29.058550
12353.121383	-1220.529000	1250.387695	12.166983
12353.121383	-1220.529000	1249.277344	-61.025738
12353.121383	-1220.529000	1248.166992	195.868179
12353.121383	-1220.529000	1247.055664	-41.305244
12353.121383	-1220.529000	1245.945313	-93.968468
12353.121383	-1220.529000	1244.833984	33.761333
12353.121383	-1220.529000	1243.722656	39.299229
12353.121383	-1220.529000	1242.611328	26.253313
12353.121383	-1220.529000	1241.499023	-51.848648
12353.121383	-1220.529000	1240.387695	-102.464417
12353.121383	-1220.529000	1239.275391	-117.171944
12353.121383	-1220.529000	1238.162109	-54.279110
12353.121383	-1220.529000	1237.049805	129.762131
12353.121383	-1220.529000	1235.936523	106.635620
12353.121383	-1220.529000	1234.823242	52.629398
12353.121383	-1220.529000	1233.709961	16.886745
12353.121383	-1220.529000	1232.596680	90.238457
12353.121383	-1220.529000	1231.482422	64.142067
12353.121383	-1220.529000	1230.369141	88.366302
12353.121383	-1220.529000	1229.253906	-126.047722
12353.121383	-1220.529000	1228.139648	148.305634
12353.121383	-1220.529000	1227.025391	-130.914886
12353.121383	-1220.529000	1225.910156	216.054916
12353.121383	-1220.529000	1224.794922	-48.752762
12353.121383	-1220.529000	1223.679688	-70.729752
12353.121383	-1220.529000	1222.563477	-89.016136
12353.121383	-1220.529000	1221.447266	89.396851
12353.121383	-1220.529000	1220.331055	153.166229
12353.121383	-1220.529000	1219.214844	105.380676
12353.121383	-1220.529000	1218.098633	-87.095764
12353.121383	-1220.529000	1216.981445	-175.916885
12353.121383	-1220.529000	1215.864258	-298.941010
12353.121383	-1220.529000	1214.747070	-160.616547
12353.121383	-1220.529000	1213.629883	-190.821640
12353.121383	-1220.529000	1212.511719	-297.206177
12353.121383	-1220.529000	1211.393555	-179.622559
12353.121383	-1220.529000	1210.275391	-36.982094
12353.121383	-1220.529000	1209.157227	-114.602310
12353.121383	-1220.529000	1208.038086	-139.248398
12353.121383	-1220.529000	1206.918945	-119.925011
12353.121383	-1220.529000	1205.799805	-194.883270
12353.121383	-1220.529000	1204.680664	52.809322
12353.121383	-1220.529000	1203.560547	63.668770
12353.121383	-1220.529000	1202.441406	-21.760155
12353.121383	-1220.529000	1201.321289	97.776344
12353.121383	-1220.529000	1200.200195	-74.244377
12353.121383	-1220.529000	1199.080078	145.365219
12353.121383	-1220.529000	1197.958984	175.251358
12353.121383	-1220.529000	1196.837891	295.727997
12353.121383	-1220.529000	1195.716797	285.821442
12353.121383	-1220.529000	1194.594727	434.613953
12353.121383	-1220.529000	1193.473633	501.810913
12353.121383	-1220.529000	1192.351563	307.361084
12353.121383	-1220.529000	1191.229492	446.572693
12353.121383	-1220.529000	1190.106445	344.945923
12353.121383	-1220.529000	1188.984375	267.852448
12353.121383	-1220.529000	1187.861328	279.641174
12353.121383	-1220.529000	1186.738281	92.450584
12353.121383	-1220.529000	1185.614258	109.022903
12353.121383	-1220.529000	1184.491211	198.695023
12353.121383	-1220.529000	1183.367188	183.391693
12353.121383	-1220.529000	1182.243164	95.198921
12353.121383	-1220.529000	1181.119141	121.922386
12353.121383	-1220.529000	1179.994141	-152.975174
12353.121383	-1220.529000	1178.869141	90.301338
12353.121383	-1220.529000	1177.744141	-142.844711
12353.121383	-1220.529000	1176.619141	-91.623184
12353.121383	-1220.529000	1175.493164	-134.690643
12353.121383	-1220.529000	1174.368164	-53.289455
12353.121383	-1220.529000	1173.242188	-69.497467
12353.121383	-1220.529000	1172.115234	-123.274666
12353.121383	-1220.529000	1170.989258	-205.993988
12353.121383	-1220.529000	1169.862305	35.912964
12353.121383	-1220.529000	1168.735352	38.292530
12353.121383	-1220.529000	1167.608398	-69.014320
12353.121383	-1220.529000	1166.481445	-23.750597
12353.121383	-1220.529000	1165.353516	-96.883751
12353.121383	-1220.529000	1164.225586	-75.067200
12353.121383	-1220.529000	1163.097656	-146.342743
12353.121383	-1220.529000	1161.968750	-127.517815
12353.121383	-1220.529000	1160.840820	148.236832
12353.121383	-1220.529000	1159.711914	-177.052261
12353.121383	-1220.529000	1158.583008	310.256683
12353.121383	-1220.529000	1157.453125	-27.929041
12353.121383	-1220.529000	1156.324219	-9.205534
12353.121383	-1220.529000	1155.194336	-25.677521
12353.121383	-1220.529000	1154.064453	34.457233
12353.121383	-1220.529000	1152.933594	131.564758
12353.121383	-1220.529000	1151.803711	207.278015
12353.121383	-1220.529000	1150.672852	291.360962
12353.121383	-1220.529000	1149.541992	262.711853
12353.121383	-1220.529000	1148.411133	442.949097
12353.121383	-1220.529000	1147.279297	551.461975
12353.121383	-1220.529000	1146.147461	427.070709
12353.121383	-1220.529000	1145.015625	619.475891
12353.121383	-1220.529000	1143.883789	585.284302
12353.121383	-1220.529000	1142.750977	524.023621
12353.121383	-1220.529000	1141.619141	620.617065
12353.121383	-1220.529000	1140.486328	250.964310
12353.121383	-1220.529000	1139.352539	205.836029
12353.121383	-1220.529000	1138.219727	185.333618
12353.121383	-1220.529000	1137.085938	65.364182
12353.121383	-1220.529000	1135.952148	-99.103836
12353.121383	-1220.529000	1134.818359	51.398731
12353.121383	-1220.529000	1133.683594	-117.918266
12353.121383	-1220.529000	1132.549805	-49.732033
12353.121383	-1220.529000	1131.415039	128.978195
12353.121383	-1220.529000	1130.279297	285.081818
12353.121383	-1220.529000	1129.144531	113.621796
12353.121383	-1220.529000	1128.008789	354.057007
12353.121383	-1220.529000	1126.873047	269.210968
12353.121383	-1220.529000	1125.737305	38.651577
12353.121383	-1220.529000	1124.601563	314.573730
12353.121383	-1220.529000	1123.464844	135.648590
12353.121383	-1220.529000	1122.328125	263.842651
12353.121383	-1220.529000	1121.191406	402.698456
12353.121383	-1220.529000	1120.054688	122.880638
12353.121383	-1220.529000	1118.916992	266.601166
12353.121383	-1220.529000	1117.779297	229.893250
12353.121383	-1220.529000	1116.641602	190.713516
12353.121383	-1220.529000	1115.503906	287.405365
12353.121383	-1220.529000	1114.365234	34.203007
12353.121383	-1220.529000	1113.226563	9.096969
12353.121383	-1220.529000	1112.087891	-10.201157
12353.121383	-1220.529000	1110.949219	35.523155
12353.121383	-1220.529000	1109.809570	-82.052803
12353.121383	-1220.529000	1108.669922	-22.669586
12353.121383	-1220.529000	1107.530273	-66.559898
12353.121383	-1220.529000	1106.390625	225.658798
12353.121383	-1220.529000	1105.250000	165.111755
12353.121383	-1220.529000	1104.109375	154.509964
12353.121383	-1220.529000	1102.968750	120.631493
12353.121383	-1220.529000	1101.828125	-31.850063
12353.121383	-1220.529000	1100.686523	281.872925
12353.121383	-1220.529000	1099.544922	224.827164
12353.121383	-1220.529000	1098.403320	10.026180
12353.121383	-1220.529000	1097.261719	172.947296
12353.121383	-1220.529000	1096.120117	106.663559
12353.121383	-1220.529000	1094.977539	146.493988
12353.121383	-1220.529000	1093.834961	194.198196
12353.121383	-1220.529000	1092.691406	24.686853
12353.121383	-1220.529000	1091.548828	35.725990
12353.121383	-1220.529000	1090.405273	226.344070
12353.121383	-1220.529000	1089.261719	246.133072
12353.121383	-1220.529000	1088.118164	115.465958
12353.121383	-1220.529000	1086.973633	54.951283
12353.121383	-1220.529000	1085.829102	-136.846039
12353.121383	-1220.529000	1084.684570	74.412811
12353.121383	-1220.529000	1083.540039	212.491409
12353.121383	-1220.529000	1082.395508	-112.708923
12353.121383	-1220.529000	1081.250000	-185.476456
12353.121383	-1220.529000	1080.104492	115.637985
12353.121383	-1220.529000	1078.958984	-59.249424
12353.121383	-1220.529000	1077.812500	46.169518
12353.121383	-1220.529000	1076.666016	19.855965
12353.121383	-1220.529000	1075.519531	233.244492
12353.121383	-1220.529000	1074.373047	-50.080902
12353.121383	-1220.529000	1073.226563	23.313406
12353.121383	-1220.529000	1072.079102	12.289954
12353.121383	-1220.529000	1070.931641	112.485146
12353.121383	-1220.529000	1069.784180	237.088486
12353.121383	-1220.529000	1068.635742	169.300217
12353.121383	-1220.529000	1067.487305	110.893700
12353.121383	-1220.529000	1066.338867	-37.332127
12353.121383	-1220.529000	1065.190430	218.874771
12353.121383	-1220.529000	1064.041992	493.994965
12353.121383	-1220.529000	1062.892578	266.805481
12353.121383	-1220.529000	1061.743164	91.404381
12353.121383	-1220.529000	1060.593750	39.103313
12353.121383	-1220.529000	1059.443359	62.295303
12353.121383	-1220.529000	1058.292969	231.215393
12353.121383	-1220.529000	1057.142578	-18.120638
12353.121383	-1220.529000	1055.992188	-22.621790
12353.121383	-1220.529000	1054.841797	119.340042
12353.121383	-1220.529000	1053.690430	-41.009464
12353.121383	-1220.529000	1052.539063	-276.139893
12353.121383	-1220.529000	1051.387695	-227.318634
12353.121383	-1220.529000	1050.235352	-22.957888
12353.121383	-1220.529000	1049.083984	35.722427
12353.121383	-1220.529000	1047.931641	14.230608
12353.121383	-1220.529000	1046.778320	96.831306
12353.121383	-1220.529000	1045.625977	110.346130
12353.121383	-1220.529000	1044.472656	-111.021759
12353.121383	-1220.529000	1043.319336	55.286087
12353.121383	-1220.529000	1042.166016	33.662514
12353.121383	-1220.529000	1041.012695	-137.590439
12353.121383	-1220.529000	1039.858398	-18.021332
12353.121383	-1220.529000	1038.704102	-59.211052
12353.121383	-1220.529000	1037.549805	16.251850
12353.121383	-1220.529000	1036.394531	75.322502
12353.121383	-1220.529000	1035.239258	174.967163
12353.121383	-1220.529000	1034.083984	61.345337
12353.121383	-1220.529000	1032.928711	-18.524071
12353.121383	-1220.529000	1031.773438	34.636627
12353.121383	-1220.529000	1030.617188	184.112305
12353.121383	-1220.529000	1029.460938	144.699707
12353.121383	-1220.529000	1028.304688	135.201935
12353.121383	-1220.529000	1027.147461	-44.306297
12353.121383	-1220.529000	1025.991211	-198.093460
12353.121383	-1220.529000	1024.833984	-224.286926
12353.121383	-1220.529000	1023.675781	-173.826965
12353.121383	-1220.529000	1022.518555	-149.440552
12353.121383	-1220.529000	1021.360352	157.690781
12353.121383	-1220.529000	1020.202148	-72.752754
12353.121383	-1220.529000	1019.043945	-169.300980
12353.121383	-1220.529000	1017.884766	45.024563
12353.121383	-1220.529000	1016.726563	-173.657639
12353.121383	-1220.529000	1015.567383	168.274918
12353.121383	-1220.529000	1014.407227	102.346893
12353.121383	-1220.529000	1013.248047	146.188904
12353.121383	-1220.529000	1012.087891	-20.485130
12353.121383	-1220.529000	1010.927734	-94.209244
12353.121383	-1220.529000	1009.767578	-7.141152
12353.121383	-1220.529000	1008.606445	168.565292
12353.121383	-1220.529000	1007.446289	394.533600
12353.121383	-1220.529000	1006.285156	91.270035
12353.121383	-1220.529000	1005.123047	108.680122
12353.121383	-1220.529000	1003.961914	101.426903
12353.121383	-1220.529000	1002.799805	289.985931
12353.121383	-1220.529000	1001.637695	264.839386
12353.121383	-1220.529000	1000.475586	314.695831
12353.121383	-1220.529000	999.312500	-4.416500
12353.121383	-1220.529000	998.149414	138.900848
12353.121383	-1220.529000	996.986328	-152.881882
12353.121383	-1220.529000	995.823242	-0.313938
12353.121383	-1220.529000	994.659180	-197.514755
12353.121383	-1220.529000	993.496094	29.133034
12353.121383	-1220.529000	992.332031	-191.535797
12353.121383	-1220.529000	991.166992	-32.567722
12353.121383	-1220.529000	990.002930	-208.520828
12353.121383	-1220.529000	988.837891	-60.744236
12353.121383	-1220.529000	987.672852	-112.834053
12353.121383	-1220.529000	986.506836	-116.847588
12353.121383	-1220.529000	985.341797	-72.392204
12353.121383	-1220.529000	984.175781	-98.128044
12353.121383	-1220.529000	983.009766	-389.479095
12353.121383	-1220.529000	981.843750	70.987862
12353.121383	-1220.529000	980.676758	87.976959
12353.121383	-1220.529000	979.509766	-57.375038
12353.121383	-1220.529000	978.342773	88.097504
12353.121383	-1220.529000	977.175781	-5.109704
12353.121383	-1220.529000	976.007813	-36.149178
12353.121383	-1220.529000	974.839844	11.188354
12353.121383	-1220.529000	973.671875	53.256031
12353.121383	-1220.529000	972.503906	-74.665268
12353.121383	-1220.529000	971.334961	-178.416748
12353.121383	-1220.529000	970.166016	64.259926
12353.121383	-1220.529000	968.997070	310.430786
12353.121383	-1220.529000	967.828125	169.740982
12353.121383	-1220.529000	966.658203	-47.888187
12353.121383	-1220.529000	965.488281	190.481506
12353.121383	-1220.529000	964.318359	180.049881
12353.121383	-1220.529000	963.148438	103.855667
12353.121383	-1220.529000	961.977539	141.238907
12353.121383	-1220.529000	960.806641	106.130203
12353.121383	-1220.529000	959.635742	-46.669010
12353.121383	-1220.529000	958.463867	-36.156734
12353.121383	-1220.529000	957.292969	29.664818
12353.121383	-1220.529000	956.121094	-93.860161
12353.121383	-1220.529000	954.948242	16.831310
12353.121383	-1220.529000	953.776367	84.196281
12353.121383	-1220.529000	952.603516	113.640190
12353.121383	-1220.529000	951.430664	152.491501
12353.121383	-1220.529000	950.257813	-21.219847
12353.121383	-1220.529000	949.084961	-210.170013
12353.121383	-1220.529000	947.911133	172.109436
12353.121383	-1220.529000	946.737305	-9.040176
12353.121383	-1220.529000	945.563477	-144.686569
12353.121383	-1220.529000	944.388672	76.922699
12353.121383	-1220.529000	943.213867	22.166231
12353.121383	-1220.529000	942.039063	-125.941696
12353.121383	-1220.529000	940.864258	-1.168031
12353.121383	-1220.529000	939.688477	79.890884
12353.121383	-1220.529000	938.513672	61.510586
12353.121383	-1220.529000	937.337891	235.682312
12353.121383	-1220.529000	936.161133	209.658524
12353.121383	-1220.529000	934.985352	222.522598
12353.121383	-1220.529000	933.808594	263.740143
12353.121383	-1220.529000	932.631836	110.063148
12353.121383	-1220.529000	931.454102	81.326630
12353.121383	-1220.529000	930.277344	65.394531
12353.121383	-1220.529000	929.099609	213.104248
12353.121383	-1220.529000	927.921875	436.111206
12353.121383	-1220.529000	926.743164	264.178986
12353.121383	-1220.529000	925.565430	333.779236
12353.121383	-1220.529000	924.386719	42.365269
12353.121383	-1220.529000	923.208008	158.663925
12353.121383	-1220.529000	922.028320	378.752136
12353.121383	-1220.529000	920.849609	154.852753
12353.121383	-1220.529000	919.669922	159.727432
12353.121383	-1220.529000	919.474609	245.826141
12353.121383	-1220.529000	918.309570	-102.631630
12353.121383	-1220.529000	917.143555	215.702286
12353.121383	-1220.529000	915.977539	103.341972
12353.121383	-1220.529000	914.810547	-133.468842
12353.121383	-1220.529000	913.644531	29.026203
12353.121383	-1220.529000	912.477539	82.562965
12353.121383	-1220.529000	911.310547	-198.251572
12353.121383	-1220.529000	910.143555	-74.799690
12353.121383	-1220.529000	908.975586	-153.475555
12353.121383	-1220.529000	907.807617	-97.477776
12353.121383	-1220.529000	906.639648	-170.999176
12353.121383	-1220.529000	905.471680	-192.745331
12353.121383	-1220.529000	904.303711	-69.566299
12353.121383	-1220.529000	903.134766	-26.683546
12353.121383	-1220.529000	901.965820	42.025726
12353.121383	-1220.529000	900.796875	-323.888184
12353.121383	-1220.529000	899.626953	-208.646835
12353.121383	-1220.529000	898.457031	-18.495518
12353.121383	-1220.529000	897.287109	150.870911
12353.121383	-1220.529000	896.117188	-132.162292
12353.121383	-1220.529000	894.947266	-32.663044
12353.121383	-1220.529000	893.776367	95.192894
12353.121383	-1220.529000	892.605469	83.488403
12353.121383	-1220.529000	891.434570	20.115551
12353.121383	-1220.529000	890.262695	274.329132
12353.121383	-1220.529000	889.091797	280.594482
12353.121383	-1220.529000	887.919922	173.278122
12353.121383	-1220.529000	886.748047	259.510925
12353.121383	-1220.529000	885.575195	30.946991
12353.121383	-1220.529000	884.403320	99.074226
12353.121383	-1220.529000	883.230469	82.055893
12353.121383	-1220.529000	882.057617	-99.986893
12353.121383	-1220.529000	880.883789	336.686798
12353.121383	-1220.529000	879.710938	177.820862
12353.121383	-1220.529000	878.537109	52.500267
12353.121383	-1220.529000	877.362305	174.526123
12353.121383	-1220.529000	876.188477	-285.615448
12353.121383	-1220.529000	875.013672	-94.079781
12353.121383	-1220.529000	873.839844	84.482567
12353.121383	-1220.529000	872.664063	44.164410
12353.121383	-1220.529000	871.489258	135.092377
12353.121383	-1220.529000	870.313477	202.811142
12353.121383	-1220.529000	869.138672	136.713242
12353.121383	-1220.529000	867.962891	-86.261223
12353.121383	-1220.529000	866.786133	-129.156906
12353.121383	-1220.529000	865.610352	139.023285
12353.121383	-1220.529000	864.433594	132.051361
12353.121383	-1220.529000	863.256836	11.992946
12353.121383	-1220.529000	862.079102	-192.816681
12353.121383	-1220.529000	860.902344	18.584528
12353.121383	-1220.529000	859.724609	263.274109
12353.121383	-1220.529000	858.546875	248.507111
12353.121383	-1220.529000	857.368164	120.776993
12353.121383	-1220.529000	856.190430	-40.285217
12353.121383	-1220.529000	855.011719	47.625439
12353.121383	-1220.529000	853.833008	227.848022
12353.121383	-1220.529000	852.654297	254.077087
12353.121383	-1220.529000	851.474609	-24.900080
12353.121383	-1220.529000	850.294922	-1.217064
12353.121383	-1220.529000	849.115234	148.055038
12353.121383	-1220.529000	847.935547	-12.870700
12353.121383	-1220.529000	846.754883	110.695274
12353.121383	-1220.529000	845.575195	-116.791664
12353.121383	-1220.529000	844.393555	119.424255
12353.121383	-1220.529000	843.212891	107.121758
12353.121383	-1220.529000	842.032227	79.449326
12353.121383	-1220.529000	840.850586	300.084717
12353.121383	-1220.529000	839.668945	-24.517775
12353.121383	-1220.529000	838.486328	78.322517
12353.121383	-1220.529000	837.304688	219.479019
12353.121383	-1220.529000	836.122070	127.815788
12353.121383	-1220.529000	834.939453	66.864304
12353.121383	-1220.529000	833.756836	269.264282
12353.121383	-1220.529000	832.573242	200.620132
12353.121383	-1220.529000	831.389648	369.666412
12353.121383	-1220.529000	830.206055	487.530182
12353.121383	-1220.529000	829.022461	832.689941
12353.121383	-1220.529000	827.838867	1159.818604
12353.121383	-1220.529000	826.654297	1305.503906
12353.121383	-1220.529000	825.469727	1382.186523
12353.121383	-1220.529000	824.284180	1583.899170
12353.121383	-1220.529000	823.099609	1397.620239
12353.121383	-1220.529000	821.914063	1065.976929
12353.121383	-1220.529000	820.728516	862.004639
12353.121383	-1220.529000	819.542969	553.540344
12353.121383	-1220.529000	818.356445	467.029877
12353.121383	-1220.529000	817.169922	324.458954
12353.121383	-1220.529000	815.983398	357.801086
12353.121383	-1220.529000	814.796875	245.867737
12353.121383	-1220.529000	813.609375	243.523758
12353.121383	-1220.529000	812.422852	348.148651
12353.121383	-1220.529000	811.235352	269.360748
12353.121383	-1220.529000	810.046875	137.125748
12353.121383	-1220.529000	808.859375	-30.707052
12353.121383	-1220.529000	807.670898	-101.767456
12353.121383	-1220.529000	806.482422	15.488741
12353.121383	-1220.529000	805.293945	-88.648544
12353.121383	-1220.529000	804.104492	-80.837120
12353.121383	-1220.529000	802.915039	33.763126
12353.121383	-1220.529000	801.725586	-151.708313
12353.121383	-1220.529000	800.536133	117.892944
12353.121383	-1220.529000	799.345703	-113.289238
12353.121383	-1220.529000	798.155273	-153.820984
12353.121383	-1220.529000	796.964844	-151.164413
12353.121383	-1220.529000	795.774414	-303.452515
12353.121383	-1220.529000	794.583008	-214.454559
12353.121383	-1220.529000	793.392578	-112.816254
12353.121383	-1220.529000	792.200195	77.610023
12353.121383	-1220.529000	791.008789	-145.711472
12353.121383	-1220.529000	789.816406	-120.306503
12353.121383	-1220.529000	788.625000	72.491837
12353.121383	-1220.529000	787.432617	97.810059
12353.121383	-1220.529000	786.239258	-41.711498
12353.121383	-1220.529000	785.046875	3.868522
12353.121383	-1220.529000	783.853516	-366.256073
12353.121383	-1220.529000	782.660156	127.871086
12353.121383	-1220.529000	781.465820	87.202179
12353.121383	-1220.529000	780.272461	213.708923
12353.121383	-1220.529000	779.078125	254.043961
12353.121383	-1220.529000	777.883789	114.574821
12353.121383	-1220.529000	776.688477	195.381531
12353.121383	-1220.529000	775.494141	164.774750
12353.121383	-1220.529000	774.298828	273.334717
12353.121383	-1220.529000	773.103516	209.799103
12353.121383	-1220.529000	771.907227	143.743942
12353.121383	-1220.529000	770.711914	95.395027
12353.121383	-1220.529000	769.515625	221.499435
12353.121383	-1220.529000	768.318359	114.979599
12353.121383	-1220.529000	767.122070	-107.772583
12353.121383	-1220.529000	765.924805	-29.773827
12353.121383	-1220.529000	764.727539	-161.502213
12353.121383	-1220.529000	763.530273	52.815323
12353.121383	-1220.529000	762.333008	-58.720081
12353.121383	-1220.529000	761.134766	-61.672268
12353.121383	-1220.529000	759.936523	-29.310276
12353.121383	-1220.529000	758.738281	-102.974365
12353.121383	-1220.529000	757.540039	-2.544851
12353.121383	-1220.529000	756.340820	-230.104233
12353.121383	-1220.529000	755.141602	-81.821899
12353.121383	-1220.529000	753.942383	-37.004913
12353.121383	-1220.529000	752.742188	12.809046
12353.121383	-1220.529000	751.541992	102.902802
12353.121383	-1220.529000	750.341797	-101.894012
12353.121383	-1220.529000	749.141602	121.655426
12353.121383	-1220.529000	747.941406	279.593658
12353.121383	-1220.529000	746.740234	220.866226
12353.121383	-1220.529000	745.539063	3.513883
12353.121383	-1220.529000	744.337891	-27.501934
12353.121383	-1220.529000	743.135742	293.807251
12353.121383	-1220.529000	741.933594	-36.742405
12353.121383	-1220.529000	740.731445	-87.946297
12353.121383	-1220.529000	739.529297	34.384533
12353.121383	-1220.529000	738.326172	-54.595547
12353.121383	-1220.529000	737.124023	-113.403824
12353.121383	-1220.529000	735.919922	-84.242302
12353.121383	-1220.529000	734.716797	47.905449
12353.121383	-1220.529000	733.513672	-21.037695
12353.121383	-1220.529000	732.309570	128.557098
12353.121383	-1220.529000	731.105469	-158.941040
12353.121383	-1220.529000	729.900391	40.768509
12353.121383	-1220.529000	728.696289	-352.101685
12353.121383	-1220.529000	727.491211	-200.196884
12353.121383	-1220.529000	726.286133	-118.655739
12353.121383	-1220.529000	725.080078	-99.907196
12353.121383	-1220.529000	723.874023	-53.614208
12353.121383	-1220.529000	722.668945	57.821140
12353.121383	-1220.529000	721.461914	-51.466339
12353.121383	-1220.529000	720.255859	-95.575401
12353.121383	-1220.529000	719.048828	-6.876404
12353.121383	-1220.529000	717.841797	-98.666908
12353.121383	-1220.529000	716.634766	40.015446
12353.121383	-1220.529000	715.427734	146.035370
12353.121383	-1220.529000	714.219727	121.754593
12353.121383	-1220.529000	713.011719	250.159866
12353.121383	-1220.529000	711.803711	-109.633118
12353.121383	-1220.529000	710.594727	96.256798
12353.121383	-1220.529000	709.385742	94.345764
12353.121383	-1220.529000	708.176758	410.080536
12353.121383	-1220.529000	706.967773	352.989868
12353.121383	-1220.529000	705.758789	270.872070
12353.121383	-1220.529000	704.548828	323.737030
12353.121383	-1220.529000	703.338867	71.605026
12353.121383	-1220.529000	702.127930	291.817871
12353.121383	-1220.529000	700.917969	77.174690
12353.121383	-1220.529000	699.707031	369.630157
12353.121383	-1220.529000	698.496094	219.890198
12353.121383	-1220.529000	697.285156	160.046158
12353.121383	-1220.529000	696.073242	432.176971
12353.121383	-1220.529000	694.861328	327.286560
12353.121383	-1220.529000	693.649414	339.661591
12353.121383	-1220.529000	692.436523	324.536133
12353.121383	-1220.529000	691.224609	39.995182
12353.121383	-1220.529000	690.011719	-20.054142
12353.121383	-1220.529000	688.798828	201.587662
12353.121383	-1220.529000	687.584961	153.882095
12353.121383	-1220.529000	686.372070	113.616615
12353.121383	-1220.529000	685.158203	354.854309
12353.121383	-1220.529000	683.943359	247.193207
12353.121383	-1220.529000	682.729492	308.872223
12353.121383	-1220.529000	681.514648	343.077271
12353.121383	-1220.529000	680.299805	354.805023
12353.121383	-1220.529000	679.084961	485.936859
12353.121383	-1220.529000	677.869141	298.438904
12353.121383	-1220.529000	676.653320	561.264038
12353.121383	-1220.529000	675.437500	420.969421
12353.121383	-1220.529000	674.221680	223.475616
12353.121383	-1220.529000	673.004883	200.043411
12353.121383	-1220.529000	671.789063	161.646042
12353.121383	-1220.529000	670.571289	63.554878
12353.121383	-1220.529000	669.354492	42.469460
12353.121383	-1220.529000	668.136719	239.938934
12353.121383	-1220.529000	666.919922	121.835403
12353.121383	-1220.529000	665.701172	306.661133
12353.121383	-1220.529000	664.483398	466.518616
12353.121383	-1220.529000	663.264648	191.875580
12353.121383	-1220.529000	662.045898	555.048950
12353.121383	-1220.529000	660.827148	173.687759
12353.121383	-1220.529000	659.608398	77.681404
12353.121383	-1220.529000	658.388672	108.130020
12353.121383	-1220.529000	657.168945	282.308746
12353.121383	-1220.529000	655.949219	354.710449
12353.121383	-1220.529000	654.728516	124.643173
12353.121383	-1220.529000	653.507813	313.373444
12353.121383	-1220.529000	652.287109	350.834656
12353.121383	-1220.529000	651.066406	720.112427
12353.121383	-1220.529000	649.844727	591.419983
12353.121383	-1220.529000	648.623047	690.488892
12353.121383	-1220.529000	647.401367	507.262329
12353.121383	-1220.529000	646.179688	670.512573
12353.121383	-1220.529000	644.957031	573.827576
12353.121383	-1220.529000	643.734375	504.324005
12353.121383	-1220.529000	642.511719	684.572998
12353.121383	-1220.529000	641.289063	644.608582
12353.121383	-1220.529000	640.065430	379.622070
12353.121383	-1220.529000	638.841797	435.989197
12353.121383	-1220.529000	637.618164	516.973511
12353.121383	-1220.529000	636.393555	521.263245
12353.121383	-1220.529000	635.168945	268.593750
12353.121383	-1220.529000	633.944336	487.641663
12353.121383	-1220.529000	632.719727	676.897217
12353.121383	-1220.529000	631.494141	401.923431
12353.121383	-1220.529000	630.269531	544.084229
12353.121383	-1220.529000	629.042969	459.103027
12353.121383	-1220.529000	627.817383	556.641174
12353.121383	-1220.529000	626.590820	678.728943
12353.121383	-1220.529000	625.365234	667.537415
12353.121383	-1220.529000	624.137695	634.087158
12353.121383	-1220.529000	622.911133	802.697571
12353.121383	-1220.529000	621.683594	793.732483
12353.121383	-1220.529000	620.456055	1262.674072
12353.121383	-1220.529000	619.228516	1278.104492
12353.121383	-1220.529000	618.000977	1005.316956
12353.121383	-1220.529000	616.772461	769.504700
12353.121383	-1220.529000	615.543945	686.345703
12353.121383	-1220.529000	614.314453	413.637756
12353.121383	-1220.529000	613.085938	298.459381
12353.121383	-1220.529000	611.856445	163.575104
12353.121383	-1220.529000	610.626953	250.041901
12353.121383	-1220.529000	609.397461	43.770126
12353.121383	-1220.529000	608.166992	120.246941
12353.121383	-1220.529000	606.936523	245.782440
12353.121383	-1220.529000	605.706055	78.749939
12353.121383	-1220.529000	604.474609	147.587631
12353.121383	-1220.529000	603.244141	5.072258
12353.121383	-1220.529000	602.012695	103.228355
12353.121383	-1220.529000	600.780273	238.100998
12353.121383	-1220.529000	599.548828	210.828629
12353.121383	-1220.529000	598.316406	269.398407
12353.121383	-1220.529000	597.083984	305.790894
12353.121383	-1220.529000	595.851563	239.059174
12353.121383	-1220.529000	594.618164	81.530846
12353.121383	-1220.529000	593.384766	245.253052
12353.121383	-1220.529000	592.151367	95.012375
12353.121383	-1220.529000	590.917969	420.311188
12353.121383	-1220.529000	589.683594	385.144867
12353.121383	-1220.529000	588.449219	153.911423
12353.121383	-1220.529000	587.214844	81.941422
12353.121383	-1220.529000	585.979492	355.264313
12353.121383	-1220.529000	584.745117	148.477936
12353.121383	-1220.529000	583.509766	240.381851
12353.121383	-1220.529000	582.273438	87.419830
12353.121383	-1220.529000	581.038086	193.854065
12353.121383	-1220.529000	579.801758	261.030792
12353.121383	-1220.529000	578.565430	132.435440
12353.121383	-1220.529000	577.329102	199.474823
12353.121383	-1220.529000	576.091797	180.845139
12353.121383	-1220.529000	574.854492	291.720459
12353.121383	-1220.529000	573.617188	118.991051
12353.121383	-1220.529000	572.378906	327.446716
12353.121383	-1220.529000	571.141602	208.410095
12353.121383	-1220.529000	569.903320	177.287308
12353.121383	-1220.529000	568.664063	133.906998
12353.121383	-1220.529000	567.425781	92.934853
12353.121383	-1220.529000	566.186523	-1.778884
12353.121383	-1220.529000	564.947266	-23.297983
12353.121383	-1220.529000	563.708008	135.680984
12353.121383	-1220.529000	562.467773	160.373398
12353.121383	-1220.529000	561.227539	333.765411
12353.121383	-1220.529000	559.987305	7.197590
12353.121383	-1220.529000	558.747070	392.522247
12353.121383	-1220.529000	557.505859	31.852041
12353.121383	-1220.529000	556.264648	231.715363
12353.121383	-1220.529000	555.023438	217.064102
12353.121383	-1220.529000	553.781250	229.155411
12353.121383	-1220.529000	552.539063	199.798035
12353.121383	-1220.529000	551.296875	53.546448
12353.121383	-1220.529000	550.054688	313.794952
12353.121383	-1220.529000	548.811523	391.367004
12353.121383	-1220.529000	547.569336	276.657990
12353.121383	-1220.529000	546.325195	144.915924
12353.121383	-1220.529000	545.082031	76.421707
12353.121383	-1220.529000	543.837891	-4.248066
12353.121383	-1220.529000	542.593750	138.717590
12353.121383	-1220.529000	541.349609	4.515715
12353.121383	-1220.529000	540.105469	-95.651741
12353.121383	-1220.529000	538.860352	-16.049503
12353.121383	-1220.529000	537.615234	-89.538353
12353.121383	-1220.529000	536.369141	19.083731
12353.121383	-1220.529000	535.124023	-103.013786
12353.121383	-1220.529000	533.877930	-91.601494
12353.121383	-1220.529000	532.631836	-160.314484
12353.121383	-1220.529000	531.384766	-306.679413
12353.121383	-1220.529000	530.138672	-64.896721
12353.121383	-1220.529000	528.891602	-233.116165
12353.121383	-1220.529000	527.643555	-248.548050
12353.121383	-1220.529000	526.396484	-111.280449
12353.121383	-1220.529000	525.148438	33.160759
12353.121383	-1220.529000	523.900391	138.738220
12353.121383	-1220.529000	522.652344	79.502365
12353.121383	-1220.529000	521.403320	344.812988
12353.121383	-1220.529000	520.154297	135.354431
12353.121383	-1220.529000	518.905273	-64.359062
12353.121383	-1220.529000	517.656250	9.501190
12353.121383	-1220.529000	516.406250	-139.344818
12353.121383	-1220.529000	515.156250	-278.476440
12353.121383	-1220.529000	513.906250	-134.559204
12353.121383	-1220.529000	512.655273	-155.190613
12353.121383	-1220.529000	511.404297	-149.243027
12353.121383	-1220.529000	510.153320	-409.238495
12353.121383	-1220.529000	508.902344	-222.026245
12353.121383	-1220.529000	507.650391	-414.294800
12353.121383	-1220.529000	506.398438	-500.209564
12353.121383	-1220.529000	505.146484	-165.847366
12353.121383	-1220.529000	503.893555	-191.465256
12353.121383	-1220.529000	502.641602	-207.433304
12353.121383	-1220.529000	501.388672	-216.184845
12353.121383	-1220.529000	500.134766	-215.310623
12353.121383	-1220.529000	498.881836	-298.900452
12353.121383	-1220.529000	497.627930	-290.822479
12353.121383	-1220.529000	496.374023	-46.426849
12353.121383	-1220.529000	495.119141	-19.173141
12353.121383	-1220.529000	493.865234	-141.410034
12353.121383	-1220.529000	492.610352	-155.169067
12353.121383	-1220.529000	491.355469	-123.165779
12353.121383	-1220.529000	490.099609	-30.982105
12353.121383	-1220.529000	488.843750	-18.346340
12353.121383	-1220.529000	487.587891	15.929577
12353.121383	-1220.529000	486.332031	-24.469282
12353.121383	-1220.529000	485.075195	178.223434
12353.121383	-1220.529000	483.818359	84.800743
12353.121383	-1220.529000	482.561523	-102.443138
12353.121383	-1220.529000	481.304688	49.533047
12353.121383	-1220.529000	480.046875	174.952316
12353.121383	-1220.529000	478.789063	321.925812
12353.121383	-1220.529000	477.531250	567.363647
12353.121383	-1220.529000	476.272461	553.089172
12353.121383	-1220.529000	475.013672	752.641052
12353.121383	-1220.529000	473.754883	577.305176
12353.121383	-1220.529000	472.496094	363.577209
12353.121383	-1220.529000	471.236328	75.455841
12353.121383	-1220.529000	469.976563	351.604462
12353.121383	-1220.529000	468.716797	171.539017
12353.121383	-1220.529000	467.456055	128.287064
12353.121383	-1220.529000	466.196289	312.942505
12353.121383	-1220.529000	464.935547	315.160492
12353.121383	-1220.529000	463.673828	338.904755
12353.121383	-1220.529000	462.413086	175.574692
12353.121383	-1220.529000	461.151367	96.154053
12353.121383	-1220.529000	459.889648	340.258728
12353.121383	-1220.529000	458.626953	224.771652
12353.121383	-1220.529000	457.364258	188.328064
12353.121383	-1220.529000	456.101563	254.823608
12353.121383	-1220.529000	454.838867	323.617676
12353.121383	-1220.529000	453.575195	176.837570
12353.121383	-1220.529000	452.312500	75.531837
12353.121383	-1220.529000	451.047852	282.877106
12353.121383	-1220.529000	449.784180	281.910583
12353.121383	-1220.529000	448.519531	65.573647
12353.121383	-1220.529000	447.254883	176.872864
12353.121383	-1220.529000	445.990234	412.360901
12353.121383	-1220.529000	444.725586	81.115700
12353.121383	-1220.529000	443.459961	137.072357
12353.121383	-1220.529000	442.194336	317.147186
12353.121383	-1220.529000	440.927734	160.192764
12353.121383	-1220.529000	439.662109	225.316879
12353.121383	-1220.529000	438.395508	173.279694
12353.121383	-1220.529000	437.127930	383.736816
12353.121383	-1220.529000	435.861328	317.108521
12353.121383	-1220.529000	434.593750	376.837402
12353.121383	-1220.529000	433.326172	169.189575
12353.121383	-1220.529000	432.058594	68.819206
12353.121383	-1220.529000	430.790039	414.276703
12353.121383	-1220.529000	429.521484	282.574890
12353.121383	-1220.529000	428.252930	258.028473
12353.121383	-1220.529000	426.984375	6.912730
12353.121383	-1220.529000	425.714844	36.869419
12353.121383	-1220.529000	424.445313	469.209808
12353.121383	-1220.529000	423.174805	162.840485
12353.121383	-1220.529000	421.905273	263.582306
12353.121383	-1220.529000	420.634766	178.367630
12353.121383	-1220.529000	419.364258	64.403824
12353.121383	-1220.529000	418.092773	147.753967
12353.121383	-1220.529000	416.822266	152.327042
12353.121383	-1220.529000	415.550781	320.757111
12353.121383	-1220.529000	414.278320	13.234356
12353.121383	-1220.529000	413.006836	259.548889
12353.121383	-1220.529000	411.734375	27.685276
12353.121383	-1220.529000	410.461914	259.048340
12353.121383	-1220.529000	409.188477	269.029724
12353.121383	-1220.529000	407.916016	178.935699
12353.121383	-1220.529000	406.642578	314.163818
12353.121383	-1220.529000	405.368164	278.024933
12353.121383	-1220.529000	404.094727	132.364853
12353.121383	-1220.529000	402.820313	268.827667
12353.121383	-1220.529000	401.545898	274.347748
12353.121383	-1220.529000	400.270508	393.336975
12353.121383	-1220.529000	398.996094	696.891968
12353.121383	-1220.529000	397.720703	554.072937
12353.121383	-1220.529000	396.444336	503.332672
12353.121383	-1220.529000	395.168945	653.660034
12353.121383	-1220.529000	393.892578	725.244141
12353.121383	-1220.529000	392.616211	1014.294189
12353.121383	-1220.529000	391.339844	762.646973
12353.121383	-1220.529000	390.062500	775.828735
12353.121383	-1220.529000	388.785156	887.924438
12353.121383	-1220.529000	387.507813	843.190552
12353.121383	-1220.529000	386.229492	797.897705
12353.121383	-1220.529000	384.951172	640.834045
12353.121383	-1220.529000	383.672852	854.651978
12353.121383	-1220.529000	382.394531	857.259644
12353.121383	-1220.529000	381.115234	547.075317
12353.121383	-1220.529000	379.835938	546.071533
12353.121383	-1220.529000	378.556641	400.207458
12353.121383	-1220.529000	377.277344	610.537659
12353.121383	-1220.529000	375.997070	668.828003
12353.121383	-1220.529000	374.716797	336.605591
12353.121383	-1220.529000	373.435547	256.426971
12353.121383	-1220.529000	372.155273	166.071091
12353.121383	-1220.529000	370.874023	327.494965
12353.121383	-1220.529000	369.591797	-57.179714
12353.121383	-1220.529000	368.310547	133.194214
12353.121383	-1220.529000	367.028320	445.238159
12353.121383	-1220.529000	365.746094	180.759720
12353.121383	-1220.529000	364.463867	196.052979
12353.121383	-1220.529000	363.180664	120.758430
12353.121383	-1220.529000	361.897461	357.970947
12353.121383	-1220.529000	360.614258	202.884140
12353.121383	-1220.529000	359.330078	225.827621
12353.121383	-1220.529000	358.045898	82.795975
12353.121383	-1220.529000	356.761719	70.581444
12353.121383	-1220.529000	355.477539	111.372131
12353.121383	-1220.529000	354.192383	108.561844
12353.121383	-1220.529000	352.907227	-175.513458
12353.121383	-1220.529000	351.622070	28.674984
12353.121383	-1220.529000	350.336914	29.194321
12353.121383	-1220.529000	349.050781	-82.178665
12353.121383	-1220.529000	347.764648	221.320450
12353.121383	-1220.529000	346.477539	217.653351
12353.121383	-1220.529000	345.191406	-15.378201
12353.121383	-1220.529000	343.904297	3.959508
12353.121383	-1220.529000	342.616211	-295.412018
12353.121383	-1220.529000	341.329102	-124.061760
12353.121383	-1220.529000	340.041016	148.900772
12353.121383	-1220.529000	338.752930	4.571936
12353.121383	-1220.529000	337.463867	34.622192
12353.121383	-1220.529000	336.175781	-127.089340
12353.121383	-1220.529000	334.886719	-222.501785
12353.121383	-1220.529000	333.596680	-474.545929
12353.121383	-1220.529000	332.307617	-273.322296
12353.121383	-1220.529000	331.017578	-139.788620
12353.121383	-1220.529000	329.727539	-233.301010
12353.121383	-1220.529000	328.436523	85.992134
12353.121383	-1220.529000	327.146484	93.865219
12353.121383	-1220.529000	325.855469	-1.157016
12353.121383	-1220.529000	324.563477	-124.114296
12353.121383	-1220.529000	323.272461	-141.448486
12353.121383	-1220.529000	321.980469	-280.495178
12353.121383	-1220.529000	320.688477	-143.272858
12353.121383	-1220.529000	319.395508	54.629501
12353.121383	-1220.529000	318.103516	-30.659973
12353.121383	-1220.529000	316.810547	-71.692299
12353.121383	-1220.529000	315.516602	109.166183
12353.121383	-1220.529000	314.223633	245.324799
12353.121383	-1220.529000	312.929688	217.385727
12353.121383	-1220.529000	311.635742	-14.256558
12353.121383	-1220.529000	310.340820	17.674112
12353.121383	-1220.529000	309.045898	72.413574
12353.121383	-1220.529000	307.750977	54.131176
12353.121383	-1220.529000	306.456055	67.873993
12353.121383	-1220.529000	305.160156	106.459129
12353.121383	-1220.529000	303.865234	314.683289
12353.121383	-1220.529000	302.568359	272.066284
12353.121383	-1220.529000	301.272461	237.937210
12353.121383	-1220.529000	299.975586	655.166016
12353.121383	-1220.529000	298.678711	579.076172
