#X		#Y		#Wave		#Intensity
20391.491011	-1239.101500	1999.980469	-80.412628
20391.491011	-1239.101500	1999.016602	-52.000488
20391.491011	-1239.101500	1998.052734	41.063225
20391.491011	-1239.101500	1997.087891	111.442459
20391.491011	-1239.101500	1996.123047	-110.915482
20391.491011	-1239.101500	1995.158203	-28.831303
20391.491011	-1239.101500	1994.193359	-207.163986
20391.491011	-1239.101500	1993.228516	72.364044
20391.491011	-1239.101500	1992.262695	-118.922668
20391.491011	-1239.101500	1991.297852	-186.678406
20391.491011	-1239.101500	1990.332031	-34.429535
20391.491011	-1239.101500	1989.366211	-38.413074
20391.491011	-1239.101500	1988.399414	118.141975
20391.491011	-1239.101500	1987.433594	29.484442
20391.491011	-1239.101500	1986.466797	-69.288986
20391.491011	-1239.101500	1985.500977	93.812492
20391.491011	-1239.101500	1984.534180	-10.382394
20391.491011	-1239.101500	1983.567383	-77.702644
20391.491011	-1239.101500	1982.599609	250.172089
20391.491011	-1239.101500	1981.632813	63.773048
20391.491011	-1239.101500	1980.665039	8.155013
20391.491011	-1239.101500	1979.697266	53.610462
20391.491011	-1239.101500	1978.729492	-14.749355
20391.491011	-1239.101500	1977.761719	119.171036
20391.491011	-1239.101500	1976.792969	84.994583
20391.491011	-1239.101500	1975.825195	-127.056297
20391.491011	-1239.101500	1974.856445	146.905807
20391.491011	-1239.101500	1973.887695	205.953140
20391.491011	-1239.101500	1972.918945	-100.255066
20391.491011	-1239.101500	1971.949219	177.977844
20391.491011	-1239.101500	1970.980469	-54.459576
20391.491011	-1239.101500	1970.010742	122.275764
20391.491011	-1239.101500	1969.041016	343.165497
20391.491011	-1239.101500	1968.071289	107.924934
20391.491011	-1239.101500	1967.101563	62.356125
20391.491011	-1239.101500	1966.130859	97.967598
20391.491011	-1239.101500	1965.161133	-105.471176
20391.491011	-1239.101500	1964.190430	-28.225965
20391.491011	-1239.101500	1963.219727	211.371552
20391.491011	-1239.101500	1962.249023	83.985168
20391.491011	-1239.101500	1961.277344	178.043167
20391.491011	-1239.101500	1960.306641	-40.546680
20391.491011	-1239.101500	1959.334961	156.626892
20391.491011	-1239.101500	1958.363281	60.917789
20391.491011	-1239.101500	1957.391602	85.659180
20391.491011	-1239.101500	1956.419922	292.262299
20391.491011	-1239.101500	1955.447266	255.320206
20391.491011	-1239.101500	1954.474609	92.956337
20391.491011	-1239.101500	1953.501953	363.098175
20391.491011	-1239.101500	1952.529297	129.371384
20391.491011	-1239.101500	1951.556641	133.952301
20391.491011	-1239.101500	1950.583984	219.518158
20391.491011	-1239.101500	1949.610352	74.154205
20391.491011	-1239.101500	1948.636719	83.465164
20391.491011	-1239.101500	1947.663086	163.903351
20391.491011	-1239.101500	1946.689453	89.637833
20391.491011	-1239.101500	1945.715820	-68.081406
20391.491011	-1239.101500	1944.741211	39.175907
20391.491011	-1239.101500	1943.767578	48.231472
20391.491011	-1239.101500	1942.792969	96.479874
20391.491011	-1239.101500	1941.818359	-7.354294
20391.491011	-1239.101500	1940.842773	217.321823
20391.491011	-1239.101500	1939.868164	15.387541
20391.491011	-1239.101500	1938.892578	11.997558
20391.491011	-1239.101500	1937.916992	-13.473314
20391.491011	-1239.101500	1936.941406	157.016190
20391.491011	-1239.101500	1935.965820	160.865631
20391.491011	-1239.101500	1934.990234	250.398346
20391.491011	-1239.101500	1934.013672	87.691841
20391.491011	-1239.101500	1933.037109	-52.942806
20391.491011	-1239.101500	1932.060547	-68.723488
20391.491011	-1239.101500	1931.083984	81.882797
20391.491011	-1239.101500	1930.107422	-2.451367
20391.491011	-1239.101500	1929.129883	-32.954578
20391.491011	-1239.101500	1928.153320	-36.555504
20391.491011	-1239.101500	1927.175781	-52.391804
20391.491011	-1239.101500	1926.198242	24.668547
20391.491011	-1239.101500	1925.219727	47.916183
20391.491011	-1239.101500	1924.242188	-65.701767
20391.491011	-1239.101500	1923.263672	38.173798
20391.491011	-1239.101500	1922.285156	-104.725708
20391.491011	-1239.101500	1921.306641	-103.470467
20391.491011	-1239.101500	1920.328125	29.650536
20391.491011	-1239.101500	1919.349609	-91.198624
20391.491011	-1239.101500	1918.370117	46.749821
20391.491011	-1239.101500	1917.391602	57.738495
20391.491011	-1239.101500	1916.412109	-138.692276
20391.491011	-1239.101500	1915.431641	11.390929
20391.491011	-1239.101500	1914.452148	-133.726486
20391.491011	-1239.101500	1913.472656	113.861671
20391.491011	-1239.101500	1912.492188	56.566402
20391.491011	-1239.101500	1911.511719	6.612660
20391.491011	-1239.101500	1910.531250	0.556633
20391.491011	-1239.101500	1909.550781	18.879267
20391.491011	-1239.101500	1908.569336	-28.586708
20391.491011	-1239.101500	1907.588867	-41.920551
20391.491011	-1239.101500	1906.607422	68.973366
20391.491011	-1239.101500	1905.625977	19.112633
20391.491011	-1239.101500	1904.644531	-42.895073
20391.491011	-1239.101500	1903.662109	-136.517975
20391.491011	-1239.101500	1902.680664	147.142883
20391.491011	-1239.101500	1901.698242	214.137100
20391.491011	-1239.101500	1900.715820	23.229107
20391.491011	-1239.101500	1899.733398	48.887688
20391.491011	-1239.101500	1898.750000	21.039988
20391.491011	-1239.101500	1897.767578	-57.847950
20391.491011	-1239.101500	1896.784180	-105.095757
20391.491011	-1239.101500	1895.800781	-132.872833
20391.491011	-1239.101500	1894.817383	-90.155876
20391.491011	-1239.101500	1893.833984	-25.579813
20391.491011	-1239.101500	1892.850586	-29.038401
20391.491011	-1239.101500	1891.866211	20.944155
20391.491011	-1239.101500	1890.881836	-111.209976
20391.491011	-1239.101500	1889.897461	1.910061
20391.491011	-1239.101500	1888.913086	-135.031021
20391.491011	-1239.101500	1887.927734	12.040122
20391.491011	-1239.101500	1886.943359	37.738419
20391.491011	-1239.101500	1885.958008	-94.262756
20391.491011	-1239.101500	1884.972656	-56.416439
20391.491011	-1239.101500	1883.987305	-324.148865
20391.491011	-1239.101500	1883.001953	9.551167
20391.491011	-1239.101500	1882.015625	-119.904198
20391.491011	-1239.101500	1881.029297	109.414658
20391.491011	-1239.101500	1880.042969	23.616570
20391.491011	-1239.101500	1879.056641	163.181412
20391.491011	-1239.101500	1878.070313	48.340050
20391.491011	-1239.101500	1877.083984	-47.081978
20391.491011	-1239.101500	1876.096680	92.420097
20391.491011	-1239.101500	1875.109375	89.026733
20391.491011	-1239.101500	1874.122070	-8.771531
20391.491011	-1239.101500	1873.134766	79.819527
20391.491011	-1239.101500	1872.146484	-105.054787
20391.491011	-1239.101500	1871.159180	12.547121
20391.491011	-1239.101500	1870.170898	-82.756302
20391.491011	-1239.101500	1869.182617	104.920380
20391.491011	-1239.101500	1868.194336	48.312714
20391.491011	-1239.101500	1867.205078	-141.240738
20391.491011	-1239.101500	1866.216797	109.164482
20391.491011	-1239.101500	1865.227539	-80.343544
20391.491011	-1239.101500	1864.238281	-8.852093
20391.491011	-1239.101500	1863.249023	40.862606
20391.491011	-1239.101500	1862.259766	-223.423950
20391.491011	-1239.101500	1861.269531	-26.412365
20391.491011	-1239.101500	1860.279297	-15.385253
20391.491011	-1239.101500	1859.290039	5.282040
20391.491011	-1239.101500	1858.298828	79.018616
20391.491011	-1239.101500	1857.308594	138.236328
20391.491011	-1239.101500	1856.318359	74.380974
20391.491011	-1239.101500	1855.327148	-23.237450
20391.491011	-1239.101500	1854.335938	79.323074
20391.491011	-1239.101500	1853.344727	-27.939369
20391.491011	-1239.101500	1852.353516	-306.336273
20391.491011	-1239.101500	1851.362305	-153.225067
20391.491011	-1239.101500	1850.370117	86.556671
20391.491011	-1239.101500	1849.377930	-105.037262
20391.491011	-1239.101500	1848.385742	-74.968781
20391.491011	-1239.101500	1847.393555	-1.586519
20391.491011	-1239.101500	1846.401367	-99.218613
20391.491011	-1239.101500	1845.408203	41.496437
20391.491011	-1239.101500	1844.415039	90.665817
20391.491011	-1239.101500	1843.421875	-55.145058
20391.491011	-1239.101500	1842.428711	-111.903969
20391.491011	-1239.101500	1841.435547	21.376369
20391.491011	-1239.101500	1840.441406	89.631508
20391.491011	-1239.101500	1839.448242	68.854523
20391.491011	-1239.101500	1838.454102	-9.652836
20391.491011	-1239.101500	1837.459961	205.104507
20391.491011	-1239.101500	1836.464844	-205.141159
20391.491011	-1239.101500	1835.470703	105.618156
20391.491011	-1239.101500	1834.475586	-153.171539
20391.491011	-1239.101500	1833.480469	20.466415
20391.491011	-1239.101500	1832.485352	-0.529518
20391.491011	-1239.101500	1831.490234	175.334793
20391.491011	-1239.101500	1830.495117	-4.210201
20391.491011	-1239.101500	1829.499023	-27.717600
20391.491011	-1239.101500	1828.502930	18.333389
20391.491011	-1239.101500	1827.506836	162.695694
20391.491011	-1239.101500	1826.510742	163.025574
20391.491011	-1239.101500	1825.513672	74.563705
20391.491011	-1239.101500	1824.517578	-16.307989
20391.491011	-1239.101500	1823.520508	110.977730
20391.491011	-1239.101500	1822.523438	39.209511
20391.491011	-1239.101500	1821.526367	166.336609
20391.491011	-1239.101500	1820.529297	130.425476
20391.491011	-1239.101500	1819.531250	125.615929
20391.491011	-1239.101500	1818.533203	60.873611
20391.491011	-1239.101500	1817.535156	106.262039
20391.491011	-1239.101500	1816.537109	115.663124
20391.491011	-1239.101500	1815.539063	72.337669
20391.491011	-1239.101500	1814.540039	163.001465
20391.491011	-1239.101500	1813.541992	251.184067
20391.491011	-1239.101500	1812.542969	140.688004
20391.491011	-1239.101500	1811.543945	-12.883943
20391.491011	-1239.101500	1810.543945	70.310745
20391.491011	-1239.101500	1809.544922	-9.186148
20391.491011	-1239.101500	1808.544922	188.608139
20391.491011	-1239.101500	1807.544922	-108.527573
20391.491011	-1239.101500	1806.544922	7.826767
20391.491011	-1239.101500	1805.544922	81.062927
20391.491011	-1239.101500	1804.544922	276.040466
20391.491011	-1239.101500	1803.543945	64.831985
20391.491011	-1239.101500	1802.542969	1.692271
20391.491011	-1239.101500	1801.541992	-118.793533
20391.491011	-1239.101500	1800.541016	-72.205299
20391.491011	-1239.101500	1799.539063	-6.615132
20391.491011	-1239.101500	1798.538086	-7.930937
20391.491011	-1239.101500	1797.536133	26.463537
20391.491011	-1239.101500	1796.534180	91.781502
20391.491011	-1239.101500	1795.532227	-26.633995
20391.491011	-1239.101500	1794.529297	-56.860245
20391.491011	-1239.101500	1793.527344	163.171188
20391.491011	-1239.101500	1792.524414	-196.155533
20391.491011	-1239.101500	1791.521484	-74.042793
20391.491011	-1239.101500	1790.518555	-21.150425
20391.491011	-1239.101500	1789.514648	81.665665
20391.491011	-1239.101500	1788.511719	215.330170
20391.491011	-1239.101500	1787.507813	72.633804
20391.491011	-1239.101500	1786.503906	18.002550
20391.491011	-1239.101500	1785.500000	-0.984109
20391.491011	-1239.101500	1784.496094	103.710373
20391.491011	-1239.101500	1783.491211	-5.872831
20391.491011	-1239.101500	1782.486328	12.968971
20391.491011	-1239.101500	1781.481445	19.828022
20391.491011	-1239.101500	1780.476563	48.004589
20391.491011	-1239.101500	1779.471680	42.797974
20391.491011	-1239.101500	1778.465820	30.372084
20391.491011	-1239.101500	1777.460938	136.709106
20391.491011	-1239.101500	1776.455078	-144.423248
20391.491011	-1239.101500	1775.449219	37.755486
20391.491011	-1239.101500	1774.442383	131.882584
20391.491011	-1239.101500	1773.436523	-144.598129
20391.491011	-1239.101500	1772.429688	-19.778912
20391.491011	-1239.101500	1771.422852	-58.904297
20391.491011	-1239.101500	1770.416016	-112.344772
20391.491011	-1239.101500	1769.409180	-11.599711
20391.491011	-1239.101500	1768.402344	-110.288597
20391.491011	-1239.101500	1767.394531	-59.585186
20391.491011	-1239.101500	1766.386719	-68.285271
20391.491011	-1239.101500	1765.378906	160.061050
20391.491011	-1239.101500	1764.371094	120.318733
20391.491011	-1239.101500	1763.362305	-142.326889
20391.491011	-1239.101500	1762.354492	28.748755
20391.491011	-1239.101500	1761.345703	26.686068
20391.491011	-1239.101500	1760.336914	100.342209
20391.491011	-1239.101500	1759.328125	105.186691
20391.491011	-1239.101500	1758.318359	19.939676
20391.491011	-1239.101500	1757.308594	0.927352
20391.491011	-1239.101500	1756.299805	-63.140900
20391.491011	-1239.101500	1755.290039	-23.145130
20391.491011	-1239.101500	1754.279297	113.756073
20391.491011	-1239.101500	1753.269531	61.243637
20391.491011	-1239.101500	1752.258789	155.310089
20391.491011	-1239.101500	1751.249023	57.687531
20391.491011	-1239.101500	1750.238281	38.030262
20391.491011	-1239.101500	1749.226563	-118.840736
20391.491011	-1239.101500	1748.215820	59.903893
20391.491011	-1239.101500	1747.204102	134.496109
20391.491011	-1239.101500	1746.193359	24.675777
20391.491011	-1239.101500	1745.181641	21.100340
20391.491011	-1239.101500	1744.168945	31.593777
20391.491011	-1239.101500	1743.157227	41.997135
20391.491011	-1239.101500	1742.144531	-13.813895
20391.491011	-1239.101500	1741.132813	81.383949
20391.491011	-1239.101500	1740.120117	-104.406036
20391.491011	-1239.101500	1739.106445	18.881439
20391.491011	-1239.101500	1738.093750	87.774887
20391.491011	-1239.101500	1737.080078	203.713669
20391.491011	-1239.101500	1736.067383	12.946385
20391.491011	-1239.101500	1735.053711	-67.033218
20391.491011	-1239.101500	1734.040039	-24.492289
20391.491011	-1239.101500	1733.025391	107.490662
20391.491011	-1239.101500	1732.011719	-8.089883
20391.491011	-1239.101500	1730.997070	5.850976
20391.491011	-1239.101500	1729.982422	-34.484741
20391.491011	-1239.101500	1728.967773	-20.730560
20391.491011	-1239.101500	1727.952148	-110.689957
20391.491011	-1239.101500	1726.937500	93.579758
20391.491011	-1239.101500	1725.921875	-67.166412
20391.491011	-1239.101500	1724.906250	-100.863617
20391.491011	-1239.101500	1723.890625	44.177917
20391.491011	-1239.101500	1722.875000	179.662659
20391.491011	-1239.101500	1721.858398	-44.857822
20391.491011	-1239.101500	1720.841797	12.797915
20391.491011	-1239.101500	1719.825195	-9.594339
20391.491011	-1239.101500	1718.808594	92.512703
20391.491011	-1239.101500	1717.791992	-80.478180
20391.491011	-1239.101500	1716.774414	150.648315
20391.491011	-1239.101500	1715.756836	8.062374
20391.491011	-1239.101500	1714.739258	-10.070470
20391.491011	-1239.101500	1713.721680	46.863544
20391.491011	-1239.101500	1712.704102	-67.711250
20391.491011	-1239.101500	1711.685547	162.737503
20391.491011	-1239.101500	1710.667969	-13.012623
20391.491011	-1239.101500	1709.649414	-1.067385
20391.491011	-1239.101500	1708.630859	231.322205
20391.491011	-1239.101500	1707.611328	17.847414
20391.491011	-1239.101500	1706.592773	-169.821869
20391.491011	-1239.101500	1705.573242	69.233391
20391.491011	-1239.101500	1704.553711	10.383650
20391.491011	-1239.101500	1703.534180	-60.246441
20391.491011	-1239.101500	1702.513672	14.347559
20391.491011	-1239.101500	1701.494141	91.185959
20391.491011	-1239.101500	1700.473633	74.199821
20391.491011	-1239.101500	1699.453125	17.324484
20391.491011	-1239.101500	1698.432617	-72.393456
20391.491011	-1239.101500	1697.412109	-176.203308
20391.491011	-1239.101500	1696.390625	-116.214241
20391.491011	-1239.101500	1695.369141	39.623680
20391.491011	-1239.101500	1694.347656	122.789703
20391.491011	-1239.101500	1693.326172	-39.787670
20391.491011	-1239.101500	1692.304688	78.291733
20391.491011	-1239.101500	1691.282227	247.684067
20391.491011	-1239.101500	1690.260742	120.019730
20391.491011	-1239.101500	1689.238281	62.444199
20391.491011	-1239.101500	1688.214844	84.266685
20391.491011	-1239.101500	1687.192383	274.262543
20391.491011	-1239.101500	1686.168945	158.053452
20391.491011	-1239.101500	1685.146484	205.334961
20391.491011	-1239.101500	1684.123047	296.886749
20391.491011	-1239.101500	1683.099609	243.571228
20391.491011	-1239.101500	1682.075195	-19.905146
20391.491011	-1239.101500	1681.051758	363.178131
20391.491011	-1239.101500	1680.027344	234.990936
20391.491011	-1239.101500	1679.002930	295.765076
20391.491011	-1239.101500	1677.978516	344.788605
20391.491011	-1239.101500	1676.953125	242.122253
20391.491011	-1239.101500	1675.928711	493.869934
20391.491011	-1239.101500	1674.903320	360.781097
20391.491011	-1239.101500	1673.877930	248.660187
20391.491011	-1239.101500	1672.852539	479.088226
20391.491011	-1239.101500	1671.826172	721.003662
20391.491011	-1239.101500	1670.800781	755.455383
20391.491011	-1239.101500	1669.774414	535.957886
20391.491011	-1239.101500	1668.748047	267.586548
20391.491011	-1239.101500	1667.721680	511.454590
20391.491011	-1239.101500	1666.694336	578.254211
20391.491011	-1239.101500	1665.667969	635.678345
20391.491011	-1239.101500	1664.640625	679.053650
20391.491011	-1239.101500	1663.613281	787.496643
20391.491011	-1239.101500	1662.585938	877.240845
20391.491011	-1239.101500	1661.557617	741.317078
20391.491011	-1239.101500	1660.530273	765.835815
20391.491011	-1239.101500	1659.501953	839.098816
20391.491011	-1239.101500	1658.473633	784.460205
20391.491011	-1239.101500	1657.444336	1036.504517
20391.491011	-1239.101500	1656.416016	891.154907
20391.491011	-1239.101500	1655.386719	1010.595825
20391.491011	-1239.101500	1654.358398	865.220337
20391.491011	-1239.101500	1653.328125	1075.074219
20391.491011	-1239.101500	1652.298828	1099.108276
20391.491011	-1239.101500	1651.269531	1074.354858
20391.491011	-1239.101500	1650.239258	1425.478516
20391.491011	-1239.101500	1649.208984	1254.418579
20391.491011	-1239.101500	1648.178711	1292.151855
20391.491011	-1239.101500	1647.148438	1255.624023
20391.491011	-1239.101500	1646.117188	1441.657227
20391.491011	-1239.101500	1645.086914	1337.818237
20391.491011	-1239.101500	1644.055664	1231.656128
20391.491011	-1239.101500	1643.024414	1537.995239
20391.491011	-1239.101500	1641.992188	1445.662842
20391.491011	-1239.101500	1640.960938	1351.037231
20391.491011	-1239.101500	1639.928711	1478.743530
20391.491011	-1239.101500	1638.896484	1444.286011
20391.491011	-1239.101500	1637.864258	1724.672485
20391.491011	-1239.101500	1636.832031	1835.957153
20391.491011	-1239.101500	1635.798828	1745.825562
20391.491011	-1239.101500	1634.766602	1863.961914
20391.491011	-1239.101500	1633.733398	1903.366089
20391.491011	-1239.101500	1632.699219	1889.524658
20391.491011	-1239.101500	1631.666016	1699.942993
20391.491011	-1239.101500	1630.632813	1827.160522
20391.491011	-1239.101500	1629.598633	1901.133301
20391.491011	-1239.101500	1628.564453	1822.533447
20391.491011	-1239.101500	1627.530273	1861.794067
20391.491011	-1239.101500	1626.495117	1778.574463
20391.491011	-1239.101500	1625.460938	1967.940552
20391.491011	-1239.101500	1624.425781	1923.973389
20391.491011	-1239.101500	1623.390625	1778.427368
20391.491011	-1239.101500	1622.355469	1692.950317
20391.491011	-1239.101500	1621.319336	1745.963013
20391.491011	-1239.101500	1620.284180	2175.087646
20391.491011	-1239.101500	1619.248047	1745.810913
20391.491011	-1239.101500	1618.211914	1782.630737
20391.491011	-1239.101500	1617.174805	1990.076416
20391.491011	-1239.101500	1616.138672	1941.527588
20391.491011	-1239.101500	1615.101563	2125.814209
20391.491011	-1239.101500	1614.065430	1915.930298
20391.491011	-1239.101500	1613.027344	1957.276733
20391.491011	-1239.101500	1611.990234	2033.188599
20391.491011	-1239.101500	1610.953125	1952.444092
20391.491011	-1239.101500	1609.915039	2182.630615
20391.491011	-1239.101500	1608.876953	2071.962158
20391.491011	-1239.101500	1607.838867	2166.235107
20391.491011	-1239.101500	1606.800781	1832.378662
20391.491011	-1239.101500	1605.761719	2232.735596
20391.491011	-1239.101500	1604.723633	2237.238037
20391.491011	-1239.101500	1603.684570	2184.234863
20391.491011	-1239.101500	1602.644531	2117.456055
20391.491011	-1239.101500	1601.605469	2379.553955
20391.491011	-1239.101500	1600.566406	2280.634766
20391.491011	-1239.101500	1599.526367	2172.567627
20391.491011	-1239.101500	1598.486328	2163.384277
20391.491011	-1239.101500	1597.446289	2170.312500
20391.491011	-1239.101500	1596.405273	2220.895996
20391.491011	-1239.101500	1595.365234	2014.270874
20391.491011	-1239.101500	1594.324219	2227.958008
20391.491011	-1239.101500	1593.283203	2039.823120
20391.491011	-1239.101500	1592.242188	2074.445068
20391.491011	-1239.101500	1591.200195	1907.119385
20391.491011	-1239.101500	1590.159180	1882.165771
20391.491011	-1239.101500	1589.117188	2283.931152
20391.491011	-1239.101500	1588.075195	2263.559082
20391.491011	-1239.101500	1587.032227	2213.407715
20391.491011	-1239.101500	1585.990234	2071.623535
20391.491011	-1239.101500	1584.947266	2133.929932
20391.491011	-1239.101500	1583.904297	2180.211182
20391.491011	-1239.101500	1582.861328	2166.943359
20391.491011	-1239.101500	1581.818359	1975.036743
20391.491011	-1239.101500	1580.775391	2023.746582
20391.491011	-1239.101500	1579.731445	2216.740967
20391.491011	-1239.101500	1578.687500	2132.673584
20391.491011	-1239.101500	1577.643555	2028.086670
20391.491011	-1239.101500	1576.598633	2177.617432
20391.491011	-1239.101500	1575.554688	2366.055908
20391.491011	-1239.101500	1574.509766	2202.147705
20391.491011	-1239.101500	1573.464844	2072.667480
20391.491011	-1239.101500	1572.419922	2236.010742
20391.491011	-1239.101500	1571.374023	2241.572998
20391.491011	-1239.101500	1570.329102	1817.445190
20391.491011	-1239.101500	1569.283203	1841.489868
20391.491011	-1239.101500	1568.237305	1687.351440
20391.491011	-1239.101500	1567.191406	1933.142212
20391.491011	-1239.101500	1566.144531	1724.339844
20391.491011	-1239.101500	1565.098633	1885.658081
20391.491011	-1239.101500	1564.051758	1619.995728
20391.491011	-1239.101500	1563.004883	1457.232422
20391.491011	-1239.101500	1561.957031	1616.401489
20391.491011	-1239.101500	1560.910156	1440.148682
20391.491011	-1239.101500	1559.862305	1540.081543
20391.491011	-1239.101500	1558.814453	1380.010986
20391.491011	-1239.101500	1557.766602	1381.996582
20391.491011	-1239.101500	1556.718750	1420.538452
20391.491011	-1239.101500	1555.669922	1413.534668
20391.491011	-1239.101500	1554.621094	1572.993896
20391.491011	-1239.101500	1553.573242	1345.087524
20391.491011	-1239.101500	1552.523438	1320.097656
20391.491011	-1239.101500	1551.474609	1429.605835
20391.491011	-1239.101500	1550.424805	1495.868286
20391.491011	-1239.101500	1549.375000	1195.591431
20391.491011	-1239.101500	1548.325195	1025.280396
20391.491011	-1239.101500	1547.275391	1355.860962
20391.491011	-1239.101500	1546.225586	919.505981
20391.491011	-1239.101500	1545.174805	1279.715942
20391.491011	-1239.101500	1544.124023	1153.075684
20391.491011	-1239.101500	1543.073242	1142.564697
20391.491011	-1239.101500	1542.022461	1166.256348
20391.491011	-1239.101500	1540.970703	1103.628662
20391.491011	-1239.101500	1539.919922	818.380005
20391.491011	-1239.101500	1538.868164	951.467529
20391.491011	-1239.101500	1537.815430	957.350708
20391.491011	-1239.101500	1536.763672	1022.399719
20391.491011	-1239.101500	1535.710938	998.934875
20391.491011	-1239.101500	1534.659180	891.570313
20391.491011	-1239.101500	1533.606445	945.525024
20391.491011	-1239.101500	1532.552734	824.771973
20391.491011	-1239.101500	1531.500000	944.731201
20391.491011	-1239.101500	1530.446289	844.648804
20391.491011	-1239.101500	1529.393555	606.342834
20391.491011	-1239.101500	1528.338867	790.066406
20391.491011	-1239.101500	1527.285156	851.383606
20391.491011	-1239.101500	1526.231445	681.534363
20391.491011	-1239.101500	1525.176758	554.916199
20391.491011	-1239.101500	1524.122070	537.235046
20391.491011	-1239.101500	1523.067383	639.756470
20391.491011	-1239.101500	1522.012695	715.161987
20391.491011	-1239.101500	1520.957031	693.248779
20391.491011	-1239.101500	1519.901367	449.540863
20391.491011	-1239.101500	1518.845703	464.136688
20391.491011	-1239.101500	1517.790039	589.752808
20391.491011	-1239.101500	1516.734375	262.813934
20391.491011	-1239.101500	1515.677734	318.498657
20391.491011	-1239.101500	1514.621094	439.881073
20391.491011	-1239.101500	1513.564453	369.083038
20391.491011	-1239.101500	1512.507813	361.745911
20391.491011	-1239.101500	1511.450195	388.435516
20391.491011	-1239.101500	1510.393555	125.909286
20391.491011	-1239.101500	1509.335938	164.173141
20391.491011	-1239.101500	1508.278320	315.518219
20391.491011	-1239.101500	1507.219727	64.803680
20391.491011	-1239.101500	1506.162109	13.077037
20391.491011	-1239.101500	1505.103516	162.462280
20391.491011	-1239.101500	1504.044922	-40.290974
20391.491011	-1239.101500	1502.986328	-46.457481
20391.491011	-1239.101500	1501.926758	-61.531052
20391.491011	-1239.101500	1500.868164	133.378342
20391.491011	-1239.101500	1499.808594	-233.397141
20391.491011	-1239.101500	1498.749023	79.001793
20391.491011	-1239.101500	1497.688477	64.416733
20391.491011	-1239.101500	1496.628906	49.973034
20391.491011	-1239.101500	1495.568359	-167.214020
20391.491011	-1239.101500	1494.507813	-88.950668
20391.491011	-1239.101500	1493.447266	-258.445374
20391.491011	-1239.101500	1492.386719	-107.844093
20391.491011	-1239.101500	1491.325195	-4.476431
20391.491011	-1239.101500	1490.263672	-130.710724
20391.491011	-1239.101500	1489.202148	-333.310120
20391.491011	-1239.101500	1488.140625	-108.004662
20391.491011	-1239.101500	1487.079102	94.839951
20391.491011	-1239.101500	1486.016602	-354.799683
20391.491011	-1239.101500	1484.954102	-275.452698
20391.491011	-1239.101500	1483.891602	-67.796455
20391.491011	-1239.101500	1482.829102	-116.444748
20391.491011	-1239.101500	1481.765625	-50.275970
20391.491011	-1239.101500	1480.702148	24.997522
20391.491011	-1239.101500	1479.638672	-104.130722
20391.491011	-1239.101500	1478.575195	-17.374191
20391.491011	-1239.101500	1477.511719	177.289932
20391.491011	-1239.101500	1476.447266	-61.385300
20391.491011	-1239.101500	1475.382813	102.027695
20391.491011	-1239.101500	1474.318359	-136.194412
20391.491011	-1239.101500	1473.253906	177.864731
20391.491011	-1239.101500	1472.189453	265.259094
20391.491011	-1239.101500	1471.124023	130.818542
20391.491011	-1239.101500	1470.058594	417.828308
20391.491011	-1239.101500	1468.993164	469.795471
20391.491011	-1239.101500	1467.927734	396.205658
20391.491011	-1239.101500	1466.861328	477.339355
20391.491011	-1239.101500	1465.794922	478.073029
20391.491011	-1239.101500	1464.728516	778.940063
20391.491011	-1239.101500	1463.662109	497.909485
20391.491011	-1239.101500	1462.594727	293.179199
20391.491011	-1239.101500	1461.528320	480.293365
20391.491011	-1239.101500	1460.460938	543.948669
20391.491011	-1239.101500	1459.393555	447.320557
20391.491011	-1239.101500	1458.326172	489.872955
20391.491011	-1239.101500	1457.257813	573.743958
20391.491011	-1239.101500	1456.189453	778.722717
20391.491011	-1239.101500	1455.121094	392.656006
20391.491011	-1239.101500	1454.052734	656.163086
20391.491011	-1239.101500	1452.984375	502.146393
20391.491011	-1239.101500	1451.915039	304.080444
20391.491011	-1239.101500	1450.845703	501.366089
20391.491011	-1239.101500	1449.776367	599.137085
20391.491011	-1239.101500	1448.707031	404.259644
20391.491011	-1239.101500	1447.636719	472.232361
20391.491011	-1239.101500	1446.567383	357.487000
20391.491011	-1239.101500	1445.497070	442.251190
20391.491011	-1239.101500	1444.425781	575.598511
20391.491011	-1239.101500	1443.355469	565.215820
20391.491011	-1239.101500	1442.285156	523.787292
20391.491011	-1239.101500	1441.213867	433.441254
20391.491011	-1239.101500	1440.142578	436.506561
20391.491011	-1239.101500	1439.070313	353.155609
20391.491011	-1239.101500	1437.999023	493.311066
20391.491011	-1239.101500	1436.926758	551.861816
20391.491011	-1239.101500	1435.854492	617.098206
20391.491011	-1239.101500	1434.782227	361.054138
20391.491011	-1239.101500	1433.709961	457.550873
20391.491011	-1239.101500	1432.636719	315.281952
20391.491011	-1239.101500	1431.563477	76.568336
20391.491011	-1239.101500	1430.490234	215.634430
20391.491011	-1239.101500	1429.416992	453.609924
20391.491011	-1239.101500	1428.343750	270.629333
20391.491011	-1239.101500	1427.269531	76.764793
20391.491011	-1239.101500	1426.195313	-18.914417
20391.491011	-1239.101500	1425.121094	332.187134
20391.491011	-1239.101500	1424.046875	143.537888
20391.491011	-1239.101500	1422.971680	68.458549
20391.491011	-1239.101500	1421.896484	215.324417
20391.491011	-1239.101500	1420.821289	-6.774991
20391.491011	-1239.101500	1419.746094	161.238129
20391.491011	-1239.101500	1418.669922	287.139038
20391.491011	-1239.101500	1417.594727	183.175186
20391.491011	-1239.101500	1416.518555	72.745148
20391.491011	-1239.101500	1415.442383	332.327850
20391.491011	-1239.101500	1414.365234	111.773277
20391.491011	-1239.101500	1413.289063	159.096283
20391.491011	-1239.101500	1412.211914	78.451370
20391.491011	-1239.101500	1411.134766	-14.070806
20391.491011	-1239.101500	1410.057617	32.740257
20391.491011	-1239.101500	1408.979492	-14.358642
20391.491011	-1239.101500	1407.902344	-119.054176
20391.491011	-1239.101500	1406.824219	146.877747
20391.491011	-1239.101500	1405.746094	10.108126
20391.491011	-1239.101500	1404.666992	-73.692696
20391.491011	-1239.101500	1403.588867	221.740677
20391.491011	-1239.101500	1402.509766	-125.299324
20391.491011	-1239.101500	1401.430664	-27.415678
20391.491011	-1239.101500	1400.351563	90.684044
20391.491011	-1239.101500	1399.271484	-77.793106
20391.491011	-1239.101500	1398.192383	110.874939
20391.491011	-1239.101500	1397.112305	129.232819
20391.491011	-1239.101500	1396.031250	104.670937
20391.491011	-1239.101500	1394.951172	14.966269
20391.491011	-1239.101500	1393.871094	116.568237
20391.491011	-1239.101500	1392.790039	27.004881
20391.491011	-1239.101500	1391.708984	12.675885
20391.491011	-1239.101500	1390.626953	129.332169
20391.491011	-1239.101500	1389.545898	150.559937
20391.491011	-1239.101500	1388.463867	378.919403
20391.491011	-1239.101500	1387.381836	47.168095
20391.491011	-1239.101500	1386.299805	244.717453
20391.491011	-1239.101500	1385.217773	212.751358
20391.491011	-1239.101500	1384.134766	317.889557
20391.491011	-1239.101500	1383.051758	194.731842
20391.491011	-1239.101500	1381.968750	309.264801
20391.491011	-1239.101500	1380.885742	153.624435
20391.491011	-1239.101500	1379.802734	471.035583
20391.491011	-1239.101500	1378.718750	208.424194
20391.491011	-1239.101500	1377.634766	297.305420
20391.491011	-1239.101500	1376.550781	394.924622
20391.491011	-1239.101500	1375.465820	233.968750
20391.491011	-1239.101500	1374.381836	211.918091
20391.491011	-1239.101500	1373.296875	416.065430
20391.491011	-1239.101500	1372.211914	238.814011
20391.491011	-1239.101500	1371.126953	136.607361
20391.491011	-1239.101500	1370.041016	351.871246
20391.491011	-1239.101500	1368.955078	212.569061
20391.491011	-1239.101500	1367.869141	149.344528
20391.491011	-1239.101500	1366.783203	150.242706
20391.491011	-1239.101500	1365.697266	265.434601
20391.491011	-1239.101500	1364.610352	141.322998
20391.491011	-1239.101500	1363.523438	208.600266
20391.491011	-1239.101500	1362.436523	146.724503
20391.491011	-1239.101500	1361.349609	187.745590
20391.491011	-1239.101500	1360.261719	232.206375
20391.491011	-1239.101500	1359.174805	-43.651344
20391.491011	-1239.101500	1358.086914	106.375290
20391.491011	-1239.101500	1356.998047	125.667488
20391.491011	-1239.101500	1355.910156	15.468386
20391.491011	-1239.101500	1354.821289	232.856415
20391.491011	-1239.101500	1353.732422	314.005341
20391.491011	-1239.101500	1352.643555	104.821457
20391.491011	-1239.101500	1351.554688	241.213928
20391.491011	-1239.101500	1350.464844	39.058437
20391.491011	-1239.101500	1349.375000	55.566414
20391.491011	-1239.101500	1348.285156	331.505432
20391.491011	-1239.101500	1347.195313	275.953613
20391.491011	-1239.101500	1346.105469	140.520264
20391.491011	-1239.101500	1345.014648	489.362793
20391.491011	-1239.101500	1343.923828	148.581726
20391.491011	-1239.101500	1342.833008	431.684875
20391.491011	-1239.101500	1341.741211	254.340530
20391.491011	-1239.101500	1340.650391	166.502014
20391.491011	-1239.101500	1339.558594	174.657501
20391.491011	-1239.101500	1338.466797	357.855316
20391.491011	-1239.101500	1337.374023	222.536560
20391.491011	-1239.101500	1336.282227	269.333527
20391.491011	-1239.101500	1335.189453	366.327789
20391.491011	-1239.101500	1334.096680	512.569275
20391.491011	-1239.101500	1333.003906	347.818665
20391.491011	-1239.101500	1331.910156	219.503708
20391.491011	-1239.101500	1330.817383	228.751007
20391.491011	-1239.101500	1329.723633	197.080399
20391.491011	-1239.101500	1328.629883	269.374420
20391.491011	-1239.101500	1327.535156	159.655838
20391.491011	-1239.101500	1326.441406	187.091629
20391.491011	-1239.101500	1325.346680	81.184647
20391.491011	-1239.101500	1324.251953	208.829773
20391.491011	-1239.101500	1323.156250	192.542282
20391.491011	-1239.101500	1322.061523	40.971901
20391.491011	-1239.101500	1320.965820	71.566399
20391.491011	-1239.101500	1319.870117	70.796509
20391.491011	-1239.101500	1318.774414	88.984337
20391.491011	-1239.101500	1317.678711	91.078926
20391.491011	-1239.101500	1316.582031	-26.697031
20391.491011	-1239.101500	1315.485352	115.140587
20391.491011	-1239.101500	1314.388672	373.897278
20391.491011	-1239.101500	1313.291016	-12.750029
20391.491011	-1239.101500	1312.194336	191.805206
20391.491011	-1239.101500	1311.096680	284.805817
20391.491011	-1239.101500	1309.999023	361.709229
20391.491011	-1239.101500	1308.901367	69.659767
20391.491011	-1239.101500	1307.802734	311.363983
20391.491011	-1239.101500	1306.705078	257.086945
20391.491011	-1239.101500	1305.606445	400.617950
20391.491011	-1239.101500	1304.506836	333.673767
20391.491011	-1239.101500	1303.408203	280.065033
20391.491011	-1239.101500	1302.308594	303.272797
20391.491011	-1239.101500	1301.208984	521.695374
20391.491011	-1239.101500	1300.109375	462.863770
20391.491011	-1239.101500	1299.009766	537.435059
20391.491011	-1239.101500	1297.909180	500.117157
20391.491011	-1239.101500	1296.808594	640.080627
20391.491011	-1239.101500	1295.708008	580.560669
20391.491011	-1239.101500	1294.607422	577.990601
20391.491011	-1239.101500	1293.506836	428.092804
20391.491011	-1239.101500	1292.405273	185.146820
20391.491011	-1239.101500	1291.303711	349.249725
20391.491011	-1239.101500	1290.202148	333.406158
20391.491011	-1239.101500	1289.099609	436.467010
20391.491011	-1239.101500	1287.998047	107.712273
20391.491011	-1239.101500	1286.895508	282.640839
20391.491011	-1239.101500	1285.792969	186.945328
20391.491011	-1239.101500	1284.689453	265.884918
20391.491011	-1239.101500	1283.586914	234.936615
20391.491011	-1239.101500	1282.483398	-74.611351
20391.491011	-1239.101500	1281.379883	213.281128
20391.491011	-1239.101500	1280.276367	99.089386
20391.491011	-1239.101500	1279.171875	-23.906679
20391.491011	-1239.101500	1278.067383	57.224533
20391.491011	-1239.101500	1276.962891	-76.446899
20391.491011	-1239.101500	1275.858398	10.775062
20391.491011	-1239.101500	1274.753906	-33.162544
20391.491011	-1239.101500	1273.648438	32.212673
20391.491011	-1239.101500	1272.542969	137.401520
20391.491011	-1239.101500	1271.437500	171.462372
20391.491011	-1239.101500	1270.331055	61.136219
20391.491011	-1239.101500	1269.225586	94.740166
20391.491011	-1239.101500	1268.119141	85.366844
20391.491011	-1239.101500	1267.012695	139.152710
20391.491011	-1239.101500	1265.906250	191.021347
20391.491011	-1239.101500	1264.798828	44.569344
20391.491011	-1239.101500	1263.691406	216.051254
20391.491011	-1239.101500	1262.583984	18.798895
20391.491011	-1239.101500	1261.476563	217.368668
20391.491011	-1239.101500	1260.368164	28.976362
20391.491011	-1239.101500	1259.260742	231.500305
20391.491011	-1239.101500	1258.152344	6.858636
20391.491011	-1239.101500	1257.043945	-26.837725
20391.491011	-1239.101500	1255.934570	67.148537
20391.491011	-1239.101500	1254.825195	-20.935926
20391.491011	-1239.101500	1253.716797	104.224861
20391.491011	-1239.101500	1252.606445	14.204620
20391.491011	-1239.101500	1251.497070	107.338409
20391.491011	-1239.101500	1250.387695	75.672142
20391.491011	-1239.101500	1249.277344	122.735184
20391.491011	-1239.101500	1248.166992	8.119863
20391.491011	-1239.101500	1247.055664	137.421936
20391.491011	-1239.101500	1245.945313	18.531380
20391.491011	-1239.101500	1244.833984	109.444565
20391.491011	-1239.101500	1243.722656	-81.854538
20391.491011	-1239.101500	1242.611328	-88.965714
20391.491011	-1239.101500	1241.499023	87.244873
20391.491011	-1239.101500	1240.387695	82.999283
20391.491011	-1239.101500	1239.275391	163.349533
20391.491011	-1239.101500	1238.162109	82.521027
20391.491011	-1239.101500	1237.049805	84.565956
20391.491011	-1239.101500	1235.936523	-33.268375
20391.491011	-1239.101500	1234.823242	-34.578991
20391.491011	-1239.101500	1233.709961	119.041206
20391.491011	-1239.101500	1232.596680	116.192665
20391.491011	-1239.101500	1231.482422	-10.812123
20391.491011	-1239.101500	1230.369141	73.413193
20391.491011	-1239.101500	1229.253906	172.256485
20391.491011	-1239.101500	1228.139648	22.970293
20391.491011	-1239.101500	1227.025391	133.148346
20391.491011	-1239.101500	1225.910156	79.618683
20391.491011	-1239.101500	1224.794922	120.411438
20391.491011	-1239.101500	1223.679688	83.062653
20391.491011	-1239.101500	1222.563477	-64.532295
20391.491011	-1239.101500	1221.447266	10.423397
20391.491011	-1239.101500	1220.331055	-233.557663
20391.491011	-1239.101500	1219.214844	-50.695244
20391.491011	-1239.101500	1218.098633	-39.381020
20391.491011	-1239.101500	1216.981445	-70.865211
20391.491011	-1239.101500	1215.864258	20.157919
20391.491011	-1239.101500	1214.747070	-147.881989
20391.491011	-1239.101500	1213.629883	-96.952721
20391.491011	-1239.101500	1212.511719	-149.196198
20391.491011	-1239.101500	1211.393555	-99.725517
20391.491011	-1239.101500	1210.275391	-174.979141
20391.491011	-1239.101500	1209.157227	-115.238327
20391.491011	-1239.101500	1208.038086	-159.521072
20391.491011	-1239.101500	1206.918945	28.962032
20391.491011	-1239.101500	1205.799805	-73.182533
20391.491011	-1239.101500	1204.680664	-53.027992
20391.491011	-1239.101500	1203.560547	-72.363945
20391.491011	-1239.101500	1202.441406	-1.598428
20391.491011	-1239.101500	1201.321289	-136.007965
20391.491011	-1239.101500	1200.200195	-19.007647
20391.491011	-1239.101500	1199.080078	-120.115623
20391.491011	-1239.101500	1197.958984	-91.982643
20391.491011	-1239.101500	1196.837891	-15.727091
20391.491011	-1239.101500	1195.716797	-116.797119
20391.491011	-1239.101500	1194.594727	-42.423988
20391.491011	-1239.101500	1193.473633	-149.312881
20391.491011	-1239.101500	1192.351563	-52.131557
20391.491011	-1239.101500	1191.229492	44.541916
20391.491011	-1239.101500	1190.106445	10.734908
20391.491011	-1239.101500	1188.984375	-53.591354
20391.491011	-1239.101500	1187.861328	-114.489708
20391.491011	-1239.101500	1186.738281	-161.191345
20391.491011	-1239.101500	1185.614258	-86.719841
20391.491011	-1239.101500	1184.491211	48.310295
20391.491011	-1239.101500	1183.367188	-181.918793
20391.491011	-1239.101500	1182.243164	-119.666374
20391.491011	-1239.101500	1181.119141	-113.522095
20391.491011	-1239.101500	1179.994141	-136.400375
20391.491011	-1239.101500	1178.869141	-234.090576
20391.491011	-1239.101500	1177.744141	-139.529007
20391.491011	-1239.101500	1176.619141	-32.266193
20391.491011	-1239.101500	1175.493164	-53.997021
20391.491011	-1239.101500	1174.368164	-57.949223
20391.491011	-1239.101500	1173.242188	-36.833126
20391.491011	-1239.101500	1172.115234	223.336716
20391.491011	-1239.101500	1170.989258	259.755798
20391.491011	-1239.101500	1169.862305	78.589439
20391.491011	-1239.101500	1168.735352	85.764671
20391.491011	-1239.101500	1167.608398	-158.162521
20391.491011	-1239.101500	1166.481445	79.168533
20391.491011	-1239.101500	1165.353516	-144.214828
20391.491011	-1239.101500	1164.225586	-15.524925
20391.491011	-1239.101500	1163.097656	-95.474312
20391.491011	-1239.101500	1161.968750	-2.856113
20391.491011	-1239.101500	1160.840820	-153.915070
20391.491011	-1239.101500	1159.711914	-97.208534
20391.491011	-1239.101500	1158.583008	-36.218025
20391.491011	-1239.101500	1157.453125	-75.074776
20391.491011	-1239.101500	1156.324219	-166.815933
20391.491011	-1239.101500	1155.194336	-34.930016
20391.491011	-1239.101500	1154.064453	-229.582794
20391.491011	-1239.101500	1152.933594	-185.400833
20391.491011	-1239.101500	1151.803711	-126.223480
20391.491011	-1239.101500	1150.672852	-19.859035
20391.491011	-1239.101500	1149.541992	-145.551117
20391.491011	-1239.101500	1148.411133	-29.227930
20391.491011	-1239.101500	1147.279297	-66.489983
20391.491011	-1239.101500	1146.147461	117.975998
20391.491011	-1239.101500	1145.015625	6.531877
20391.491011	-1239.101500	1143.883789	50.743603
20391.491011	-1239.101500	1142.750977	22.175478
20391.491011	-1239.101500	1141.619141	90.947533
20391.491011	-1239.101500	1140.486328	81.711227
20391.491011	-1239.101500	1139.352539	243.742294
20391.491011	-1239.101500	1138.219727	239.437607
20391.491011	-1239.101500	1137.085938	190.850555
20391.491011	-1239.101500	1135.952148	68.792213
20391.491011	-1239.101500	1134.818359	182.328644
20391.491011	-1239.101500	1133.683594	94.045128
20391.491011	-1239.101500	1132.549805	167.270950
20391.491011	-1239.101500	1131.415039	261.728760
20391.491011	-1239.101500	1130.279297	507.645538
20391.491011	-1239.101500	1129.144531	353.118652
20391.491011	-1239.101500	1128.008789	490.739441
20391.491011	-1239.101500	1126.873047	415.655609
20391.491011	-1239.101500	1125.737305	576.121765
20391.491011	-1239.101500	1124.601563	462.173798
20391.491011	-1239.101500	1123.464844	403.878845
20391.491011	-1239.101500	1122.328125	359.222809
20391.491011	-1239.101500	1121.191406	90.914482
20391.491011	-1239.101500	1120.054688	262.447754
20391.491011	-1239.101500	1118.916992	421.018463
20391.491011	-1239.101500	1117.779297	386.716339
20391.491011	-1239.101500	1116.641602	433.387909
20391.491011	-1239.101500	1115.503906	319.124817
20391.491011	-1239.101500	1114.365234	296.174316
20391.491011	-1239.101500	1113.226563	311.912689
20391.491011	-1239.101500	1112.087891	264.133728
20391.491011	-1239.101500	1110.949219	293.045349
20391.491011	-1239.101500	1109.809570	145.840820
20391.491011	-1239.101500	1108.669922	303.963196
20391.491011	-1239.101500	1107.530273	284.113556
20391.491011	-1239.101500	1106.390625	333.033020
20391.491011	-1239.101500	1105.250000	409.695862
20391.491011	-1239.101500	1104.109375	208.657806
20391.491011	-1239.101500	1102.968750	315.787903
20391.491011	-1239.101500	1101.828125	408.654510
20391.491011	-1239.101500	1100.686523	429.353699
20391.491011	-1239.101500	1099.544922	404.993256
20391.491011	-1239.101500	1098.403320	328.352509
20391.491011	-1239.101500	1097.261719	158.674622
20391.491011	-1239.101500	1096.120117	301.178314
20391.491011	-1239.101500	1094.977539	228.874435
20391.491011	-1239.101500	1093.834961	264.621185
20391.491011	-1239.101500	1092.691406	376.400909
20391.491011	-1239.101500	1091.548828	254.915070
20391.491011	-1239.101500	1090.405273	239.303970
20391.491011	-1239.101500	1089.261719	198.873489
20391.491011	-1239.101500	1088.118164	391.729187
20391.491011	-1239.101500	1086.973633	230.507355
20391.491011	-1239.101500	1085.829102	190.003403
20391.491011	-1239.101500	1084.684570	447.952789
20391.491011	-1239.101500	1083.540039	268.253143
20391.491011	-1239.101500	1082.395508	377.895752
20391.491011	-1239.101500	1081.250000	541.692383
20391.491011	-1239.101500	1080.104492	354.190857
20391.491011	-1239.101500	1078.958984	247.290710
20391.491011	-1239.101500	1077.812500	302.160919
20391.491011	-1239.101500	1076.666016	508.261688
20391.491011	-1239.101500	1075.519531	389.829468
20391.491011	-1239.101500	1074.373047	398.754211
20391.491011	-1239.101500	1073.226563	429.691345
20391.491011	-1239.101500	1072.079102	244.262634
20391.491011	-1239.101500	1070.931641	489.504852
20391.491011	-1239.101500	1069.784180	453.013977
20391.491011	-1239.101500	1068.635742	546.474976
20391.491011	-1239.101500	1067.487305	396.829254
20391.491011	-1239.101500	1066.338867	415.656128
20391.491011	-1239.101500	1065.190430	552.651245
20391.491011	-1239.101500	1064.041992	682.004333
20391.491011	-1239.101500	1062.892578	428.072968
20391.491011	-1239.101500	1061.743164	487.931671
20391.491011	-1239.101500	1060.593750	466.433350
20391.491011	-1239.101500	1059.443359	401.256622
20391.491011	-1239.101500	1058.292969	331.355225
20391.491011	-1239.101500	1057.142578	281.197266
20391.491011	-1239.101500	1055.992188	336.929626
20391.491011	-1239.101500	1054.841797	317.838806
20391.491011	-1239.101500	1053.690430	473.145081
20391.491011	-1239.101500	1052.539063	420.362183
20391.491011	-1239.101500	1051.387695	227.677063
20391.491011	-1239.101500	1050.235352	388.661346
20391.491011	-1239.101500	1049.083984	415.623077
20391.491011	-1239.101500	1047.931641	505.491241
20391.491011	-1239.101500	1046.778320	350.453613
20391.491011	-1239.101500	1045.625977	537.515808
20391.491011	-1239.101500	1044.472656	595.143677
20391.491011	-1239.101500	1043.319336	365.987274
20391.491011	-1239.101500	1042.166016	425.198425
20391.491011	-1239.101500	1041.012695	470.735596
20391.491011	-1239.101500	1039.858398	447.109375
20391.491011	-1239.101500	1038.704102	514.665527
20391.491011	-1239.101500	1037.549805	603.738403
20391.491011	-1239.101500	1036.394531	349.517273
20391.491011	-1239.101500	1035.239258	747.754272
20391.491011	-1239.101500	1034.083984	480.270172
20391.491011	-1239.101500	1032.928711	614.563599
20391.491011	-1239.101500	1031.773438	596.493530
20391.491011	-1239.101500	1030.617188	528.526001
20391.491011	-1239.101500	1029.460938	539.848267
20391.491011	-1239.101500	1028.304688	587.610229
20391.491011	-1239.101500	1027.147461	288.303314
20391.491011	-1239.101500	1025.991211	689.276367
20391.491011	-1239.101500	1024.833984	99.086868
20391.491011	-1239.101500	1023.675781	402.120850
20391.491011	-1239.101500	1022.518555	279.935669
20391.491011	-1239.101500	1021.360352	292.394012
20391.491011	-1239.101500	1020.202148	263.686462
20391.491011	-1239.101500	1019.043945	345.148651
20391.491011	-1239.101500	1017.884766	463.449188
20391.491011	-1239.101500	1016.726563	330.691956
20391.491011	-1239.101500	1015.567383	204.540833
20391.491011	-1239.101500	1014.407227	122.812645
20391.491011	-1239.101500	1013.248047	202.913406
20391.491011	-1239.101500	1012.087891	155.258560
20391.491011	-1239.101500	1010.927734	56.227764
20391.491011	-1239.101500	1009.767578	194.982773
20391.491011	-1239.101500	1008.606445	314.826599
20391.491011	-1239.101500	1007.446289	68.244987
20391.491011	-1239.101500	1006.285156	298.286591
20391.491011	-1239.101500	1005.123047	272.216614
20391.491011	-1239.101500	1003.961914	354.413635
20391.491011	-1239.101500	1002.799805	356.068634
20391.491011	-1239.101500	1001.637695	463.352753
20391.491011	-1239.101500	1000.475586	512.855530
20391.491011	-1239.101500	999.312500	413.580750
20391.491011	-1239.101500	998.149414	197.409714
20391.491011	-1239.101500	996.986328	360.960266
20391.491011	-1239.101500	995.823242	221.999725
20391.491011	-1239.101500	994.659180	269.870575
20391.491011	-1239.101500	993.496094	337.203369
20391.491011	-1239.101500	992.332031	277.897186
20391.491011	-1239.101500	991.166992	155.419373
20391.491011	-1239.101500	990.002930	233.812897
20391.491011	-1239.101500	988.837891	205.198257
20391.491011	-1239.101500	987.672852	265.469849
20391.491011	-1239.101500	986.506836	125.507980
20391.491011	-1239.101500	985.341797	267.918457
20391.491011	-1239.101500	984.175781	187.645645
20391.491011	-1239.101500	983.009766	55.987461
20391.491011	-1239.101500	981.843750	208.217117
20391.491011	-1239.101500	980.676758	144.739059
20391.491011	-1239.101500	979.509766	366.846527
20391.491011	-1239.101500	978.342773	200.640778
20391.491011	-1239.101500	977.175781	38.980019
20391.491011	-1239.101500	976.007813	286.479492
20391.491011	-1239.101500	974.839844	313.206970
20391.491011	-1239.101500	973.671875	301.141693
20391.491011	-1239.101500	972.503906	429.806885
20391.491011	-1239.101500	971.334961	359.581329
20391.491011	-1239.101500	970.166016	308.895264
20391.491011	-1239.101500	968.997070	265.009186
20391.491011	-1239.101500	967.828125	166.377930
20391.491011	-1239.101500	966.658203	226.954376
20391.491011	-1239.101500	965.488281	327.082947
20391.491011	-1239.101500	964.318359	263.778107
20391.491011	-1239.101500	963.148438	350.437988
20391.491011	-1239.101500	961.977539	165.946045
20391.491011	-1239.101500	960.806641	178.172226
20391.491011	-1239.101500	959.635742	94.468834
20391.491011	-1239.101500	958.463867	219.739685
20391.491011	-1239.101500	957.292969	138.108032
20391.491011	-1239.101500	956.121094	199.835831
20391.491011	-1239.101500	954.948242	225.653214
20391.491011	-1239.101500	953.776367	81.539078
20391.491011	-1239.101500	952.603516	42.484692
20391.491011	-1239.101500	951.430664	123.310448
20391.491011	-1239.101500	950.257813	141.650864
20391.491011	-1239.101500	949.084961	195.017410
20391.491011	-1239.101500	947.911133	191.370285
20391.491011	-1239.101500	946.737305	273.708679
20391.491011	-1239.101500	945.563477	89.586067
20391.491011	-1239.101500	944.388672	268.498688
20391.491011	-1239.101500	943.213867	225.389191
20391.491011	-1239.101500	942.039063	77.004372
20391.491011	-1239.101500	940.864258	132.273651
20391.491011	-1239.101500	939.688477	236.334778
20391.491011	-1239.101500	938.513672	230.139923
20391.491011	-1239.101500	937.337891	72.709000
20391.491011	-1239.101500	936.161133	288.564117
20391.491011	-1239.101500	934.985352	396.751282
20391.491011	-1239.101500	933.808594	283.101837
20391.491011	-1239.101500	932.631836	373.566345
20391.491011	-1239.101500	931.454102	288.443573
20391.491011	-1239.101500	930.277344	310.825531
20391.491011	-1239.101500	929.099609	460.569763
20391.491011	-1239.101500	927.921875	397.241180
20391.491011	-1239.101500	926.743164	301.012451
20391.491011	-1239.101500	925.565430	147.693512
20391.491011	-1239.101500	924.386719	42.715950
20391.491011	-1239.101500	923.208008	216.407425
20391.491011	-1239.101500	922.028320	267.171021
20391.491011	-1239.101500	920.849609	355.183929
20391.491011	-1239.101500	919.669922	355.283844
20391.491011	-1239.101500	919.474609	294.044891
20391.491011	-1239.101500	918.309570	272.362183
20391.491011	-1239.101500	917.143555	211.219254
20391.491011	-1239.101500	915.977539	119.406700
20391.491011	-1239.101500	914.810547	150.322601
20391.491011	-1239.101500	913.644531	5.961613
20391.491011	-1239.101500	912.477539	244.936661
20391.491011	-1239.101500	911.310547	240.740463
20391.491011	-1239.101500	910.143555	-26.183033
20391.491011	-1239.101500	908.975586	0.303426
20391.491011	-1239.101500	907.807617	116.497261
20391.491011	-1239.101500	906.639648	-58.366604
20391.491011	-1239.101500	905.471680	-93.163612
20391.491011	-1239.101500	904.303711	-106.082680
20391.491011	-1239.101500	903.134766	36.250713
20391.491011	-1239.101500	901.965820	91.071480
20391.491011	-1239.101500	900.796875	67.177971
20391.491011	-1239.101500	899.626953	1.767934
20391.491011	-1239.101500	898.457031	36.884861
20391.491011	-1239.101500	897.287109	-74.373108
20391.491011	-1239.101500	896.117188	59.017963
20391.491011	-1239.101500	894.947266	192.351501
20391.491011	-1239.101500	893.776367	92.037117
20391.491011	-1239.101500	892.605469	-40.977428
20391.491011	-1239.101500	891.434570	24.641333
20391.491011	-1239.101500	890.262695	46.597897
20391.491011	-1239.101500	889.091797	57.637909
20391.491011	-1239.101500	887.919922	121.014633
20391.491011	-1239.101500	886.748047	-35.857399
20391.491011	-1239.101500	885.575195	-205.743454
20391.491011	-1239.101500	884.403320	86.501518
20391.491011	-1239.101500	883.230469	21.258654
20391.491011	-1239.101500	882.057617	143.407303
20391.491011	-1239.101500	880.883789	-6.766048
20391.491011	-1239.101500	879.710938	-2.254139
20391.491011	-1239.101500	878.537109	135.074188
20391.491011	-1239.101500	877.362305	52.486881
20391.491011	-1239.101500	876.188477	46.111279
20391.491011	-1239.101500	875.013672	148.541428
20391.491011	-1239.101500	873.839844	-155.888336
20391.491011	-1239.101500	872.664063	24.853521
20391.491011	-1239.101500	871.489258	-109.796135
20391.491011	-1239.101500	870.313477	33.912010
20391.491011	-1239.101500	869.138672	-126.757118
20391.491011	-1239.101500	867.962891	-46.118652
20391.491011	-1239.101500	866.786133	-56.766056
20391.491011	-1239.101500	865.610352	-45.679581
20391.491011	-1239.101500	864.433594	54.460411
20391.491011	-1239.101500	863.256836	17.760580
20391.491011	-1239.101500	862.079102	-114.443832
20391.491011	-1239.101500	860.902344	150.638321
20391.491011	-1239.101500	859.724609	-14.076647
20391.491011	-1239.101500	858.546875	46.936825
20391.491011	-1239.101500	857.368164	-28.732134
20391.491011	-1239.101500	856.190430	138.549316
20391.491011	-1239.101500	855.011719	-28.163794
20391.491011	-1239.101500	853.833008	35.004585
20391.491011	-1239.101500	852.654297	-187.956146
20391.491011	-1239.101500	851.474609	-16.409966
20391.491011	-1239.101500	850.294922	-22.588312
20391.491011	-1239.101500	849.115234	62.224758
20391.491011	-1239.101500	847.935547	25.731508
20391.491011	-1239.101500	846.754883	-97.349068
20391.491011	-1239.101500	845.575195	-27.698818
20391.491011	-1239.101500	844.393555	18.125198
20391.491011	-1239.101500	843.212891	-5.307117
20391.491011	-1239.101500	842.032227	64.311096
20391.491011	-1239.101500	840.850586	127.421471
20391.491011	-1239.101500	839.668945	19.669386
20391.491011	-1239.101500	838.486328	35.215229
20391.491011	-1239.101500	837.304688	119.939461
20391.491011	-1239.101500	836.122070	-171.424088
20391.491011	-1239.101500	834.939453	-116.923477
20391.491011	-1239.101500	833.756836	-10.586079
20391.491011	-1239.101500	832.573242	-10.119671
20391.491011	-1239.101500	831.389648	173.914917
20391.491011	-1239.101500	830.206055	25.387775
20391.491011	-1239.101500	829.022461	116.538078
20391.491011	-1239.101500	827.838867	-126.855919
20391.491011	-1239.101500	826.654297	-143.579147
20391.491011	-1239.101500	825.469727	-227.160309
20391.491011	-1239.101500	824.284180	17.141054
20391.491011	-1239.101500	823.099609	-77.202171
20391.491011	-1239.101500	821.914063	-124.066414
20391.491011	-1239.101500	820.728516	29.559587
20391.491011	-1239.101500	819.542969	127.100502
20391.491011	-1239.101500	818.356445	-167.530396
20391.491011	-1239.101500	817.169922	-39.813091
20391.491011	-1239.101500	815.983398	40.477825
20391.491011	-1239.101500	814.796875	-14.911745
20391.491011	-1239.101500	813.609375	-42.284344
20391.491011	-1239.101500	812.422852	-127.752266
20391.491011	-1239.101500	811.235352	27.842268
20391.491011	-1239.101500	810.046875	-18.862272
20391.491011	-1239.101500	808.859375	-89.200912
20391.491011	-1239.101500	807.670898	-99.286362
20391.491011	-1239.101500	806.482422	-156.664215
20391.491011	-1239.101500	805.293945	-11.938237
20391.491011	-1239.101500	804.104492	-131.625870
20391.491011	-1239.101500	802.915039	79.661842
20391.491011	-1239.101500	801.725586	-80.803917
20391.491011	-1239.101500	800.536133	156.172821
20391.491011	-1239.101500	799.345703	-124.490799
20391.491011	-1239.101500	798.155273	17.936863
20391.491011	-1239.101500	796.964844	-69.377533
20391.491011	-1239.101500	795.774414	-70.805420
20391.491011	-1239.101500	794.583008	140.198227
20391.491011	-1239.101500	793.392578	160.187790
20391.491011	-1239.101500	792.200195	4.297100
20391.491011	-1239.101500	791.008789	-115.073280
20391.491011	-1239.101500	789.816406	57.186581
20391.491011	-1239.101500	788.625000	-109.297722
20391.491011	-1239.101500	787.432617	161.472412
20391.491011	-1239.101500	786.239258	18.607891
20391.491011	-1239.101500	785.046875	-147.760834
20391.491011	-1239.101500	783.853516	-91.320740
20391.491011	-1239.101500	782.660156	-201.924316
20391.491011	-1239.101500	781.465820	-188.313705
20391.491011	-1239.101500	780.272461	-69.831184
20391.491011	-1239.101500	779.078125	-26.296537
20391.491011	-1239.101500	777.883789	-29.851366
20391.491011	-1239.101500	776.688477	-354.266174
20391.491011	-1239.101500	775.494141	-92.569786
20391.491011	-1239.101500	774.298828	-87.564445
20391.491011	-1239.101500	773.103516	22.182438
20391.491011	-1239.101500	771.907227	-47.651451
20391.491011	-1239.101500	770.711914	-49.083191
20391.491011	-1239.101500	769.515625	-44.111412
20391.491011	-1239.101500	768.318359	-116.040375
20391.491011	-1239.101500	767.122070	-168.727966
20391.491011	-1239.101500	765.924805	75.373016
20391.491011	-1239.101500	764.727539	9.845560
20391.491011	-1239.101500	763.530273	-64.199570
20391.491011	-1239.101500	762.333008	-155.293213
20391.491011	-1239.101500	761.134766	28.835938
20391.491011	-1239.101500	759.936523	27.320677
20391.491011	-1239.101500	758.738281	59.914318
20391.491011	-1239.101500	757.540039	58.371155
20391.491011	-1239.101500	756.340820	-79.600052
20391.491011	-1239.101500	755.141602	100.002632
20391.491011	-1239.101500	753.942383	13.190306
20391.491011	-1239.101500	752.742188	-67.209160
20391.491011	-1239.101500	751.541992	-43.232891
20391.491011	-1239.101500	750.341797	-42.703777
20391.491011	-1239.101500	749.141602	143.018188
20391.491011	-1239.101500	747.941406	47.697979
20391.491011	-1239.101500	746.740234	-68.878601
20391.491011	-1239.101500	745.539063	-4.585555
20391.491011	-1239.101500	744.337891	89.440727
20391.491011	-1239.101500	743.135742	132.370743
20391.491011	-1239.101500	741.933594	-20.346228
20391.491011	-1239.101500	740.731445	-11.463778
20391.491011	-1239.101500	739.529297	-0.480602
20391.491011	-1239.101500	738.326172	65.722931
20391.491011	-1239.101500	737.124023	-50.823925
20391.491011	-1239.101500	735.919922	-90.881134
20391.491011	-1239.101500	734.716797	-128.821899
20391.491011	-1239.101500	733.513672	162.305420
20391.491011	-1239.101500	732.309570	94.560791
20391.491011	-1239.101500	731.105469	105.339897
20391.491011	-1239.101500	729.900391	73.652863
20391.491011	-1239.101500	728.696289	241.354385
20391.491011	-1239.101500	727.491211	137.488770
20391.491011	-1239.101500	726.286133	6.071897
20391.491011	-1239.101500	725.080078	-29.920376
20391.491011	-1239.101500	723.874023	258.359924
20391.491011	-1239.101500	722.668945	46.384842
20391.491011	-1239.101500	721.461914	-72.312370
20391.491011	-1239.101500	720.255859	-6.708665
20391.491011	-1239.101500	719.048828	-47.053024
20391.491011	-1239.101500	717.841797	-23.894821
20391.491011	-1239.101500	716.634766	202.439102
20391.491011	-1239.101500	715.427734	-168.187637
20391.491011	-1239.101500	714.219727	79.170265
20391.491011	-1239.101500	713.011719	68.292686
20391.491011	-1239.101500	711.803711	-50.486084
20391.491011	-1239.101500	710.594727	-25.457109
20391.491011	-1239.101500	709.385742	-6.818966
20391.491011	-1239.101500	708.176758	28.681604
20391.491011	-1239.101500	706.967773	62.014660
20391.491011	-1239.101500	705.758789	118.536011
20391.491011	-1239.101500	704.548828	-4.566061
20391.491011	-1239.101500	703.338867	3.286411
20391.491011	-1239.101500	702.127930	-35.361900
20391.491011	-1239.101500	700.917969	86.407516
20391.491011	-1239.101500	699.707031	229.188507
20391.491011	-1239.101500	698.496094	124.970337
20391.491011	-1239.101500	697.285156	3.872506
20391.491011	-1239.101500	696.073242	201.288177
20391.491011	-1239.101500	694.861328	56.934254
20391.491011	-1239.101500	693.649414	89.704689
20391.491011	-1239.101500	692.436523	-4.068006
20391.491011	-1239.101500	691.224609	-43.050632
20391.491011	-1239.101500	690.011719	219.250534
20391.491011	-1239.101500	688.798828	333.924683
20391.491011	-1239.101500	687.584961	402.163574
20391.491011	-1239.101500	686.372070	339.765625
20391.491011	-1239.101500	685.158203	201.548431
20391.491011	-1239.101500	683.943359	330.659851
20391.491011	-1239.101500	682.729492	280.788147
20391.491011	-1239.101500	681.514648	521.236084
20391.491011	-1239.101500	680.299805	488.065918
20391.491011	-1239.101500	679.084961	421.205841
20391.491011	-1239.101500	677.869141	413.194031
20391.491011	-1239.101500	676.653320	245.360443
20391.491011	-1239.101500	675.437500	491.596191
20391.491011	-1239.101500	674.221680	485.510254
20391.491011	-1239.101500	673.004883	323.901367
20391.491011	-1239.101500	671.789063	387.055420
20391.491011	-1239.101500	670.571289	437.523865
20391.491011	-1239.101500	669.354492	301.050323
20391.491011	-1239.101500	668.136719	502.537323
20391.491011	-1239.101500	666.919922	575.862000
20391.491011	-1239.101500	665.701172	372.124054
20391.491011	-1239.101500	664.483398	304.771851
20391.491011	-1239.101500	663.264648	268.847321
20391.491011	-1239.101500	662.045898	279.010101
20391.491011	-1239.101500	660.827148	454.731598
20391.491011	-1239.101500	659.608398	359.928528
20391.491011	-1239.101500	658.388672	244.146347
20391.491011	-1239.101500	657.168945	319.010834
20391.491011	-1239.101500	655.949219	416.824463
20391.491011	-1239.101500	654.728516	543.852356
20391.491011	-1239.101500	653.507813	220.590561
20391.491011	-1239.101500	652.287109	414.470551
20391.491011	-1239.101500	651.066406	221.009674
20391.491011	-1239.101500	649.844727	186.596985
20391.491011	-1239.101500	648.623047	426.195587
20391.491011	-1239.101500	647.401367	364.436188
20391.491011	-1239.101500	646.179688	444.840179
20391.491011	-1239.101500	644.957031	548.142090
20391.491011	-1239.101500	643.734375	569.815186
20391.491011	-1239.101500	642.511719	424.226440
20391.491011	-1239.101500	641.289063	378.927643
20391.491011	-1239.101500	640.065430	389.983307
20391.491011	-1239.101500	638.841797	321.606110
20391.491011	-1239.101500	637.618164	459.914246
20391.491011	-1239.101500	636.393555	216.058060
20391.491011	-1239.101500	635.168945	464.820740
20391.491011	-1239.101500	633.944336	250.153534
20391.491011	-1239.101500	632.719727	275.439331
20391.491011	-1239.101500	631.494141	89.973892
20391.491011	-1239.101500	630.269531	377.919891
20391.491011	-1239.101500	629.042969	48.515827
20391.491011	-1239.101500	627.817383	100.663147
20391.491011	-1239.101500	626.590820	186.068329
20391.491011	-1239.101500	625.365234	204.699173
20391.491011	-1239.101500	624.137695	246.166794
20391.491011	-1239.101500	622.911133	50.121281
20391.491011	-1239.101500	621.683594	416.323517
20391.491011	-1239.101500	620.456055	216.031158
20391.491011	-1239.101500	619.228516	221.825546
20391.491011	-1239.101500	618.000977	17.374010
20391.491011	-1239.101500	616.772461	37.644817
20391.491011	-1239.101500	615.543945	365.704498
20391.491011	-1239.101500	614.314453	254.745850
20391.491011	-1239.101500	613.085938	129.222275
20391.491011	-1239.101500	611.856445	120.101044
20391.491011	-1239.101500	610.626953	383.189209
20391.491011	-1239.101500	609.397461	78.832924
20391.491011	-1239.101500	608.166992	200.427063
20391.491011	-1239.101500	606.936523	-8.339321
20391.491011	-1239.101500	605.706055	92.338020
20391.491011	-1239.101500	604.474609	126.473991
20391.491011	-1239.101500	603.244141	160.541397
20391.491011	-1239.101500	602.012695	300.373230
20391.491011	-1239.101500	600.780273	232.601776
20391.491011	-1239.101500	599.548828	152.362289
20391.491011	-1239.101500	598.316406	240.087173
20391.491011	-1239.101500	597.083984	95.486504
20391.491011	-1239.101500	595.851563	278.439880
20391.491011	-1239.101500	594.618164	146.217957
20391.491011	-1239.101500	593.384766	121.753601
20391.491011	-1239.101500	592.151367	209.122818
20391.491011	-1239.101500	590.917969	300.546082
20391.491011	-1239.101500	589.683594	83.318405
20391.491011	-1239.101500	588.449219	234.667831
20391.491011	-1239.101500	587.214844	83.687981
20391.491011	-1239.101500	585.979492	106.561478
20391.491011	-1239.101500	584.745117	38.342678
20391.491011	-1239.101500	583.509766	54.916443
20391.491011	-1239.101500	582.273438	73.502350
20391.491011	-1239.101500	581.038086	46.550526
20391.491011	-1239.101500	579.801758	203.554092
20391.491011	-1239.101500	578.565430	114.488647
20391.491011	-1239.101500	577.329102	37.819038
20391.491011	-1239.101500	576.091797	186.332291
20391.491011	-1239.101500	574.854492	47.627163
20391.491011	-1239.101500	573.617188	45.242813
20391.491011	-1239.101500	572.378906	216.251358
20391.491011	-1239.101500	571.141602	131.188507
20391.491011	-1239.101500	569.903320	260.757996
20391.491011	-1239.101500	568.664063	146.754822
20391.491011	-1239.101500	567.425781	298.891632
20391.491011	-1239.101500	566.186523	386.988251
20391.491011	-1239.101500	564.947266	388.411438
20391.491011	-1239.101500	563.708008	389.804932
20391.491011	-1239.101500	562.467773	121.150932
20391.491011	-1239.101500	561.227539	112.236176
20391.491011	-1239.101500	559.987305	35.309940
20391.491011	-1239.101500	558.747070	73.743553
20391.491011	-1239.101500	557.505859	171.854202
20391.491011	-1239.101500	556.264648	187.541992
20391.491011	-1239.101500	555.023438	112.627525
20391.491011	-1239.101500	553.781250	157.088120
20391.491011	-1239.101500	552.539063	117.148209
20391.491011	-1239.101500	551.296875	99.837372
20391.491011	-1239.101500	550.054688	238.831726
20391.491011	-1239.101500	548.811523	293.437653
20391.491011	-1239.101500	547.569336	76.636086
20391.491011	-1239.101500	546.325195	59.282124
20391.491011	-1239.101500	545.082031	185.780106
20391.491011	-1239.101500	543.837891	240.299164
20391.491011	-1239.101500	542.593750	85.266960
20391.491011	-1239.101500	541.349609	106.910400
20391.491011	-1239.101500	540.105469	34.090164
20391.491011	-1239.101500	538.860352	35.192734
20391.491011	-1239.101500	537.615234	132.752228
20391.491011	-1239.101500	536.369141	-65.214012
20391.491011	-1239.101500	535.124023	-14.859791
20391.491011	-1239.101500	533.877930	-151.177124
20391.491011	-1239.101500	532.631836	-0.349713
20391.491011	-1239.101500	531.384766	-159.162933
20391.491011	-1239.101500	530.138672	30.555511
20391.491011	-1239.101500	528.891602	-93.347519
20391.491011	-1239.101500	527.643555	-32.799461
20391.491011	-1239.101500	526.396484	-142.280411
20391.491011	-1239.101500	525.148438	35.004711
20391.491011	-1239.101500	523.900391	-86.712830
20391.491011	-1239.101500	522.652344	-191.990448
20391.491011	-1239.101500	521.403320	-319.726837
20391.491011	-1239.101500	520.154297	-265.281647
20391.491011	-1239.101500	518.905273	-221.071747
20391.491011	-1239.101500	517.656250	99.254601
20391.491011	-1239.101500	516.406250	-122.438652
20391.491011	-1239.101500	515.156250	-188.640213
20391.491011	-1239.101500	513.906250	-60.611759
20391.491011	-1239.101500	512.655273	-128.804764
20391.491011	-1239.101500	511.404297	-68.228592
20391.491011	-1239.101500	510.153320	84.266121
20391.491011	-1239.101500	508.902344	-320.816772
20391.491011	-1239.101500	507.650391	-319.383850
20391.491011	-1239.101500	506.398438	-248.518982
20391.491011	-1239.101500	505.146484	-173.574860
20391.491011	-1239.101500	503.893555	-57.831177
20391.491011	-1239.101500	502.641602	4.854759
20391.491011	-1239.101500	501.388672	-42.602665
20391.491011	-1239.101500	500.134766	9.905644
20391.491011	-1239.101500	498.881836	-139.408569
20391.491011	-1239.101500	497.627930	-150.028366
20391.491011	-1239.101500	496.374023	-113.741295
20391.491011	-1239.101500	495.119141	-140.603577
20391.491011	-1239.101500	493.865234	-32.976166
20391.491011	-1239.101500	492.610352	-133.095093
20391.491011	-1239.101500	491.355469	-74.321487
20391.491011	-1239.101500	490.099609	-44.044727
20391.491011	-1239.101500	488.843750	-60.558739
20391.491011	-1239.101500	487.587891	-44.475826
20391.491011	-1239.101500	486.332031	8.251788
20391.491011	-1239.101500	485.075195	-97.661957
20391.491011	-1239.101500	483.818359	97.459297
20391.491011	-1239.101500	482.561523	-61.221684
20391.491011	-1239.101500	481.304688	219.240997
20391.491011	-1239.101500	480.046875	91.143051
20391.491011	-1239.101500	478.789063	-10.455811
20391.491011	-1239.101500	477.531250	62.710316
20391.491011	-1239.101500	476.272461	81.037544
20391.491011	-1239.101500	475.013672	237.453339
20391.491011	-1239.101500	473.754883	99.482117
20391.491011	-1239.101500	472.496094	91.487991
20391.491011	-1239.101500	471.236328	32.790577
20391.491011	-1239.101500	469.976563	75.576569
20391.491011	-1239.101500	468.716797	-127.049049
20391.491011	-1239.101500	467.456055	-49.735710
20391.491011	-1239.101500	466.196289	3.239371
20391.491011	-1239.101500	464.935547	-47.167469
20391.491011	-1239.101500	463.673828	99.028183
20391.491011	-1239.101500	462.413086	58.782021
20391.491011	-1239.101500	461.151367	-109.052490
20391.491011	-1239.101500	459.889648	-21.634592
20391.491011	-1239.101500	458.626953	-43.587273
20391.491011	-1239.101500	457.364258	181.435745
20391.491011	-1239.101500	456.101563	127.072250
20391.491011	-1239.101500	454.838867	5.956903
20391.491011	-1239.101500	453.575195	105.388939
20391.491011	-1239.101500	452.312500	119.826591
20391.491011	-1239.101500	451.047852	43.242863
20391.491011	-1239.101500	449.784180	69.785439
20391.491011	-1239.101500	448.519531	59.910664
20391.491011	-1239.101500	447.254883	237.950714
20391.491011	-1239.101500	445.990234	163.339798
20391.491011	-1239.101500	444.725586	177.605637
20391.491011	-1239.101500	443.459961	312.992126
20391.491011	-1239.101500	442.194336	335.211548
20391.491011	-1239.101500	440.927734	316.997528
20391.491011	-1239.101500	439.662109	230.125061
20391.491011	-1239.101500	438.395508	223.936081
20391.491011	-1239.101500	437.127930	163.213745
20391.491011	-1239.101500	435.861328	249.682770
20391.491011	-1239.101500	434.593750	249.326691
20391.491011	-1239.101500	433.326172	140.024429
20391.491011	-1239.101500	432.058594	169.752594
20391.491011	-1239.101500	430.790039	235.636948
20391.491011	-1239.101500	429.521484	273.182709
20391.491011	-1239.101500	428.252930	232.044449
20391.491011	-1239.101500	426.984375	241.149796
20391.491011	-1239.101500	425.714844	306.490265
20391.491011	-1239.101500	424.445313	214.657211
20391.491011	-1239.101500	423.174805	342.073883
20391.491011	-1239.101500	421.905273	370.695221
20391.491011	-1239.101500	420.634766	147.681442
20391.491011	-1239.101500	419.364258	359.004913
20391.491011	-1239.101500	418.092773	232.241409
20391.491011	-1239.101500	416.822266	294.312378
20391.491011	-1239.101500	415.550781	390.312195
20391.491011	-1239.101500	414.278320	250.942215
20391.491011	-1239.101500	413.006836	304.275146
20391.491011	-1239.101500	411.734375	212.719711
20391.491011	-1239.101500	410.461914	135.008530
20391.491011	-1239.101500	409.188477	273.889435
20391.491011	-1239.101500	407.916016	231.784775
20391.491011	-1239.101500	406.642578	249.603043
20391.491011	-1239.101500	405.368164	110.601402
20391.491011	-1239.101500	404.094727	208.049896
20391.491011	-1239.101500	402.820313	269.012665
20391.491011	-1239.101500	401.545898	273.456329
20391.491011	-1239.101500	400.270508	253.466873
20391.491011	-1239.101500	398.996094	399.462189
20391.491011	-1239.101500	397.720703	336.592316
20391.491011	-1239.101500	396.444336	231.253647
20391.491011	-1239.101500	395.168945	450.009033
20391.491011	-1239.101500	393.892578	315.770813
20391.491011	-1239.101500	392.616211	401.345154
20391.491011	-1239.101500	391.339844	-26.018023
20391.491011	-1239.101500	390.062500	348.753876
20391.491011	-1239.101500	388.785156	628.798584
20391.491011	-1239.101500	387.507813	542.116333
20391.491011	-1239.101500	386.229492	362.894073
20391.491011	-1239.101500	384.951172	363.105072
20391.491011	-1239.101500	383.672852	232.765427
20391.491011	-1239.101500	382.394531	133.821472
20391.491011	-1239.101500	381.115234	303.991150
20391.491011	-1239.101500	379.835938	455.420959
20391.491011	-1239.101500	378.556641	190.644241
20391.491011	-1239.101500	377.277344	484.356903
20391.491011	-1239.101500	375.997070	413.821014
20391.491011	-1239.101500	374.716797	87.043068
20391.491011	-1239.101500	373.435547	364.214264
20391.491011	-1239.101500	372.155273	215.485794
20391.491011	-1239.101500	370.874023	205.554947
20391.491011	-1239.101500	369.591797	118.924110
20391.491011	-1239.101500	368.310547	117.150688
20391.491011	-1239.101500	367.028320	86.485313
20391.491011	-1239.101500	365.746094	186.368576
20391.491011	-1239.101500	364.463867	32.135048
20391.491011	-1239.101500	363.180664	163.736969
20391.491011	-1239.101500	361.897461	176.680313
20391.491011	-1239.101500	360.614258	37.156723
20391.491011	-1239.101500	359.330078	7.983644
20391.491011	-1239.101500	358.045898	101.016716
20391.491011	-1239.101500	356.761719	53.477375
20391.491011	-1239.101500	355.477539	48.448574
20391.491011	-1239.101500	354.192383	59.974026
20391.491011	-1239.101500	352.907227	54.227028
20391.491011	-1239.101500	351.622070	-6.596834
20391.491011	-1239.101500	350.336914	125.961815
20391.491011	-1239.101500	349.050781	42.318745
20391.491011	-1239.101500	347.764648	44.605755
20391.491011	-1239.101500	346.477539	202.208008
20391.491011	-1239.101500	345.191406	117.857613
20391.491011	-1239.101500	343.904297	-89.276474
20391.491011	-1239.101500	342.616211	-41.994366
20391.491011	-1239.101500	341.329102	25.377115
20391.491011	-1239.101500	340.041016	92.850693
20391.491011	-1239.101500	338.752930	29.483498
20391.491011	-1239.101500	337.463867	29.636507
20391.491011	-1239.101500	336.175781	41.748531
20391.491011	-1239.101500	334.886719	-160.342392
20391.491011	-1239.101500	333.596680	-13.645679
20391.491011	-1239.101500	332.307617	-154.452133
20391.491011	-1239.101500	331.017578	-47.808460
20391.491011	-1239.101500	329.727539	-97.962708
20391.491011	-1239.101500	328.436523	-128.679474
20391.491011	-1239.101500	327.146484	16.496386
20391.491011	-1239.101500	325.855469	-68.525581
20391.491011	-1239.101500	324.563477	-158.051041
20391.491011	-1239.101500	323.272461	-22.496552
20391.491011	-1239.101500	321.980469	78.651619
20391.491011	-1239.101500	320.688477	10.925432
20391.491011	-1239.101500	319.395508	13.551652
20391.491011	-1239.101500	318.103516	-166.487900
20391.491011	-1239.101500	316.810547	-286.185394
20391.491011	-1239.101500	315.516602	-110.510986
20391.491011	-1239.101500	314.223633	-157.187897
20391.491011	-1239.101500	312.929688	-133.976776
20391.491011	-1239.101500	311.635742	-206.803528
20391.491011	-1239.101500	310.340820	-53.958496
20391.491011	-1239.101500	309.045898	-48.650120
20391.491011	-1239.101500	307.750977	-70.482574
20391.491011	-1239.101500	306.456055	42.263691
20391.491011	-1239.101500	305.160156	255.784729
20391.491011	-1239.101500	303.865234	197.385162
20391.491011	-1239.101500	302.568359	351.892914
20391.491011	-1239.101500	301.272461	329.069275
20391.491011	-1239.101500	299.975586	688.448364
20391.491011	-1239.101500	298.678711	830.781372
