#X		#Y		#Wave		#Intensity
20470.071330	-750.312000	1999.980469	123.393936
20470.071330	-750.312000	1999.016602	21.359833
20470.071330	-750.312000	1998.052734	-14.095933
20470.071330	-750.312000	1997.087891	-114.093506
20470.071330	-750.312000	1996.123047	88.100449
20470.071330	-750.312000	1995.158203	-274.699707
20470.071330	-750.312000	1994.193359	-171.848679
20470.071330	-750.312000	1993.228516	-31.998163
20470.071330	-750.312000	1992.262695	6.190537
20470.071330	-750.312000	1991.297852	56.642025
20470.071330	-750.312000	1990.332031	15.408799
20470.071330	-750.312000	1989.366211	236.394135
20470.071330	-750.312000	1988.399414	-99.438110
20470.071330	-750.312000	1987.433594	91.634857
20470.071330	-750.312000	1986.466797	-76.037766
20470.071330	-750.312000	1985.500977	-181.907867
20470.071330	-750.312000	1984.534180	105.262886
20470.071330	-750.312000	1983.567383	36.334705
20470.071330	-750.312000	1982.599609	83.516510
20470.071330	-750.312000	1981.632813	73.790146
20470.071330	-750.312000	1980.665039	-2.689958
20470.071330	-750.312000	1979.697266	-49.557846
20470.071330	-750.312000	1978.729492	12.193412
20470.071330	-750.312000	1977.761719	73.872414
20470.071330	-750.312000	1976.792969	113.265320
20470.071330	-750.312000	1975.825195	246.385330
20470.071330	-750.312000	1974.856445	-7.995135
20470.071330	-750.312000	1973.887695	21.398829
20470.071330	-750.312000	1972.918945	206.144913
20470.071330	-750.312000	1971.949219	232.951538
20470.071330	-750.312000	1970.980469	77.251762
20470.071330	-750.312000	1970.010742	84.289894
20470.071330	-750.312000	1969.041016	-125.607613
20470.071330	-750.312000	1968.071289	115.528122
20470.071330	-750.312000	1967.101563	11.603413
20470.071330	-750.312000	1966.130859	240.261597
20470.071330	-750.312000	1965.161133	-169.099564
20470.071330	-750.312000	1964.190430	52.082832
20470.071330	-750.312000	1963.219727	142.676910
20470.071330	-750.312000	1962.249023	179.068100
20470.071330	-750.312000	1961.277344	316.339752
20470.071330	-750.312000	1960.306641	180.410934
20470.071330	-750.312000	1959.334961	66.665298
20470.071330	-750.312000	1958.363281	-64.264618
20470.071330	-750.312000	1957.391602	-22.999575
20470.071330	-750.312000	1956.419922	57.586681
20470.071330	-750.312000	1955.447266	52.092670
20470.071330	-750.312000	1954.474609	154.747375
20470.071330	-750.312000	1953.501953	-52.284081
20470.071330	-750.312000	1952.529297	-57.761433
20470.071330	-750.312000	1951.556641	-50.954247
20470.071330	-750.312000	1950.583984	110.586617
20470.071330	-750.312000	1949.610352	100.171242
20470.071330	-750.312000	1948.636719	151.142517
20470.071330	-750.312000	1947.663086	49.901566
20470.071330	-750.312000	1946.689453	66.509598
20470.071330	-750.312000	1945.715820	-73.932182
20470.071330	-750.312000	1944.741211	291.082367
20470.071330	-750.312000	1943.767578	59.902962
20470.071330	-750.312000	1942.792969	-144.208771
20470.071330	-750.312000	1941.818359	26.921711
20470.071330	-750.312000	1940.842773	117.093330
20470.071330	-750.312000	1939.868164	143.509094
20470.071330	-750.312000	1938.892578	20.432444
20470.071330	-750.312000	1937.916992	49.319923
20470.071330	-750.312000	1936.941406	139.448090
20470.071330	-750.312000	1935.965820	-10.478793
20470.071330	-750.312000	1934.990234	-10.964540
20470.071330	-750.312000	1934.013672	346.020020
20470.071330	-750.312000	1933.037109	220.640137
20470.071330	-750.312000	1932.060547	188.317719
20470.071330	-750.312000	1931.083984	11.642521
20470.071330	-750.312000	1930.107422	113.946510
20470.071330	-750.312000	1929.129883	-35.726677
20470.071330	-750.312000	1928.153320	137.486420
20470.071330	-750.312000	1927.175781	-298.207672
20470.071330	-750.312000	1926.198242	-203.227005
20470.071330	-750.312000	1925.219727	109.264938
20470.071330	-750.312000	1924.242188	108.838455
20470.071330	-750.312000	1923.263672	96.201927
20470.071330	-750.312000	1922.285156	-229.116531
20470.071330	-750.312000	1921.306641	-148.861481
20470.071330	-750.312000	1920.328125	-166.311630
20470.071330	-750.312000	1919.349609	-59.232094
20470.071330	-750.312000	1918.370117	123.484962
20470.071330	-750.312000	1917.391602	-108.769180
20470.071330	-750.312000	1916.412109	-50.552837
20470.071330	-750.312000	1915.431641	-31.391953
20470.071330	-750.312000	1914.452148	-119.563301
20470.071330	-750.312000	1913.472656	-127.220901
20470.071330	-750.312000	1912.492188	-47.093967
20470.071330	-750.312000	1911.511719	-174.217255
20470.071330	-750.312000	1910.531250	-1.489859
20470.071330	-750.312000	1909.550781	129.742783
20470.071330	-750.312000	1908.569336	-323.841400
20470.071330	-750.312000	1907.588867	-63.490086
20470.071330	-750.312000	1906.607422	-12.703181
20470.071330	-750.312000	1905.625977	215.827194
20470.071330	-750.312000	1904.644531	88.800461
20470.071330	-750.312000	1903.662109	-111.213013
20470.071330	-750.312000	1902.680664	100.153320
20470.071330	-750.312000	1901.698242	-9.768563
20470.071330	-750.312000	1900.715820	-105.060493
20470.071330	-750.312000	1899.733398	-193.028992
20470.071330	-750.312000	1898.750000	3.567081
20470.071330	-750.312000	1897.767578	173.330627
20470.071330	-750.312000	1896.784180	-31.365553
20470.071330	-750.312000	1895.800781	87.273659
20470.071330	-750.312000	1894.817383	101.357674
20470.071330	-750.312000	1893.833984	-40.080280
20470.071330	-750.312000	1892.850586	-234.924957
20470.071330	-750.312000	1891.866211	99.763840
20470.071330	-750.312000	1890.881836	14.206036
20470.071330	-750.312000	1889.897461	-90.761475
20470.071330	-750.312000	1888.913086	-30.644577
20470.071330	-750.312000	1887.927734	-295.786377
20470.071330	-750.312000	1886.943359	38.501148
20470.071330	-750.312000	1885.958008	42.693909
20470.071330	-750.312000	1884.972656	32.307762
20470.071330	-750.312000	1883.987305	67.978394
20470.071330	-750.312000	1883.001953	-7.928053
20470.071330	-750.312000	1882.015625	-8.680666
20470.071330	-750.312000	1881.029297	266.850769
20470.071330	-750.312000	1880.042969	55.157356
20470.071330	-750.312000	1879.056641	-110.452377
20470.071330	-750.312000	1878.070313	26.772442
20470.071330	-750.312000	1877.083984	88.831726
20470.071330	-750.312000	1876.096680	80.609505
20470.071330	-750.312000	1875.109375	-77.752159
20470.071330	-750.312000	1874.122070	27.757393
20470.071330	-750.312000	1873.134766	-164.489883
20470.071330	-750.312000	1872.146484	105.461174
20470.071330	-750.312000	1871.159180	-52.937801
20470.071330	-750.312000	1870.170898	-201.642639
20470.071330	-750.312000	1869.182617	92.225288
20470.071330	-750.312000	1868.194336	35.344566
20470.071330	-750.312000	1867.205078	176.671143
20470.071330	-750.312000	1866.216797	168.046692
20470.071330	-750.312000	1865.227539	-17.028948
20470.071330	-750.312000	1864.238281	25.030058
20470.071330	-750.312000	1863.249023	23.543932
20470.071330	-750.312000	1862.259766	82.387573
20470.071330	-750.312000	1861.269531	-83.412041
20470.071330	-750.312000	1860.279297	23.611980
20470.071330	-750.312000	1859.290039	-16.698267
20470.071330	-750.312000	1858.298828	263.927460
20470.071330	-750.312000	1857.308594	20.792006
20470.071330	-750.312000	1856.318359	23.762100
20470.071330	-750.312000	1855.327148	4.965004
20470.071330	-750.312000	1854.335938	-30.763891
20470.071330	-750.312000	1853.344727	232.437668
20470.071330	-750.312000	1852.353516	85.670204
20470.071330	-750.312000	1851.362305	-27.361235
20470.071330	-750.312000	1850.370117	119.837532
20470.071330	-750.312000	1849.377930	276.554352
20470.071330	-750.312000	1848.385742	148.905441
20470.071330	-750.312000	1847.393555	81.448357
20470.071330	-750.312000	1846.401367	4.318857
20470.071330	-750.312000	1845.408203	151.043076
20470.071330	-750.312000	1844.415039	16.022476
20470.071330	-750.312000	1843.421875	95.167244
20470.071330	-750.312000	1842.428711	126.088722
20470.071330	-750.312000	1841.435547	87.162933
20470.071330	-750.312000	1840.441406	26.529951
20470.071330	-750.312000	1839.448242	167.848145
20470.071330	-750.312000	1838.454102	140.734528
20470.071330	-750.312000	1837.459961	82.304947
20470.071330	-750.312000	1836.464844	4.590876
20470.071330	-750.312000	1835.470703	159.918274
20470.071330	-750.312000	1834.475586	130.112564
20470.071330	-750.312000	1833.480469	121.858345
20470.071330	-750.312000	1832.485352	111.124466
20470.071330	-750.312000	1831.490234	25.877865
20470.071330	-750.312000	1830.495117	-93.028770
20470.071330	-750.312000	1829.499023	23.247047
20470.071330	-750.312000	1828.502930	91.400101
20470.071330	-750.312000	1827.506836	-183.663177
20470.071330	-750.312000	1826.510742	-166.044174
20470.071330	-750.312000	1825.513672	211.242889
20470.071330	-750.312000	1824.517578	264.576599
20470.071330	-750.312000	1823.520508	224.295471
20470.071330	-750.312000	1822.523438	243.866272
20470.071330	-750.312000	1821.526367	196.235565
20470.071330	-750.312000	1820.529297	31.120417
20470.071330	-750.312000	1819.531250	69.607712
20470.071330	-750.312000	1818.533203	-64.470108
20470.071330	-750.312000	1817.535156	-11.794380
20470.071330	-750.312000	1816.537109	16.823694
20470.071330	-750.312000	1815.539063	136.305344
20470.071330	-750.312000	1814.540039	-153.638901
20470.071330	-750.312000	1813.541992	209.726120
20470.071330	-750.312000	1812.542969	44.099380
20470.071330	-750.312000	1811.543945	-35.446682
20470.071330	-750.312000	1810.543945	18.867481
20470.071330	-750.312000	1809.544922	154.368637
20470.071330	-750.312000	1808.544922	45.858597
20470.071330	-750.312000	1807.544922	161.977585
20470.071330	-750.312000	1806.544922	-23.167480
20470.071330	-750.312000	1805.544922	37.764671
20470.071330	-750.312000	1804.544922	-82.987183
20470.071330	-750.312000	1803.543945	3.997546
20470.071330	-750.312000	1802.542969	35.922134
20470.071330	-750.312000	1801.541992	24.755856
20470.071330	-750.312000	1800.541016	63.620350
20470.071330	-750.312000	1799.539063	-88.573883
20470.071330	-750.312000	1798.538086	214.960190
20470.071330	-750.312000	1797.536133	222.432587
20470.071330	-750.312000	1796.534180	86.678123
20470.071330	-750.312000	1795.532227	-41.977398
20470.071330	-750.312000	1794.529297	-70.549675
20470.071330	-750.312000	1793.527344	184.480835
20470.071330	-750.312000	1792.524414	-58.854504
20470.071330	-750.312000	1791.521484	-209.264252
20470.071330	-750.312000	1790.518555	-80.959633
20470.071330	-750.312000	1789.514648	175.818619
20470.071330	-750.312000	1788.511719	41.798149
20470.071330	-750.312000	1787.507813	-156.582382
20470.071330	-750.312000	1786.503906	-166.911850
20470.071330	-750.312000	1785.500000	139.241196
20470.071330	-750.312000	1784.496094	183.378525
20470.071330	-750.312000	1783.491211	41.784267
20470.071330	-750.312000	1782.486328	290.290924
20470.071330	-750.312000	1781.481445	39.096611
20470.071330	-750.312000	1780.476563	106.552757
20470.071330	-750.312000	1779.471680	38.346745
20470.071330	-750.312000	1778.465820	53.249573
20470.071330	-750.312000	1777.460938	134.592911
20470.071330	-750.312000	1776.455078	87.466599
20470.071330	-750.312000	1775.449219	-66.667091
20470.071330	-750.312000	1774.442383	-47.457443
20470.071330	-750.312000	1773.436523	-54.483040
20470.071330	-750.312000	1772.429688	-175.601074
20470.071330	-750.312000	1771.422852	102.054512
20470.071330	-750.312000	1770.416016	63.804054
20470.071330	-750.312000	1769.409180	-93.199081
20470.071330	-750.312000	1768.402344	29.721912
20470.071330	-750.312000	1767.394531	-82.375824
20470.071330	-750.312000	1766.386719	-92.555328
20470.071330	-750.312000	1765.378906	-181.097748
20470.071330	-750.312000	1764.371094	121.479469
20470.071330	-750.312000	1763.362305	35.068050
20470.071330	-750.312000	1762.354492	-124.882744
20470.071330	-750.312000	1761.345703	18.407431
20470.071330	-750.312000	1760.336914	-39.840546
20470.071330	-750.312000	1759.328125	-10.537609
20470.071330	-750.312000	1758.318359	103.887230
20470.071330	-750.312000	1757.308594	-11.512770
20470.071330	-750.312000	1756.299805	-37.013008
20470.071330	-750.312000	1755.290039	-147.830383
20470.071330	-750.312000	1754.279297	3.942290
20470.071330	-750.312000	1753.269531	-107.061119
20470.071330	-750.312000	1752.258789	-180.295380
20470.071330	-750.312000	1751.249023	-10.003162
20470.071330	-750.312000	1750.238281	148.281311
20470.071330	-750.312000	1749.226563	39.238724
20470.071330	-750.312000	1748.215820	173.597794
20470.071330	-750.312000	1747.204102	180.172318
20470.071330	-750.312000	1746.193359	77.959038
20470.071330	-750.312000	1745.181641	20.549702
20470.071330	-750.312000	1744.168945	95.307724
20470.071330	-750.312000	1743.157227	66.039032
20470.071330	-750.312000	1742.144531	27.217665
20470.071330	-750.312000	1741.132813	-89.579506
20470.071330	-750.312000	1740.120117	-109.688385
20470.071330	-750.312000	1739.106445	-290.361694
20470.071330	-750.312000	1738.093750	36.162605
20470.071330	-750.312000	1737.080078	-36.178463
20470.071330	-750.312000	1736.067383	252.231079
20470.071330	-750.312000	1735.053711	-70.261963
20470.071330	-750.312000	1734.040039	-32.057758
20470.071330	-750.312000	1733.025391	-22.266134
20470.071330	-750.312000	1732.011719	-5.499793
20470.071330	-750.312000	1730.997070	126.590302
20470.071330	-750.312000	1729.982422	-40.628975
20470.071330	-750.312000	1728.967773	237.232635
20470.071330	-750.312000	1727.952148	-10.217320
20470.071330	-750.312000	1726.937500	-135.239960
20470.071330	-750.312000	1725.921875	-213.252747
20470.071330	-750.312000	1724.906250	-4.228100
20470.071330	-750.312000	1723.890625	117.561203
20470.071330	-750.312000	1722.875000	-226.572617
20470.071330	-750.312000	1721.858398	-144.978516
20470.071330	-750.312000	1720.841797	77.579445
20470.071330	-750.312000	1719.825195	321.115692
20470.071330	-750.312000	1718.808594	186.014755
20470.071330	-750.312000	1717.791992	81.422874
20470.071330	-750.312000	1716.774414	42.555202
20470.071330	-750.312000	1715.756836	85.834694
20470.071330	-750.312000	1714.739258	291.073669
20470.071330	-750.312000	1713.721680	312.970215
20470.071330	-750.312000	1712.704102	531.992859
20470.071330	-750.312000	1711.685547	145.179672
20470.071330	-750.312000	1710.667969	406.217743
20470.071330	-750.312000	1709.649414	225.897079
20470.071330	-750.312000	1708.630859	22.097359
20470.071330	-750.312000	1707.611328	-36.294064
20470.071330	-750.312000	1706.592773	83.502373
20470.071330	-750.312000	1705.573242	-5.531507
20470.071330	-750.312000	1704.553711	41.354435
20470.071330	-750.312000	1703.534180	-43.117210
20470.071330	-750.312000	1702.513672	-36.260563
20470.071330	-750.312000	1701.494141	186.079727
20470.071330	-750.312000	1700.473633	24.064472
20470.071330	-750.312000	1699.453125	75.161049
20470.071330	-750.312000	1698.432617	308.804962
20470.071330	-750.312000	1697.412109	104.481583
20470.071330	-750.312000	1696.390625	92.083443
20470.071330	-750.312000	1695.369141	56.211037
20470.071330	-750.312000	1694.347656	315.094849
20470.071330	-750.312000	1693.326172	286.062042
20470.071330	-750.312000	1692.304688	41.784550
20470.071330	-750.312000	1691.282227	375.116547
20470.071330	-750.312000	1690.260742	179.872192
20470.071330	-750.312000	1689.238281	295.513702
20470.071330	-750.312000	1688.214844	523.205994
20470.071330	-750.312000	1687.192383	369.880798
20470.071330	-750.312000	1686.168945	489.868134
20470.071330	-750.312000	1685.146484	460.269928
20470.071330	-750.312000	1684.123047	591.740173
20470.071330	-750.312000	1683.099609	454.583435
20470.071330	-750.312000	1682.075195	289.385773
20470.071330	-750.312000	1681.051758	406.616791
20470.071330	-750.312000	1680.027344	537.726990
20470.071330	-750.312000	1679.002930	605.734009
20470.071330	-750.312000	1677.978516	694.648682
20470.071330	-750.312000	1676.953125	559.564819
20470.071330	-750.312000	1675.928711	748.604858
20470.071330	-750.312000	1674.903320	688.050842
20470.071330	-750.312000	1673.877930	802.276184
20470.071330	-750.312000	1672.852539	935.049561
20470.071330	-750.312000	1671.826172	927.903992
20470.071330	-750.312000	1670.800781	587.612854
20470.071330	-750.312000	1669.774414	871.565186
20470.071330	-750.312000	1668.748047	929.486267
20470.071330	-750.312000	1667.721680	1140.994263
20470.071330	-750.312000	1666.694336	1603.747314
20470.071330	-750.312000	1665.667969	1403.030640
20470.071330	-750.312000	1664.640625	1167.426392
20470.071330	-750.312000	1663.613281	1106.345581
20470.071330	-750.312000	1662.585938	1242.947510
20470.071330	-750.312000	1661.557617	1349.206421
20470.071330	-750.312000	1660.530273	1311.253784
20470.071330	-750.312000	1659.501953	1531.282715
20470.071330	-750.312000	1658.473633	1521.104736
20470.071330	-750.312000	1657.444336	1729.299316
20470.071330	-750.312000	1656.416016	1863.053101
20470.071330	-750.312000	1655.386719	1871.275513
20470.071330	-750.312000	1654.358398	1942.182617
20470.071330	-750.312000	1653.328125	1859.752441
20470.071330	-750.312000	1652.298828	2125.552246
20470.071330	-750.312000	1651.269531	2623.315918
20470.071330	-750.312000	1650.239258	2663.702881
20470.071330	-750.312000	1649.208984	2518.441162
20470.071330	-750.312000	1648.178711	2579.656494
20470.071330	-750.312000	1647.148438	2652.421143
20470.071330	-750.312000	1646.117188	2854.962158
20470.071330	-750.312000	1645.086914	2728.230713
20470.071330	-750.312000	1644.055664	2807.793945
20470.071330	-750.312000	1643.024414	2915.116211
20470.071330	-750.312000	1641.992188	2744.331787
20470.071330	-750.312000	1640.960938	2703.336182
20470.071330	-750.312000	1639.928711	2958.773438
20470.071330	-750.312000	1638.896484	3068.217041
20470.071330	-750.312000	1637.864258	3311.883301
20470.071330	-750.312000	1636.832031	3319.347168
20470.071330	-750.312000	1635.798828	3433.233643
20470.071330	-750.312000	1634.766602	3424.455811
20470.071330	-750.312000	1633.733398	3452.667236
20470.071330	-750.312000	1632.699219	3617.304688
20470.071330	-750.312000	1631.666016	3620.022217
20470.071330	-750.312000	1630.632813	3655.100098
20470.071330	-750.312000	1629.598633	3812.656982
20470.071330	-750.312000	1628.564453	3609.623535
20470.071330	-750.312000	1627.530273	3577.655762
20470.071330	-750.312000	1626.495117	3695.844482
20470.071330	-750.312000	1625.460938	3867.130615
20470.071330	-750.312000	1624.425781	4146.874512
20470.071330	-750.312000	1623.390625	4264.896484
20470.071330	-750.312000	1622.355469	4177.431641
20470.071330	-750.312000	1621.319336	4429.258789
20470.071330	-750.312000	1620.284180	4381.041504
20470.071330	-750.312000	1619.248047	4496.636719
20470.071330	-750.312000	1618.211914	4506.093750
20470.071330	-750.312000	1617.174805	4381.787598
20470.071330	-750.312000	1616.138672	4554.995117
20470.071330	-750.312000	1615.101563	4788.068848
20470.071330	-750.312000	1614.065430	5039.525391
20470.071330	-750.312000	1613.027344	4949.825684
20470.071330	-750.312000	1611.990234	5060.634277
20470.071330	-750.312000	1610.953125	4991.754395
20470.071330	-750.312000	1609.915039	5127.870117
20470.071330	-750.312000	1608.876953	5137.318359
20470.071330	-750.312000	1607.838867	5063.910156
20470.071330	-750.312000	1606.800781	5091.829102
20470.071330	-750.312000	1605.761719	5370.579590
20470.071330	-750.312000	1604.723633	5414.589844
20470.071330	-750.312000	1603.684570	5635.718750
20470.071330	-750.312000	1602.644531	6056.862793
20470.071330	-750.312000	1601.605469	5942.131348
20470.071330	-750.312000	1600.566406	6220.598633
20470.071330	-750.312000	1599.526367	6023.184570
20470.071330	-750.312000	1598.486328	5979.852539
20470.071330	-750.312000	1597.446289	5819.398438
20470.071330	-750.312000	1596.405273	5739.428223
20470.071330	-750.312000	1595.365234	5691.701172
20470.071330	-750.312000	1594.324219	5593.498047
20470.071330	-750.312000	1593.283203	5754.804688
20470.071330	-750.312000	1592.242188	5539.649902
20470.071330	-750.312000	1591.200195	5281.005371
20470.071330	-750.312000	1590.159180	5440.119629
20470.071330	-750.312000	1589.117188	6214.000000
20470.071330	-750.312000	1588.075195	5996.801270
20470.071330	-750.312000	1587.032227	5992.984375
20470.071330	-750.312000	1585.990234	6090.112793
20470.071330	-750.312000	1584.947266	5721.917480
20470.071330	-750.312000	1583.904297	6213.336914
20470.071330	-750.312000	1582.861328	6030.967773
20470.071330	-750.312000	1581.818359	6068.650391
20470.071330	-750.312000	1580.775391	5994.144531
20470.071330	-750.312000	1579.731445	6306.719238
20470.071330	-750.312000	1578.687500	6140.717773
20470.071330	-750.312000	1577.643555	6249.534180
20470.071330	-750.312000	1576.598633	5996.747070
20470.071330	-750.312000	1575.554688	6039.314941
20470.071330	-750.312000	1574.509766	6274.086426
20470.071330	-750.312000	1573.464844	6156.588867
20470.071330	-750.312000	1572.419922	6286.184082
20470.071330	-750.312000	1571.374023	6143.699707
20470.071330	-750.312000	1570.329102	5850.482422
20470.071330	-750.312000	1569.283203	5943.686035
20470.071330	-750.312000	1568.237305	5908.961426
20470.071330	-750.312000	1567.191406	5894.884766
20470.071330	-750.312000	1566.144531	5583.931641
20470.071330	-750.312000	1565.098633	5378.240723
20470.071330	-750.312000	1564.051758	5435.270020
20470.071330	-750.312000	1563.004883	5282.333984
20470.071330	-750.312000	1561.957031	5083.874023
20470.071330	-750.312000	1560.910156	4960.889648
20470.071330	-750.312000	1559.862305	5084.418945
20470.071330	-750.312000	1558.814453	4893.202148
20470.071330	-750.312000	1557.766602	5014.580566
20470.071330	-750.312000	1556.718750	4796.257813
20470.071330	-750.312000	1555.669922	4664.721191
20470.071330	-750.312000	1554.621094	4458.106445
20470.071330	-750.312000	1553.573242	4481.832031
20470.071330	-750.312000	1552.523438	4585.348145
20470.071330	-750.312000	1551.474609	4379.137695
20470.071330	-750.312000	1550.424805	4109.316406
20470.071330	-750.312000	1549.375000	4363.401367
20470.071330	-750.312000	1548.325195	4041.512207
20470.071330	-750.312000	1547.275391	4216.033203
20470.071330	-750.312000	1546.225586	4026.478760
20470.071330	-750.312000	1545.174805	4114.652832
20470.071330	-750.312000	1544.124023	4177.868652
20470.071330	-750.312000	1543.073242	4016.000732
20470.071330	-750.312000	1542.022461	3979.357910
20470.071330	-750.312000	1540.970703	3888.256592
20470.071330	-750.312000	1539.919922	3785.938477
20470.071330	-750.312000	1538.868164	3876.913818
20470.071330	-750.312000	1537.815430	3913.412598
20470.071330	-750.312000	1536.763672	3956.829834
20470.071330	-750.312000	1535.710938	4157.031738
20470.071330	-750.312000	1534.659180	3953.087646
20470.071330	-750.312000	1533.606445	4035.369873
20470.071330	-750.312000	1532.552734	4110.906738
20470.071330	-750.312000	1531.500000	4145.686523
20470.071330	-750.312000	1530.446289	4092.061035
20470.071330	-750.312000	1529.393555	4176.957031
20470.071330	-750.312000	1528.338867	4443.347656
20470.071330	-750.312000	1527.285156	4276.650879
20470.071330	-750.312000	1526.231445	4221.221680
20470.071330	-750.312000	1525.176758	4508.186523
20470.071330	-750.312000	1524.122070	4380.431641
20470.071330	-750.312000	1523.067383	4137.286621
20470.071330	-750.312000	1522.012695	4336.097168
20470.071330	-750.312000	1520.957031	4580.232910
20470.071330	-750.312000	1519.901367	4600.210449
20470.071330	-750.312000	1518.845703	4844.434570
20470.071330	-750.312000	1517.790039	4660.870605
20470.071330	-750.312000	1516.734375	4459.395996
20470.071330	-750.312000	1515.677734	4549.994141
20470.071330	-750.312000	1514.621094	4498.159668
20470.071330	-750.312000	1513.564453	4774.423340
20470.071330	-750.312000	1512.507813	4578.088379
20470.071330	-750.312000	1511.450195	4422.641602
20470.071330	-750.312000	1510.393555	4378.149902
20470.071330	-750.312000	1509.335938	4209.495117
20470.071330	-750.312000	1508.278320	4140.451660
20470.071330	-750.312000	1507.219727	3743.991211
20470.071330	-750.312000	1506.162109	3998.304688
20470.071330	-750.312000	1505.103516	3520.991699
20470.071330	-750.312000	1504.044922	3378.139893
20470.071330	-750.312000	1502.986328	3118.097656
20470.071330	-750.312000	1501.926758	3129.099121
20470.071330	-750.312000	1500.868164	3291.414307
20470.071330	-750.312000	1499.808594	2819.872070
20470.071330	-750.312000	1498.749023	2686.972168
20470.071330	-750.312000	1497.688477	2455.028809
20470.071330	-750.312000	1496.628906	2577.289795
20470.071330	-750.312000	1495.568359	2643.276367
20470.071330	-750.312000	1494.507813	2454.704102
20470.071330	-750.312000	1493.447266	1926.103027
20470.071330	-750.312000	1492.386719	2276.440186
20470.071330	-750.312000	1491.325195	2104.222656
20470.071330	-750.312000	1490.263672	1661.981567
20470.071330	-750.312000	1489.202148	2021.574951
20470.071330	-750.312000	1488.140625	1933.212280
20470.071330	-750.312000	1487.079102	2038.571655
20470.071330	-750.312000	1486.016602	1768.254150
20470.071330	-750.312000	1484.954102	1981.862915
20470.071330	-750.312000	1483.891602	1817.658081
20470.071330	-750.312000	1482.829102	1606.434937
20470.071330	-750.312000	1481.765625	1991.228638
20470.071330	-750.312000	1480.702148	1710.647583
20470.071330	-750.312000	1479.638672	1720.240967
20470.071330	-750.312000	1478.575195	1822.098999
20470.071330	-750.312000	1477.511719	2049.805908
20470.071330	-750.312000	1476.447266	1992.364380
20470.071330	-750.312000	1475.382813	2137.120117
20470.071330	-750.312000	1474.318359	2147.327637
20470.071330	-750.312000	1473.253906	2173.420654
20470.071330	-750.312000	1472.189453	2338.737305
20470.071330	-750.312000	1471.124023	2304.482178
20470.071330	-750.312000	1470.058594	2633.435791
20470.071330	-750.312000	1468.993164	2292.405029
20470.071330	-750.312000	1467.927734	2532.044678
20470.071330	-750.312000	1466.861328	2128.699951
20470.071330	-750.312000	1465.794922	2328.584961
20470.071330	-750.312000	1464.728516	2317.511963
20470.071330	-750.312000	1463.662109	2284.374023
20470.071330	-750.312000	1462.594727	2343.173340
20470.071330	-750.312000	1461.528320	2374.909668
20470.071330	-750.312000	1460.460938	2740.501953
20470.071330	-750.312000	1459.393555	2517.041992
20470.071330	-750.312000	1458.326172	2396.877197
20470.071330	-750.312000	1457.257813	2788.206055
20470.071330	-750.312000	1456.189453	2429.815186
20470.071330	-750.312000	1455.121094	2610.470459
20470.071330	-750.312000	1454.052734	2866.751709
20470.071330	-750.312000	1452.984375	2695.493164
20470.071330	-750.312000	1451.915039	2587.290283
20470.071330	-750.312000	1450.845703	3141.336914
20470.071330	-750.312000	1449.776367	2709.062988
20470.071330	-750.312000	1448.707031	3041.700928
20470.071330	-750.312000	1447.636719	2909.815430
20470.071330	-750.312000	1446.567383	3191.779053
20470.071330	-750.312000	1445.497070	3016.252686
20470.071330	-750.312000	1444.425781	3323.676514
20470.071330	-750.312000	1443.355469	3162.316406
20470.071330	-750.312000	1442.285156	3102.485596
20470.071330	-750.312000	1441.213867	3326.073730
20470.071330	-750.312000	1440.142578	3233.152344
20470.071330	-750.312000	1439.070313	3305.865234
20470.071330	-750.312000	1437.999023	3410.301514
20470.071330	-750.312000	1436.926758	3299.098633
20470.071330	-750.312000	1435.854492	3342.493652
20470.071330	-750.312000	1434.782227	3109.285156
20470.071330	-750.312000	1433.709961	3278.535400
20470.071330	-750.312000	1432.636719	2913.932373
20470.071330	-750.312000	1431.563477	3094.544189
20470.071330	-750.312000	1430.490234	3008.782471
20470.071330	-750.312000	1429.416992	2525.899414
20470.071330	-750.312000	1428.343750	2943.720947
20470.071330	-750.312000	1427.269531	2590.624756
20470.071330	-750.312000	1426.195313	2375.135254
20470.071330	-750.312000	1425.121094	2315.098145
20470.071330	-750.312000	1424.046875	2500.823730
20470.071330	-750.312000	1422.971680	2130.731201
20470.071330	-750.312000	1421.896484	2286.850342
20470.071330	-750.312000	1420.821289	1868.739624
20470.071330	-750.312000	1419.746094	2181.883057
20470.071330	-750.312000	1418.669922	2279.760986
20470.071330	-750.312000	1417.594727	2124.884766
20470.071330	-750.312000	1416.518555	2176.760498
20470.071330	-750.312000	1415.442383	2114.233398
20470.071330	-750.312000	1414.365234	2119.430664
20470.071330	-750.312000	1413.289063	2003.569580
20470.071330	-750.312000	1412.211914	2152.542236
20470.071330	-750.312000	1411.134766	2293.815918
20470.071330	-750.312000	1410.057617	2303.466797
20470.071330	-750.312000	1408.979492	2155.322021
20470.071330	-750.312000	1407.902344	2086.524902
20470.071330	-750.312000	1406.824219	2397.431641
20470.071330	-750.312000	1405.746094	2043.427368
20470.071330	-750.312000	1404.666992	2145.820068
20470.071330	-750.312000	1403.588867	2429.769775
20470.071330	-750.312000	1402.509766	2121.114014
20470.071330	-750.312000	1401.430664	2443.424561
20470.071330	-750.312000	1400.351563	2480.857422
20470.071330	-750.312000	1399.271484	2382.004639
20470.071330	-750.312000	1398.192383	2269.298096
20470.071330	-750.312000	1397.112305	2565.027832
20470.071330	-750.312000	1396.031250	2423.387207
20470.071330	-750.312000	1394.951172	2379.049805
20470.071330	-750.312000	1393.871094	2121.603516
20470.071330	-750.312000	1392.790039	2055.584717
20470.071330	-750.312000	1391.708984	2389.946777
20470.071330	-750.312000	1390.626953	2370.845215
20470.071330	-750.312000	1389.545898	2451.774414
20470.071330	-750.312000	1388.463867	2371.635498
20470.071330	-750.312000	1387.381836	2249.534180
20470.071330	-750.312000	1386.299805	2512.244873
20470.071330	-750.312000	1385.217773	2715.882324
20470.071330	-750.312000	1384.134766	2425.061768
20470.071330	-750.312000	1383.051758	2580.138184
20470.071330	-750.312000	1381.968750	2201.432861
20470.071330	-750.312000	1380.885742	2245.279297
20470.071330	-750.312000	1379.802734	2546.202637
20470.071330	-750.312000	1378.718750	2320.300781
20470.071330	-750.312000	1377.634766	2369.527100
20470.071330	-750.312000	1376.550781	2330.334717
20470.071330	-750.312000	1375.465820	2286.101074
20470.071330	-750.312000	1374.381836	2383.900879
20470.071330	-750.312000	1373.296875	2129.926025
20470.071330	-750.312000	1372.211914	2286.713623
20470.071330	-750.312000	1371.126953	2252.139648
20470.071330	-750.312000	1370.041016	2139.854492
20470.071330	-750.312000	1368.955078	2067.572021
20470.071330	-750.312000	1367.869141	2143.951904
20470.071330	-750.312000	1366.783203	1852.798218
20470.071330	-750.312000	1365.697266	2335.821045
20470.071330	-750.312000	1364.610352	2093.241211
20470.071330	-750.312000	1363.523438	2032.975586
20470.071330	-750.312000	1362.436523	2113.628906
20470.071330	-750.312000	1361.349609	2179.942627
20470.071330	-750.312000	1360.261719	2316.981689
20470.071330	-750.312000	1359.174805	2152.600342
20470.071330	-750.312000	1358.086914	2064.541016
20470.071330	-750.312000	1356.998047	1919.486572
20470.071330	-750.312000	1355.910156	1706.802612
20470.071330	-750.312000	1354.821289	1948.503296
20470.071330	-750.312000	1353.732422	1792.968994
20470.071330	-750.312000	1352.643555	1658.913940
20470.071330	-750.312000	1351.554688	1736.188965
20470.071330	-750.312000	1350.464844	1744.027710
20470.071330	-750.312000	1349.375000	1777.988281
20470.071330	-750.312000	1348.285156	1655.432861
20470.071330	-750.312000	1347.195313	1907.747681
20470.071330	-750.312000	1346.105469	1669.836060
20470.071330	-750.312000	1345.014648	1544.639404
20470.071330	-750.312000	1343.923828	1578.209106
20470.071330	-750.312000	1342.833008	1792.265015
20470.071330	-750.312000	1341.741211	1660.077026
20470.071330	-750.312000	1340.650391	1757.001587
20470.071330	-750.312000	1339.558594	1595.758911
20470.071330	-750.312000	1338.466797	1583.792358
20470.071330	-750.312000	1337.374023	1514.760742
20470.071330	-750.312000	1336.282227	1523.162354
20470.071330	-750.312000	1335.189453	1572.270996
20470.071330	-750.312000	1334.096680	1531.551025
20470.071330	-750.312000	1333.003906	1396.044556
20470.071330	-750.312000	1331.910156	1329.928467
20470.071330	-750.312000	1330.817383	1072.116089
20470.071330	-750.312000	1329.723633	1307.788208
20470.071330	-750.312000	1328.629883	1420.489014
20470.071330	-750.312000	1327.535156	1215.135864
20470.071330	-750.312000	1326.441406	1122.250732
20470.071330	-750.312000	1325.346680	1080.983887
20470.071330	-750.312000	1324.251953	1346.267578
20470.071330	-750.312000	1323.156250	1092.215210
20470.071330	-750.312000	1322.061523	1365.642578
20470.071330	-750.312000	1320.965820	1530.618896
20470.071330	-750.312000	1319.870117	1579.564209
20470.071330	-750.312000	1318.774414	1786.034302
20470.071330	-750.312000	1317.678711	1656.985474
20470.071330	-750.312000	1316.582031	1486.113159
20470.071330	-750.312000	1315.485352	1560.598999
20470.071330	-750.312000	1314.388672	1615.940186
20470.071330	-750.312000	1313.291016	1762.354004
20470.071330	-750.312000	1312.194336	1986.512451
20470.071330	-750.312000	1311.096680	1938.212524
20470.071330	-750.312000	1309.999023	1840.660767
20470.071330	-750.312000	1308.901367	1978.295776
20470.071330	-750.312000	1307.802734	1805.102783
20470.071330	-750.312000	1306.705078	2097.997070
20470.071330	-750.312000	1305.606445	2141.046143
20470.071330	-750.312000	1304.506836	2262.192627
20470.071330	-750.312000	1303.408203	1942.966187
20470.071330	-750.312000	1302.308594	2103.317871
20470.071330	-750.312000	1301.208984	2011.865356
20470.071330	-750.312000	1300.109375	2092.367676
20470.071330	-750.312000	1299.009766	2088.769043
20470.071330	-750.312000	1297.909180	2011.096802
20470.071330	-750.312000	1296.808594	2079.212158
20470.071330	-750.312000	1295.708008	2063.208496
20470.071330	-750.312000	1294.607422	1891.115601
20470.071330	-750.312000	1293.506836	1940.585083
20470.071330	-750.312000	1292.405273	1548.152222
20470.071330	-750.312000	1291.303711	1476.111816
20470.071330	-750.312000	1290.202148	1591.416016
20470.071330	-750.312000	1289.099609	1371.391479
20470.071330	-750.312000	1287.998047	1418.714233
20470.071330	-750.312000	1286.895508	1258.491333
20470.071330	-750.312000	1285.792969	1208.488281
20470.071330	-750.312000	1284.689453	1074.547363
20470.071330	-750.312000	1283.586914	965.844116
20470.071330	-750.312000	1282.483398	1191.986328
20470.071330	-750.312000	1281.379883	806.637329
20470.071330	-750.312000	1280.276367	1108.229858
20470.071330	-750.312000	1279.171875	811.819275
20470.071330	-750.312000	1278.067383	739.528015
20470.071330	-750.312000	1276.962891	919.444885
20470.071330	-750.312000	1275.858398	927.447754
20470.071330	-750.312000	1274.753906	587.145020
20470.071330	-750.312000	1273.648438	747.621704
20470.071330	-750.312000	1272.542969	998.078064
20470.071330	-750.312000	1271.437500	774.763000
20470.071330	-750.312000	1270.331055	688.589905
20470.071330	-750.312000	1269.225586	544.342346
20470.071330	-750.312000	1268.119141	805.814941
20470.071330	-750.312000	1267.012695	756.727051
20470.071330	-750.312000	1265.906250	662.337463
20470.071330	-750.312000	1264.798828	631.657471
20470.071330	-750.312000	1263.691406	409.548798
20470.071330	-750.312000	1262.583984	277.022217
20470.071330	-750.312000	1261.476563	299.137299
20470.071330	-750.312000	1260.368164	389.243347
20470.071330	-750.312000	1259.260742	731.158264
20470.071330	-750.312000	1258.152344	480.363037
20470.071330	-750.312000	1257.043945	275.961365
20470.071330	-750.312000	1255.934570	512.730469
20470.071330	-750.312000	1254.825195	331.660797
20470.071330	-750.312000	1253.716797	307.857788
20470.071330	-750.312000	1252.606445	341.770538
20470.071330	-750.312000	1251.497070	302.619812
20470.071330	-750.312000	1250.387695	228.522797
20470.071330	-750.312000	1249.277344	307.532288
20470.071330	-750.312000	1248.166992	206.736130
20470.071330	-750.312000	1247.055664	182.870789
20470.071330	-750.312000	1245.945313	73.079506
20470.071330	-750.312000	1244.833984	139.051117
20470.071330	-750.312000	1243.722656	30.066698
20470.071330	-750.312000	1242.611328	118.447517
20470.071330	-750.312000	1241.499023	25.113811
20470.071330	-750.312000	1240.387695	22.899929
20470.071330	-750.312000	1239.275391	37.278202
20470.071330	-750.312000	1238.162109	-59.619457
20470.071330	-750.312000	1237.049805	74.572403
20470.071330	-750.312000	1235.936523	356.289154
20470.071330	-750.312000	1234.823242	111.348778
20470.071330	-750.312000	1233.709961	271.470978
20470.071330	-750.312000	1232.596680	-125.675240
20470.071330	-750.312000	1231.482422	217.992645
20470.071330	-750.312000	1230.369141	130.259750
20470.071330	-750.312000	1229.253906	163.340652
20470.071330	-750.312000	1228.139648	156.921188
20470.071330	-750.312000	1227.025391	78.667953
20470.071330	-750.312000	1225.910156	-35.773869
20470.071330	-750.312000	1224.794922	220.704529
20470.071330	-750.312000	1223.679688	6.729139
20470.071330	-750.312000	1222.563477	129.937378
20470.071330	-750.312000	1221.447266	106.963425
20470.071330	-750.312000	1220.331055	266.148132
20470.071330	-750.312000	1219.214844	-116.236031
20470.071330	-750.312000	1218.098633	66.204559
20470.071330	-750.312000	1216.981445	-5.582076
20470.071330	-750.312000	1215.864258	-87.364166
20470.071330	-750.312000	1214.747070	-27.414112
20470.071330	-750.312000	1213.629883	-121.127380
20470.071330	-750.312000	1212.511719	13.838640
20470.071330	-750.312000	1211.393555	64.635612
20470.071330	-750.312000	1210.275391	19.952087
20470.071330	-750.312000	1209.157227	-28.185509
20470.071330	-750.312000	1208.038086	-106.926727
20470.071330	-750.312000	1206.918945	-85.254677
20470.071330	-750.312000	1205.799805	17.818031
20470.071330	-750.312000	1204.680664	154.870575
20470.071330	-750.312000	1203.560547	-106.855942
20470.071330	-750.312000	1202.441406	-55.022160
20470.071330	-750.312000	1201.321289	-110.898903
20470.071330	-750.312000	1200.200195	-61.133549
20470.071330	-750.312000	1199.080078	-136.216766
20470.071330	-750.312000	1197.958984	-3.616668
20470.071330	-750.312000	1196.837891	-67.474525
20470.071330	-750.312000	1195.716797	-109.566589
20470.071330	-750.312000	1194.594727	-186.804108
20470.071330	-750.312000	1193.473633	-73.980453
20470.071330	-750.312000	1192.351563	-49.362560
20470.071330	-750.312000	1191.229492	-100.806519
20470.071330	-750.312000	1190.106445	-46.876904
20470.071330	-750.312000	1188.984375	-149.255676
20470.071330	-750.312000	1187.861328	-178.651230
20470.071330	-750.312000	1186.738281	-10.823909
20470.071330	-750.312000	1185.614258	-205.269943
20470.071330	-750.312000	1184.491211	-86.121399
20470.071330	-750.312000	1183.367188	-36.701977
20470.071330	-750.312000	1182.243164	5.628454
20470.071330	-750.312000	1181.119141	-51.137753
20470.071330	-750.312000	1179.994141	-97.091614
20470.071330	-750.312000	1178.869141	-107.832222
20470.071330	-750.312000	1177.744141	-82.203117
20470.071330	-750.312000	1176.619141	62.210918
20470.071330	-750.312000	1175.493164	-95.663612
20470.071330	-750.312000	1174.368164	-89.784592
20470.071330	-750.312000	1173.242188	6.474200
20470.071330	-750.312000	1172.115234	42.193985
20470.071330	-750.312000	1170.989258	183.595703
20470.071330	-750.312000	1169.862305	115.888496
20470.071330	-750.312000	1168.735352	194.622910
20470.071330	-750.312000	1167.608398	86.556984
20470.071330	-750.312000	1166.481445	142.412643
20470.071330	-750.312000	1165.353516	4.079136
20470.071330	-750.312000	1164.225586	105.854179
20470.071330	-750.312000	1163.097656	176.110107
20470.071330	-750.312000	1161.968750	44.222427
20470.071330	-750.312000	1160.840820	83.581497
20470.071330	-750.312000	1159.711914	162.120682
20470.071330	-750.312000	1158.583008	190.898621
20470.071330	-750.312000	1157.453125	28.278013
20470.071330	-750.312000	1156.324219	-76.071228
20470.071330	-750.312000	1155.194336	-31.310661
20470.071330	-750.312000	1154.064453	33.983696
20470.071330	-750.312000	1152.933594	-14.290368
20470.071330	-750.312000	1151.803711	-59.161919
20470.071330	-750.312000	1150.672852	124.539299
20470.071330	-750.312000	1149.541992	-266.108276
20470.071330	-750.312000	1148.411133	-113.648300
20470.071330	-750.312000	1147.279297	53.422394
20470.071330	-750.312000	1146.147461	-85.623344
20470.071330	-750.312000	1145.015625	-5.003908
20470.071330	-750.312000	1143.883789	-16.895714
20470.071330	-750.312000	1142.750977	21.945467
20470.071330	-750.312000	1141.619141	73.547852
20470.071330	-750.312000	1140.486328	-74.306541
20470.071330	-750.312000	1139.352539	13.673559
20470.071330	-750.312000	1138.219727	144.663101
20470.071330	-750.312000	1137.085938	104.310097
20470.071330	-750.312000	1135.952148	-106.225494
20470.071330	-750.312000	1134.818359	142.460052
20470.071330	-750.312000	1133.683594	-120.121719
20470.071330	-750.312000	1132.549805	169.381302
20470.071330	-750.312000	1131.415039	139.783768
20470.071330	-750.312000	1130.279297	503.792023
20470.071330	-750.312000	1129.144531	495.517242
20470.071330	-750.312000	1128.008789	424.240662
20470.071330	-750.312000	1126.873047	613.382324
20470.071330	-750.312000	1125.737305	664.507202
20470.071330	-750.312000	1124.601563	521.958435
20470.071330	-750.312000	1123.464844	234.701447
20470.071330	-750.312000	1122.328125	308.824402
20470.071330	-750.312000	1121.191406	355.788757
20470.071330	-750.312000	1120.054688	413.094971
20470.071330	-750.312000	1118.916992	340.756042
20470.071330	-750.312000	1117.779297	385.774536
20470.071330	-750.312000	1116.641602	432.175354
20470.071330	-750.312000	1115.503906	106.610336
20470.071330	-750.312000	1114.365234	279.090424
20470.071330	-750.312000	1113.226563	230.012833
20470.071330	-750.312000	1112.087891	92.146660
20470.071330	-750.312000	1110.949219	90.079361
20470.071330	-750.312000	1109.809570	149.098999
20470.071330	-750.312000	1108.669922	217.350113
20470.071330	-750.312000	1107.530273	70.291283
20470.071330	-750.312000	1106.390625	170.546082
20470.071330	-750.312000	1105.250000	325.771545
20470.071330	-750.312000	1104.109375	370.306824
20470.071330	-750.312000	1102.968750	349.560638
20470.071330	-750.312000	1101.828125	329.391998
20470.071330	-750.312000	1100.686523	501.266357
20470.071330	-750.312000	1099.544922	585.940002
20470.071330	-750.312000	1098.403320	681.656738
20470.071330	-750.312000	1097.261719	859.622253
20470.071330	-750.312000	1096.120117	378.822479
20470.071330	-750.312000	1094.977539	352.387665
20470.071330	-750.312000	1093.834961	270.427979
20470.071330	-750.312000	1092.691406	221.603821
20470.071330	-750.312000	1091.548828	189.412598
20470.071330	-750.312000	1090.405273	221.475281
20470.071330	-750.312000	1089.261719	86.413940
20470.071330	-750.312000	1088.118164	-62.586174
20470.071330	-750.312000	1086.973633	140.173203
20470.071330	-750.312000	1085.829102	-74.692490
20470.071330	-750.312000	1084.684570	-0.278286
20470.071330	-750.312000	1083.540039	63.892086
20470.071330	-750.312000	1082.395508	-75.618195
20470.071330	-750.312000	1081.250000	-71.671646
20470.071330	-750.312000	1080.104492	13.788885
20470.071330	-750.312000	1078.958984	46.737732
20470.071330	-750.312000	1077.812500	275.008514
20470.071330	-750.312000	1076.666016	73.203484
20470.071330	-750.312000	1075.519531	98.308723
20470.071330	-750.312000	1074.373047	220.571060
20470.071330	-750.312000	1073.226563	273.194336
20470.071330	-750.312000	1072.079102	243.188660
20470.071330	-750.312000	1070.931641	380.061920
20470.071330	-750.312000	1069.784180	385.984741
20470.071330	-750.312000	1068.635742	521.375305
20470.071330	-750.312000	1067.487305	554.461426
20470.071330	-750.312000	1066.338867	561.218384
20470.071330	-750.312000	1065.190430	561.815002
20470.071330	-750.312000	1064.041992	332.886810
20470.071330	-750.312000	1062.892578	647.231567
20470.071330	-750.312000	1061.743164	431.612518
20470.071330	-750.312000	1060.593750	466.024628
20470.071330	-750.312000	1059.443359	209.072128
20470.071330	-750.312000	1058.292969	239.277267
20470.071330	-750.312000	1057.142578	233.693588
20470.071330	-750.312000	1055.992188	99.093399
20470.071330	-750.312000	1054.841797	57.432610
20470.071330	-750.312000	1053.690430	273.514404
20470.071330	-750.312000	1052.539063	1.951172
20470.071330	-750.312000	1051.387695	160.985992
20470.071330	-750.312000	1050.235352	61.709927
20470.071330	-750.312000	1049.083984	90.933525
20470.071330	-750.312000	1047.931641	104.786316
20470.071330	-750.312000	1046.778320	40.926193
20470.071330	-750.312000	1045.625977	114.374054
20470.071330	-750.312000	1044.472656	-50.895233
20470.071330	-750.312000	1043.319336	178.136566
20470.071330	-750.312000	1042.166016	59.909817
20470.071330	-750.312000	1041.012695	-97.855865
20470.071330	-750.312000	1039.858398	-35.905838
20470.071330	-750.312000	1038.704102	-42.041885
20470.071330	-750.312000	1037.549805	107.304268
20470.071330	-750.312000	1036.394531	89.914444
20470.071330	-750.312000	1035.239258	105.767311
20470.071330	-750.312000	1034.083984	36.691925
20470.071330	-750.312000	1032.928711	-1.828374
20470.071330	-750.312000	1031.773438	148.511063
20470.071330	-750.312000	1030.617188	407.470276
20470.071330	-750.312000	1029.460938	302.933533
20470.071330	-750.312000	1028.304688	283.598083
20470.071330	-750.312000	1027.147461	389.367371
20470.071330	-750.312000	1025.991211	396.970520
20470.071330	-750.312000	1024.833984	398.774872
20470.071330	-750.312000	1023.675781	524.881836
20470.071330	-750.312000	1022.518555	335.825623
20470.071330	-750.312000	1021.360352	106.768166
20470.071330	-750.312000	1020.202148	238.385284
20470.071330	-750.312000	1019.043945	170.256119
20470.071330	-750.312000	1017.884766	0.220103
20470.071330	-750.312000	1016.726563	-87.855804
20470.071330	-750.312000	1015.567383	-215.642349
20470.071330	-750.312000	1014.407227	-55.782265
20470.071330	-750.312000	1013.248047	30.916960
20470.071330	-750.312000	1012.087891	129.895554
20470.071330	-750.312000	1010.927734	11.552561
20470.071330	-750.312000	1009.767578	19.265961
20470.071330	-750.312000	1008.606445	3.051502
20470.071330	-750.312000	1007.446289	95.595535
20470.071330	-750.312000	1006.285156	5.258554
20470.071330	-750.312000	1005.123047	137.236725
20470.071330	-750.312000	1003.961914	14.890614
20470.071330	-750.312000	1002.799805	17.504181
20470.071330	-750.312000	1001.637695	137.317841
20470.071330	-750.312000	1000.475586	153.305298
20470.071330	-750.312000	999.312500	2.109768
20470.071330	-750.312000	998.149414	22.150564
20470.071330	-750.312000	996.986328	294.679718
20470.071330	-750.312000	995.823242	58.795002
20470.071330	-750.312000	994.659180	-81.446579
20470.071330	-750.312000	993.496094	-410.823914
20470.071330	-750.312000	992.332031	-42.734772
20470.071330	-750.312000	991.166992	-39.172436
20470.071330	-750.312000	990.002930	-96.618523
20470.071330	-750.312000	988.837891	-240.276871
20470.071330	-750.312000	987.672852	-170.537109
20470.071330	-750.312000	986.506836	-269.557495
20470.071330	-750.312000	985.341797	-314.446045
20470.071330	-750.312000	984.175781	-81.900284
20470.071330	-750.312000	983.009766	-153.768570
20470.071330	-750.312000	981.843750	-29.714836
20470.071330	-750.312000	980.676758	-291.342926
20470.071330	-750.312000	979.509766	-167.153320
20470.071330	-750.312000	978.342773	19.847237
20470.071330	-750.312000	977.175781	-301.776642
20470.071330	-750.312000	976.007813	-188.134888
20470.071330	-750.312000	974.839844	-251.371292
20470.071330	-750.312000	973.671875	51.683197
20470.071330	-750.312000	972.503906	-314.338440
20470.071330	-750.312000	971.334961	-183.868591
20470.071330	-750.312000	970.166016	-74.487396
20470.071330	-750.312000	968.997070	-123.445648
20470.071330	-750.312000	967.828125	23.867170
20470.071330	-750.312000	966.658203	58.009605
20470.071330	-750.312000	965.488281	70.073708
20470.071330	-750.312000	964.318359	303.907288
20470.071330	-750.312000	963.148438	88.635544
20470.071330	-750.312000	961.977539	119.279663
20470.071330	-750.312000	960.806641	77.164368
20470.071330	-750.312000	959.635742	405.038879
20470.071330	-750.312000	958.463867	156.789429
20470.071330	-750.312000	957.292969	-78.056198
20470.071330	-750.312000	956.121094	415.301636
20470.071330	-750.312000	954.948242	86.732056
20470.071330	-750.312000	953.776367	-66.457512
20470.071330	-750.312000	952.603516	178.937515
20470.071330	-750.312000	951.430664	149.961075
20470.071330	-750.312000	950.257813	82.207123
20470.071330	-750.312000	949.084961	278.071381
20470.071330	-750.312000	947.911133	66.596786
20470.071330	-750.312000	946.737305	303.401794
20470.071330	-750.312000	945.563477	145.634094
20470.071330	-750.312000	944.388672	367.397980
20470.071330	-750.312000	943.213867	11.731001
20470.071330	-750.312000	942.039063	287.239838
20470.071330	-750.312000	940.864258	85.461777
20470.071330	-750.312000	939.688477	224.106415
20470.071330	-750.312000	938.513672	304.573517
20470.071330	-750.312000	937.337891	263.042694
20470.071330	-750.312000	936.161133	321.422241
20470.071330	-750.312000	934.985352	476.990143
20470.071330	-750.312000	933.808594	467.014618
20470.071330	-750.312000	932.631836	410.597168
20470.071330	-750.312000	931.454102	590.308411
20470.071330	-750.312000	930.277344	655.411072
20470.071330	-750.312000	929.099609	713.176880
20470.071330	-750.312000	927.921875	493.326782
20470.071330	-750.312000	926.743164	526.635132
20470.071330	-750.312000	925.565430	520.872070
20470.071330	-750.312000	924.386719	468.837128
20470.071330	-750.312000	923.208008	355.923340
20470.071330	-750.312000	922.028320	381.662720
20470.071330	-750.312000	920.849609	130.031891
20470.071330	-750.312000	919.669922	136.471542
20470.071330	-750.312000	919.474609	283.194458
20470.071330	-750.312000	918.309570	38.760342
20470.071330	-750.312000	917.143555	-110.824081
20470.071330	-750.312000	915.977539	-58.685970
20470.071330	-750.312000	914.810547	-16.344433
20470.071330	-750.312000	913.644531	120.661240
20470.071330	-750.312000	912.477539	-72.782661
20470.071330	-750.312000	911.310547	-50.076492
20470.071330	-750.312000	910.143555	154.655930
20470.071330	-750.312000	908.975586	-70.412384
20470.071330	-750.312000	907.807617	-9.067391
20470.071330	-750.312000	906.639648	61.897182
20470.071330	-750.312000	905.471680	-56.453991
20470.071330	-750.312000	904.303711	-145.710541
20470.071330	-750.312000	903.134766	29.336430
20470.071330	-750.312000	901.965820	102.424644
20470.071330	-750.312000	900.796875	197.237930
20470.071330	-750.312000	899.626953	-88.533562
20470.071330	-750.312000	898.457031	-49.564014
20470.071330	-750.312000	897.287109	20.823530
20470.071330	-750.312000	896.117188	1.508202
20470.071330	-750.312000	894.947266	267.881805
20470.071330	-750.312000	893.776367	277.462433
20470.071330	-750.312000	892.605469	93.336823
20470.071330	-750.312000	891.434570	156.073563
20470.071330	-750.312000	890.262695	126.786255
20470.071330	-750.312000	889.091797	436.118408
20470.071330	-750.312000	887.919922	239.788193
20470.071330	-750.312000	886.748047	389.265442
20470.071330	-750.312000	885.575195	277.529755
20470.071330	-750.312000	884.403320	156.108841
20470.071330	-750.312000	883.230469	286.010498
20470.071330	-750.312000	882.057617	249.090469
20470.071330	-750.312000	880.883789	120.339943
20470.071330	-750.312000	879.710938	153.393417
20470.071330	-750.312000	878.537109	87.380379
20470.071330	-750.312000	877.362305	212.058701
20470.071330	-750.312000	876.188477	256.975311
20470.071330	-750.312000	875.013672	309.060181
20470.071330	-750.312000	873.839844	247.670990
20470.071330	-750.312000	872.664063	511.897003
20470.071330	-750.312000	871.489258	385.267548
20470.071330	-750.312000	870.313477	434.653564
20470.071330	-750.312000	869.138672	336.909210
20470.071330	-750.312000	867.962891	340.379913
20470.071330	-750.312000	866.786133	512.475891
20470.071330	-750.312000	865.610352	470.024170
20470.071330	-750.312000	864.433594	99.956818
20470.071330	-750.312000	863.256836	93.624527
20470.071330	-750.312000	862.079102	205.220779
20470.071330	-750.312000	860.902344	263.756592
20470.071330	-750.312000	859.724609	98.391212
20470.071330	-750.312000	858.546875	358.942261
20470.071330	-750.312000	857.368164	56.393101
20470.071330	-750.312000	856.190430	-137.852310
20470.071330	-750.312000	855.011719	26.238901
20470.071330	-750.312000	853.833008	139.720901
20470.071330	-750.312000	852.654297	147.337036
20470.071330	-750.312000	851.474609	68.381973
20470.071330	-750.312000	850.294922	78.308426
20470.071330	-750.312000	849.115234	157.845123
20470.071330	-750.312000	847.935547	102.796921
20470.071330	-750.312000	846.754883	-14.713557
20470.071330	-750.312000	845.575195	393.546539
20470.071330	-750.312000	844.393555	93.499237
20470.071330	-750.312000	843.212891	115.096909
20470.071330	-750.312000	842.032227	136.634018
20470.071330	-750.312000	840.850586	114.934113
20470.071330	-750.312000	839.668945	203.514755
20470.071330	-750.312000	838.486328	90.591019
20470.071330	-750.312000	837.304688	107.118034
20470.071330	-750.312000	836.122070	56.475929
20470.071330	-750.312000	834.939453	17.786909
20470.071330	-750.312000	833.756836	132.397842
20470.071330	-750.312000	832.573242	-26.160009
20470.071330	-750.312000	831.389648	-55.378559
20470.071330	-750.312000	830.206055	85.365425
20470.071330	-750.312000	829.022461	252.333832
20470.071330	-750.312000	827.838867	187.023926
20470.071330	-750.312000	826.654297	90.584930
20470.071330	-750.312000	825.469727	135.288788
20470.071330	-750.312000	824.284180	7.707507
20470.071330	-750.312000	823.099609	-62.478195
20470.071330	-750.312000	821.914063	-82.472206
20470.071330	-750.312000	820.728516	-88.165489
20470.071330	-750.312000	819.542969	-91.514915
20470.071330	-750.312000	818.356445	-20.838331
20470.071330	-750.312000	817.169922	-64.908432
20470.071330	-750.312000	815.983398	-44.521915
20470.071330	-750.312000	814.796875	-31.355366
20470.071330	-750.312000	813.609375	-49.278564
20470.071330	-750.312000	812.422852	121.328415
20470.071330	-750.312000	811.235352	-161.616974
20470.071330	-750.312000	810.046875	-24.555113
20470.071330	-750.312000	808.859375	129.099976
20470.071330	-750.312000	807.670898	-118.038193
20470.071330	-750.312000	806.482422	-14.597426
20470.071330	-750.312000	805.293945	81.602127
20470.071330	-750.312000	804.104492	-27.269590
20470.071330	-750.312000	802.915039	-236.231857
20470.071330	-750.312000	801.725586	-140.186874
20470.071330	-750.312000	800.536133	110.604813
20470.071330	-750.312000	799.345703	142.143066
20470.071330	-750.312000	798.155273	-157.348099
20470.071330	-750.312000	796.964844	-68.727890
20470.071330	-750.312000	795.774414	-15.890670
20470.071330	-750.312000	794.583008	-132.073044
20470.071330	-750.312000	793.392578	-203.051331
20470.071330	-750.312000	792.200195	-100.405914
20470.071330	-750.312000	791.008789	-57.303158
20470.071330	-750.312000	789.816406	-106.990059
20470.071330	-750.312000	788.625000	-194.736786
20470.071330	-750.312000	787.432617	5.080610
20470.071330	-750.312000	786.239258	-225.312241
20470.071330	-750.312000	785.046875	-187.205780
20470.071330	-750.312000	783.853516	38.477798
20470.071330	-750.312000	782.660156	-172.916870
20470.071330	-750.312000	781.465820	-210.952972
20470.071330	-750.312000	780.272461	-175.434341
20470.071330	-750.312000	779.078125	-123.362541
20470.071330	-750.312000	777.883789	-23.902580
20470.071330	-750.312000	776.688477	-52.627541
20470.071330	-750.312000	775.494141	-133.561676
20470.071330	-750.312000	774.298828	-126.772270
20470.071330	-750.312000	773.103516	-93.950539
20470.071330	-750.312000	771.907227	140.282440
20470.071330	-750.312000	770.711914	68.678078
20470.071330	-750.312000	769.515625	124.999886
20470.071330	-750.312000	768.318359	126.773308
20470.071330	-750.312000	767.122070	14.826152
20470.071330	-750.312000	765.924805	146.761551
20470.071330	-750.312000	764.727539	-291.914185
20470.071330	-750.312000	763.530273	197.330338
20470.071330	-750.312000	762.333008	-163.171677
20470.071330	-750.312000	761.134766	34.763073
20470.071330	-750.312000	759.936523	-53.629494
20470.071330	-750.312000	758.738281	87.359787
20470.071330	-750.312000	757.540039	39.102184
20470.071330	-750.312000	756.340820	-148.643921
20470.071330	-750.312000	755.141602	84.320404
20470.071330	-750.312000	753.942383	-11.289793
20470.071330	-750.312000	752.742188	8.854064
20470.071330	-750.312000	751.541992	-96.231583
20470.071330	-750.312000	750.341797	-31.295576
20470.071330	-750.312000	749.141602	-138.772293
20470.071330	-750.312000	747.941406	98.371643
20470.071330	-750.312000	746.740234	-68.166176
20470.071330	-750.312000	745.539063	10.701166
20470.071330	-750.312000	744.337891	-40.243919
20470.071330	-750.312000	743.135742	184.726334
20470.071330	-750.312000	741.933594	197.348343
20470.071330	-750.312000	740.731445	73.194595
20470.071330	-750.312000	739.529297	139.964493
20470.071330	-750.312000	738.326172	128.903259
20470.071330	-750.312000	737.124023	-35.328598
20470.071330	-750.312000	735.919922	250.360565
20470.071330	-750.312000	734.716797	104.931274
20470.071330	-750.312000	733.513672	-0.449391
20470.071330	-750.312000	732.309570	89.555450
20470.071330	-750.312000	731.105469	87.697166
20470.071330	-750.312000	729.900391	125.801842
20470.071330	-750.312000	728.696289	135.623199
20470.071330	-750.312000	727.491211	237.129562
20470.071330	-750.312000	726.286133	-21.228338
20470.071330	-750.312000	725.080078	176.583466
20470.071330	-750.312000	723.874023	9.941550
20470.071330	-750.312000	722.668945	195.841736
20470.071330	-750.312000	721.461914	71.481049
20470.071330	-750.312000	720.255859	-1.182779
20470.071330	-750.312000	719.048828	132.820145
20470.071330	-750.312000	717.841797	20.180986
20470.071330	-750.312000	716.634766	-94.794342
20470.071330	-750.312000	715.427734	29.647331
20470.071330	-750.312000	714.219727	-141.674118
20470.071330	-750.312000	713.011719	-195.652359
20470.071330	-750.312000	711.803711	-101.870132
20470.071330	-750.312000	710.594727	19.978687
20470.071330	-750.312000	709.385742	-95.068810
20470.071330	-750.312000	708.176758	-146.809235
20470.071330	-750.312000	706.967773	-15.757957
20470.071330	-750.312000	705.758789	105.831383
20470.071330	-750.312000	704.548828	321.041168
20470.071330	-750.312000	703.338867	390.911591
20470.071330	-750.312000	702.127930	413.884338
20470.071330	-750.312000	700.917969	338.483978
20470.071330	-750.312000	699.707031	199.881805
20470.071330	-750.312000	698.496094	122.151268
20470.071330	-750.312000	697.285156	301.790710
20470.071330	-750.312000	696.073242	-5.241696
20470.071330	-750.312000	694.861328	277.187225
20470.071330	-750.312000	693.649414	143.257477
20470.071330	-750.312000	692.436523	322.609772
20470.071330	-750.312000	691.224609	293.840454
20470.071330	-750.312000	690.011719	272.060791
20470.071330	-750.312000	688.798828	441.835724
20470.071330	-750.312000	687.584961	319.531494
20470.071330	-750.312000	686.372070	300.005341
20470.071330	-750.312000	685.158203	637.680908
20470.071330	-750.312000	683.943359	557.339722
20470.071330	-750.312000	682.729492	582.027588
20470.071330	-750.312000	681.514648	609.006958
20470.071330	-750.312000	680.299805	617.284241
20470.071330	-750.312000	679.084961	478.591248
20470.071330	-750.312000	677.869141	430.868347
20470.071330	-750.312000	676.653320	714.194397
20470.071330	-750.312000	675.437500	493.901733
20470.071330	-750.312000	674.221680	418.160645
20470.071330	-750.312000	673.004883	274.853821
20470.071330	-750.312000	671.789063	159.537262
20470.071330	-750.312000	670.571289	114.106262
20470.071330	-750.312000	669.354492	254.945541
20470.071330	-750.312000	668.136719	377.074890
20470.071330	-750.312000	666.919922	194.234100
20470.071330	-750.312000	665.701172	327.907104
20470.071330	-750.312000	664.483398	270.731812
20470.071330	-750.312000	663.264648	474.063782
20470.071330	-750.312000	662.045898	528.454834
20470.071330	-750.312000	660.827148	415.400421
20470.071330	-750.312000	659.608398	313.994720
20470.071330	-750.312000	658.388672	293.946381
20470.071330	-750.312000	657.168945	436.530914
20470.071330	-750.312000	655.949219	448.944000
20470.071330	-750.312000	654.728516	598.358154
20470.071330	-750.312000	653.507813	427.246216
20470.071330	-750.312000	652.287109	230.647629
20470.071330	-750.312000	651.066406	252.293243
20470.071330	-750.312000	649.844727	204.290131
20470.071330	-750.312000	648.623047	191.089676
20470.071330	-750.312000	647.401367	291.536041
20470.071330	-750.312000	646.179688	306.115021
20470.071330	-750.312000	644.957031	392.543915
20470.071330	-750.312000	643.734375	138.154114
20470.071330	-750.312000	642.511719	465.581757
20470.071330	-750.312000	641.289063	25.878077
20470.071330	-750.312000	640.065430	181.722275
20470.071330	-750.312000	638.841797	511.197723
20470.071330	-750.312000	637.618164	460.747253
20470.071330	-750.312000	636.393555	433.451385
20470.071330	-750.312000	635.168945	308.936523
20470.071330	-750.312000	633.944336	145.118118
20470.071330	-750.312000	632.719727	455.666565
20470.071330	-750.312000	631.494141	287.230774
20470.071330	-750.312000	630.269531	289.997650
20470.071330	-750.312000	629.042969	352.864166
20470.071330	-750.312000	627.817383	223.820007
20470.071330	-750.312000	626.590820	383.723053
20470.071330	-750.312000	625.365234	518.132385
20470.071330	-750.312000	624.137695	560.057190
20470.071330	-750.312000	622.911133	405.623962
20470.071330	-750.312000	621.683594	701.558655
20470.071330	-750.312000	620.456055	514.815918
20470.071330	-750.312000	619.228516	194.260391
20470.071330	-750.312000	618.000977	187.699234
20470.071330	-750.312000	616.772461	231.890640
20470.071330	-750.312000	615.543945	331.421082
20470.071330	-750.312000	614.314453	87.250877
20470.071330	-750.312000	613.085938	106.049591
20470.071330	-750.312000	611.856445	21.089996
20470.071330	-750.312000	610.626953	-114.546326
20470.071330	-750.312000	609.397461	150.836395
20470.071330	-750.312000	608.166992	56.686760
20470.071330	-750.312000	606.936523	133.027786
20470.071330	-750.312000	605.706055	-129.199661
20470.071330	-750.312000	604.474609	69.166908
20470.071330	-750.312000	603.244141	-57.125809
20470.071330	-750.312000	602.012695	-132.737686
20470.071330	-750.312000	600.780273	-100.177078
20470.071330	-750.312000	599.548828	169.322266
20470.071330	-750.312000	598.316406	211.001816
20470.071330	-750.312000	597.083984	52.606216
20470.071330	-750.312000	595.851563	-170.094559
20470.071330	-750.312000	594.618164	-68.609917
20470.071330	-750.312000	593.384766	53.513756
20470.071330	-750.312000	592.151367	138.825699
20470.071330	-750.312000	590.917969	384.897614
20470.071330	-750.312000	589.683594	417.282593
20470.071330	-750.312000	588.449219	210.862930
20470.071330	-750.312000	587.214844	507.268890
20470.071330	-750.312000	585.979492	307.805511
20470.071330	-750.312000	584.745117	546.706665
20470.071330	-750.312000	583.509766	365.679688
20470.071330	-750.312000	582.273438	414.096008
20470.071330	-750.312000	581.038086	432.688507
20470.071330	-750.312000	579.801758	357.274872
20470.071330	-750.312000	578.565430	469.857391
20470.071330	-750.312000	577.329102	403.646393
20470.071330	-750.312000	576.091797	383.290619
20470.071330	-750.312000	574.854492	466.030640
20470.071330	-750.312000	573.617188	-65.035599
20470.071330	-750.312000	572.378906	244.459412
20470.071330	-750.312000	571.141602	121.165314
20470.071330	-750.312000	569.903320	268.001404
20470.071330	-750.312000	568.664063	362.149567
20470.071330	-750.312000	567.425781	147.418564
20470.071330	-750.312000	566.186523	349.071442
20470.071330	-750.312000	564.947266	278.516571
20470.071330	-750.312000	563.708008	500.648651
20470.071330	-750.312000	562.467773	352.388885
20470.071330	-750.312000	561.227539	457.873138
20470.071330	-750.312000	559.987305	449.079071
20470.071330	-750.312000	558.747070	431.161133
20470.071330	-750.312000	557.505859	196.289474
20470.071330	-750.312000	556.264648	329.151611
20470.071330	-750.312000	555.023438	92.139252
20470.071330	-750.312000	553.781250	243.242828
20470.071330	-750.312000	552.539063	220.866562
20470.071330	-750.312000	551.296875	86.719452
20470.071330	-750.312000	550.054688	178.452896
20470.071330	-750.312000	548.811523	226.825836
20470.071330	-750.312000	547.569336	339.029297
20470.071330	-750.312000	546.325195	27.206388
20470.071330	-750.312000	545.082031	141.700180
20470.071330	-750.312000	543.837891	160.455322
20470.071330	-750.312000	542.593750	272.610168
20470.071330	-750.312000	541.349609	-27.505371
20470.071330	-750.312000	540.105469	141.586060
20470.071330	-750.312000	538.860352	-3.552984
20470.071330	-750.312000	537.615234	-39.369270
20470.071330	-750.312000	536.369141	152.393082
20470.071330	-750.312000	535.124023	-170.086136
20470.071330	-750.312000	533.877930	-103.464859
20470.071330	-750.312000	532.631836	-243.808182
20470.071330	-750.312000	531.384766	20.617214
20470.071330	-750.312000	530.138672	73.536850
20470.071330	-750.312000	528.891602	-91.735619
20470.071330	-750.312000	527.643555	52.078640
20470.071330	-750.312000	526.396484	20.921793
20470.071330	-750.312000	525.148438	-91.983391
20470.071330	-750.312000	523.900391	-5.013823
20470.071330	-750.312000	522.652344	-222.287323
20470.071330	-750.312000	521.403320	-160.290558
20470.071330	-750.312000	520.154297	-118.741364
20470.071330	-750.312000	518.905273	-18.220602
20470.071330	-750.312000	517.656250	-99.204651
20470.071330	-750.312000	516.406250	-121.193993
20470.071330	-750.312000	515.156250	-7.137144
20470.071330	-750.312000	513.906250	-60.874889
20470.071330	-750.312000	512.655273	-119.128548
20470.071330	-750.312000	511.404297	65.082909
20470.071330	-750.312000	510.153320	-110.978912
20470.071330	-750.312000	508.902344	25.578407
20470.071330	-750.312000	507.650391	-132.301620
20470.071330	-750.312000	506.398438	151.334503
20470.071330	-750.312000	505.146484	208.500107
20470.071330	-750.312000	503.893555	86.856308
20470.071330	-750.312000	502.641602	252.582657
20470.071330	-750.312000	501.388672	397.863922
20470.071330	-750.312000	500.134766	364.409454
20470.071330	-750.312000	498.881836	430.436829
20470.071330	-750.312000	497.627930	195.771149
20470.071330	-750.312000	496.374023	225.603775
20470.071330	-750.312000	495.119141	409.044495
20470.071330	-750.312000	493.865234	176.725739
20470.071330	-750.312000	492.610352	479.749603
20470.071330	-750.312000	491.355469	335.522064
20470.071330	-750.312000	490.099609	344.838135
20470.071330	-750.312000	488.843750	496.311707
20470.071330	-750.312000	487.587891	442.337036
20470.071330	-750.312000	486.332031	546.275146
20470.071330	-750.312000	485.075195	460.655090
20470.071330	-750.312000	483.818359	456.214478
20470.071330	-750.312000	482.561523	494.569000
20470.071330	-750.312000	481.304688	471.998322
20470.071330	-750.312000	480.046875	199.228241
20470.071330	-750.312000	478.789063	404.196381
20470.071330	-750.312000	477.531250	253.096252
20470.071330	-750.312000	476.272461	424.064362
20470.071330	-750.312000	475.013672	362.970856
20470.071330	-750.312000	473.754883	319.848785
20470.071330	-750.312000	472.496094	515.257446
20470.071330	-750.312000	471.236328	552.989014
20470.071330	-750.312000	469.976563	493.888062
20470.071330	-750.312000	468.716797	526.955994
20470.071330	-750.312000	467.456055	384.517731
20470.071330	-750.312000	466.196289	527.595154
20470.071330	-750.312000	464.935547	789.653809
20470.071330	-750.312000	463.673828	530.116516
20470.071330	-750.312000	462.413086	814.338989
20470.071330	-750.312000	461.151367	498.548981
20470.071330	-750.312000	459.889648	645.445129
20470.071330	-750.312000	458.626953	495.768036
20470.071330	-750.312000	457.364258	707.474182
20470.071330	-750.312000	456.101563	676.568665
20470.071330	-750.312000	454.838867	490.719696
20470.071330	-750.312000	453.575195	491.024445
20470.071330	-750.312000	452.312500	459.797211
20470.071330	-750.312000	451.047852	751.356262
20470.071330	-750.312000	449.784180	473.174713
20470.071330	-750.312000	448.519531	692.578735
20470.071330	-750.312000	447.254883	624.877014
20470.071330	-750.312000	445.990234	695.958374
20470.071330	-750.312000	444.725586	529.392273
20470.071330	-750.312000	443.459961	653.865723
20470.071330	-750.312000	442.194336	628.085632
20470.071330	-750.312000	440.927734	564.067627
20470.071330	-750.312000	439.662109	676.702148
20470.071330	-750.312000	438.395508	831.598206
20470.071330	-750.312000	437.127930	760.260315
20470.071330	-750.312000	435.861328	758.082458
20470.071330	-750.312000	434.593750	778.040283
20470.071330	-750.312000	433.326172	744.104431
20470.071330	-750.312000	432.058594	797.121033
20470.071330	-750.312000	430.790039	744.831604
20470.071330	-750.312000	429.521484	933.613831
20470.071330	-750.312000	428.252930	1061.743042
20470.071330	-750.312000	426.984375	1164.981812
20470.071330	-750.312000	425.714844	1075.870728
20470.071330	-750.312000	424.445313	890.523071
20470.071330	-750.312000	423.174805	1064.280273
20470.071330	-750.312000	421.905273	1052.465210
20470.071330	-750.312000	420.634766	1428.507446
20470.071330	-750.312000	419.364258	1313.378540
20470.071330	-750.312000	418.092773	1177.890015
20470.071330	-750.312000	416.822266	961.867859
20470.071330	-750.312000	415.550781	1097.753296
20470.071330	-750.312000	414.278320	1219.838135
20470.071330	-750.312000	413.006836	1022.905518
20470.071330	-750.312000	411.734375	720.974365
20470.071330	-750.312000	410.461914	645.934631
20470.071330	-750.312000	409.188477	704.104126
20470.071330	-750.312000	407.916016	574.854126
20470.071330	-750.312000	406.642578	772.379089
20470.071330	-750.312000	405.368164	833.636169
20470.071330	-750.312000	404.094727	558.512512
20470.071330	-750.312000	402.820313	645.561157
20470.071330	-750.312000	401.545898	892.196045
20470.071330	-750.312000	400.270508	500.176147
20470.071330	-750.312000	398.996094	556.814270
20470.071330	-750.312000	397.720703	539.564758
20470.071330	-750.312000	396.444336	526.220825
20470.071330	-750.312000	395.168945	516.794006
20470.071330	-750.312000	393.892578	320.254028
20470.071330	-750.312000	392.616211	656.086914
20470.071330	-750.312000	391.339844	194.286011
20470.071330	-750.312000	390.062500	337.930878
20470.071330	-750.312000	388.785156	485.331177
20470.071330	-750.312000	387.507813	543.297668
20470.071330	-750.312000	386.229492	476.369598
20470.071330	-750.312000	384.951172	428.758423
20470.071330	-750.312000	383.672852	347.228119
20470.071330	-750.312000	382.394531	335.956482
20470.071330	-750.312000	381.115234	399.289917
20470.071330	-750.312000	379.835938	258.038269
20470.071330	-750.312000	378.556641	105.017029
20470.071330	-750.312000	377.277344	279.028656
20470.071330	-750.312000	375.997070	263.960815
20470.071330	-750.312000	374.716797	276.862549
20470.071330	-750.312000	373.435547	184.889130
20470.071330	-750.312000	372.155273	89.916550
20470.071330	-750.312000	370.874023	29.479877
20470.071330	-750.312000	369.591797	38.921421
20470.071330	-750.312000	368.310547	56.314396
20470.071330	-750.312000	367.028320	382.223877
20470.071330	-750.312000	365.746094	247.325775
20470.071330	-750.312000	364.463867	54.054733
20470.071330	-750.312000	363.180664	7.851363
20470.071330	-750.312000	361.897461	108.624001
20470.071330	-750.312000	360.614258	384.960388
20470.071330	-750.312000	359.330078	-19.908524
20470.071330	-750.312000	358.045898	51.066334
20470.071330	-750.312000	356.761719	169.435303
20470.071330	-750.312000	355.477539	72.596947
20470.071330	-750.312000	354.192383	128.997879
20470.071330	-750.312000	352.907227	162.121323
20470.071330	-750.312000	351.622070	30.845997
20470.071330	-750.312000	350.336914	-141.303345
20470.071330	-750.312000	349.050781	251.701324
20470.071330	-750.312000	347.764648	-17.795607
20470.071330	-750.312000	346.477539	-90.289574
20470.071330	-750.312000	345.191406	113.430328
20470.071330	-750.312000	343.904297	13.954298
20470.071330	-750.312000	342.616211	-36.314117
20470.071330	-750.312000	341.329102	50.689404
20470.071330	-750.312000	340.041016	70.106766
20470.071330	-750.312000	338.752930	-11.005940
20470.071330	-750.312000	337.463867	-32.095715
20470.071330	-750.312000	336.175781	228.970230
20470.071330	-750.312000	334.886719	90.307961
20470.071330	-750.312000	333.596680	-192.874466
20470.071330	-750.312000	332.307617	-114.957184
20470.071330	-750.312000	331.017578	-126.733543
20470.071330	-750.312000	329.727539	-6.264093
20470.071330	-750.312000	328.436523	-39.235031
20470.071330	-750.312000	327.146484	106.086098
20470.071330	-750.312000	325.855469	75.994728
20470.071330	-750.312000	324.563477	180.027466
20470.071330	-750.312000	323.272461	194.359848
20470.071330	-750.312000	321.980469	-45.645802
20470.071330	-750.312000	320.688477	-17.789839
20470.071330	-750.312000	319.395508	-51.282558
20470.071330	-750.312000	318.103516	-104.337402
20470.071330	-750.312000	316.810547	-310.821472
20470.071330	-750.312000	315.516602	-50.514629
20470.071330	-750.312000	314.223633	32.244499
20470.071330	-750.312000	312.929688	195.854462
20470.071330	-750.312000	311.635742	-470.734589
20470.071330	-750.312000	310.340820	-46.919086
20470.071330	-750.312000	309.045898	-105.096535
20470.071330	-750.312000	307.750977	72.842674
20470.071330	-750.312000	306.456055	60.027020
20470.071330	-750.312000	305.160156	458.030365
20470.071330	-750.312000	303.865234	138.161926
20470.071330	-750.312000	302.568359	250.741714
20470.071330	-750.312000	301.272461	424.057068
20470.071330	-750.312000	299.975586	511.394440
20470.071330	-750.312000	298.678711	501.922058
