#X		#Y		#Wave		#Intensity
20468.143245	-761.084667	1999.980469	-205.615601
20468.143245	-761.084667	1999.016602	-63.967285
20468.143245	-761.084667	1998.052734	-195.448441
20468.143245	-761.084667	1997.087891	-69.905487
20468.143245	-761.084667	1996.123047	-130.978455
20468.143245	-761.084667	1995.158203	-11.917258
20468.143245	-761.084667	1994.193359	-175.951691
20468.143245	-761.084667	1993.228516	147.220261
20468.143245	-761.084667	1992.262695	-211.229965
20468.143245	-761.084667	1991.297852	-89.981781
20468.143245	-761.084667	1990.332031	-60.962086
20468.143245	-761.084667	1989.366211	130.753860
20468.143245	-761.084667	1988.399414	168.435043
20468.143245	-761.084667	1987.433594	-26.989910
20468.143245	-761.084667	1986.466797	-215.465042
20468.143245	-761.084667	1985.500977	169.233719
20468.143245	-761.084667	1984.534180	140.429916
20468.143245	-761.084667	1983.567383	4.853378
20468.143245	-761.084667	1982.599609	-145.977371
20468.143245	-761.084667	1981.632813	201.869553
20468.143245	-761.084667	1980.665039	32.843166
20468.143245	-761.084667	1979.697266	127.717888
20468.143245	-761.084667	1978.729492	155.460175
20468.143245	-761.084667	1977.761719	-2.387706
20468.143245	-761.084667	1976.792969	19.634485
20468.143245	-761.084667	1975.825195	83.219681
20468.143245	-761.084667	1974.856445	55.119427
20468.143245	-761.084667	1973.887695	88.354881
20468.143245	-761.084667	1972.918945	121.237251
20468.143245	-761.084667	1971.949219	10.744952
20468.143245	-761.084667	1970.980469	178.604187
20468.143245	-761.084667	1970.010742	269.677765
20468.143245	-761.084667	1969.041016	-14.225768
20468.143245	-761.084667	1968.071289	24.528479
20468.143245	-761.084667	1967.101563	173.877884
20468.143245	-761.084667	1966.130859	295.818939
20468.143245	-761.084667	1965.161133	65.260193
20468.143245	-761.084667	1964.190430	46.331001
20468.143245	-761.084667	1963.219727	-90.995087
20468.143245	-761.084667	1962.249023	49.677906
20468.143245	-761.084667	1961.277344	39.964130
20468.143245	-761.084667	1960.306641	236.757492
20468.143245	-761.084667	1959.334961	-12.012424
20468.143245	-761.084667	1958.363281	-177.233582
20468.143245	-761.084667	1957.391602	77.984856
20468.143245	-761.084667	1956.419922	69.848846
20468.143245	-761.084667	1955.447266	-49.064110
20468.143245	-761.084667	1954.474609	-136.122665
20468.143245	-761.084667	1953.501953	167.460495
20468.143245	-761.084667	1952.529297	-45.176929
20468.143245	-761.084667	1951.556641	-36.760773
20468.143245	-761.084667	1950.583984	106.626465
20468.143245	-761.084667	1949.610352	193.373672
20468.143245	-761.084667	1948.636719	63.930035
20468.143245	-761.084667	1947.663086	71.909676
20468.143245	-761.084667	1946.689453	111.706810
20468.143245	-761.084667	1945.715820	151.410736
20468.143245	-761.084667	1944.741211	173.851288
20468.143245	-761.084667	1943.767578	206.029388
20468.143245	-761.084667	1942.792969	230.774918
20468.143245	-761.084667	1941.818359	289.782379
20468.143245	-761.084667	1940.842773	-75.405548
20468.143245	-761.084667	1939.868164	-67.931763
20468.143245	-761.084667	1938.892578	-18.842535
20468.143245	-761.084667	1937.916992	135.550232
20468.143245	-761.084667	1936.941406	84.076347
20468.143245	-761.084667	1935.965820	177.101578
20468.143245	-761.084667	1934.990234	191.708328
20468.143245	-761.084667	1934.013672	-43.446907
20468.143245	-761.084667	1933.037109	-138.997971
20468.143245	-761.084667	1932.060547	39.592098
20468.143245	-761.084667	1931.083984	110.440216
20468.143245	-761.084667	1930.107422	-80.523392
20468.143245	-761.084667	1929.129883	24.558142
20468.143245	-761.084667	1928.153320	36.672245
20468.143245	-761.084667	1927.175781	-100.371300
20468.143245	-761.084667	1926.198242	-124.898788
20468.143245	-761.084667	1925.219727	-127.409340
20468.143245	-761.084667	1924.242188	-2.824377
20468.143245	-761.084667	1923.263672	65.530647
20468.143245	-761.084667	1922.285156	-125.068611
20468.143245	-761.084667	1921.306641	-166.586761
20468.143245	-761.084667	1920.328125	-154.343018
20468.143245	-761.084667	1919.349609	-76.157730
20468.143245	-761.084667	1918.370117	-12.623536
20468.143245	-761.084667	1917.391602	82.646484
20468.143245	-761.084667	1916.412109	-107.591629
20468.143245	-761.084667	1915.431641	90.184181
20468.143245	-761.084667	1914.452148	58.631802
20468.143245	-761.084667	1913.472656	-175.296051
20468.143245	-761.084667	1912.492188	-140.884888
20468.143245	-761.084667	1911.511719	-55.254223
20468.143245	-761.084667	1910.531250	-79.303528
20468.143245	-761.084667	1909.550781	-169.103287
20468.143245	-761.084667	1908.569336	104.208176
20468.143245	-761.084667	1907.588867	-85.394150
20468.143245	-761.084667	1906.607422	-75.166283
20468.143245	-761.084667	1905.625977	-30.810568
20468.143245	-761.084667	1904.644531	-215.292511
20468.143245	-761.084667	1903.662109	-15.055368
20468.143245	-761.084667	1902.680664	-162.881882
20468.143245	-761.084667	1901.698242	-135.413803
20468.143245	-761.084667	1900.715820	50.222977
20468.143245	-761.084667	1899.733398	-87.681580
20468.143245	-761.084667	1898.750000	175.780609
20468.143245	-761.084667	1897.767578	-32.527527
20468.143245	-761.084667	1896.784180	-58.389343
20468.143245	-761.084667	1895.800781	-196.010391
20468.143245	-761.084667	1894.817383	-112.394096
20468.143245	-761.084667	1893.833984	-176.983383
20468.143245	-761.084667	1892.850586	-88.466354
20468.143245	-761.084667	1891.866211	-9.660731
20468.143245	-761.084667	1890.881836	280.417816
20468.143245	-761.084667	1889.897461	162.538971
20468.143245	-761.084667	1888.913086	136.983139
20468.143245	-761.084667	1887.927734	-60.845840
20468.143245	-761.084667	1886.943359	-277.978210
20468.143245	-761.084667	1885.958008	-189.312454
20468.143245	-761.084667	1884.972656	-214.651886
20468.143245	-761.084667	1883.987305	24.390982
20468.143245	-761.084667	1883.001953	-34.864716
20468.143245	-761.084667	1882.015625	-258.921509
20468.143245	-761.084667	1881.029297	1.892531
20468.143245	-761.084667	1880.042969	-45.130024
20468.143245	-761.084667	1879.056641	19.342459
20468.143245	-761.084667	1878.070313	-85.757858
20468.143245	-761.084667	1877.083984	24.759933
20468.143245	-761.084667	1876.096680	-22.144878
20468.143245	-761.084667	1875.109375	1.198215
20468.143245	-761.084667	1874.122070	-91.642059
20468.143245	-761.084667	1873.134766	-136.027679
20468.143245	-761.084667	1872.146484	-207.002365
20468.143245	-761.084667	1871.159180	-65.041275
20468.143245	-761.084667	1870.170898	-162.586700
20468.143245	-761.084667	1869.182617	61.553036
20468.143245	-761.084667	1868.194336	43.826363
20468.143245	-761.084667	1867.205078	108.302719
20468.143245	-761.084667	1866.216797	27.739141
20468.143245	-761.084667	1865.227539	232.357330
20468.143245	-761.084667	1864.238281	-97.056473
20468.143245	-761.084667	1863.249023	-90.577408
20468.143245	-761.084667	1862.259766	-52.707405
20468.143245	-761.084667	1861.269531	142.098419
20468.143245	-761.084667	1860.279297	27.795158
20468.143245	-761.084667	1859.290039	-100.957954
20468.143245	-761.084667	1858.298828	38.206985
20468.143245	-761.084667	1857.308594	-133.959869
20468.143245	-761.084667	1856.318359	-173.393234
20468.143245	-761.084667	1855.327148	-145.296463
20468.143245	-761.084667	1854.335938	-32.824810
20468.143245	-761.084667	1853.344727	-84.374886
20468.143245	-761.084667	1852.353516	141.295380
20468.143245	-761.084667	1851.362305	222.241531
20468.143245	-761.084667	1850.370117	35.645775
20468.143245	-761.084667	1849.377930	155.068726
20468.143245	-761.084667	1848.385742	55.209461
20468.143245	-761.084667	1847.393555	37.236755
20468.143245	-761.084667	1846.401367	-19.293879
20468.143245	-761.084667	1845.408203	97.494904
20468.143245	-761.084667	1844.415039	-45.761959
20468.143245	-761.084667	1843.421875	87.746902
20468.143245	-761.084667	1842.428711	52.732258
20468.143245	-761.084667	1841.435547	371.314056
20468.143245	-761.084667	1840.441406	292.863556
20468.143245	-761.084667	1839.448242	243.249039
20468.143245	-761.084667	1838.454102	80.594971
20468.143245	-761.084667	1837.459961	158.329575
20468.143245	-761.084667	1836.464844	-21.189758
20468.143245	-761.084667	1835.470703	344.768982
20468.143245	-761.084667	1834.475586	177.169647
20468.143245	-761.084667	1833.480469	182.514954
20468.143245	-761.084667	1832.485352	-9.139572
20468.143245	-761.084667	1831.490234	334.662018
20468.143245	-761.084667	1830.495117	22.874708
20468.143245	-761.084667	1829.499023	147.971664
20468.143245	-761.084667	1828.502930	191.353409
20468.143245	-761.084667	1827.506836	64.286461
20468.143245	-761.084667	1826.510742	69.126244
20468.143245	-761.084667	1825.513672	241.769485
20468.143245	-761.084667	1824.517578	148.090469
20468.143245	-761.084667	1823.520508	32.780121
20468.143245	-761.084667	1822.523438	56.454338
20468.143245	-761.084667	1821.526367	276.552582
20468.143245	-761.084667	1820.529297	117.880539
20468.143245	-761.084667	1819.531250	141.245651
20468.143245	-761.084667	1818.533203	186.062073
20468.143245	-761.084667	1817.535156	55.942165
20468.143245	-761.084667	1816.537109	150.841110
20468.143245	-761.084667	1815.539063	125.906456
20468.143245	-761.084667	1814.540039	60.184532
20468.143245	-761.084667	1813.541992	140.358414
20468.143245	-761.084667	1812.542969	67.267570
20468.143245	-761.084667	1811.543945	113.699043
20468.143245	-761.084667	1810.543945	35.632374
20468.143245	-761.084667	1809.544922	110.522072
20468.143245	-761.084667	1808.544922	237.860184
20468.143245	-761.084667	1807.544922	343.521118
20468.143245	-761.084667	1806.544922	229.157562
20468.143245	-761.084667	1805.544922	62.150646
20468.143245	-761.084667	1804.544922	-73.859627
20468.143245	-761.084667	1803.543945	40.844917
20468.143245	-761.084667	1802.542969	-143.124283
20468.143245	-761.084667	1801.541992	2.334751
20468.143245	-761.084667	1800.541016	118.965614
20468.143245	-761.084667	1799.539063	-34.278572
20468.143245	-761.084667	1798.538086	198.977509
20468.143245	-761.084667	1797.536133	-171.594818
20468.143245	-761.084667	1796.534180	8.848223
20468.143245	-761.084667	1795.532227	96.076729
20468.143245	-761.084667	1794.529297	116.364594
20468.143245	-761.084667	1793.527344	193.726242
20468.143245	-761.084667	1792.524414	218.474411
20468.143245	-761.084667	1791.521484	28.595251
20468.143245	-761.084667	1790.518555	10.192986
20468.143245	-761.084667	1789.514648	-10.736377
20468.143245	-761.084667	1788.511719	39.654121
20468.143245	-761.084667	1787.507813	66.058815
20468.143245	-761.084667	1786.503906	106.589676
20468.143245	-761.084667	1785.500000	66.023918
20468.143245	-761.084667	1784.496094	153.836029
20468.143245	-761.084667	1783.491211	258.112152
20468.143245	-761.084667	1782.486328	221.834106
20468.143245	-761.084667	1781.481445	230.607315
20468.143245	-761.084667	1780.476563	65.620270
20468.143245	-761.084667	1779.471680	14.665975
20468.143245	-761.084667	1778.465820	-55.452240
20468.143245	-761.084667	1777.460938	43.055538
20468.143245	-761.084667	1776.455078	34.423733
20468.143245	-761.084667	1775.449219	225.205688
20468.143245	-761.084667	1774.442383	64.186676
20468.143245	-761.084667	1773.436523	123.945030
20468.143245	-761.084667	1772.429688	-49.192154
20468.143245	-761.084667	1771.422852	-205.808502
20468.143245	-761.084667	1770.416016	55.221287
20468.143245	-761.084667	1769.409180	-47.104393
20468.143245	-761.084667	1768.402344	-161.420914
20468.143245	-761.084667	1767.394531	146.388138
20468.143245	-761.084667	1766.386719	-72.625153
20468.143245	-761.084667	1765.378906	56.862907
20468.143245	-761.084667	1764.371094	-122.081757
20468.143245	-761.084667	1763.362305	116.058136
20468.143245	-761.084667	1762.354492	-39.470249
20468.143245	-761.084667	1761.345703	91.593582
20468.143245	-761.084667	1760.336914	113.458099
20468.143245	-761.084667	1759.328125	104.350525
20468.143245	-761.084667	1758.318359	159.004272
20468.143245	-761.084667	1757.308594	-120.385262
20468.143245	-761.084667	1756.299805	33.382847
20468.143245	-761.084667	1755.290039	-295.925812
20468.143245	-761.084667	1754.279297	-194.613678
20468.143245	-761.084667	1753.269531	-209.432312
20468.143245	-761.084667	1752.258789	-9.171746
20468.143245	-761.084667	1751.249023	-277.425629
20468.143245	-761.084667	1750.238281	-79.942520
20468.143245	-761.084667	1749.226563	136.192062
20468.143245	-761.084667	1748.215820	40.075993
20468.143245	-761.084667	1747.204102	-75.095886
20468.143245	-761.084667	1746.193359	64.793541
20468.143245	-761.084667	1745.181641	-242.037048
20468.143245	-761.084667	1744.168945	41.529179
20468.143245	-761.084667	1743.157227	86.323288
20468.143245	-761.084667	1742.144531	-95.742584
20468.143245	-761.084667	1741.132813	170.599854
20468.143245	-761.084667	1740.120117	-14.121642
20468.143245	-761.084667	1739.106445	27.562452
20468.143245	-761.084667	1738.093750	238.932251
20468.143245	-761.084667	1737.080078	-106.626999
20468.143245	-761.084667	1736.067383	165.654785
20468.143245	-761.084667	1735.053711	-29.203926
20468.143245	-761.084667	1734.040039	23.361910
20468.143245	-761.084667	1733.025391	-65.694923
20468.143245	-761.084667	1732.011719	-128.954529
20468.143245	-761.084667	1730.997070	161.026184
20468.143245	-761.084667	1729.982422	-22.744583
20468.143245	-761.084667	1728.967773	-58.244793
20468.143245	-761.084667	1727.952148	61.490391
20468.143245	-761.084667	1726.937500	117.462677
20468.143245	-761.084667	1725.921875	-8.013237
20468.143245	-761.084667	1724.906250	-44.185074
20468.143245	-761.084667	1723.890625	103.013313
20468.143245	-761.084667	1722.875000	-69.941750
20468.143245	-761.084667	1721.858398	-144.231705
20468.143245	-761.084667	1720.841797	70.576134
20468.143245	-761.084667	1719.825195	47.678898
20468.143245	-761.084667	1718.808594	-29.440155
20468.143245	-761.084667	1717.791992	48.418098
20468.143245	-761.084667	1716.774414	-97.158882
20468.143245	-761.084667	1715.756836	133.040817
20468.143245	-761.084667	1714.739258	76.433197
20468.143245	-761.084667	1713.721680	-177.576477
20468.143245	-761.084667	1712.704102	-63.025276
20468.143245	-761.084667	1711.685547	171.025208
20468.143245	-761.084667	1710.667969	-22.311592
20468.143245	-761.084667	1709.649414	-168.819138
20468.143245	-761.084667	1708.630859	149.105347
20468.143245	-761.084667	1707.611328	-77.462494
20468.143245	-761.084667	1706.592773	31.287306
20468.143245	-761.084667	1705.573242	-31.344772
20468.143245	-761.084667	1704.553711	-110.516037
20468.143245	-761.084667	1703.534180	-180.432312
20468.143245	-761.084667	1702.513672	-154.411072
20468.143245	-761.084667	1701.494141	-142.587173
20468.143245	-761.084667	1700.473633	-105.167221
20468.143245	-761.084667	1699.453125	-93.671021
20468.143245	-761.084667	1698.432617	-246.238846
20468.143245	-761.084667	1697.412109	-38.350784
20468.143245	-761.084667	1696.390625	-29.667755
20468.143245	-761.084667	1695.369141	-142.824173
20468.143245	-761.084667	1694.347656	-188.221924
20468.143245	-761.084667	1693.326172	-198.650620
20468.143245	-761.084667	1692.304688	-199.856812
20468.143245	-761.084667	1691.282227	37.304691
20468.143245	-761.084667	1690.260742	-55.399460
20468.143245	-761.084667	1689.238281	-89.784889
20468.143245	-761.084667	1688.214844	118.752113
20468.143245	-761.084667	1687.192383	-18.729019
20468.143245	-761.084667	1686.168945	32.927105
20468.143245	-761.084667	1685.146484	-44.010616
20468.143245	-761.084667	1684.123047	-60.347160
20468.143245	-761.084667	1683.099609	63.290604
20468.143245	-761.084667	1682.075195	-16.360189
20468.143245	-761.084667	1681.051758	67.299408
20468.143245	-761.084667	1680.027344	34.108150
20468.143245	-761.084667	1679.002930	66.138893
20468.143245	-761.084667	1677.978516	191.345520
20468.143245	-761.084667	1676.953125	146.116074
20468.143245	-761.084667	1675.928711	98.483253
20468.143245	-761.084667	1674.903320	20.427454
20468.143245	-761.084667	1673.877930	261.615875
20468.143245	-761.084667	1672.852539	85.465355
20468.143245	-761.084667	1671.826172	86.327431
20468.143245	-761.084667	1670.800781	-169.135284
20468.143245	-761.084667	1669.774414	122.697372
20468.143245	-761.084667	1668.748047	351.445313
20468.143245	-761.084667	1667.721680	249.410172
20468.143245	-761.084667	1666.694336	484.808411
20468.143245	-761.084667	1665.667969	289.503723
20468.143245	-761.084667	1664.640625	296.588196
20468.143245	-761.084667	1663.613281	224.481979
20468.143245	-761.084667	1662.585938	561.670410
20468.143245	-761.084667	1661.557617	631.190918
20468.143245	-761.084667	1660.530273	537.872864
20468.143245	-761.084667	1659.501953	769.917969
20468.143245	-761.084667	1658.473633	987.846436
20468.143245	-761.084667	1657.444336	805.918213
20468.143245	-761.084667	1656.416016	995.718018
20468.143245	-761.084667	1655.386719	825.317261
20468.143245	-761.084667	1654.358398	975.409485
20468.143245	-761.084667	1653.328125	1136.929932
20468.143245	-761.084667	1652.298828	1056.916992
20468.143245	-761.084667	1651.269531	1162.541748
20468.143245	-761.084667	1650.239258	1145.047974
20468.143245	-761.084667	1649.208984	1162.296387
20468.143245	-761.084667	1648.178711	1346.487305
20468.143245	-761.084667	1647.148438	1298.630615
20468.143245	-761.084667	1646.117188	1591.557861
20468.143245	-761.084667	1645.086914	1497.191162
20468.143245	-761.084667	1644.055664	1757.405640
20468.143245	-761.084667	1643.024414	1827.443970
20468.143245	-761.084667	1641.992188	1621.666992
20468.143245	-761.084667	1640.960938	1784.262939
20468.143245	-761.084667	1639.928711	1830.924561
20468.143245	-761.084667	1638.896484	1812.687134
20468.143245	-761.084667	1637.864258	2012.036133
20468.143245	-761.084667	1636.832031	2035.351685
20468.143245	-761.084667	1635.798828	1926.685669
20468.143245	-761.084667	1634.766602	1938.368286
20468.143245	-761.084667	1633.733398	2024.011230
20468.143245	-761.084667	1632.699219	2322.348877
20468.143245	-761.084667	1631.666016	2088.709473
20468.143245	-761.084667	1630.632813	2192.681396
20468.143245	-761.084667	1629.598633	2368.219482
20468.143245	-761.084667	1628.564453	2247.849854
20468.143245	-761.084667	1627.530273	2166.785156
20468.143245	-761.084667	1626.495117	2473.816895
20468.143245	-761.084667	1625.460938	2591.341553
20468.143245	-761.084667	1624.425781	2533.275635
20468.143245	-761.084667	1623.390625	2429.042725
20468.143245	-761.084667	1622.355469	2518.743164
20468.143245	-761.084667	1621.319336	2802.244141
20468.143245	-761.084667	1620.284180	2617.233154
20468.143245	-761.084667	1619.248047	2815.232178
20468.143245	-761.084667	1618.211914	2738.671143
20468.143245	-761.084667	1617.174805	2655.194824
20468.143245	-761.084667	1616.138672	2721.648926
20468.143245	-761.084667	1615.101563	2728.121582
20468.143245	-761.084667	1614.065430	2660.868896
20468.143245	-761.084667	1613.027344	2771.037842
20468.143245	-761.084667	1611.990234	2869.679199
20468.143245	-761.084667	1610.953125	2583.621094
20468.143245	-761.084667	1609.915039	3073.776367
20468.143245	-761.084667	1608.876953	2990.422119
20468.143245	-761.084667	1607.838867	3155.746338
20468.143245	-761.084667	1606.800781	2936.655273
20468.143245	-761.084667	1605.761719	3078.936523
20468.143245	-761.084667	1604.723633	2899.107422
20468.143245	-761.084667	1603.684570	3154.111816
20468.143245	-761.084667	1602.644531	2978.946533
20468.143245	-761.084667	1601.605469	2951.071533
20468.143245	-761.084667	1600.566406	3160.036621
20468.143245	-761.084667	1599.526367	3267.795166
20468.143245	-761.084667	1598.486328	3175.622314
20468.143245	-761.084667	1597.446289	3108.799561
20468.143245	-761.084667	1596.405273	3058.101318
20468.143245	-761.084667	1595.365234	3335.924805
20468.143245	-761.084667	1594.324219	3253.150146
20468.143245	-761.084667	1593.283203	3158.976318
20468.143245	-761.084667	1592.242188	3177.366455
20468.143245	-761.084667	1591.200195	3319.704102
20468.143245	-761.084667	1590.159180	3338.165283
20468.143245	-761.084667	1589.117188	2929.965088
20468.143245	-761.084667	1588.075195	3145.838867
20468.143245	-761.084667	1587.032227	3281.405518
20468.143245	-761.084667	1585.990234	3157.935547
20468.143245	-761.084667	1584.947266	3098.740234
20468.143245	-761.084667	1583.904297	2961.715332
20468.143245	-761.084667	1582.861328	3218.923096
20468.143245	-761.084667	1581.818359	3017.927979
20468.143245	-761.084667	1580.775391	3059.872559
20468.143245	-761.084667	1579.731445	3140.784180
20468.143245	-761.084667	1578.687500	3164.502930
20468.143245	-761.084667	1577.643555	3245.520996
20468.143245	-761.084667	1576.598633	2825.356201
20468.143245	-761.084667	1575.554688	3002.681885
20468.143245	-761.084667	1574.509766	2964.953369
20468.143245	-761.084667	1573.464844	2963.924805
20468.143245	-761.084667	1572.419922	2985.857666
20468.143245	-761.084667	1571.374023	2927.826660
20468.143245	-761.084667	1570.329102	3130.535645
20468.143245	-761.084667	1569.283203	2793.860840
20468.143245	-761.084667	1568.237305	2857.299561
20468.143245	-761.084667	1567.191406	2918.529541
20468.143245	-761.084667	1566.144531	2858.756836
20468.143245	-761.084667	1565.098633	2659.826660
20468.143245	-761.084667	1564.051758	2851.497070
20468.143245	-761.084667	1563.004883	2842.312012
20468.143245	-761.084667	1561.957031	2705.407227
20468.143245	-761.084667	1560.910156	2844.801025
20468.143245	-761.084667	1559.862305	2808.559326
20468.143245	-761.084667	1558.814453	2957.209229
20468.143245	-761.084667	1557.766602	2832.250732
20468.143245	-761.084667	1556.718750	2953.712891
20468.143245	-761.084667	1555.669922	2730.997803
20468.143245	-761.084667	1554.621094	2663.478271
20468.143245	-761.084667	1553.573242	2691.839355
20468.143245	-761.084667	1552.523438	2820.521484
20468.143245	-761.084667	1551.474609	2696.456299
20468.143245	-761.084667	1550.424805	2533.830566
20468.143245	-761.084667	1549.375000	2589.992920
20468.143245	-761.084667	1548.325195	2423.165283
20468.143245	-761.084667	1547.275391	2372.617432
20468.143245	-761.084667	1546.225586	1996.811401
20468.143245	-761.084667	1545.174805	2178.691895
20468.143245	-761.084667	1544.124023	2101.319580
20468.143245	-761.084667	1543.073242	2051.410645
20468.143245	-761.084667	1542.022461	1985.748169
20468.143245	-761.084667	1540.970703	1906.595337
20468.143245	-761.084667	1539.919922	1841.275635
20468.143245	-761.084667	1538.868164	1760.203125
20468.143245	-761.084667	1537.815430	1502.073120
20468.143245	-761.084667	1536.763672	1550.881958
20468.143245	-761.084667	1535.710938	1683.837402
20468.143245	-761.084667	1534.659180	1637.527100
20468.143245	-761.084667	1533.606445	1278.073486
20468.143245	-761.084667	1532.552734	1490.894531
20468.143245	-761.084667	1531.500000	1445.100098
20468.143245	-761.084667	1530.446289	1138.538208
20468.143245	-761.084667	1529.393555	1054.587769
20468.143245	-761.084667	1528.338867	1109.146240
20468.143245	-761.084667	1527.285156	923.502197
20468.143245	-761.084667	1526.231445	776.637329
20468.143245	-761.084667	1525.176758	856.647095
20468.143245	-761.084667	1524.122070	735.098877
20468.143245	-761.084667	1523.067383	622.829773
20468.143245	-761.084667	1522.012695	624.044067
20468.143245	-761.084667	1520.957031	518.960938
20468.143245	-761.084667	1519.901367	515.992615
20468.143245	-761.084667	1518.845703	476.976288
20468.143245	-761.084667	1517.790039	288.756683
20468.143245	-761.084667	1516.734375	130.207916
20468.143245	-761.084667	1515.677734	82.754997
20468.143245	-761.084667	1514.621094	-50.464123
20468.143245	-761.084667	1513.564453	-79.411331
20468.143245	-761.084667	1512.507813	108.920204
20468.143245	-761.084667	1511.450195	53.170952
20468.143245	-761.084667	1510.393555	38.330605
20468.143245	-761.084667	1509.335938	-96.111740
20468.143245	-761.084667	1508.278320	-8.884539
20468.143245	-761.084667	1507.219727	-32.213863
20468.143245	-761.084667	1506.162109	-147.933807
20468.143245	-761.084667	1505.103516	-263.434753
20468.143245	-761.084667	1504.044922	-96.485046
20468.143245	-761.084667	1502.986328	-283.802582
20468.143245	-761.084667	1501.926758	-161.682999
20468.143245	-761.084667	1500.868164	-350.786469
20468.143245	-761.084667	1499.808594	-255.388397
20468.143245	-761.084667	1498.749023	-173.365540
20468.143245	-761.084667	1497.688477	-240.026459
20468.143245	-761.084667	1496.628906	-87.755623
20468.143245	-761.084667	1495.568359	48.858543
20468.143245	-761.084667	1494.507813	32.366211
20468.143245	-761.084667	1493.447266	29.596132
20468.143245	-761.084667	1492.386719	-159.954987
20468.143245	-761.084667	1491.325195	146.274399
20468.143245	-761.084667	1490.263672	85.523102
20468.143245	-761.084667	1489.202148	187.100266
20468.143245	-761.084667	1488.140625	-55.563911
20468.143245	-761.084667	1487.079102	559.533020
20468.143245	-761.084667	1486.016602	643.553162
20468.143245	-761.084667	1484.954102	658.001709
20468.143245	-761.084667	1483.891602	656.906555
20468.143245	-761.084667	1482.829102	766.207520
20468.143245	-761.084667	1481.765625	857.678650
20468.143245	-761.084667	1480.702148	672.826416
20468.143245	-761.084667	1479.638672	672.559387
20468.143245	-761.084667	1478.575195	643.321228
20468.143245	-761.084667	1477.511719	638.944275
20468.143245	-761.084667	1476.447266	899.812866
20468.143245	-761.084667	1475.382813	722.875671
20468.143245	-761.084667	1474.318359	279.127136
20468.143245	-761.084667	1473.253906	527.131958
20468.143245	-761.084667	1472.189453	185.142258
20468.143245	-761.084667	1471.124023	195.631165
20468.143245	-761.084667	1470.058594	251.040405
20468.143245	-761.084667	1468.993164	275.479523
20468.143245	-761.084667	1467.927734	82.575645
20468.143245	-761.084667	1466.861328	210.431412
20468.143245	-761.084667	1465.794922	141.284622
20468.143245	-761.084667	1464.728516	-148.909576
20468.143245	-761.084667	1463.662109	21.747328
20468.143245	-761.084667	1462.594727	136.837234
20468.143245	-761.084667	1461.528320	19.368496
20468.143245	-761.084667	1460.460938	25.585133
20468.143245	-761.084667	1459.393555	223.520493
20468.143245	-761.084667	1458.326172	-124.714149
20468.143245	-761.084667	1457.257813	239.124176
20468.143245	-761.084667	1456.189453	225.773239
20468.143245	-761.084667	1455.121094	232.414581
20468.143245	-761.084667	1454.052734	186.546127
20468.143245	-761.084667	1452.984375	183.279068
20468.143245	-761.084667	1451.915039	217.103333
20468.143245	-761.084667	1450.845703	363.777130
20468.143245	-761.084667	1449.776367	606.048279
20468.143245	-761.084667	1448.707031	65.434097
20468.143245	-761.084667	1447.636719	464.946808
20468.143245	-761.084667	1446.567383	370.752960
20468.143245	-761.084667	1445.497070	647.816711
20468.143245	-761.084667	1444.425781	597.317993
20468.143245	-761.084667	1443.355469	649.238647
20468.143245	-761.084667	1442.285156	755.083252
20468.143245	-761.084667	1441.213867	917.792725
20468.143245	-761.084667	1440.142578	746.087952
20468.143245	-761.084667	1439.070313	944.279358
20468.143245	-761.084667	1437.999023	804.403320
20468.143245	-761.084667	1436.926758	851.462036
20468.143245	-761.084667	1435.854492	754.150146
20468.143245	-761.084667	1434.782227	1048.519897
20468.143245	-761.084667	1433.709961	646.199829
20468.143245	-761.084667	1432.636719	1014.245422
20468.143245	-761.084667	1431.563477	836.196167
20468.143245	-761.084667	1430.490234	382.907074
20468.143245	-761.084667	1429.416992	433.988800
20468.143245	-761.084667	1428.343750	736.327576
20468.143245	-761.084667	1427.269531	615.223999
20468.143245	-761.084667	1426.195313	204.810272
20468.143245	-761.084667	1425.121094	141.345474
20468.143245	-761.084667	1424.046875	358.996948
20468.143245	-761.084667	1422.971680	331.480103
20468.143245	-761.084667	1421.896484	345.154755
20468.143245	-761.084667	1420.821289	276.606140
20468.143245	-761.084667	1419.746094	3.634339
20468.143245	-761.084667	1418.669922	250.922211
20468.143245	-761.084667	1417.594727	286.512207
20468.143245	-761.084667	1416.518555	126.868538
20468.143245	-761.084667	1415.442383	10.787338
20468.143245	-761.084667	1414.365234	82.600571
20468.143245	-761.084667	1413.289063	80.647949
20468.143245	-761.084667	1412.211914	18.236925
20468.143245	-761.084667	1411.134766	-187.630157
20468.143245	-761.084667	1410.057617	21.497000
20468.143245	-761.084667	1408.979492	92.234413
20468.143245	-761.084667	1407.902344	318.126923
20468.143245	-761.084667	1406.824219	146.307922
20468.143245	-761.084667	1405.746094	639.227966
20468.143245	-761.084667	1404.666992	522.263550
20468.143245	-761.084667	1403.588867	619.247009
20468.143245	-761.084667	1402.509766	587.809204
20468.143245	-761.084667	1401.430664	428.884369
20468.143245	-761.084667	1400.351563	465.352325
20468.143245	-761.084667	1399.271484	460.592224
20468.143245	-761.084667	1398.192383	642.305786
20468.143245	-761.084667	1397.112305	582.434082
20468.143245	-761.084667	1396.031250	417.365295
20468.143245	-761.084667	1394.951172	700.458252
20468.143245	-761.084667	1393.871094	652.432190
20468.143245	-761.084667	1392.790039	411.753174
20468.143245	-761.084667	1391.708984	369.300934
20468.143245	-761.084667	1390.626953	463.457855
20468.143245	-761.084667	1389.545898	194.856369
20468.143245	-761.084667	1388.463867	314.207764
20468.143245	-761.084667	1387.381836	93.797333
20468.143245	-761.084667	1386.299805	380.577026
20468.143245	-761.084667	1385.217773	240.059311
20468.143245	-761.084667	1384.134766	371.025879
20468.143245	-761.084667	1383.051758	324.331604
20468.143245	-761.084667	1381.968750	194.606155
20468.143245	-761.084667	1380.885742	159.572876
20468.143245	-761.084667	1379.802734	88.525459
20468.143245	-761.084667	1378.718750	107.109558
20468.143245	-761.084667	1377.634766	149.524933
20468.143245	-761.084667	1376.550781	189.434372
20468.143245	-761.084667	1375.465820	88.163635
20468.143245	-761.084667	1374.381836	152.307434
20468.143245	-761.084667	1373.296875	386.989410
20468.143245	-761.084667	1372.211914	399.090210
20468.143245	-761.084667	1371.126953	286.899445
20468.143245	-761.084667	1370.041016	281.397888
20468.143245	-761.084667	1368.955078	275.024231
20468.143245	-761.084667	1367.869141	155.417740
20468.143245	-761.084667	1366.783203	445.993042
20468.143245	-761.084667	1365.697266	138.678436
20468.143245	-761.084667	1364.610352	492.310760
20468.143245	-761.084667	1363.523438	449.169800
20468.143245	-761.084667	1362.436523	437.259949
20468.143245	-761.084667	1361.349609	658.378601
20468.143245	-761.084667	1360.261719	856.298706
20468.143245	-761.084667	1359.174805	795.044434
20468.143245	-761.084667	1358.086914	805.508911
20468.143245	-761.084667	1356.998047	933.999573
20468.143245	-761.084667	1355.910156	783.389465
20468.143245	-761.084667	1354.821289	758.236511
20468.143245	-761.084667	1353.732422	646.680420
20468.143245	-761.084667	1352.643555	628.477539
20468.143245	-761.084667	1351.554688	699.536560
20468.143245	-761.084667	1350.464844	517.049316
20468.143245	-761.084667	1349.375000	663.662964
20468.143245	-761.084667	1348.285156	692.233398
20468.143245	-761.084667	1347.195313	729.921082
20468.143245	-761.084667	1346.105469	872.017578
20468.143245	-761.084667	1345.014648	1041.523926
20468.143245	-761.084667	1343.923828	863.104004
20468.143245	-761.084667	1342.833008	830.258423
20468.143245	-761.084667	1341.741211	983.093872
20468.143245	-761.084667	1340.650391	1203.437012
20468.143245	-761.084667	1339.558594	1088.874268
20468.143245	-761.084667	1338.466797	1322.989136
20468.143245	-761.084667	1337.374023	1240.392700
20468.143245	-761.084667	1336.282227	1388.232788
20468.143245	-761.084667	1335.189453	1388.384033
20468.143245	-761.084667	1334.096680	1214.144043
20468.143245	-761.084667	1333.003906	1244.800293
20468.143245	-761.084667	1331.910156	1152.226196
20468.143245	-761.084667	1330.817383	1140.810913
20468.143245	-761.084667	1329.723633	1281.478516
20468.143245	-761.084667	1328.629883	1252.887573
20468.143245	-761.084667	1327.535156	1279.648315
20468.143245	-761.084667	1326.441406	1477.467285
20468.143245	-761.084667	1325.346680	1622.455078
20468.143245	-761.084667	1324.251953	1850.511963
20468.143245	-761.084667	1323.156250	2210.976807
20468.143245	-761.084667	1322.061523	1922.852539
20468.143245	-761.084667	1320.965820	2217.072754
20468.143245	-761.084667	1319.870117	2297.265625
20468.143245	-761.084667	1318.774414	2084.902344
20468.143245	-761.084667	1317.678711	2258.518311
20468.143245	-761.084667	1316.582031	2157.407959
20468.143245	-761.084667	1315.485352	2115.345947
20468.143245	-761.084667	1314.388672	2013.276123
20468.143245	-761.084667	1313.291016	1923.818970
20468.143245	-761.084667	1312.194336	1957.790649
20468.143245	-761.084667	1311.096680	1908.365967
20468.143245	-761.084667	1309.999023	1758.981445
20468.143245	-761.084667	1308.901367	1825.780029
20468.143245	-761.084667	1307.802734	1830.029053
20468.143245	-761.084667	1306.705078	1856.551880
20468.143245	-761.084667	1305.606445	1561.537720
20468.143245	-761.084667	1304.506836	1662.219482
20468.143245	-761.084667	1303.408203	1576.611206
20468.143245	-761.084667	1302.308594	1825.715088
20468.143245	-761.084667	1301.208984	1778.162476
20468.143245	-761.084667	1300.109375	1836.359619
20468.143245	-761.084667	1299.009766	1861.037476
20468.143245	-761.084667	1297.909180	1768.255127
20468.143245	-761.084667	1296.808594	1907.313477
20468.143245	-761.084667	1295.708008	1967.917847
20468.143245	-761.084667	1294.607422	1768.845947
20468.143245	-761.084667	1293.506836	1727.240479
20468.143245	-761.084667	1292.405273	1829.059326
20468.143245	-761.084667	1291.303711	1782.431396
20468.143245	-761.084667	1290.202148	1992.237671
20468.143245	-761.084667	1289.099609	1878.705811
20468.143245	-761.084667	1287.998047	1873.576904
20468.143245	-761.084667	1286.895508	1801.842773
20468.143245	-761.084667	1285.792969	1983.452393
20468.143245	-761.084667	1284.689453	1909.076782
20468.143245	-761.084667	1283.586914	1797.767334
20468.143245	-761.084667	1282.483398	1553.289795
20468.143245	-761.084667	1281.379883	1561.114258
20468.143245	-761.084667	1280.276367	1480.192139
20468.143245	-761.084667	1279.171875	927.835449
20468.143245	-761.084667	1278.067383	1009.063049
20468.143245	-761.084667	1276.962891	730.222839
20468.143245	-761.084667	1275.858398	642.783997
20468.143245	-761.084667	1274.753906	623.293701
20468.143245	-761.084667	1273.648438	441.309998
20468.143245	-761.084667	1272.542969	315.316559
20468.143245	-761.084667	1271.437500	239.604736
20468.143245	-761.084667	1270.331055	183.496368
20468.143245	-761.084667	1269.225586	260.130127
20468.143245	-761.084667	1268.119141	111.401291
20468.143245	-761.084667	1267.012695	207.480911
20468.143245	-761.084667	1265.906250	302.084229
20468.143245	-761.084667	1264.798828	122.021423
20468.143245	-761.084667	1263.691406	134.245758
20468.143245	-761.084667	1262.583984	158.339691
20468.143245	-761.084667	1261.476563	56.871944
20468.143245	-761.084667	1260.368164	287.822662
20468.143245	-761.084667	1259.260742	110.647835
20468.143245	-761.084667	1258.152344	212.536835
20468.143245	-761.084667	1257.043945	0.681226
20468.143245	-761.084667	1255.934570	-31.138039
20468.143245	-761.084667	1254.825195	-191.310425
20468.143245	-761.084667	1253.716797	-106.848396
20468.143245	-761.084667	1252.606445	-321.776245
20468.143245	-761.084667	1251.497070	-269.503357
20468.143245	-761.084667	1250.387695	-208.095474
20468.143245	-761.084667	1249.277344	-49.659332
20468.143245	-761.084667	1248.166992	-4.970063
20468.143245	-761.084667	1247.055664	-193.233078
20468.143245	-761.084667	1245.945313	-83.789032
20468.143245	-761.084667	1244.833984	-103.830490
20468.143245	-761.084667	1243.722656	-116.029953
20468.143245	-761.084667	1242.611328	-221.044128
20468.143245	-761.084667	1241.499023	-127.519875
20468.143245	-761.084667	1240.387695	-123.156052
20468.143245	-761.084667	1239.275391	-216.149246
20468.143245	-761.084667	1238.162109	-227.012650
20468.143245	-761.084667	1237.049805	0.078461
20468.143245	-761.084667	1235.936523	-134.367523
20468.143245	-761.084667	1234.823242	-120.240654
20468.143245	-761.084667	1233.709961	-341.373352
20468.143245	-761.084667	1232.596680	-127.975998
20468.143245	-761.084667	1231.482422	-172.001205
20468.143245	-761.084667	1230.369141	-154.830948
20468.143245	-761.084667	1229.253906	-202.713150
20468.143245	-761.084667	1228.139648	-111.899590
20468.143245	-761.084667	1227.025391	-146.528473
20468.143245	-761.084667	1225.910156	-60.314285
20468.143245	-761.084667	1224.794922	-59.671169
20468.143245	-761.084667	1223.679688	-198.947083
20468.143245	-761.084667	1222.563477	-208.177902
20468.143245	-761.084667	1221.447266	43.594460
20468.143245	-761.084667	1220.331055	-59.130276
20468.143245	-761.084667	1219.214844	-156.812332
20468.143245	-761.084667	1218.098633	-84.300575
20468.143245	-761.084667	1216.981445	-217.446487
20468.143245	-761.084667	1215.864258	-169.135468
20468.143245	-761.084667	1214.747070	-71.113846
20468.143245	-761.084667	1213.629883	-169.738251
20468.143245	-761.084667	1212.511719	-91.000938
20468.143245	-761.084667	1211.393555	-225.676727
20468.143245	-761.084667	1210.275391	-76.062668
20468.143245	-761.084667	1209.157227	-216.714584
20468.143245	-761.084667	1208.038086	-80.161018
20468.143245	-761.084667	1206.918945	-254.987106
20468.143245	-761.084667	1205.799805	-247.493729
20468.143245	-761.084667	1204.680664	-4.766967
20468.143245	-761.084667	1203.560547	-10.307191
20468.143245	-761.084667	1202.441406	-14.375696
20468.143245	-761.084667	1201.321289	-117.623581
20468.143245	-761.084667	1200.200195	19.745796
20468.143245	-761.084667	1199.080078	95.460777
20468.143245	-761.084667	1197.958984	80.724449
20468.143245	-761.084667	1196.837891	-11.365113
20468.143245	-761.084667	1195.716797	-17.199514
20468.143245	-761.084667	1194.594727	155.288818
20468.143245	-761.084667	1193.473633	106.904129
20468.143245	-761.084667	1192.351563	-20.995813
20468.143245	-761.084667	1191.229492	-203.639694
20468.143245	-761.084667	1190.106445	-131.709152
20468.143245	-761.084667	1188.984375	61.486351
20468.143245	-761.084667	1187.861328	78.920326
20468.143245	-761.084667	1186.738281	-12.225443
20468.143245	-761.084667	1185.614258	67.583969
20468.143245	-761.084667	1184.491211	58.287750
20468.143245	-761.084667	1183.367188	-15.546360
20468.143245	-761.084667	1182.243164	46.219807
20468.143245	-761.084667	1181.119141	120.315895
20468.143245	-761.084667	1179.994141	33.903477
20468.143245	-761.084667	1178.869141	-24.857542
20468.143245	-761.084667	1177.744141	221.262527
20468.143245	-761.084667	1176.619141	141.308792
20468.143245	-761.084667	1175.493164	273.505096
20468.143245	-761.084667	1174.368164	450.068451
20468.143245	-761.084667	1173.242188	273.189362
20468.143245	-761.084667	1172.115234	299.538788
20468.143245	-761.084667	1170.989258	238.431854
20468.143245	-761.084667	1169.862305	319.955170
20468.143245	-761.084667	1168.735352	217.817337
20468.143245	-761.084667	1167.608398	408.795013
20468.143245	-761.084667	1166.481445	317.556458
20468.143245	-761.084667	1165.353516	339.138397
20468.143245	-761.084667	1164.225586	111.945091
20468.143245	-761.084667	1163.097656	82.439781
20468.143245	-761.084667	1161.968750	121.433380
20468.143245	-761.084667	1160.840820	140.320755
20468.143245	-761.084667	1159.711914	97.184242
20468.143245	-761.084667	1158.583008	243.875824
20468.143245	-761.084667	1157.453125	90.815483
20468.143245	-761.084667	1156.324219	-1.178298
20468.143245	-761.084667	1155.194336	210.616791
20468.143245	-761.084667	1154.064453	279.872467
20468.143245	-761.084667	1152.933594	215.090454
20468.143245	-761.084667	1151.803711	253.699371
20468.143245	-761.084667	1150.672852	139.811493
20468.143245	-761.084667	1149.541992	281.616516
20468.143245	-761.084667	1148.411133	236.679459
20468.143245	-761.084667	1147.279297	185.960632
20468.143245	-761.084667	1146.147461	180.464539
20468.143245	-761.084667	1145.015625	186.473969
20468.143245	-761.084667	1143.883789	450.400665
20468.143245	-761.084667	1142.750977	308.662659
20468.143245	-761.084667	1141.619141	668.495911
20468.143245	-761.084667	1140.486328	628.598145
20468.143245	-761.084667	1139.352539	924.810608
20468.143245	-761.084667	1138.219727	931.691101
20468.143245	-761.084667	1137.085938	971.537415
20468.143245	-761.084667	1135.952148	1244.828613
20468.143245	-761.084667	1134.818359	1303.801636
20468.143245	-761.084667	1133.683594	1495.381836
20468.143245	-761.084667	1132.549805	1641.884888
20468.143245	-761.084667	1131.415039	1871.735596
20468.143245	-761.084667	1130.279297	1993.010620
20468.143245	-761.084667	1129.144531	2214.896484
20468.143245	-761.084667	1128.008789	2071.462646
20468.143245	-761.084667	1126.873047	1813.789063
20468.143245	-761.084667	1125.737305	1506.979858
20468.143245	-761.084667	1124.601563	1277.518311
20468.143245	-761.084667	1123.464844	1123.525146
20468.143245	-761.084667	1122.328125	1111.260010
20468.143245	-761.084667	1121.191406	958.834167
20468.143245	-761.084667	1120.054688	870.294312
20468.143245	-761.084667	1118.916992	849.206238
20468.143245	-761.084667	1117.779297	533.410156
20468.143245	-761.084667	1116.641602	754.694946
20468.143245	-761.084667	1115.503906	532.779358
20468.143245	-761.084667	1114.365234	493.818695
20468.143245	-761.084667	1113.226563	587.922058
20468.143245	-761.084667	1112.087891	464.761261
20468.143245	-761.084667	1110.949219	443.160614
20468.143245	-761.084667	1109.809570	228.172424
20468.143245	-761.084667	1108.669922	429.147522
20468.143245	-761.084667	1107.530273	299.806610
20468.143245	-761.084667	1106.390625	331.647827
20468.143245	-761.084667	1105.250000	404.005402
20468.143245	-761.084667	1104.109375	376.367310
20468.143245	-761.084667	1102.968750	613.370361
20468.143245	-761.084667	1101.828125	396.718719
20468.143245	-761.084667	1100.686523	596.453369
20468.143245	-761.084667	1099.544922	517.801941
20468.143245	-761.084667	1098.403320	520.388550
20468.143245	-761.084667	1097.261719	584.832581
20468.143245	-761.084667	1096.120117	574.745422
20468.143245	-761.084667	1094.977539	691.902039
20468.143245	-761.084667	1093.834961	368.242554
20468.143245	-761.084667	1092.691406	563.552368
20468.143245	-761.084667	1091.548828	430.279602
20468.143245	-761.084667	1090.405273	265.400238
20468.143245	-761.084667	1089.261719	529.065735
20468.143245	-761.084667	1088.118164	348.218658
20468.143245	-761.084667	1086.973633	137.109970
20468.143245	-761.084667	1085.829102	381.822083
20468.143245	-761.084667	1084.684570	364.018311
20468.143245	-761.084667	1083.540039	269.856201
20468.143245	-761.084667	1082.395508	264.804779
20468.143245	-761.084667	1081.250000	283.532532
20468.143245	-761.084667	1080.104492	327.961212
20468.143245	-761.084667	1078.958984	489.171265
20468.143245	-761.084667	1077.812500	103.509598
20468.143245	-761.084667	1076.666016	199.305573
20468.143245	-761.084667	1075.519531	203.684509
20468.143245	-761.084667	1074.373047	268.383118
20468.143245	-761.084667	1073.226563	111.361710
20468.143245	-761.084667	1072.079102	287.113342
20468.143245	-761.084667	1070.931641	207.169937
20468.143245	-761.084667	1069.784180	78.932343
20468.143245	-761.084667	1068.635742	-64.450439
20468.143245	-761.084667	1067.487305	54.896656
20468.143245	-761.084667	1066.338867	124.526787
20468.143245	-761.084667	1065.190430	245.901321
20468.143245	-761.084667	1064.041992	228.775604
20468.143245	-761.084667	1062.892578	287.851959
20468.143245	-761.084667	1061.743164	379.995209
20468.143245	-761.084667	1060.593750	352.923553
20468.143245	-761.084667	1059.443359	209.386032
20468.143245	-761.084667	1058.292969	201.480133
20468.143245	-761.084667	1057.142578	294.503235
20468.143245	-761.084667	1055.992188	12.738052
20468.143245	-761.084667	1054.841797	-18.761175
20468.143245	-761.084667	1053.690430	98.894768
20468.143245	-761.084667	1052.539063	-65.416840
20468.143245	-761.084667	1051.387695	80.147308
20468.143245	-761.084667	1050.235352	11.264297
20468.143245	-761.084667	1049.083984	-101.254417
20468.143245	-761.084667	1047.931641	-123.127556
20468.143245	-761.084667	1046.778320	48.771168
20468.143245	-761.084667	1045.625977	146.270340
20468.143245	-761.084667	1044.472656	187.192749
20468.143245	-761.084667	1043.319336	118.273849
20468.143245	-761.084667	1042.166016	91.033730
20468.143245	-761.084667	1041.012695	-51.263317
20468.143245	-761.084667	1039.858398	211.202667
20468.143245	-761.084667	1038.704102	27.061003
20468.143245	-761.084667	1037.549805	148.570129
20468.143245	-761.084667	1036.394531	68.663086
20468.143245	-761.084667	1035.239258	-56.582317
20468.143245	-761.084667	1034.083984	15.102143
20468.143245	-761.084667	1032.928711	50.687805
20468.143245	-761.084667	1031.773438	203.704605
20468.143245	-761.084667	1030.617188	224.103790
20468.143245	-761.084667	1029.460938	193.011429
20468.143245	-761.084667	1028.304688	160.351059
20468.143245	-761.084667	1027.147461	187.149857
20468.143245	-761.084667	1025.991211	344.105347
20468.143245	-761.084667	1024.833984	119.412819
20468.143245	-761.084667	1023.675781	296.835419
20468.143245	-761.084667	1022.518555	98.427551
20468.143245	-761.084667	1021.360352	126.128227
20468.143245	-761.084667	1020.202148	85.026077
20468.143245	-761.084667	1019.043945	107.835648
20468.143245	-761.084667	1017.884766	171.260376
20468.143245	-761.084667	1016.726563	199.643478
20468.143245	-761.084667	1015.567383	60.417408
20468.143245	-761.084667	1014.407227	-95.401695
20468.143245	-761.084667	1013.248047	-72.700676
20468.143245	-761.084667	1012.087891	-6.954679
20468.143245	-761.084667	1010.927734	26.454786
20468.143245	-761.084667	1009.767578	-76.859253
20468.143245	-761.084667	1008.606445	130.672333
20468.143245	-761.084667	1007.446289	-213.040726
20468.143245	-761.084667	1006.285156	73.203522
20468.143245	-761.084667	1005.123047	109.755211
20468.143245	-761.084667	1003.961914	8.232474
20468.143245	-761.084667	1002.799805	317.633759
20468.143245	-761.084667	1001.637695	393.171814
20468.143245	-761.084667	1000.475586	163.445084
20468.143245	-761.084667	999.312500	139.394257
20468.143245	-761.084667	998.149414	-69.424904
20468.143245	-761.084667	996.986328	-93.062454
20468.143245	-761.084667	995.823242	-7.097732
20468.143245	-761.084667	994.659180	-288.250397
20468.143245	-761.084667	993.496094	47.970840
20468.143245	-761.084667	992.332031	75.179565
20468.143245	-761.084667	991.166992	-106.451759
20468.143245	-761.084667	990.002930	-96.046753
20468.143245	-761.084667	988.837891	23.172880
20468.143245	-761.084667	987.672852	129.661850
20468.143245	-761.084667	986.506836	121.896423
20468.143245	-761.084667	985.341797	70.609833
20468.143245	-761.084667	984.175781	193.978409
20468.143245	-761.084667	983.009766	195.670929
20468.143245	-761.084667	981.843750	-56.765968
20468.143245	-761.084667	980.676758	115.238441
20468.143245	-761.084667	979.509766	19.672421
20468.143245	-761.084667	978.342773	-13.270915
20468.143245	-761.084667	977.175781	-46.963879
20468.143245	-761.084667	976.007813	-142.498062
20468.143245	-761.084667	974.839844	-155.762924
20468.143245	-761.084667	973.671875	-275.087830
20468.143245	-761.084667	972.503906	-46.894882
20468.143245	-761.084667	971.334961	-30.412607
20468.143245	-761.084667	970.166016	34.873039
20468.143245	-761.084667	968.997070	-67.090942
20468.143245	-761.084667	967.828125	-22.567499
20468.143245	-761.084667	966.658203	-16.532389
20468.143245	-761.084667	965.488281	-185.779022
20468.143245	-761.084667	964.318359	-168.153397
20468.143245	-761.084667	963.148438	-323.584473
20468.143245	-761.084667	961.977539	-320.806976
20468.143245	-761.084667	960.806641	-335.987213
20468.143245	-761.084667	959.635742	-355.390106
20468.143245	-761.084667	958.463867	-70.362823
20468.143245	-761.084667	957.292969	-194.010788
20468.143245	-761.084667	956.121094	106.994392
20468.143245	-761.084667	954.948242	195.378891
20468.143245	-761.084667	953.776367	71.182007
20468.143245	-761.084667	952.603516	11.166482
20468.143245	-761.084667	951.430664	-32.299538
20468.143245	-761.084667	950.257813	151.286560
20468.143245	-761.084667	949.084961	118.568985
20468.143245	-761.084667	947.911133	250.188522
20468.143245	-761.084667	946.737305	402.675537
20468.143245	-761.084667	945.563477	429.415436
20468.143245	-761.084667	944.388672	422.542053
20468.143245	-761.084667	943.213867	554.487183
20468.143245	-761.084667	942.039063	513.551331
20468.143245	-761.084667	940.864258	352.392273
20468.143245	-761.084667	939.688477	348.055817
20468.143245	-761.084667	938.513672	164.479553
20468.143245	-761.084667	937.337891	81.811020
20468.143245	-761.084667	936.161133	159.779266
20468.143245	-761.084667	934.985352	528.947937
20468.143245	-761.084667	933.808594	196.458664
20468.143245	-761.084667	932.631836	316.244354
20468.143245	-761.084667	931.454102	452.880920
20468.143245	-761.084667	930.277344	352.510315
20468.143245	-761.084667	929.099609	608.629333
20468.143245	-761.084667	927.921875	483.847778
20468.143245	-761.084667	926.743164	441.996307
20468.143245	-761.084667	925.565430	466.020782
20468.143245	-761.084667	924.386719	223.992950
20468.143245	-761.084667	923.208008	345.625244
20468.143245	-761.084667	922.028320	140.243256
20468.143245	-761.084667	920.849609	83.707123
20468.143245	-761.084667	919.669922	81.155724
20468.143245	-761.084667	919.474609	99.902458
20468.143245	-761.084667	918.309570	97.006912
20468.143245	-761.084667	917.143555	-247.211868
20468.143245	-761.084667	915.977539	-162.347992
20468.143245	-761.084667	914.810547	-235.940292
20468.143245	-761.084667	913.644531	-326.581604
20468.143245	-761.084667	912.477539	-290.550354
20468.143245	-761.084667	911.310547	54.731304
20468.143245	-761.084667	910.143555	-87.122917
20468.143245	-761.084667	908.975586	-24.460632
20468.143245	-761.084667	907.807617	-56.768414
20468.143245	-761.084667	906.639648	-213.188446
20468.143245	-761.084667	905.471680	-179.804321
20468.143245	-761.084667	904.303711	101.647018
20468.143245	-761.084667	903.134766	-59.645020
20468.143245	-761.084667	901.965820	-152.813461
20468.143245	-761.084667	900.796875	-51.495647
20468.143245	-761.084667	899.626953	-147.104813
20468.143245	-761.084667	898.457031	-14.284677
20468.143245	-761.084667	897.287109	142.753159
20468.143245	-761.084667	896.117188	377.432861
20468.143245	-761.084667	894.947266	70.458832
20468.143245	-761.084667	893.776367	220.036865
20468.143245	-761.084667	892.605469	189.905106
20468.143245	-761.084667	891.434570	281.111694
20468.143245	-761.084667	890.262695	207.262726
20468.143245	-761.084667	889.091797	177.094055
20468.143245	-761.084667	887.919922	430.693604
20468.143245	-761.084667	886.748047	315.578766
20468.143245	-761.084667	885.575195	164.123230
20468.143245	-761.084667	884.403320	-79.396118
20468.143245	-761.084667	883.230469	6.753993
20468.143245	-761.084667	882.057617	92.851776
20468.143245	-761.084667	880.883789	-0.368888
20468.143245	-761.084667	879.710938	211.603363
20468.143245	-761.084667	878.537109	91.726273
20468.143245	-761.084667	877.362305	-8.752955
20468.143245	-761.084667	876.188477	-72.899071
20468.143245	-761.084667	875.013672	100.122520
20468.143245	-761.084667	873.839844	323.869141
20468.143245	-761.084667	872.664063	245.125732
20468.143245	-761.084667	871.489258	197.842987
20468.143245	-761.084667	870.313477	-120.257912
20468.143245	-761.084667	869.138672	-283.520935
20468.143245	-761.084667	867.962891	-258.206421
20468.143245	-761.084667	866.786133	-71.014465
20468.143245	-761.084667	865.610352	-53.034164
20468.143245	-761.084667	864.433594	13.231894
20468.143245	-761.084667	863.256836	67.379349
20468.143245	-761.084667	862.079102	123.900520
20468.143245	-761.084667	860.902344	-58.606087
20468.143245	-761.084667	859.724609	-142.099258
20468.143245	-761.084667	858.546875	124.320358
20468.143245	-761.084667	857.368164	-31.587412
20468.143245	-761.084667	856.190430	-28.247456
20468.143245	-761.084667	855.011719	172.822723
20468.143245	-761.084667	853.833008	77.231461
20468.143245	-761.084667	852.654297	90.140862
20468.143245	-761.084667	851.474609	119.896576
20468.143245	-761.084667	850.294922	19.506371
20468.143245	-761.084667	849.115234	-92.904793
20468.143245	-761.084667	847.935547	163.233337
20468.143245	-761.084667	846.754883	-72.010025
20468.143245	-761.084667	845.575195	-181.971771
20468.143245	-761.084667	844.393555	-82.491043
20468.143245	-761.084667	843.212891	-156.342163
20468.143245	-761.084667	842.032227	-66.561409
20468.143245	-761.084667	840.850586	-125.986916
20468.143245	-761.084667	839.668945	-79.577690
20468.143245	-761.084667	838.486328	-309.742188
20468.143245	-761.084667	837.304688	-330.664886
20468.143245	-761.084667	836.122070	-111.231941
20468.143245	-761.084667	834.939453	-290.832031
20468.143245	-761.084667	833.756836	-172.444839
20468.143245	-761.084667	832.573242	-282.333405
20468.143245	-761.084667	831.389648	-252.897156
20468.143245	-761.084667	830.206055	-165.861877
20468.143245	-761.084667	829.022461	-23.664293
20468.143245	-761.084667	827.838867	137.658295
20468.143245	-761.084667	826.654297	-106.659256
20468.143245	-761.084667	825.469727	61.770782
20468.143245	-761.084667	824.284180	-172.875366
20468.143245	-761.084667	823.099609	-50.106163
20468.143245	-761.084667	821.914063	-68.876549
20468.143245	-761.084667	820.728516	-245.875946
20468.143245	-761.084667	819.542969	128.427612
20468.143245	-761.084667	818.356445	272.513977
20468.143245	-761.084667	817.169922	33.199566
20468.143245	-761.084667	815.983398	45.464600
20468.143245	-761.084667	814.796875	-2.164862
20468.143245	-761.084667	813.609375	366.801666
20468.143245	-761.084667	812.422852	175.455536
20468.143245	-761.084667	811.235352	189.984039
20468.143245	-761.084667	810.046875	32.200268
20468.143245	-761.084667	808.859375	-13.100240
20468.143245	-761.084667	807.670898	77.923988
20468.143245	-761.084667	806.482422	-240.026733
20468.143245	-761.084667	805.293945	-156.213501
20468.143245	-761.084667	804.104492	-29.437008
20468.143245	-761.084667	802.915039	-139.330917
20468.143245	-761.084667	801.725586	164.149353
20468.143245	-761.084667	800.536133	-22.230980
20468.143245	-761.084667	799.345703	-72.429939
20468.143245	-761.084667	798.155273	-105.919006
20468.143245	-761.084667	796.964844	-239.688812
20468.143245	-761.084667	795.774414	-342.402832
20468.143245	-761.084667	794.583008	-29.878620
20468.143245	-761.084667	793.392578	-182.751877
20468.143245	-761.084667	792.200195	-364.221497
20468.143245	-761.084667	791.008789	-187.910721
20468.143245	-761.084667	789.816406	-80.852753
20468.143245	-761.084667	788.625000	-188.414612
20468.143245	-761.084667	787.432617	-133.896210
20468.143245	-761.084667	786.239258	-227.174026
20468.143245	-761.084667	785.046875	84.567650
20468.143245	-761.084667	783.853516	-25.452682
20468.143245	-761.084667	782.660156	-44.967030
20468.143245	-761.084667	781.465820	-12.129154
20468.143245	-761.084667	780.272461	-98.354622
20468.143245	-761.084667	779.078125	-153.643875
20468.143245	-761.084667	777.883789	-51.900749
20468.143245	-761.084667	776.688477	-12.091595
20468.143245	-761.084667	775.494141	167.998093
20468.143245	-761.084667	774.298828	141.091263
20468.143245	-761.084667	773.103516	273.450195
20468.143245	-761.084667	771.907227	225.062546
20468.143245	-761.084667	770.711914	257.463318
20468.143245	-761.084667	769.515625	161.505081
20468.143245	-761.084667	768.318359	193.820129
20468.143245	-761.084667	767.122070	180.962173
20468.143245	-761.084667	765.924805	141.946732
20468.143245	-761.084667	764.727539	67.298019
20468.143245	-761.084667	763.530273	-0.239364
20468.143245	-761.084667	762.333008	62.725685
20468.143245	-761.084667	761.134766	144.599442
20468.143245	-761.084667	759.936523	205.047791
20468.143245	-761.084667	758.738281	225.113220
20468.143245	-761.084667	757.540039	294.919250
20468.143245	-761.084667	756.340820	253.232346
20468.143245	-761.084667	755.141602	299.209747
20468.143245	-761.084667	753.942383	93.950592
20468.143245	-761.084667	752.742188	218.026901
20468.143245	-761.084667	751.541992	36.460278
20468.143245	-761.084667	750.341797	120.147682
20468.143245	-761.084667	749.141602	49.860085
20468.143245	-761.084667	747.941406	178.390945
20468.143245	-761.084667	746.740234	183.751572
20468.143245	-761.084667	745.539063	73.122925
20468.143245	-761.084667	744.337891	80.771118
20468.143245	-761.084667	743.135742	379.271820
20468.143245	-761.084667	741.933594	91.170357
20468.143245	-761.084667	740.731445	342.161530
20468.143245	-761.084667	739.529297	16.268328
20468.143245	-761.084667	738.326172	144.177567
20468.143245	-761.084667	737.124023	-110.762321
20468.143245	-761.084667	735.919922	144.567719
20468.143245	-761.084667	734.716797	276.935364
20468.143245	-761.084667	733.513672	338.359467
20468.143245	-761.084667	732.309570	177.794266
20468.143245	-761.084667	731.105469	253.260101
20468.143245	-761.084667	729.900391	394.705261
20468.143245	-761.084667	728.696289	158.568634
20468.143245	-761.084667	727.491211	311.655457
20468.143245	-761.084667	726.286133	259.456909
20468.143245	-761.084667	725.080078	150.632111
20468.143245	-761.084667	723.874023	-14.777847
20468.143245	-761.084667	722.668945	262.893311
20468.143245	-761.084667	721.461914	281.192871
20468.143245	-761.084667	720.255859	63.855881
20468.143245	-761.084667	719.048828	249.292511
20468.143245	-761.084667	717.841797	67.249168
20468.143245	-761.084667	716.634766	118.293823
20468.143245	-761.084667	715.427734	72.751259
20468.143245	-761.084667	714.219727	125.997986
20468.143245	-761.084667	713.011719	141.515991
20468.143245	-761.084667	711.803711	152.260956
20468.143245	-761.084667	710.594727	-11.101684
20468.143245	-761.084667	709.385742	276.992249
20468.143245	-761.084667	708.176758	198.175247
20468.143245	-761.084667	706.967773	8.860968
20468.143245	-761.084667	705.758789	-77.044655
20468.143245	-761.084667	704.548828	222.304291
20468.143245	-761.084667	703.338867	-122.119537
20468.143245	-761.084667	702.127930	176.976974
20468.143245	-761.084667	700.917969	81.448013
20468.143245	-761.084667	699.707031	124.381058
20468.143245	-761.084667	698.496094	211.820282
20468.143245	-761.084667	697.285156	83.288849
20468.143245	-761.084667	696.073242	64.993713
20468.143245	-761.084667	694.861328	349.194092
20468.143245	-761.084667	693.649414	363.544006
20468.143245	-761.084667	692.436523	178.538376
20468.143245	-761.084667	691.224609	59.177834
20468.143245	-761.084667	690.011719	312.395782
20468.143245	-761.084667	688.798828	303.030823
20468.143245	-761.084667	687.584961	431.796448
20468.143245	-761.084667	686.372070	703.304077
20468.143245	-761.084667	685.158203	480.575684
20468.143245	-761.084667	683.943359	316.386261
20468.143245	-761.084667	682.729492	498.592712
20468.143245	-761.084667	681.514648	708.723511
20468.143245	-761.084667	680.299805	600.525940
20468.143245	-761.084667	679.084961	606.913879
20468.143245	-761.084667	677.869141	919.563416
20468.143245	-761.084667	676.653320	841.563843
20468.143245	-761.084667	675.437500	581.200256
20468.143245	-761.084667	674.221680	608.327942
20468.143245	-761.084667	673.004883	597.980408
20468.143245	-761.084667	671.789063	912.282043
20468.143245	-761.084667	670.571289	789.618042
20468.143245	-761.084667	669.354492	585.214600
20468.143245	-761.084667	668.136719	670.303223
20468.143245	-761.084667	666.919922	764.628052
20468.143245	-761.084667	665.701172	644.136169
20468.143245	-761.084667	664.483398	819.932312
20468.143245	-761.084667	663.264648	578.042664
20468.143245	-761.084667	662.045898	979.839478
20468.143245	-761.084667	660.827148	861.448730
20468.143245	-761.084667	659.608398	854.929260
20468.143245	-761.084667	658.388672	724.809875
20468.143245	-761.084667	657.168945	797.393921
20468.143245	-761.084667	655.949219	692.824036
20468.143245	-761.084667	654.728516	502.040253
20468.143245	-761.084667	653.507813	926.028564
20468.143245	-761.084667	652.287109	828.259888
20468.143245	-761.084667	651.066406	925.985413
20468.143245	-761.084667	649.844727	839.742615
20468.143245	-761.084667	648.623047	855.840027
20468.143245	-761.084667	647.401367	1078.891235
20468.143245	-761.084667	646.179688	1076.184692
20468.143245	-761.084667	644.957031	1219.887451
20468.143245	-761.084667	643.734375	1124.015503
20468.143245	-761.084667	642.511719	844.499695
20468.143245	-761.084667	641.289063	1043.722290
20468.143245	-761.084667	640.065430	945.407043
20468.143245	-761.084667	638.841797	1202.445068
20468.143245	-761.084667	637.618164	783.530090
20468.143245	-761.084667	636.393555	996.234436
20468.143245	-761.084667	635.168945	705.065552
20468.143245	-761.084667	633.944336	536.953613
20468.143245	-761.084667	632.719727	371.165649
20468.143245	-761.084667	631.494141	330.641968
20468.143245	-761.084667	630.269531	619.420349
20468.143245	-761.084667	629.042969	513.793213
20468.143245	-761.084667	627.817383	424.382263
20468.143245	-761.084667	626.590820	260.765625
20468.143245	-761.084667	625.365234	433.177765
20468.143245	-761.084667	624.137695	88.775993
20468.143245	-761.084667	622.911133	638.581909
20468.143245	-761.084667	621.683594	761.962402
20468.143245	-761.084667	620.456055	521.713928
20468.143245	-761.084667	619.228516	237.523697
20468.143245	-761.084667	618.000977	187.146149
20468.143245	-761.084667	616.772461	363.482208
20468.143245	-761.084667	615.543945	326.849976
20468.143245	-761.084667	614.314453	257.784088
20468.143245	-761.084667	613.085938	119.325760
20468.143245	-761.084667	611.856445	242.106949
20468.143245	-761.084667	610.626953	85.094498
20468.143245	-761.084667	609.397461	503.520569
20468.143245	-761.084667	608.166992	528.923584
20468.143245	-761.084667	606.936523	482.651276
20468.143245	-761.084667	605.706055	387.845184
20468.143245	-761.084667	604.474609	588.567017
20468.143245	-761.084667	603.244141	276.674072
20468.143245	-761.084667	602.012695	200.268677
20468.143245	-761.084667	600.780273	294.590729
20468.143245	-761.084667	599.548828	199.656128
20468.143245	-761.084667	598.316406	409.164520
20468.143245	-761.084667	597.083984	461.724884
20468.143245	-761.084667	595.851563	385.103729
20468.143245	-761.084667	594.618164	232.390015
20468.143245	-761.084667	593.384766	201.838348
20468.143245	-761.084667	592.151367	122.868607
20468.143245	-761.084667	590.917969	322.623322
20468.143245	-761.084667	589.683594	66.224571
20468.143245	-761.084667	588.449219	353.308990
20468.143245	-761.084667	587.214844	-18.177183
20468.143245	-761.084667	585.979492	-21.295479
20468.143245	-761.084667	584.745117	148.144623
20468.143245	-761.084667	583.509766	9.176196
20468.143245	-761.084667	582.273438	114.035553
20468.143245	-761.084667	581.038086	306.212219
20468.143245	-761.084667	579.801758	128.091675
20468.143245	-761.084667	578.565430	0.584316
20468.143245	-761.084667	577.329102	227.020248
20468.143245	-761.084667	576.091797	209.759689
20468.143245	-761.084667	574.854492	43.155415
20468.143245	-761.084667	573.617188	-40.726059
20468.143245	-761.084667	572.378906	132.566223
20468.143245	-761.084667	571.141602	-20.228781
20468.143245	-761.084667	569.903320	84.072006
20468.143245	-761.084667	568.664063	-190.345795
20468.143245	-761.084667	567.425781	-251.292969
20468.143245	-761.084667	566.186523	112.101990
20468.143245	-761.084667	564.947266	12.072923
20468.143245	-761.084667	563.708008	65.681473
20468.143245	-761.084667	562.467773	-11.426172
20468.143245	-761.084667	561.227539	85.658684
20468.143245	-761.084667	559.987305	49.784794
20468.143245	-761.084667	558.747070	25.363384
20468.143245	-761.084667	557.505859	60.473248
20468.143245	-761.084667	556.264648	-14.360684
20468.143245	-761.084667	555.023438	-82.308235
20468.143245	-761.084667	553.781250	-17.496695
20468.143245	-761.084667	552.539063	-41.972416
20468.143245	-761.084667	551.296875	-71.024368
20468.143245	-761.084667	550.054688	-164.123184
20468.143245	-761.084667	548.811523	227.628250
20468.143245	-761.084667	547.569336	-64.431244
20468.143245	-761.084667	546.325195	-155.231659
20468.143245	-761.084667	545.082031	0.841699
20468.143245	-761.084667	543.837891	58.578976
20468.143245	-761.084667	542.593750	173.398621
20468.143245	-761.084667	541.349609	155.695160
20468.143245	-761.084667	540.105469	-14.998166
20468.143245	-761.084667	538.860352	-119.423042
20468.143245	-761.084667	537.615234	-95.982368
20468.143245	-761.084667	536.369141	-4.100430
20468.143245	-761.084667	535.124023	-156.370209
20468.143245	-761.084667	533.877930	-333.676392
20468.143245	-761.084667	532.631836	-114.082138
20468.143245	-761.084667	531.384766	-54.195385
20468.143245	-761.084667	530.138672	-178.964706
20468.143245	-761.084667	528.891602	-194.289459
20468.143245	-761.084667	527.643555	-230.119034
20468.143245	-761.084667	526.396484	-272.748810
20468.143245	-761.084667	525.148438	-219.702209
20468.143245	-761.084667	523.900391	6.394918
20468.143245	-761.084667	522.652344	-288.951904
20468.143245	-761.084667	521.403320	-374.764740
20468.143245	-761.084667	520.154297	-317.160828
20468.143245	-761.084667	518.905273	-77.554649
20468.143245	-761.084667	517.656250	-452.210266
20468.143245	-761.084667	516.406250	-446.908661
20468.143245	-761.084667	515.156250	-168.748688
20468.143245	-761.084667	513.906250	-147.569763
20468.143245	-761.084667	512.655273	-74.124588
20468.143245	-761.084667	511.404297	-116.581520
20468.143245	-761.084667	510.153320	-40.872875
20468.143245	-761.084667	508.902344	28.003584
20468.143245	-761.084667	507.650391	-100.703979
20468.143245	-761.084667	506.398438	58.989143
20468.143245	-761.084667	505.146484	-12.893484
20468.143245	-761.084667	503.893555	-177.782501
20468.143245	-761.084667	502.641602	-68.042961
20468.143245	-761.084667	501.388672	-153.425003
20468.143245	-761.084667	500.134766	-111.764580
20468.143245	-761.084667	498.881836	11.530972
20468.143245	-761.084667	497.627930	-223.393021
20468.143245	-761.084667	496.374023	-190.763382
20468.143245	-761.084667	495.119141	-135.484634
20468.143245	-761.084667	493.865234	19.474926
20468.143245	-761.084667	492.610352	18.089624
20468.143245	-761.084667	491.355469	-162.172379
20468.143245	-761.084667	490.099609	-36.719723
20468.143245	-761.084667	488.843750	118.118690
20468.143245	-761.084667	487.587891	191.431015
20468.143245	-761.084667	486.332031	76.937119
20468.143245	-761.084667	485.075195	123.094345
20468.143245	-761.084667	483.818359	56.164246
20468.143245	-761.084667	482.561523	237.987564
20468.143245	-761.084667	481.304688	245.674515
20468.143245	-761.084667	480.046875	68.027817
20468.143245	-761.084667	478.789063	39.595753
20468.143245	-761.084667	477.531250	331.970673
20468.143245	-761.084667	476.272461	127.314430
20468.143245	-761.084667	475.013672	55.977734
20468.143245	-761.084667	473.754883	244.296783
20468.143245	-761.084667	472.496094	130.074509
20468.143245	-761.084667	471.236328	264.118805
20468.143245	-761.084667	469.976563	666.580811
20468.143245	-761.084667	468.716797	419.222015
20468.143245	-761.084667	467.456055	575.629395
20468.143245	-761.084667	466.196289	391.503235
20468.143245	-761.084667	464.935547	15.822027
20468.143245	-761.084667	463.673828	237.512909
20468.143245	-761.084667	462.413086	380.232880
20468.143245	-761.084667	461.151367	164.667084
20468.143245	-761.084667	459.889648	248.719604
20468.143245	-761.084667	458.626953	368.724457
20468.143245	-761.084667	457.364258	412.099182
20468.143245	-761.084667	456.101563	273.100159
20468.143245	-761.084667	454.838867	82.362625
20468.143245	-761.084667	453.575195	-119.594467
20468.143245	-761.084667	452.312500	6.904652
20468.143245	-761.084667	451.047852	176.003662
20468.143245	-761.084667	449.784180	140.381027
20468.143245	-761.084667	448.519531	91.214172
20468.143245	-761.084667	447.254883	143.138397
20468.143245	-761.084667	445.990234	163.514420
20468.143245	-761.084667	444.725586	201.780945
20468.143245	-761.084667	443.459961	201.758072
20468.143245	-761.084667	442.194336	-65.560028
20468.143245	-761.084667	440.927734	203.689255
20468.143245	-761.084667	439.662109	290.934906
20468.143245	-761.084667	438.395508	295.002563
20468.143245	-761.084667	437.127930	343.819885
20468.143245	-761.084667	435.861328	-94.223282
20468.143245	-761.084667	434.593750	252.689819
20468.143245	-761.084667	433.326172	150.911972
20468.143245	-761.084667	432.058594	102.846848
20468.143245	-761.084667	430.790039	142.056046
20468.143245	-761.084667	429.521484	-105.695923
20468.143245	-761.084667	428.252930	11.648331
20468.143245	-761.084667	426.984375	68.311989
20468.143245	-761.084667	425.714844	59.835804
20468.143245	-761.084667	424.445313	104.917465
20468.143245	-761.084667	423.174805	143.069672
20468.143245	-761.084667	421.905273	49.002605
20468.143245	-761.084667	420.634766	93.469704
20468.143245	-761.084667	419.364258	14.689737
20468.143245	-761.084667	418.092773	204.064484
20468.143245	-761.084667	416.822266	243.345413
20468.143245	-761.084667	415.550781	116.947800
20468.143245	-761.084667	414.278320	229.468903
20468.143245	-761.084667	413.006836	252.326523
20468.143245	-761.084667	411.734375	87.252403
20468.143245	-761.084667	410.461914	274.839722
20468.143245	-761.084667	409.188477	323.606262
20468.143245	-761.084667	407.916016	302.862915
20468.143245	-761.084667	406.642578	284.033997
20468.143245	-761.084667	405.368164	637.521362
20468.143245	-761.084667	404.094727	537.658020
20468.143245	-761.084667	402.820313	825.570923
20468.143245	-761.084667	401.545898	796.347046
20468.143245	-761.084667	400.270508	918.349976
20468.143245	-761.084667	398.996094	946.313843
20468.143245	-761.084667	397.720703	621.745300
20468.143245	-761.084667	396.444336	628.860168
20468.143245	-761.084667	395.168945	633.335022
20468.143245	-761.084667	393.892578	550.493835
20468.143245	-761.084667	392.616211	560.745483
20468.143245	-761.084667	391.339844	501.512604
20468.143245	-761.084667	390.062500	504.114471
20468.143245	-761.084667	388.785156	403.854462
20468.143245	-761.084667	387.507813	82.880760
20468.143245	-761.084667	386.229492	150.713486
20468.143245	-761.084667	384.951172	146.804550
20468.143245	-761.084667	383.672852	122.316574
20468.143245	-761.084667	382.394531	159.484100
20468.143245	-761.084667	381.115234	84.896347
20468.143245	-761.084667	379.835938	274.097137
20468.143245	-761.084667	378.556641	140.489777
20468.143245	-761.084667	377.277344	197.260376
20468.143245	-761.084667	375.997070	82.336395
20468.143245	-761.084667	374.716797	197.615463
20468.143245	-761.084667	373.435547	-76.287460
20468.143245	-761.084667	372.155273	-188.820084
20468.143245	-761.084667	370.874023	-38.116520
20468.143245	-761.084667	369.591797	-76.815231
20468.143245	-761.084667	368.310547	-125.152794
20468.143245	-761.084667	367.028320	-21.369757
20468.143245	-761.084667	365.746094	97.020241
20468.143245	-761.084667	364.463867	229.988068
20468.143245	-761.084667	363.180664	171.429260
20468.143245	-761.084667	361.897461	-18.724045
20468.143245	-761.084667	360.614258	182.212479
20468.143245	-761.084667	359.330078	406.394409
20468.143245	-761.084667	358.045898	188.977142
20468.143245	-761.084667	356.761719	351.256805
20468.143245	-761.084667	355.477539	111.927498
20468.143245	-761.084667	354.192383	-42.159271
20468.143245	-761.084667	352.907227	-60.182980
20468.143245	-761.084667	351.622070	172.714890
20468.143245	-761.084667	350.336914	139.054443
20468.143245	-761.084667	349.050781	112.998032
20468.143245	-761.084667	347.764648	105.593925
20468.143245	-761.084667	346.477539	-190.313004
20468.143245	-761.084667	345.191406	33.893356
20468.143245	-761.084667	343.904297	-191.647156
20468.143245	-761.084667	342.616211	36.286209
20468.143245	-761.084667	341.329102	-269.190063
20468.143245	-761.084667	340.041016	-105.977242
20468.143245	-761.084667	338.752930	-303.938385
20468.143245	-761.084667	337.463867	-366.611267
20468.143245	-761.084667	336.175781	-291.822296
20468.143245	-761.084667	334.886719	-271.618835
20468.143245	-761.084667	333.596680	-402.993927
20468.143245	-761.084667	332.307617	-315.534424
20468.143245	-761.084667	331.017578	-5.119119
20468.143245	-761.084667	329.727539	-82.089935
20468.143245	-761.084667	328.436523	-15.505634
20468.143245	-761.084667	327.146484	55.892418
20468.143245	-761.084667	325.855469	15.263084
20468.143245	-761.084667	324.563477	-282.632111
20468.143245	-761.084667	323.272461	238.506836
20468.143245	-761.084667	321.980469	-149.050690
20468.143245	-761.084667	320.688477	-1.788499
20468.143245	-761.084667	319.395508	-32.665234
20468.143245	-761.084667	318.103516	-63.393230
20468.143245	-761.084667	316.810547	-241.429169
20468.143245	-761.084667	315.516602	-107.421562
20468.143245	-761.084667	314.223633	-32.801876
20468.143245	-761.084667	312.929688	259.056732
20468.143245	-761.084667	311.635742	41.094139
20468.143245	-761.084667	310.340820	226.930222
20468.143245	-761.084667	309.045898	544.116028
20468.143245	-761.084667	307.750977	465.772797
20468.143245	-761.084667	306.456055	316.858826
20468.143245	-761.084667	305.160156	332.014435
20468.143245	-761.084667	303.865234	594.598389
20468.143245	-761.084667	302.568359	781.774719
20468.143245	-761.084667	301.272461	1023.155457
20468.143245	-761.084667	299.975586	1180.374146
20468.143245	-761.084667	298.678711	1229.412598
