#X		#Y		#Wave		#Intensity
20470.071330	-760.839833	1999.980469	49.215427
20470.071330	-760.839833	1999.016602	81.259552
20470.071330	-760.839833	1998.052734	6.490488
20470.071330	-760.839833	1997.087891	-90.713722
20470.071330	-760.839833	1996.123047	-56.719414
20470.071330	-760.839833	1995.158203	-178.947067
20470.071330	-760.839833	1994.193359	-179.910049
20470.071330	-760.839833	1993.228516	-101.765465
20470.071330	-760.839833	1992.262695	-83.200142
20470.071330	-760.839833	1991.297852	26.825331
20470.071330	-760.839833	1990.332031	121.841194
20470.071330	-760.839833	1989.366211	241.453812
20470.071330	-760.839833	1988.399414	-15.134022
20470.071330	-760.839833	1987.433594	309.554016
20470.071330	-760.839833	1986.466797	-174.673889
20470.071330	-760.839833	1985.500977	26.103024
20470.071330	-760.839833	1984.534180	152.551651
20470.071330	-760.839833	1983.567383	49.001854
20470.071330	-760.839833	1982.599609	-12.578242
20470.071330	-760.839833	1981.632813	-79.149475
20470.071330	-760.839833	1980.665039	-88.949402
20470.071330	-760.839833	1979.697266	160.523575
20470.071330	-760.839833	1978.729492	266.617279
20470.071330	-760.839833	1977.761719	7.209746
20470.071330	-760.839833	1976.792969	-20.119667
20470.071330	-760.839833	1975.825195	142.552048
20470.071330	-760.839833	1974.856445	-55.151722
20470.071330	-760.839833	1973.887695	144.380630
20470.071330	-760.839833	1972.918945	74.934799
20470.071330	-760.839833	1971.949219	76.994675
20470.071330	-760.839833	1970.980469	74.092537
20470.071330	-760.839833	1970.010742	41.575459
20470.071330	-760.839833	1969.041016	122.425858
20470.071330	-760.839833	1968.071289	-23.499815
20470.071330	-760.839833	1967.101563	-73.299316
20470.071330	-760.839833	1966.130859	39.485146
20470.071330	-760.839833	1965.161133	24.140434
20470.071330	-760.839833	1964.190430	-1.065340
20470.071330	-760.839833	1963.219727	109.141800
20470.071330	-760.839833	1962.249023	-44.094177
20470.071330	-760.839833	1961.277344	66.062935
20470.071330	-760.839833	1960.306641	-173.242935
20470.071330	-760.839833	1959.334961	197.677689
20470.071330	-760.839833	1958.363281	17.467527
20470.071330	-760.839833	1957.391602	-22.491592
20470.071330	-760.839833	1956.419922	163.784607
20470.071330	-760.839833	1955.447266	131.195343
20470.071330	-760.839833	1954.474609	83.878113
20470.071330	-760.839833	1953.501953	53.789612
20470.071330	-760.839833	1952.529297	40.922615
20470.071330	-760.839833	1951.556641	32.985619
20470.071330	-760.839833	1950.583984	196.995651
20470.071330	-760.839833	1949.610352	88.375961
20470.071330	-760.839833	1948.636719	-125.761848
20470.071330	-760.839833	1947.663086	151.149796
20470.071330	-760.839833	1946.689453	50.014385
20470.071330	-760.839833	1945.715820	-68.240295
20470.071330	-760.839833	1944.741211	24.557793
20470.071330	-760.839833	1943.767578	24.134880
20470.071330	-760.839833	1942.792969	112.020462
20470.071330	-760.839833	1941.818359	77.295258
20470.071330	-760.839833	1940.842773	-50.554409
20470.071330	-760.839833	1939.868164	-124.405281
20470.071330	-760.839833	1938.892578	105.675415
20470.071330	-760.839833	1937.916992	-117.591324
20470.071330	-760.839833	1936.941406	102.656334
20470.071330	-760.839833	1935.965820	53.426632
20470.071330	-760.839833	1934.990234	-123.097427
20470.071330	-760.839833	1934.013672	104.452118
20470.071330	-760.839833	1933.037109	-169.878937
20470.071330	-760.839833	1932.060547	126.179153
20470.071330	-760.839833	1931.083984	-40.328518
20470.071330	-760.839833	1930.107422	170.022995
20470.071330	-760.839833	1929.129883	-165.157272
20470.071330	-760.839833	1928.153320	-62.411434
20470.071330	-760.839833	1927.175781	-33.034206
20470.071330	-760.839833	1926.198242	-23.196165
20470.071330	-760.839833	1925.219727	20.883564
20470.071330	-760.839833	1924.242188	84.528625
20470.071330	-760.839833	1923.263672	-147.470657
20470.071330	-760.839833	1922.285156	84.794914
20470.071330	-760.839833	1921.306641	62.988159
20470.071330	-760.839833	1920.328125	-107.743790
20470.071330	-760.839833	1919.349609	-97.712814
20470.071330	-760.839833	1918.370117	-334.209412
20470.071330	-760.839833	1917.391602	-121.514130
20470.071330	-760.839833	1916.412109	-57.725193
20470.071330	-760.839833	1915.431641	152.446030
20470.071330	-760.839833	1914.452148	72.293922
20470.071330	-760.839833	1913.472656	-39.508274
20470.071330	-760.839833	1912.492188	158.423691
20470.071330	-760.839833	1911.511719	-289.737030
20470.071330	-760.839833	1910.531250	-89.350487
20470.071330	-760.839833	1909.550781	-176.580460
20470.071330	-760.839833	1908.569336	-59.089600
20470.071330	-760.839833	1907.588867	-19.576283
20470.071330	-760.839833	1906.607422	34.554810
20470.071330	-760.839833	1905.625977	-16.027403
20470.071330	-760.839833	1904.644531	-5.705594
20470.071330	-760.839833	1903.662109	19.232552
20470.071330	-760.839833	1902.680664	78.253365
20470.071330	-760.839833	1901.698242	22.898518
20470.071330	-760.839833	1900.715820	-202.723831
20470.071330	-760.839833	1899.733398	82.562103
20470.071330	-760.839833	1898.750000	-232.945450
20470.071330	-760.839833	1897.767578	-15.819506
20470.071330	-760.839833	1896.784180	21.336153
20470.071330	-760.839833	1895.800781	34.180275
20470.071330	-760.839833	1894.817383	-8.865347
20470.071330	-760.839833	1893.833984	-129.637726
20470.071330	-760.839833	1892.850586	-172.623291
20470.071330	-760.839833	1891.866211	-315.170410
20470.071330	-760.839833	1890.881836	76.575851
20470.071330	-760.839833	1889.897461	-58.673748
20470.071330	-760.839833	1888.913086	-89.490669
20470.071330	-760.839833	1887.927734	-125.152008
20470.071330	-760.839833	1886.943359	26.044271
20470.071330	-760.839833	1885.958008	77.711143
20470.071330	-760.839833	1884.972656	12.925076
20470.071330	-760.839833	1883.987305	-25.162798
20470.071330	-760.839833	1883.001953	65.266602
20470.071330	-760.839833	1882.015625	158.078674
20470.071330	-760.839833	1881.029297	207.218994
20470.071330	-760.839833	1880.042969	98.814247
20470.071330	-760.839833	1879.056641	-232.465958
20470.071330	-760.839833	1878.070313	61.354671
20470.071330	-760.839833	1877.083984	-119.657784
20470.071330	-760.839833	1876.096680	241.805328
20470.071330	-760.839833	1875.109375	-36.046738
20470.071330	-760.839833	1874.122070	-1.552199
20470.071330	-760.839833	1873.134766	30.491747
20470.071330	-760.839833	1872.146484	-77.841705
20470.071330	-760.839833	1871.159180	36.418194
20470.071330	-760.839833	1870.170898	128.841965
20470.071330	-760.839833	1869.182617	-127.035858
20470.071330	-760.839833	1868.194336	-95.112114
20470.071330	-760.839833	1867.205078	144.670639
20470.071330	-760.839833	1866.216797	-79.723465
20470.071330	-760.839833	1865.227539	-113.158730
20470.071330	-760.839833	1864.238281	37.010803
20470.071330	-760.839833	1863.249023	-172.837280
20470.071330	-760.839833	1862.259766	71.413841
20470.071330	-760.839833	1861.269531	-29.768396
20470.071330	-760.839833	1860.279297	64.607773
20470.071330	-760.839833	1859.290039	72.014725
20470.071330	-760.839833	1858.298828	-118.518806
20470.071330	-760.839833	1857.308594	144.608627
20470.071330	-760.839833	1856.318359	142.225693
20470.071330	-760.839833	1855.327148	-231.650589
20470.071330	-760.839833	1854.335938	146.974716
20470.071330	-760.839833	1853.344727	149.279999
20470.071330	-760.839833	1852.353516	91.271744
20470.071330	-760.839833	1851.362305	95.902771
20470.071330	-760.839833	1850.370117	129.397903
20470.071330	-760.839833	1849.377930	319.432953
20470.071330	-760.839833	1848.385742	225.101379
20470.071330	-760.839833	1847.393555	188.554245
20470.071330	-760.839833	1846.401367	79.727783
20470.071330	-760.839833	1845.408203	-125.415131
20470.071330	-760.839833	1844.415039	81.063332
20470.071330	-760.839833	1843.421875	5.835746
20470.071330	-760.839833	1842.428711	0.354978
20470.071330	-760.839833	1841.435547	201.702805
20470.071330	-760.839833	1840.441406	102.257874
20470.071330	-760.839833	1839.448242	12.408599
20470.071330	-760.839833	1838.454102	49.953480
20470.071330	-760.839833	1837.459961	109.053459
20470.071330	-760.839833	1836.464844	247.372101
20470.071330	-760.839833	1835.470703	164.502487
20470.071330	-760.839833	1834.475586	-0.093293
20470.071330	-760.839833	1833.480469	15.454960
20470.071330	-760.839833	1832.485352	-65.139046
20470.071330	-760.839833	1831.490234	89.536652
20470.071330	-760.839833	1830.495117	97.637177
20470.071330	-760.839833	1829.499023	139.258331
20470.071330	-760.839833	1828.502930	262.381073
20470.071330	-760.839833	1827.506836	296.602936
20470.071330	-760.839833	1826.510742	-146.644485
20470.071330	-760.839833	1825.513672	45.775318
20470.071330	-760.839833	1824.517578	29.420980
20470.071330	-760.839833	1823.520508	108.887909
20470.071330	-760.839833	1822.523438	68.387070
20470.071330	-760.839833	1821.526367	315.411621
20470.071330	-760.839833	1820.529297	-185.346100
20470.071330	-760.839833	1819.531250	-94.265533
20470.071330	-760.839833	1818.533203	255.382233
20470.071330	-760.839833	1817.535156	315.036713
20470.071330	-760.839833	1816.537109	173.453751
20470.071330	-760.839833	1815.539063	7.894190
20470.071330	-760.839833	1814.540039	222.860031
20470.071330	-760.839833	1813.541992	85.885490
20470.071330	-760.839833	1812.542969	78.061371
20470.071330	-760.839833	1811.543945	106.028427
20470.071330	-760.839833	1810.543945	76.483681
20470.071330	-760.839833	1809.544922	-24.875753
20470.071330	-760.839833	1808.544922	-92.829857
20470.071330	-760.839833	1807.544922	42.319187
20470.071330	-760.839833	1806.544922	-99.903023
20470.071330	-760.839833	1805.544922	173.581848
20470.071330	-760.839833	1804.544922	129.134369
20470.071330	-760.839833	1803.543945	309.114136
20470.071330	-760.839833	1802.542969	-160.621307
20470.071330	-760.839833	1801.541992	-205.292404
20470.071330	-760.839833	1800.541016	203.505463
20470.071330	-760.839833	1799.539063	127.540703
20470.071330	-760.839833	1798.538086	111.163086
20470.071330	-760.839833	1797.536133	197.266495
20470.071330	-760.839833	1796.534180	92.405457
20470.071330	-760.839833	1795.532227	68.562775
20470.071330	-760.839833	1794.529297	-98.450569
20470.071330	-760.839833	1793.527344	-10.417523
20470.071330	-760.839833	1792.524414	72.698441
20470.071330	-760.839833	1791.521484	26.988569
20470.071330	-760.839833	1790.518555	124.141808
20470.071330	-760.839833	1789.514648	185.408173
20470.071330	-760.839833	1788.511719	175.095657
20470.071330	-760.839833	1787.507813	71.799446
20470.071330	-760.839833	1786.503906	-43.475548
20470.071330	-760.839833	1785.500000	-144.536377
20470.071330	-760.839833	1784.496094	-24.341423
20470.071330	-760.839833	1783.491211	-251.714478
20470.071330	-760.839833	1782.486328	191.763962
20470.071330	-760.839833	1781.481445	95.027161
20470.071330	-760.839833	1780.476563	171.814041
20470.071330	-760.839833	1779.471680	58.243458
20470.071330	-760.839833	1778.465820	-45.898479
20470.071330	-760.839833	1777.460938	16.262302
20470.071330	-760.839833	1776.455078	-107.075752
20470.071330	-760.839833	1775.449219	21.355400
20470.071330	-760.839833	1774.442383	42.719460
20470.071330	-760.839833	1773.436523	-16.781425
20470.071330	-760.839833	1772.429688	20.967390
20470.071330	-760.839833	1771.422852	82.324303
20470.071330	-760.839833	1770.416016	50.968864
20470.071330	-760.839833	1769.409180	50.358963
20470.071330	-760.839833	1768.402344	123.183952
20470.071330	-760.839833	1767.394531	17.934029
20470.071330	-760.839833	1766.386719	152.156723
20470.071330	-760.839833	1765.378906	-60.006428
20470.071330	-760.839833	1764.371094	-129.955826
20470.071330	-760.839833	1763.362305	-223.711411
20470.071330	-760.839833	1762.354492	35.587872
20470.071330	-760.839833	1761.345703	176.181366
20470.071330	-760.839833	1760.336914	-15.070121
20470.071330	-760.839833	1759.328125	39.970188
20470.071330	-760.839833	1758.318359	-68.545250
20470.071330	-760.839833	1757.308594	2.808223
20470.071330	-760.839833	1756.299805	296.550446
20470.071330	-760.839833	1755.290039	111.950829
20470.071330	-760.839833	1754.279297	182.860748
20470.071330	-760.839833	1753.269531	97.483253
20470.071330	-760.839833	1752.258789	-106.266396
20470.071330	-760.839833	1751.249023	94.374893
20470.071330	-760.839833	1750.238281	-52.784462
20470.071330	-760.839833	1749.226563	-84.175194
20470.071330	-760.839833	1748.215820	127.797539
20470.071330	-760.839833	1747.204102	-85.822113
20470.071330	-760.839833	1746.193359	123.471329
20470.071330	-760.839833	1745.181641	164.829041
20470.071330	-760.839833	1744.168945	-259.247986
20470.071330	-760.839833	1743.157227	129.061844
20470.071330	-760.839833	1742.144531	14.206963
20470.071330	-760.839833	1741.132813	-147.919250
20470.071330	-760.839833	1740.120117	131.221069
20470.071330	-760.839833	1739.106445	77.418068
20470.071330	-760.839833	1738.093750	84.872437
20470.071330	-760.839833	1737.080078	-21.024031
20470.071330	-760.839833	1736.067383	-155.281128
20470.071330	-760.839833	1735.053711	-258.963501
20470.071330	-760.839833	1734.040039	-23.257864
20470.071330	-760.839833	1733.025391	-56.459316
20470.071330	-760.839833	1732.011719	-99.173424
20470.071330	-760.839833	1730.997070	-224.458771
20470.071330	-760.839833	1729.982422	-196.696899
20470.071330	-760.839833	1728.967773	12.287609
20470.071330	-760.839833	1727.952148	-106.233421
20470.071330	-760.839833	1726.937500	95.368965
20470.071330	-760.839833	1725.921875	-202.229416
20470.071330	-760.839833	1724.906250	-62.106770
20470.071330	-760.839833	1723.890625	96.677032
20470.071330	-760.839833	1722.875000	-121.096069
20470.071330	-760.839833	1721.858398	162.061081
20470.071330	-760.839833	1720.841797	-105.253479
20470.071330	-760.839833	1719.825195	8.301811
20470.071330	-760.839833	1718.808594	-19.329927
20470.071330	-760.839833	1717.791992	30.499527
20470.071330	-760.839833	1716.774414	-288.716217
20470.071330	-760.839833	1715.756836	-239.077789
20470.071330	-760.839833	1714.739258	-238.887115
20470.071330	-760.839833	1713.721680	-175.392410
20470.071330	-760.839833	1712.704102	235.468704
20470.071330	-760.839833	1711.685547	-55.837917
20470.071330	-760.839833	1710.667969	108.203766
20470.071330	-760.839833	1709.649414	28.025568
20470.071330	-760.839833	1708.630859	67.430931
20470.071330	-760.839833	1707.611328	-245.142883
20470.071330	-760.839833	1706.592773	16.901970
20470.071330	-760.839833	1705.573242	-44.844154
20470.071330	-760.839833	1704.553711	-76.185814
20470.071330	-760.839833	1703.534180	255.691422
20470.071330	-760.839833	1702.513672	-82.887817
20470.071330	-760.839833	1701.494141	-60.595322
20470.071330	-760.839833	1700.473633	-113.380547
20470.071330	-760.839833	1699.453125	32.841106
20470.071330	-760.839833	1698.432617	209.357773
20470.071330	-760.839833	1697.412109	72.000549
20470.071330	-760.839833	1696.390625	238.886627
20470.071330	-760.839833	1695.369141	171.594131
20470.071330	-760.839833	1694.347656	113.601677
20470.071330	-760.839833	1693.326172	235.677917
20470.071330	-760.839833	1692.304688	142.443085
20470.071330	-760.839833	1691.282227	215.176163
20470.071330	-760.839833	1690.260742	2.577327
20470.071330	-760.839833	1689.238281	128.911392
20470.071330	-760.839833	1688.214844	96.176361
20470.071330	-760.839833	1687.192383	301.733002
20470.071330	-760.839833	1686.168945	313.210022
20470.071330	-760.839833	1685.146484	41.993896
20470.071330	-760.839833	1684.123047	107.077316
20470.071330	-760.839833	1683.099609	104.350929
20470.071330	-760.839833	1682.075195	355.988739
20470.071330	-760.839833	1681.051758	353.071075
20470.071330	-760.839833	1680.027344	282.393951
20470.071330	-760.839833	1679.002930	339.994781
20470.071330	-760.839833	1677.978516	535.130615
20470.071330	-760.839833	1676.953125	527.206726
20470.071330	-760.839833	1675.928711	481.930054
20470.071330	-760.839833	1674.903320	427.263977
20470.071330	-760.839833	1673.877930	386.540192
20470.071330	-760.839833	1672.852539	341.109650
20470.071330	-760.839833	1671.826172	486.673187
20470.071330	-760.839833	1670.800781	741.623901
20470.071330	-760.839833	1669.774414	421.129791
20470.071330	-760.839833	1668.748047	466.289490
20470.071330	-760.839833	1667.721680	439.203918
20470.071330	-760.839833	1666.694336	742.588440
20470.071330	-760.839833	1665.667969	596.662720
20470.071330	-760.839833	1664.640625	650.827881
20470.071330	-760.839833	1663.613281	753.775513
20470.071330	-760.839833	1662.585938	593.807739
20470.071330	-760.839833	1661.557617	964.036194
20470.071330	-760.839833	1660.530273	831.895996
20470.071330	-760.839833	1659.501953	829.917664
20470.071330	-760.839833	1658.473633	741.904358
20470.071330	-760.839833	1657.444336	932.701965
20470.071330	-760.839833	1656.416016	963.101379
20470.071330	-760.839833	1655.386719	789.031311
20470.071330	-760.839833	1654.358398	747.378357
20470.071330	-760.839833	1653.328125	995.898071
20470.071330	-760.839833	1652.298828	884.490051
20470.071330	-760.839833	1651.269531	1200.144775
20470.071330	-760.839833	1650.239258	882.127930
20470.071330	-760.839833	1649.208984	1234.698120
20470.071330	-760.839833	1648.178711	1246.122314
20470.071330	-760.839833	1647.148438	1503.341553
20470.071330	-760.839833	1646.117188	1268.851929
20470.071330	-760.839833	1645.086914	1372.909546
20470.071330	-760.839833	1644.055664	1314.638062
20470.071330	-760.839833	1643.024414	1226.241699
20470.071330	-760.839833	1641.992188	1575.735840
20470.071330	-760.839833	1640.960938	1790.736206
20470.071330	-760.839833	1639.928711	1906.030640
20470.071330	-760.839833	1638.896484	1949.479248
20470.071330	-760.839833	1637.864258	1835.466309
20470.071330	-760.839833	1636.832031	1846.477905
20470.071330	-760.839833	1635.798828	1827.367310
20470.071330	-760.839833	1634.766602	1958.668335
20470.071330	-760.839833	1633.733398	2173.168701
20470.071330	-760.839833	1632.699219	2267.287598
20470.071330	-760.839833	1631.666016	1945.148682
20470.071330	-760.839833	1630.632813	1986.107666
20470.071330	-760.839833	1629.598633	2133.359619
20470.071330	-760.839833	1628.564453	2215.841309
20470.071330	-760.839833	1627.530273	2259.010986
20470.071330	-760.839833	1626.495117	2218.978516
20470.071330	-760.839833	1625.460938	2520.822021
20470.071330	-760.839833	1624.425781	2249.831299
20470.071330	-760.839833	1623.390625	2332.202881
20470.071330	-760.839833	1622.355469	2370.689941
20470.071330	-760.839833	1621.319336	2485.314209
20470.071330	-760.839833	1620.284180	2567.616943
20470.071330	-760.839833	1619.248047	2619.887939
20470.071330	-760.839833	1618.211914	2792.095215
20470.071330	-760.839833	1617.174805	2532.980713
20470.071330	-760.839833	1616.138672	2769.726563
20470.071330	-760.839833	1615.101563	2300.976074
20470.071330	-760.839833	1614.065430	2685.217773
20470.071330	-760.839833	1613.027344	2767.422119
20470.071330	-760.839833	1611.990234	2826.597900
20470.071330	-760.839833	1610.953125	2542.560303
20470.071330	-760.839833	1609.915039	2737.662842
20470.071330	-760.839833	1608.876953	3066.263916
20470.071330	-760.839833	1607.838867	3086.282715
20470.071330	-760.839833	1606.800781	3308.867188
20470.071330	-760.839833	1605.761719	3250.631592
20470.071330	-760.839833	1604.723633	3236.184326
20470.071330	-760.839833	1603.684570	3253.962646
20470.071330	-760.839833	1602.644531	3389.042236
20470.071330	-760.839833	1601.605469	3340.172852
20470.071330	-760.839833	1600.566406	3001.690430
20470.071330	-760.839833	1599.526367	3083.990723
20470.071330	-760.839833	1598.486328	3143.317871
20470.071330	-760.839833	1597.446289	3057.915527
20470.071330	-760.839833	1596.405273	3199.993652
20470.071330	-760.839833	1595.365234	3167.527588
20470.071330	-760.839833	1594.324219	3325.695313
20470.071330	-760.839833	1593.283203	3387.424805
20470.071330	-760.839833	1592.242188	3412.453613
20470.071330	-760.839833	1591.200195	3430.622803
20470.071330	-760.839833	1590.159180	3359.369873
20470.071330	-760.839833	1589.117188	3373.061279
20470.071330	-760.839833	1588.075195	3529.006836
20470.071330	-760.839833	1587.032227	3409.753418
20470.071330	-760.839833	1585.990234	3295.210205
20470.071330	-760.839833	1584.947266	3451.236572
20470.071330	-760.839833	1583.904297	3650.809814
20470.071330	-760.839833	1582.861328	3415.012207
20470.071330	-760.839833	1581.818359	3394.715576
20470.071330	-760.839833	1580.775391	2950.763428
20470.071330	-760.839833	1579.731445	3120.751221
20470.071330	-760.839833	1578.687500	3002.260254
20470.071330	-760.839833	1577.643555	2730.516113
20470.071330	-760.839833	1576.598633	3012.784912
20470.071330	-760.839833	1575.554688	2871.718994
20470.071330	-760.839833	1574.509766	2861.166504
20470.071330	-760.839833	1573.464844	2901.015381
20470.071330	-760.839833	1572.419922	2972.940186
20470.071330	-760.839833	1571.374023	2640.207520
20470.071330	-760.839833	1570.329102	2531.726318
20470.071330	-760.839833	1569.283203	2896.451660
20470.071330	-760.839833	1568.237305	2822.385498
20470.071330	-760.839833	1567.191406	2572.517578
20470.071330	-760.839833	1566.144531	2523.825195
20470.071330	-760.839833	1565.098633	2427.294922
20470.071330	-760.839833	1564.051758	2342.292480
20470.071330	-760.839833	1563.004883	2446.886230
20470.071330	-760.839833	1561.957031	2149.817139
20470.071330	-760.839833	1560.910156	1818.745361
20470.071330	-760.839833	1559.862305	1937.331909
20470.071330	-760.839833	1558.814453	2115.271484
20470.071330	-760.839833	1557.766602	2012.729736
20470.071330	-760.839833	1556.718750	1832.799194
20470.071330	-760.839833	1555.669922	1529.921265
20470.071330	-760.839833	1554.621094	1872.284180
20470.071330	-760.839833	1553.573242	1535.552734
20470.071330	-760.839833	1552.523438	1638.743652
20470.071330	-760.839833	1551.474609	1518.781860
20470.071330	-760.839833	1550.424805	1301.027710
20470.071330	-760.839833	1549.375000	1445.506836
20470.071330	-760.839833	1548.325195	1528.568115
20470.071330	-760.839833	1547.275391	1447.829834
20470.071330	-760.839833	1546.225586	1298.963013
20470.071330	-760.839833	1545.174805	1616.665649
20470.071330	-760.839833	1544.124023	1226.912109
20470.071330	-760.839833	1543.073242	1565.199585
20470.071330	-760.839833	1542.022461	1394.126831
20470.071330	-760.839833	1540.970703	1170.935181
20470.071330	-760.839833	1539.919922	1154.801392
20470.071330	-760.839833	1538.868164	1154.685913
20470.071330	-760.839833	1537.815430	1500.029541
20470.071330	-760.839833	1536.763672	1615.937988
20470.071330	-760.839833	1535.710938	1377.608521
20470.071330	-760.839833	1534.659180	1094.093872
20470.071330	-760.839833	1533.606445	1080.964600
20470.071330	-760.839833	1532.552734	1322.173218
20470.071330	-760.839833	1531.500000	1511.228760
20470.071330	-760.839833	1530.446289	1400.825684
20470.071330	-760.839833	1529.393555	1612.732056
20470.071330	-760.839833	1528.338867	1638.679443
20470.071330	-760.839833	1527.285156	1662.492920
20470.071330	-760.839833	1526.231445	1638.817139
20470.071330	-760.839833	1525.176758	1617.537964
20470.071330	-760.839833	1524.122070	1476.291260
20470.071330	-760.839833	1523.067383	1568.609009
20470.071330	-760.839833	1522.012695	1459.412231
20470.071330	-760.839833	1520.957031	1787.506958
20470.071330	-760.839833	1519.901367	1504.208130
20470.071330	-760.839833	1518.845703	1388.696289
20470.071330	-760.839833	1517.790039	1431.818115
20470.071330	-760.839833	1516.734375	1289.488281
20470.071330	-760.839833	1515.677734	1224.275269
20470.071330	-760.839833	1514.621094	1204.473877
20470.071330	-760.839833	1513.564453	1028.760620
20470.071330	-760.839833	1512.507813	959.542664
20470.071330	-760.839833	1511.450195	926.662170
20470.071330	-760.839833	1510.393555	722.157654
20470.071330	-760.839833	1509.335938	490.750214
20470.071330	-760.839833	1508.278320	503.608765
20470.071330	-760.839833	1507.219727	606.964783
20470.071330	-760.839833	1506.162109	550.076294
20470.071330	-760.839833	1505.103516	328.501434
20470.071330	-760.839833	1504.044922	360.031494
20470.071330	-760.839833	1502.986328	339.784332
20470.071330	-760.839833	1501.926758	373.849548
20470.071330	-760.839833	1500.868164	283.962158
20470.071330	-760.839833	1499.808594	83.714806
20470.071330	-760.839833	1498.749023	16.775063
20470.071330	-760.839833	1497.688477	-20.675198
20470.071330	-760.839833	1496.628906	-96.277145
20470.071330	-760.839833	1495.568359	317.447754
20470.071330	-760.839833	1494.507813	163.236740
20470.071330	-760.839833	1493.447266	85.854012
20470.071330	-760.839833	1492.386719	22.175079
20470.071330	-760.839833	1491.325195	53.273289
20470.071330	-760.839833	1490.263672	-154.183151
20470.071330	-760.839833	1489.202148	-12.422288
20470.071330	-760.839833	1488.140625	149.702850
20470.071330	-760.839833	1487.079102	311.923187
20470.071330	-760.839833	1486.016602	501.236572
20470.071330	-760.839833	1484.954102	382.433441
20470.071330	-760.839833	1483.891602	749.670471
20470.071330	-760.839833	1482.829102	500.762482
20470.071330	-760.839833	1481.765625	501.678619
20470.071330	-760.839833	1480.702148	651.116882
20470.071330	-760.839833	1479.638672	501.759247
20470.071330	-760.839833	1478.575195	678.426331
20470.071330	-760.839833	1477.511719	686.757263
20470.071330	-760.839833	1476.447266	403.219788
20470.071330	-760.839833	1475.382813	690.331421
20470.071330	-760.839833	1474.318359	346.707672
20470.071330	-760.839833	1473.253906	75.116417
20470.071330	-760.839833	1472.189453	526.464172
20470.071330	-760.839833	1471.124023	331.600372
20470.071330	-760.839833	1470.058594	435.332642
20470.071330	-760.839833	1468.993164	685.034241
20470.071330	-760.839833	1467.927734	441.504242
20470.071330	-760.839833	1466.861328	456.274261
20470.071330	-760.839833	1465.794922	448.272400
20470.071330	-760.839833	1464.728516	456.477264
20470.071330	-760.839833	1463.662109	520.430115
20470.071330	-760.839833	1462.594727	748.666992
20470.071330	-760.839833	1461.528320	620.745239
20470.071330	-760.839833	1460.460938	605.233093
20470.071330	-760.839833	1459.393555	773.065430
20470.071330	-760.839833	1458.326172	681.957153
20470.071330	-760.839833	1457.257813	837.072144
20470.071330	-760.839833	1456.189453	788.619995
20470.071330	-760.839833	1455.121094	960.591125
20470.071330	-760.839833	1454.052734	1129.960083
20470.071330	-760.839833	1452.984375	1239.217163
20470.071330	-760.839833	1451.915039	1117.382324
20470.071330	-760.839833	1450.845703	1275.738770
20470.071330	-760.839833	1449.776367	1440.403442
20470.071330	-760.839833	1448.707031	1334.560181
20470.071330	-760.839833	1447.636719	1342.114136
20470.071330	-760.839833	1446.567383	1205.756592
20470.071330	-760.839833	1445.497070	1231.605103
20470.071330	-760.839833	1444.425781	1258.400391
20470.071330	-760.839833	1443.355469	1214.986938
20470.071330	-760.839833	1442.285156	1179.635498
20470.071330	-760.839833	1441.213867	1266.912598
20470.071330	-760.839833	1440.142578	1274.740234
20470.071330	-760.839833	1439.070313	906.819702
20470.071330	-760.839833	1437.999023	1151.249756
20470.071330	-760.839833	1436.926758	1114.935669
20470.071330	-760.839833	1435.854492	883.493958
20470.071330	-760.839833	1434.782227	1144.225220
20470.071330	-760.839833	1433.709961	1186.697388
20470.071330	-760.839833	1432.636719	1121.744019
20470.071330	-760.839833	1431.563477	986.662415
20470.071330	-760.839833	1430.490234	639.565613
20470.071330	-760.839833	1429.416992	676.674072
20470.071330	-760.839833	1428.343750	507.423035
20470.071330	-760.839833	1427.269531	510.689453
20470.071330	-760.839833	1426.195313	323.830505
20470.071330	-760.839833	1425.121094	429.011871
20470.071330	-760.839833	1424.046875	539.467590
20470.071330	-760.839833	1422.971680	357.545898
20470.071330	-760.839833	1421.896484	351.366943
20470.071330	-760.839833	1420.821289	148.213547
20470.071330	-760.839833	1419.746094	246.702530
20470.071330	-760.839833	1418.669922	366.573303
20470.071330	-760.839833	1417.594727	440.896790
20470.071330	-760.839833	1416.518555	407.722626
20470.071330	-760.839833	1415.442383	315.918060
20470.071330	-760.839833	1414.365234	526.441772
20470.071330	-760.839833	1413.289063	364.144653
20470.071330	-760.839833	1412.211914	342.979919
20470.071330	-760.839833	1411.134766	437.032806
20470.071330	-760.839833	1410.057617	549.796997
20470.071330	-760.839833	1408.979492	301.538574
20470.071330	-760.839833	1407.902344	329.610718
20470.071330	-760.839833	1406.824219	650.054016
20470.071330	-760.839833	1405.746094	766.517395
20470.071330	-760.839833	1404.666992	827.156128
20470.071330	-760.839833	1403.588867	849.249939
20470.071330	-760.839833	1402.509766	987.932373
20470.071330	-760.839833	1401.430664	821.408264
20470.071330	-760.839833	1400.351563	846.434875
20470.071330	-760.839833	1399.271484	792.840088
20470.071330	-760.839833	1398.192383	803.112976
20470.071330	-760.839833	1397.112305	940.712708
20470.071330	-760.839833	1396.031250	575.191772
20470.071330	-760.839833	1394.951172	530.538452
20470.071330	-760.839833	1393.871094	457.031921
20470.071330	-760.839833	1392.790039	617.012634
20470.071330	-760.839833	1391.708984	460.078522
20470.071330	-760.839833	1390.626953	356.365204
20470.071330	-760.839833	1389.545898	602.751892
20470.071330	-760.839833	1388.463867	531.457886
20470.071330	-760.839833	1387.381836	567.236816
20470.071330	-760.839833	1386.299805	220.472595
20470.071330	-760.839833	1385.217773	689.189941
20470.071330	-760.839833	1384.134766	395.240112
20470.071330	-760.839833	1383.051758	457.624115
20470.071330	-760.839833	1381.968750	552.766968
20470.071330	-760.839833	1380.885742	660.388550
20470.071330	-760.839833	1379.802734	508.743958
20470.071330	-760.839833	1378.718750	615.257324
20470.071330	-760.839833	1377.634766	632.975830
20470.071330	-760.839833	1376.550781	611.047058
20470.071330	-760.839833	1375.465820	509.698273
20470.071330	-760.839833	1374.381836	418.630829
20470.071330	-760.839833	1373.296875	446.007172
20470.071330	-760.839833	1372.211914	585.871765
20470.071330	-760.839833	1371.126953	338.483582
20470.071330	-760.839833	1370.041016	368.068420
20470.071330	-760.839833	1368.955078	748.021973
20470.071330	-760.839833	1367.869141	497.444946
20470.071330	-760.839833	1366.783203	584.691833
20470.071330	-760.839833	1365.697266	631.800781
20470.071330	-760.839833	1364.610352	471.765930
20470.071330	-760.839833	1363.523438	601.767273
20470.071330	-760.839833	1362.436523	703.552002
20470.071330	-760.839833	1361.349609	490.457031
20470.071330	-760.839833	1360.261719	785.660461
20470.071330	-760.839833	1359.174805	528.324829
20470.071330	-760.839833	1358.086914	555.643311
20470.071330	-760.839833	1356.998047	737.158325
20470.071330	-760.839833	1355.910156	893.742432
20470.071330	-760.839833	1354.821289	684.124878
20470.071330	-760.839833	1353.732422	665.494202
20470.071330	-760.839833	1352.643555	799.312378
20470.071330	-760.839833	1351.554688	903.636963
20470.071330	-760.839833	1350.464844	801.947754
20470.071330	-760.839833	1349.375000	979.358887
20470.071330	-760.839833	1348.285156	674.654358
20470.071330	-760.839833	1347.195313	672.216003
20470.071330	-760.839833	1346.105469	1077.880615
20470.071330	-760.839833	1345.014648	1056.960571
20470.071330	-760.839833	1343.923828	784.128052
20470.071330	-760.839833	1342.833008	926.664978
20470.071330	-760.839833	1341.741211	988.114563
20470.071330	-760.839833	1340.650391	1041.178345
20470.071330	-760.839833	1339.558594	1049.998657
20470.071330	-760.839833	1338.466797	811.688171
20470.071330	-760.839833	1337.374023	934.124512
20470.071330	-760.839833	1336.282227	1052.084473
20470.071330	-760.839833	1335.189453	960.174072
20470.071330	-760.839833	1334.096680	894.450867
20470.071330	-760.839833	1333.003906	1070.448975
20470.071330	-760.839833	1331.910156	875.149841
20470.071330	-760.839833	1330.817383	799.139893
20470.071330	-760.839833	1329.723633	940.125671
20470.071330	-760.839833	1328.629883	1110.265747
20470.071330	-760.839833	1327.535156	1106.069580
20470.071330	-760.839833	1326.441406	1021.202576
20470.071330	-760.839833	1325.346680	798.272522
20470.071330	-760.839833	1324.251953	1153.947510
20470.071330	-760.839833	1323.156250	962.987061
20470.071330	-760.839833	1322.061523	966.743530
20470.071330	-760.839833	1320.965820	1037.495239
20470.071330	-760.839833	1319.870117	1185.868896
20470.071330	-760.839833	1318.774414	1400.117188
20470.071330	-760.839833	1317.678711	1499.941895
20470.071330	-760.839833	1316.582031	1615.706909
20470.071330	-760.839833	1315.485352	1680.341187
20470.071330	-760.839833	1314.388672	1837.532837
20470.071330	-760.839833	1313.291016	1847.452515
20470.071330	-760.839833	1312.194336	1752.601318
20470.071330	-760.839833	1311.096680	1709.440674
20470.071330	-760.839833	1309.999023	1483.658936
20470.071330	-760.839833	1308.901367	1537.696289
20470.071330	-760.839833	1307.802734	1357.026367
20470.071330	-760.839833	1306.705078	1495.440552
20470.071330	-760.839833	1305.606445	1288.533691
20470.071330	-760.839833	1304.506836	1166.101807
20470.071330	-760.839833	1303.408203	1289.013916
20470.071330	-760.839833	1302.308594	1209.433716
20470.071330	-760.839833	1301.208984	931.709167
20470.071330	-760.839833	1300.109375	885.465942
20470.071330	-760.839833	1299.009766	1038.105103
20470.071330	-760.839833	1297.909180	1000.827576
20470.071330	-760.839833	1296.808594	966.437866
20470.071330	-760.839833	1295.708008	1029.577393
20470.071330	-760.839833	1294.607422	912.301453
20470.071330	-760.839833	1293.506836	883.827576
20470.071330	-760.839833	1292.405273	746.614624
20470.071330	-760.839833	1291.303711	1078.314697
20470.071330	-760.839833	1290.202148	1085.953735
20470.071330	-760.839833	1289.099609	1053.178345
20470.071330	-760.839833	1287.998047	864.930054
20470.071330	-760.839833	1286.895508	878.940613
20470.071330	-760.839833	1285.792969	1186.520020
20470.071330	-760.839833	1284.689453	884.430298
20470.071330	-760.839833	1283.586914	1037.352661
20470.071330	-760.839833	1282.483398	934.634644
20470.071330	-760.839833	1281.379883	825.507813
20470.071330	-760.839833	1280.276367	981.217041
20470.071330	-760.839833	1279.171875	806.483521
20470.071330	-760.839833	1278.067383	518.351135
20470.071330	-760.839833	1276.962891	562.146790
20470.071330	-760.839833	1275.858398	398.978577
20470.071330	-760.839833	1274.753906	283.651825
20470.071330	-760.839833	1273.648438	224.046265
20470.071330	-760.839833	1272.542969	361.375427
20470.071330	-760.839833	1271.437500	188.954468
20470.071330	-760.839833	1270.331055	-11.676661
20470.071330	-760.839833	1269.225586	-17.904356
20470.071330	-760.839833	1268.119141	8.831105
20470.071330	-760.839833	1267.012695	47.096615
20470.071330	-760.839833	1265.906250	7.012010
20470.071330	-760.839833	1264.798828	98.970932
20470.071330	-760.839833	1263.691406	67.784317
20470.071330	-760.839833	1262.583984	90.839577
20470.071330	-760.839833	1261.476563	89.834671
20470.071330	-760.839833	1260.368164	12.805954
20470.071330	-760.839833	1259.260742	-133.457764
20470.071330	-760.839833	1258.152344	-121.948921
20470.071330	-760.839833	1257.043945	-150.040344
20470.071330	-760.839833	1255.934570	54.962646
20470.071330	-760.839833	1254.825195	-47.004261
20470.071330	-760.839833	1253.716797	-269.054260
20470.071330	-760.839833	1252.606445	-133.864441
20470.071330	-760.839833	1251.497070	-103.433998
20470.071330	-760.839833	1250.387695	121.371208
20470.071330	-760.839833	1249.277344	-2.285259
20470.071330	-760.839833	1248.166992	-42.459995
20470.071330	-760.839833	1247.055664	-2.192543
20470.071330	-760.839833	1245.945313	-39.038330
20470.071330	-760.839833	1244.833984	-173.758789
20470.071330	-760.839833	1243.722656	-149.092194
20470.071330	-760.839833	1242.611328	-96.660866
20470.071330	-760.839833	1241.499023	-94.685898
20470.071330	-760.839833	1240.387695	-88.039230
20470.071330	-760.839833	1239.275391	-69.890373
20470.071330	-760.839833	1238.162109	-118.029556
20470.071330	-760.839833	1237.049805	-88.803368
20470.071330	-760.839833	1235.936523	9.991795
20470.071330	-760.839833	1234.823242	-32.686123
20470.071330	-760.839833	1233.709961	-4.101965
20470.071330	-760.839833	1232.596680	3.459889
20470.071330	-760.839833	1231.482422	-114.640526
20470.071330	-760.839833	1230.369141	62.932796
20470.071330	-760.839833	1229.253906	20.599203
20470.071330	-760.839833	1228.139648	-11.252412
20470.071330	-760.839833	1227.025391	112.209679
20470.071330	-760.839833	1225.910156	-37.455269
20470.071330	-760.839833	1224.794922	4.100378
20470.071330	-760.839833	1223.679688	-27.237795
20470.071330	-760.839833	1222.563477	-68.838272
20470.071330	-760.839833	1221.447266	158.223755
20470.071330	-760.839833	1220.331055	115.428627
20470.071330	-760.839833	1219.214844	209.391418
20470.071330	-760.839833	1218.098633	264.917694
20470.071330	-760.839833	1216.981445	78.082283
20470.071330	-760.839833	1215.864258	320.150879
20470.071330	-760.839833	1214.747070	153.924194
20470.071330	-760.839833	1213.629883	204.050522
20470.071330	-760.839833	1212.511719	96.838097
20470.071330	-760.839833	1211.393555	228.261658
20470.071330	-760.839833	1210.275391	207.023300
20470.071330	-760.839833	1209.157227	173.692245
20470.071330	-760.839833	1208.038086	286.001465
20470.071330	-760.839833	1206.918945	366.517670
20470.071330	-760.839833	1205.799805	451.763184
20470.071330	-760.839833	1204.680664	388.126648
20470.071330	-760.839833	1203.560547	482.234528
20470.071330	-760.839833	1202.441406	337.614014
20470.071330	-760.839833	1201.321289	267.299316
20470.071330	-760.839833	1200.200195	479.289368
20470.071330	-760.839833	1199.080078	485.025574
20470.071330	-760.839833	1197.958984	431.284210
20470.071330	-760.839833	1196.837891	508.921234
20470.071330	-760.839833	1195.716797	461.154419
20470.071330	-760.839833	1194.594727	436.810303
20470.071330	-760.839833	1193.473633	189.269073
20470.071330	-760.839833	1192.351563	366.639740
20470.071330	-760.839833	1191.229492	338.755035
20470.071330	-760.839833	1190.106445	136.290970
20470.071330	-760.839833	1188.984375	61.833122
20470.071330	-760.839833	1187.861328	62.007847
20470.071330	-760.839833	1186.738281	97.765221
20470.071330	-760.839833	1185.614258	94.327042
20470.071330	-760.839833	1184.491211	271.836823
20470.071330	-760.839833	1183.367188	28.030991
20470.071330	-760.839833	1182.243164	117.258270
20470.071330	-760.839833	1181.119141	170.933777
20470.071330	-760.839833	1179.994141	168.713730
20470.071330	-760.839833	1178.869141	30.167645
20470.071330	-760.839833	1177.744141	20.540770
20470.071330	-760.839833	1176.619141	106.191635
20470.071330	-760.839833	1175.493164	-30.829157
20470.071330	-760.839833	1174.368164	-95.759125
20470.071330	-760.839833	1173.242188	68.764458
20470.071330	-760.839833	1172.115234	55.698666
20470.071330	-760.839833	1170.989258	-129.189819
20470.071330	-760.839833	1169.862305	45.331619
20470.071330	-760.839833	1168.735352	80.056595
20470.071330	-760.839833	1167.608398	25.876913
20470.071330	-760.839833	1166.481445	142.127747
20470.071330	-760.839833	1165.353516	-110.206078
20470.071330	-760.839833	1164.225586	-147.303375
20470.071330	-760.839833	1163.097656	-173.709793
20470.071330	-760.839833	1161.968750	-245.337143
20470.071330	-760.839833	1160.840820	-101.320114
20470.071330	-760.839833	1159.711914	-91.775543
20470.071330	-760.839833	1158.583008	-2.840919
20470.071330	-760.839833	1157.453125	-9.033693
20470.071330	-760.839833	1156.324219	-196.594528
20470.071330	-760.839833	1155.194336	-48.927792
20470.071330	-760.839833	1154.064453	-75.744926
20470.071330	-760.839833	1152.933594	-363.577240
20470.071330	-760.839833	1151.803711	-85.230339
20470.071330	-760.839833	1150.672852	18.631227
20470.071330	-760.839833	1149.541992	-221.650986
20470.071330	-760.839833	1148.411133	3.854026
20470.071330	-760.839833	1147.279297	-96.703629
20470.071330	-760.839833	1146.147461	-183.972458
20470.071330	-760.839833	1145.015625	-134.114166
20470.071330	-760.839833	1143.883789	-32.046341
20470.071330	-760.839833	1142.750977	-37.117142
20470.071330	-760.839833	1141.619141	-233.164246
20470.071330	-760.839833	1140.486328	11.663446
20470.071330	-760.839833	1139.352539	167.608337
20470.071330	-760.839833	1138.219727	107.501160
20470.071330	-760.839833	1137.085938	147.218002
20470.071330	-760.839833	1135.952148	344.119812
20470.071330	-760.839833	1134.818359	441.616272
20470.071330	-760.839833	1133.683594	406.654633
20470.071330	-760.839833	1132.549805	704.053589
20470.071330	-760.839833	1131.415039	742.429932
20470.071330	-760.839833	1130.279297	803.840576
20470.071330	-760.839833	1129.144531	1237.135864
20470.071330	-760.839833	1128.008789	965.535706
20470.071330	-760.839833	1126.873047	855.816711
20470.071330	-760.839833	1125.737305	656.180542
20470.071330	-760.839833	1124.601563	506.397308
20470.071330	-760.839833	1123.464844	658.828796
20470.071330	-760.839833	1122.328125	667.795898
20470.071330	-760.839833	1121.191406	670.641907
20470.071330	-760.839833	1120.054688	363.268829
20470.071330	-760.839833	1118.916992	277.084137
20470.071330	-760.839833	1117.779297	429.611145
20470.071330	-760.839833	1116.641602	486.141418
20470.071330	-760.839833	1115.503906	-76.008911
20470.071330	-760.839833	1114.365234	212.756821
20470.071330	-760.839833	1113.226563	37.401672
20470.071330	-760.839833	1112.087891	30.731979
20470.071330	-760.839833	1110.949219	-2.445920
20470.071330	-760.839833	1109.809570	54.552292
20470.071330	-760.839833	1108.669922	107.868721
20470.071330	-760.839833	1107.530273	151.891769
20470.071330	-760.839833	1106.390625	125.619202
20470.071330	-760.839833	1105.250000	221.188232
20470.071330	-760.839833	1104.109375	12.728584
20470.071330	-760.839833	1102.968750	237.951935
20470.071330	-760.839833	1101.828125	353.888336
20470.071330	-760.839833	1100.686523	204.498947
20470.071330	-760.839833	1099.544922	239.388443
20470.071330	-760.839833	1098.403320	410.771454
20470.071330	-760.839833	1097.261719	392.474976
20470.071330	-760.839833	1096.120117	60.556389
20470.071330	-760.839833	1094.977539	286.434570
20470.071330	-760.839833	1093.834961	236.979248
20470.071330	-760.839833	1092.691406	119.967522
20470.071330	-760.839833	1091.548828	140.449188
20470.071330	-760.839833	1090.405273	226.211899
20470.071330	-760.839833	1089.261719	202.140427
20470.071330	-760.839833	1088.118164	128.910400
20470.071330	-760.839833	1086.973633	11.760527
20470.071330	-760.839833	1085.829102	191.412689
20470.071330	-760.839833	1084.684570	31.651978
20470.071330	-760.839833	1083.540039	-138.907440
20470.071330	-760.839833	1082.395508	-72.437515
20470.071330	-760.839833	1081.250000	-12.459676
20470.071330	-760.839833	1080.104492	-14.588493
20470.071330	-760.839833	1078.958984	-96.746864
20470.071330	-760.839833	1077.812500	75.019157
20470.071330	-760.839833	1076.666016	39.564976
20470.071330	-760.839833	1075.519531	190.940384
20470.071330	-760.839833	1074.373047	113.582870
20470.071330	-760.839833	1073.226563	162.732666
20470.071330	-760.839833	1072.079102	-65.916374
20470.071330	-760.839833	1070.931641	112.043327
20470.071330	-760.839833	1069.784180	-12.101092
20470.071330	-760.839833	1068.635742	97.377213
20470.071330	-760.839833	1067.487305	125.837250
20470.071330	-760.839833	1066.338867	123.321075
20470.071330	-760.839833	1065.190430	134.976196
20470.071330	-760.839833	1064.041992	99.809532
20470.071330	-760.839833	1062.892578	111.896194
20470.071330	-760.839833	1061.743164	202.324142
20470.071330	-760.839833	1060.593750	129.808334
20470.071330	-760.839833	1059.443359	226.967606
20470.071330	-760.839833	1058.292969	190.935120
20470.071330	-760.839833	1057.142578	29.369184
20470.071330	-760.839833	1055.992188	289.377350
20470.071330	-760.839833	1054.841797	12.615966
20470.071330	-760.839833	1053.690430	13.600076
20470.071330	-760.839833	1052.539063	-35.448887
20470.071330	-760.839833	1051.387695	64.295410
20470.071330	-760.839833	1050.235352	-154.535049
20470.071330	-760.839833	1049.083984	-7.841540
20470.071330	-760.839833	1047.931641	-183.421814
20470.071330	-760.839833	1046.778320	7.532684
20470.071330	-760.839833	1045.625977	86.038139
20470.071330	-760.839833	1044.472656	50.596169
20470.071330	-760.839833	1043.319336	97.296074
20470.071330	-760.839833	1042.166016	221.082397
20470.071330	-760.839833	1041.012695	135.497345
20470.071330	-760.839833	1039.858398	159.577576
20470.071330	-760.839833	1038.704102	140.588486
20470.071330	-760.839833	1037.549805	217.260788
20470.071330	-760.839833	1036.394531	27.479568
20470.071330	-760.839833	1035.239258	105.630592
20470.071330	-760.839833	1034.083984	-47.429451
20470.071330	-760.839833	1032.928711	13.481353
20470.071330	-760.839833	1031.773438	40.700180
20470.071330	-760.839833	1030.617188	-44.165565
20470.071330	-760.839833	1029.460938	150.829849
20470.071330	-760.839833	1028.304688	-71.718559
20470.071330	-760.839833	1027.147461	-87.649872
20470.071330	-760.839833	1025.991211	79.456085
20470.071330	-760.839833	1024.833984	-3.123144
20470.071330	-760.839833	1023.675781	-25.430441
20470.071330	-760.839833	1022.518555	-84.378181
20470.071330	-760.839833	1021.360352	122.370331
20470.071330	-760.839833	1020.202148	66.721413
20470.071330	-760.839833	1019.043945	13.325788
20470.071330	-760.839833	1017.884766	136.743256
20470.071330	-760.839833	1016.726563	68.959633
20470.071330	-760.839833	1015.567383	-187.513275
20470.071330	-760.839833	1014.407227	-62.633358
20470.071330	-760.839833	1013.248047	-121.813759
20470.071330	-760.839833	1012.087891	-72.756966
20470.071330	-760.839833	1010.927734	-313.494537
20470.071330	-760.839833	1009.767578	13.587203
20470.071330	-760.839833	1008.606445	-130.320648
20470.071330	-760.839833	1007.446289	42.518871
20470.071330	-760.839833	1006.285156	210.803024
20470.071330	-760.839833	1005.123047	100.562256
20470.071330	-760.839833	1003.961914	344.550537
20470.071330	-760.839833	1002.799805	391.544830
20470.071330	-760.839833	1001.637695	271.827637
20470.071330	-760.839833	1000.475586	113.725494
20470.071330	-760.839833	999.312500	68.255219
20470.071330	-760.839833	998.149414	48.640915
20470.071330	-760.839833	996.986328	14.068545
20470.071330	-760.839833	995.823242	-181.155823
20470.071330	-760.839833	994.659180	211.810547
20470.071330	-760.839833	993.496094	21.529472
20470.071330	-760.839833	992.332031	-91.223251
20470.071330	-760.839833	991.166992	-10.314571
20470.071330	-760.839833	990.002930	107.962250
20470.071330	-760.839833	988.837891	-155.173996
20470.071330	-760.839833	987.672852	-5.801322
20470.071330	-760.839833	986.506836	52.351280
20470.071330	-760.839833	985.341797	-108.013817
20470.071330	-760.839833	984.175781	205.712311
20470.071330	-760.839833	983.009766	-155.505127
20470.071330	-760.839833	981.843750	-89.066086
20470.071330	-760.839833	980.676758	-266.527954
20470.071330	-760.839833	979.509766	-16.075741
20470.071330	-760.839833	978.342773	-22.958015
20470.071330	-760.839833	977.175781	136.937973
20470.071330	-760.839833	976.007813	-25.385834
20470.071330	-760.839833	974.839844	-32.499935
20470.071330	-760.839833	973.671875	-88.255432
20470.071330	-760.839833	972.503906	42.936005
20470.071330	-760.839833	971.334961	-69.031326
20470.071330	-760.839833	970.166016	91.604355
20470.071330	-760.839833	968.997070	142.562241
20470.071330	-760.839833	967.828125	130.860382
20470.071330	-760.839833	966.658203	-123.253647
20470.071330	-760.839833	965.488281	-58.042252
20470.071330	-760.839833	964.318359	55.145412
20470.071330	-760.839833	963.148438	-139.919693
20470.071330	-760.839833	961.977539	-6.661090
20470.071330	-760.839833	960.806641	27.733246
20470.071330	-760.839833	959.635742	-82.247948
20470.071330	-760.839833	958.463867	-26.941437
20470.071330	-760.839833	957.292969	101.495605
20470.071330	-760.839833	956.121094	-105.581589
20470.071330	-760.839833	954.948242	98.381004
20470.071330	-760.839833	953.776367	-64.332077
20470.071330	-760.839833	952.603516	74.099922
20470.071330	-760.839833	951.430664	33.592960
20470.071330	-760.839833	950.257813	-122.120079
20470.071330	-760.839833	949.084961	283.909485
20470.071330	-760.839833	947.911133	-95.789375
20470.071330	-760.839833	946.737305	-146.860062
20470.071330	-760.839833	945.563477	-147.002319
20470.071330	-760.839833	944.388672	-139.920746
20470.071330	-760.839833	943.213867	102.787315
20470.071330	-760.839833	942.039063	-42.038837
20470.071330	-760.839833	940.864258	-16.251303
20470.071330	-760.839833	939.688477	234.893387
20470.071330	-760.839833	938.513672	209.817764
20470.071330	-760.839833	937.337891	334.688934
20470.071330	-760.839833	936.161133	234.855850
20470.071330	-760.839833	934.985352	359.702209
20470.071330	-760.839833	933.808594	358.466156
20470.071330	-760.839833	932.631836	333.273376
20470.071330	-760.839833	931.454102	337.655090
20470.071330	-760.839833	930.277344	651.727844
20470.071330	-760.839833	929.099609	669.060364
20470.071330	-760.839833	927.921875	502.040314
20470.071330	-760.839833	926.743164	559.435974
20470.071330	-760.839833	925.565430	536.628845
20470.071330	-760.839833	924.386719	404.263611
20470.071330	-760.839833	923.208008	234.501389
20470.071330	-760.839833	922.028320	30.048828
20470.071330	-760.839833	920.849609	196.676422
20470.071330	-760.839833	919.669922	200.350708
20470.071330	-760.839833	919.474609	241.030701
20470.071330	-760.839833	918.309570	116.557442
20470.071330	-760.839833	917.143555	85.462814
20470.071330	-760.839833	915.977539	-9.680637
20470.071330	-760.839833	914.810547	-272.831604
20470.071330	-760.839833	913.644531	26.635353
20470.071330	-760.839833	912.477539	163.333710
20470.071330	-760.839833	911.310547	-9.218553
20470.071330	-760.839833	910.143555	236.586334
20470.071330	-760.839833	908.975586	333.063873
20470.071330	-760.839833	907.807617	229.698013
20470.071330	-760.839833	906.639648	315.395294
20470.071330	-760.839833	905.471680	238.609192
20470.071330	-760.839833	904.303711	185.766769
20470.071330	-760.839833	903.134766	127.580795
20470.071330	-760.839833	901.965820	29.464060
20470.071330	-760.839833	900.796875	-58.015739
20470.071330	-760.839833	899.626953	144.402847
20470.071330	-760.839833	898.457031	118.010658
20470.071330	-760.839833	897.287109	338.835327
20470.071330	-760.839833	896.117188	179.427917
20470.071330	-760.839833	894.947266	134.315079
20470.071330	-760.839833	893.776367	264.540314
20470.071330	-760.839833	892.605469	89.182648
20470.071330	-760.839833	891.434570	256.463074
20470.071330	-760.839833	890.262695	171.379074
20470.071330	-760.839833	889.091797	266.812408
20470.071330	-760.839833	887.919922	433.832916
20470.071330	-760.839833	886.748047	234.533493
20470.071330	-760.839833	885.575195	101.605743
20470.071330	-760.839833	884.403320	194.162201
20470.071330	-760.839833	883.230469	241.557556
20470.071330	-760.839833	882.057617	2.528334
20470.071330	-760.839833	880.883789	84.329521
20470.071330	-760.839833	879.710938	73.289680
20470.071330	-760.839833	878.537109	99.314964
20470.071330	-760.839833	877.362305	130.591019
20470.071330	-760.839833	876.188477	442.590149
20470.071330	-760.839833	875.013672	158.560104
20470.071330	-760.839833	873.839844	59.946918
20470.071330	-760.839833	872.664063	-173.667206
20470.071330	-760.839833	871.489258	137.985489
20470.071330	-760.839833	870.313477	158.400513
20470.071330	-760.839833	869.138672	-30.232708
20470.071330	-760.839833	867.962891	32.453278
20470.071330	-760.839833	866.786133	-100.614731
20470.071330	-760.839833	865.610352	131.196243
20470.071330	-760.839833	864.433594	151.403824
20470.071330	-760.839833	863.256836	-13.434716
20470.071330	-760.839833	862.079102	-170.315018
20470.071330	-760.839833	860.902344	140.425415
20470.071330	-760.839833	859.724609	-143.277130
20470.071330	-760.839833	858.546875	122.365211
20470.071330	-760.839833	857.368164	-132.248856
20470.071330	-760.839833	856.190430	90.974083
20470.071330	-760.839833	855.011719	176.837219
20470.071330	-760.839833	853.833008	-14.418390
20470.071330	-760.839833	852.654297	287.672180
20470.071330	-760.839833	851.474609	220.360016
20470.071330	-760.839833	850.294922	324.437042
20470.071330	-760.839833	849.115234	-22.383823
20470.071330	-760.839833	847.935547	355.751984
20470.071330	-760.839833	846.754883	198.734039
20470.071330	-760.839833	845.575195	73.359352
20470.071330	-760.839833	844.393555	-33.558846
20470.071330	-760.839833	843.212891	-108.867943
20470.071330	-760.839833	842.032227	-55.160789
20470.071330	-760.839833	840.850586	-19.939568
20470.071330	-760.839833	839.668945	-37.410183
20470.071330	-760.839833	838.486328	81.927078
20470.071330	-760.839833	837.304688	-54.024960
20470.071330	-760.839833	836.122070	4.692091
20470.071330	-760.839833	834.939453	-33.956692
20470.071330	-760.839833	833.756836	-130.473312
20470.071330	-760.839833	832.573242	-290.076996
20470.071330	-760.839833	831.389648	-231.508621
20470.071330	-760.839833	830.206055	29.331329
20470.071330	-760.839833	829.022461	-130.320877
20470.071330	-760.839833	827.838867	-171.746567
20470.071330	-760.839833	826.654297	-76.636841
20470.071330	-760.839833	825.469727	-133.885788
20470.071330	-760.839833	824.284180	-73.023460
20470.071330	-760.839833	823.099609	-62.090683
20470.071330	-760.839833	821.914063	-124.669945
20470.071330	-760.839833	820.728516	67.205109
20470.071330	-760.839833	819.542969	-155.445145
20470.071330	-760.839833	818.356445	-47.633354
20470.071330	-760.839833	817.169922	-254.516144
20470.071330	-760.839833	815.983398	-267.382690
20470.071330	-760.839833	814.796875	-12.976349
20470.071330	-760.839833	813.609375	-75.749344
20470.071330	-760.839833	812.422852	-88.763489
20470.071330	-760.839833	811.235352	31.757471
20470.071330	-760.839833	810.046875	-70.383987
20470.071330	-760.839833	808.859375	10.733895
20470.071330	-760.839833	807.670898	-49.563023
20470.071330	-760.839833	806.482422	-28.753397
20470.071330	-760.839833	805.293945	-212.067886
20470.071330	-760.839833	804.104492	-188.700272
20470.071330	-760.839833	802.915039	25.530046
20470.071330	-760.839833	801.725586	338.989075
20470.071330	-760.839833	800.536133	-16.953270
20470.071330	-760.839833	799.345703	-95.744843
20470.071330	-760.839833	798.155273	-77.862152
20470.071330	-760.839833	796.964844	67.984604
20470.071330	-760.839833	795.774414	28.274693
20470.071330	-760.839833	794.583008	53.824764
20470.071330	-760.839833	793.392578	235.976318
20470.071330	-760.839833	792.200195	-135.394516
20470.071330	-760.839833	791.008789	36.192066
20470.071330	-760.839833	789.816406	90.243454
20470.071330	-760.839833	788.625000	52.921730
20470.071330	-760.839833	787.432617	65.125717
20470.071330	-760.839833	786.239258	147.686096
20470.071330	-760.839833	785.046875	89.381363
20470.071330	-760.839833	783.853516	117.071045
20470.071330	-760.839833	782.660156	-160.205338
20470.071330	-760.839833	781.465820	-43.982178
20470.071330	-760.839833	780.272461	-120.621315
20470.071330	-760.839833	779.078125	154.321442
20470.071330	-760.839833	777.883789	168.712860
20470.071330	-760.839833	776.688477	216.892441
20470.071330	-760.839833	775.494141	186.920486
20470.071330	-760.839833	774.298828	8.580717
20470.071330	-760.839833	773.103516	186.702942
20470.071330	-760.839833	771.907227	-72.299316
20470.071330	-760.839833	770.711914	-104.986534
20470.071330	-760.839833	769.515625	148.300659
20470.071330	-760.839833	768.318359	-69.091522
20470.071330	-760.839833	767.122070	233.362625
20470.071330	-760.839833	765.924805	197.833923
20470.071330	-760.839833	764.727539	110.309662
20470.071330	-760.839833	763.530273	118.872528
20470.071330	-760.839833	762.333008	213.076859
20470.071330	-760.839833	761.134766	-30.335091
20470.071330	-760.839833	759.936523	14.432714
20470.071330	-760.839833	758.738281	230.414108
20470.071330	-760.839833	757.540039	150.455429
20470.071330	-760.839833	756.340820	-64.422935
20470.071330	-760.839833	755.141602	195.366226
20470.071330	-760.839833	753.942383	-16.949877
20470.071330	-760.839833	752.742188	-11.461358
20470.071330	-760.839833	751.541992	201.330276
20470.071330	-760.839833	750.341797	-99.134911
20470.071330	-760.839833	749.141602	-70.484207
20470.071330	-760.839833	747.941406	77.255646
20470.071330	-760.839833	746.740234	162.716995
20470.071330	-760.839833	745.539063	136.744247
20470.071330	-760.839833	744.337891	12.350712
20470.071330	-760.839833	743.135742	53.595348
20470.071330	-760.839833	741.933594	81.823677
20470.071330	-760.839833	740.731445	-21.963682
20470.071330	-760.839833	739.529297	3.563007
20470.071330	-760.839833	738.326172	215.211533
20470.071330	-760.839833	737.124023	131.963837
20470.071330	-760.839833	735.919922	198.613983
20470.071330	-760.839833	734.716797	257.422913
20470.071330	-760.839833	733.513672	202.454178
20470.071330	-760.839833	732.309570	69.941170
20470.071330	-760.839833	731.105469	27.820642
20470.071330	-760.839833	729.900391	295.525055
20470.071330	-760.839833	728.696289	248.082993
20470.071330	-760.839833	727.491211	154.133072
20470.071330	-760.839833	726.286133	85.964836
20470.071330	-760.839833	725.080078	-196.394730
20470.071330	-760.839833	723.874023	6.261992
20470.071330	-760.839833	722.668945	152.032455
20470.071330	-760.839833	721.461914	88.810509
20470.071330	-760.839833	720.255859	-10.540510
20470.071330	-760.839833	719.048828	178.752121
20470.071330	-760.839833	717.841797	-132.017761
20470.071330	-760.839833	716.634766	-120.680565
20470.071330	-760.839833	715.427734	6.494889
20470.071330	-760.839833	714.219727	84.615227
20470.071330	-760.839833	713.011719	10.725479
20470.071330	-760.839833	711.803711	3.726727
20470.071330	-760.839833	710.594727	48.130745
20470.071330	-760.839833	709.385742	4.961244
20470.071330	-760.839833	708.176758	-156.597473
20470.071330	-760.839833	706.967773	-14.659905
20470.071330	-760.839833	705.758789	-34.856201
20470.071330	-760.839833	704.548828	-47.405296
20470.071330	-760.839833	703.338867	4.240263
20470.071330	-760.839833	702.127930	-108.683487
20470.071330	-760.839833	700.917969	-26.357367
20470.071330	-760.839833	699.707031	-105.976105
20470.071330	-760.839833	698.496094	-301.205872
20470.071330	-760.839833	697.285156	-34.236317
20470.071330	-760.839833	696.073242	-155.099213
20470.071330	-760.839833	694.861328	147.511124
20470.071330	-760.839833	693.649414	139.422653
20470.071330	-760.839833	692.436523	46.596626
20470.071330	-760.839833	691.224609	-18.044312
20470.071330	-760.839833	690.011719	86.519142
20470.071330	-760.839833	688.798828	103.790276
20470.071330	-760.839833	687.584961	126.103188
20470.071330	-760.839833	686.372070	120.144699
20470.071330	-760.839833	685.158203	44.926861
20470.071330	-760.839833	683.943359	115.682785
20470.071330	-760.839833	682.729492	268.298889
20470.071330	-760.839833	681.514648	218.475372
20470.071330	-760.839833	680.299805	186.518753
20470.071330	-760.839833	679.084961	436.058807
20470.071330	-760.839833	677.869141	298.990814
20470.071330	-760.839833	676.653320	504.751312
20470.071330	-760.839833	675.437500	306.183075
20470.071330	-760.839833	674.221680	353.140594
20470.071330	-760.839833	673.004883	384.655579
20470.071330	-760.839833	671.789063	505.560944
20470.071330	-760.839833	670.571289	447.418671
20470.071330	-760.839833	669.354492	448.001770
20470.071330	-760.839833	668.136719	599.235840
20470.071330	-760.839833	666.919922	477.032410
20470.071330	-760.839833	665.701172	561.642273
20470.071330	-760.839833	664.483398	372.958282
20470.071330	-760.839833	663.264648	577.376404
20470.071330	-760.839833	662.045898	291.631866
20470.071330	-760.839833	660.827148	457.555878
20470.071330	-760.839833	659.608398	521.294067
20470.071330	-760.839833	658.388672	378.334656
20470.071330	-760.839833	657.168945	475.054840
20470.071330	-760.839833	655.949219	444.188202
20470.071330	-760.839833	654.728516	372.471832
20470.071330	-760.839833	653.507813	346.580017
20470.071330	-760.839833	652.287109	132.088135
20470.071330	-760.839833	651.066406	228.375351
20470.071330	-760.839833	649.844727	319.447205
20470.071330	-760.839833	648.623047	397.676422
20470.071330	-760.839833	647.401367	394.336761
20470.071330	-760.839833	646.179688	375.655029
20470.071330	-760.839833	644.957031	463.771393
20470.071330	-760.839833	643.734375	310.095001
20470.071330	-760.839833	642.511719	237.802002
20470.071330	-760.839833	641.289063	15.433739
20470.071330	-760.839833	640.065430	296.473938
20470.071330	-760.839833	638.841797	122.331100
20470.071330	-760.839833	637.618164	34.593498
20470.071330	-760.839833	636.393555	233.923462
20470.071330	-760.839833	635.168945	74.923050
20470.071330	-760.839833	633.944336	80.998940
20470.071330	-760.839833	632.719727	236.813705
20470.071330	-760.839833	631.494141	334.095917
20470.071330	-760.839833	630.269531	532.798950
20470.071330	-760.839833	629.042969	492.802826
20470.071330	-760.839833	627.817383	346.207031
20470.071330	-760.839833	626.590820	430.417358
20470.071330	-760.839833	625.365234	182.324081
20470.071330	-760.839833	624.137695	312.027435
20470.071330	-760.839833	622.911133	279.385406
20470.071330	-760.839833	621.683594	251.751617
20470.071330	-760.839833	620.456055	198.726990
20470.071330	-760.839833	619.228516	274.854126
20470.071330	-760.839833	618.000977	310.361237
20470.071330	-760.839833	616.772461	203.979416
20470.071330	-760.839833	615.543945	46.946545
20470.071330	-760.839833	614.314453	241.732941
20470.071330	-760.839833	613.085938	325.037720
20470.071330	-760.839833	611.856445	256.435547
20470.071330	-760.839833	610.626953	220.686035
20470.071330	-760.839833	609.397461	288.578033
20470.071330	-760.839833	608.166992	265.350311
20470.071330	-760.839833	606.936523	-56.215939
20470.071330	-760.839833	605.706055	175.784439
20470.071330	-760.839833	604.474609	56.394749
20470.071330	-760.839833	603.244141	290.686005
20470.071330	-760.839833	602.012695	229.302643
20470.071330	-760.839833	600.780273	132.529572
20470.071330	-760.839833	599.548828	333.661713
20470.071330	-760.839833	598.316406	87.877510
20470.071330	-760.839833	597.083984	41.508465
20470.071330	-760.839833	595.851563	262.549652
20470.071330	-760.839833	594.618164	64.702377
20470.071330	-760.839833	593.384766	252.751495
20470.071330	-760.839833	592.151367	206.177414
20470.071330	-760.839833	590.917969	381.414703
20470.071330	-760.839833	589.683594	629.611877
20470.071330	-760.839833	588.449219	393.851776
20470.071330	-760.839833	587.214844	591.464539
20470.071330	-760.839833	585.979492	846.871033
20470.071330	-760.839833	584.745117	767.211914
20470.071330	-760.839833	583.509766	745.442322
20470.071330	-760.839833	582.273438	967.795593
20470.071330	-760.839833	581.038086	641.401794
20470.071330	-760.839833	579.801758	664.834106
20470.071330	-760.839833	578.565430	1007.689392
20470.071330	-760.839833	577.329102	711.553589
20470.071330	-760.839833	576.091797	518.591797
20470.071330	-760.839833	574.854492	129.592194
20470.071330	-760.839833	573.617188	235.860687
20470.071330	-760.839833	572.378906	583.276001
20470.071330	-760.839833	571.141602	480.816315
20470.071330	-760.839833	569.903320	328.125793
20470.071330	-760.839833	568.664063	401.473022
20470.071330	-760.839833	567.425781	231.231873
20470.071330	-760.839833	566.186523	106.209435
20470.071330	-760.839833	564.947266	174.455994
20470.071330	-760.839833	563.708008	199.994171
20470.071330	-760.839833	562.467773	253.082520
20470.071330	-760.839833	561.227539	135.580002
20470.071330	-760.839833	559.987305	266.347107
20470.071330	-760.839833	558.747070	204.003143
20470.071330	-760.839833	557.505859	-98.958984
20470.071330	-760.839833	556.264648	199.601929
20470.071330	-760.839833	555.023438	134.742691
20470.071330	-760.839833	553.781250	-80.402252
20470.071330	-760.839833	552.539063	-47.547108
20470.071330	-760.839833	551.296875	37.858070
20470.071330	-760.839833	550.054688	-254.768600
20470.071330	-760.839833	548.811523	60.856712
20470.071330	-760.839833	547.569336	43.563251
20470.071330	-760.839833	546.325195	-81.319283
20470.071330	-760.839833	545.082031	21.448997
20470.071330	-760.839833	543.837891	109.153336
20470.071330	-760.839833	542.593750	316.813873
20470.071330	-760.839833	541.349609	-18.000971
20470.071330	-760.839833	540.105469	184.591721
20470.071330	-760.839833	538.860352	364.599335
20470.071330	-760.839833	537.615234	-34.971767
20470.071330	-760.839833	536.369141	95.046951
20470.071330	-760.839833	535.124023	2.807828
20470.071330	-760.839833	533.877930	-249.159821
20470.071330	-760.839833	532.631836	-129.157318
20470.071330	-760.839833	531.384766	-263.719299
20470.071330	-760.839833	530.138672	-223.587143
20470.071330	-760.839833	528.891602	-273.262787
20470.071330	-760.839833	527.643555	-193.256119
20470.071330	-760.839833	526.396484	-1.081017
20470.071330	-760.839833	525.148438	21.520271
20470.071330	-760.839833	523.900391	-202.583847
20470.071330	-760.839833	522.652344	-37.920959
20470.071330	-760.839833	521.403320	173.998566
20470.071330	-760.839833	520.154297	32.207039
20470.071330	-760.839833	518.905273	189.266647
20470.071330	-760.839833	517.656250	62.491478
20470.071330	-760.839833	516.406250	-49.293983
20470.071330	-760.839833	515.156250	-248.106430
20470.071330	-760.839833	513.906250	-6.499094
20470.071330	-760.839833	512.655273	-55.988373
20470.071330	-760.839833	511.404297	23.862959
20470.071330	-760.839833	510.153320	-177.233795
20470.071330	-760.839833	508.902344	-94.875984
20470.071330	-760.839833	507.650391	-62.248108
20470.071330	-760.839833	506.398438	171.624893
20470.071330	-760.839833	505.146484	-34.246094
20470.071330	-760.839833	503.893555	-138.201920
20470.071330	-760.839833	502.641602	18.614206
20470.071330	-760.839833	501.388672	-157.264801
20470.071330	-760.839833	500.134766	207.973526
20470.071330	-760.839833	498.881836	-101.826981
20470.071330	-760.839833	497.627930	84.659454
20470.071330	-760.839833	496.374023	-160.474579
20470.071330	-760.839833	495.119141	159.868210
20470.071330	-760.839833	493.865234	71.038063
20470.071330	-760.839833	492.610352	150.797119
20470.071330	-760.839833	491.355469	-131.263351
20470.071330	-760.839833	490.099609	-101.028763
20470.071330	-760.839833	488.843750	85.256020
20470.071330	-760.839833	487.587891	-3.416660
20470.071330	-760.839833	486.332031	150.600723
20470.071330	-760.839833	485.075195	-106.363670
20470.071330	-760.839833	483.818359	-76.124443
20470.071330	-760.839833	482.561523	-55.788277
20470.071330	-760.839833	481.304688	-72.563477
20470.071330	-760.839833	480.046875	-247.623215
20470.071330	-760.839833	478.789063	-269.296204
20470.071330	-760.839833	477.531250	245.510635
20470.071330	-760.839833	476.272461	132.281097
20470.071330	-760.839833	475.013672	-143.996552
20470.071330	-760.839833	473.754883	-19.920919
20470.071330	-760.839833	472.496094	-130.562439
20470.071330	-760.839833	471.236328	-58.427086
20470.071330	-760.839833	469.976563	117.364540
20470.071330	-760.839833	468.716797	-72.266182
20470.071330	-760.839833	467.456055	-22.450636
20470.071330	-760.839833	466.196289	44.606106
20470.071330	-760.839833	464.935547	15.396504
20470.071330	-760.839833	463.673828	62.621620
20470.071330	-760.839833	462.413086	80.218597
20470.071330	-760.839833	461.151367	196.378586
20470.071330	-760.839833	459.889648	139.923248
20470.071330	-760.839833	458.626953	211.583359
20470.071330	-760.839833	457.364258	110.713501
20470.071330	-760.839833	456.101563	278.324371
20470.071330	-760.839833	454.838867	133.061295
20470.071330	-760.839833	453.575195	110.901268
20470.071330	-760.839833	452.312500	192.087189
20470.071330	-760.839833	451.047852	445.427277
20470.071330	-760.839833	449.784180	290.157562
20470.071330	-760.839833	448.519531	63.534184
20470.071330	-760.839833	447.254883	149.276779
20470.071330	-760.839833	445.990234	291.452179
20470.071330	-760.839833	444.725586	310.558716
20470.071330	-760.839833	443.459961	290.226654
20470.071330	-760.839833	442.194336	269.800995
20470.071330	-760.839833	440.927734	249.266922
20470.071330	-760.839833	439.662109	388.292236
20470.071330	-760.839833	438.395508	308.567871
20470.071330	-760.839833	437.127930	319.580658
20470.071330	-760.839833	435.861328	404.102844
20470.071330	-760.839833	434.593750	392.723358
20470.071330	-760.839833	433.326172	349.301849
20470.071330	-760.839833	432.058594	75.154541
20470.071330	-760.839833	430.790039	303.712097
20470.071330	-760.839833	429.521484	134.773117
20470.071330	-760.839833	428.252930	213.319061
20470.071330	-760.839833	426.984375	218.109528
20470.071330	-760.839833	425.714844	430.966034
20470.071330	-760.839833	424.445313	307.885773
20470.071330	-760.839833	423.174805	116.043907
20470.071330	-760.839833	421.905273	249.752502
20470.071330	-760.839833	420.634766	530.041748
20470.071330	-760.839833	419.364258	288.588013
20470.071330	-760.839833	418.092773	399.356384
20470.071330	-760.839833	416.822266	507.364258
20470.071330	-760.839833	415.550781	407.100952
20470.071330	-760.839833	414.278320	203.849564
20470.071330	-760.839833	413.006836	288.903229
20470.071330	-760.839833	411.734375	442.025208
20470.071330	-760.839833	410.461914	321.009033
20470.071330	-760.839833	409.188477	505.112610
20470.071330	-760.839833	407.916016	266.148132
20470.071330	-760.839833	406.642578	302.883148
20470.071330	-760.839833	405.368164	351.397827
20470.071330	-760.839833	404.094727	331.132874
20470.071330	-760.839833	402.820313	420.268860
20470.071330	-760.839833	401.545898	301.493073
20470.071330	-760.839833	400.270508	316.477356
20470.071330	-760.839833	398.996094	487.102936
20470.071330	-760.839833	397.720703	140.130844
20470.071330	-760.839833	396.444336	402.324677
20470.071330	-760.839833	395.168945	239.734497
20470.071330	-760.839833	393.892578	264.303253
20470.071330	-760.839833	392.616211	393.061401
20470.071330	-760.839833	391.339844	284.873413
20470.071330	-760.839833	390.062500	331.974487
20470.071330	-760.839833	388.785156	86.220100
20470.071330	-760.839833	387.507813	197.786713
20470.071330	-760.839833	386.229492	160.136063
20470.071330	-760.839833	384.951172	192.370575
20470.071330	-760.839833	383.672852	345.513733
20470.071330	-760.839833	382.394531	-66.465141
20470.071330	-760.839833	381.115234	347.768280
20470.071330	-760.839833	379.835938	160.492172
20470.071330	-760.839833	378.556641	6.509100
20470.071330	-760.839833	377.277344	238.157227
20470.071330	-760.839833	375.997070	4.730958
20470.071330	-760.839833	374.716797	127.597412
20470.071330	-760.839833	373.435547	106.165596
20470.071330	-760.839833	372.155273	149.374313
20470.071330	-760.839833	370.874023	33.757946
20470.071330	-760.839833	369.591797	65.200485
20470.071330	-760.839833	368.310547	42.230198
20470.071330	-760.839833	367.028320	141.891541
20470.071330	-760.839833	365.746094	114.276749
20470.071330	-760.839833	364.463867	5.511638
20470.071330	-760.839833	363.180664	-51.073792
20470.071330	-760.839833	361.897461	230.504684
20470.071330	-760.839833	360.614258	108.441071
20470.071330	-760.839833	359.330078	232.248901
20470.071330	-760.839833	358.045898	-11.082227
20470.071330	-760.839833	356.761719	156.048676
20470.071330	-760.839833	355.477539	210.343430
20470.071330	-760.839833	354.192383	28.337730
20470.071330	-760.839833	352.907227	-72.767021
20470.071330	-760.839833	351.622070	47.281376
20470.071330	-760.839833	350.336914	49.611317
20470.071330	-760.839833	349.050781	241.381516
20470.071330	-760.839833	347.764648	34.870716
20470.071330	-760.839833	346.477539	87.827164
20470.071330	-760.839833	345.191406	59.327095
20470.071330	-760.839833	343.904297	123.273270
20470.071330	-760.839833	342.616211	76.611107
20470.071330	-760.839833	341.329102	-203.722473
20470.071330	-760.839833	340.041016	154.070724
20470.071330	-760.839833	338.752930	-9.345083
20470.071330	-760.839833	337.463867	88.361832
20470.071330	-760.839833	336.175781	-74.199753
20470.071330	-760.839833	334.886719	-279.874176
20470.071330	-760.839833	333.596680	-229.563263
20470.071330	-760.839833	332.307617	-207.958405
20470.071330	-760.839833	331.017578	-338.192017
20470.071330	-760.839833	329.727539	-58.461475
20470.071330	-760.839833	328.436523	-31.965433
20470.071330	-760.839833	327.146484	-39.178738
20470.071330	-760.839833	325.855469	-321.195404
20470.071330	-760.839833	324.563477	-246.841461
20470.071330	-760.839833	323.272461	-413.470612
20470.071330	-760.839833	321.980469	-84.424065
20470.071330	-760.839833	320.688477	-227.646225
20470.071330	-760.839833	319.395508	-154.712860
20470.071330	-760.839833	318.103516	64.557350
20470.071330	-760.839833	316.810547	-157.098434
20470.071330	-760.839833	315.516602	149.724854
20470.071330	-760.839833	314.223633	83.128181
20470.071330	-760.839833	312.929688	116.673317
20470.071330	-760.839833	311.635742	307.990570
20470.071330	-760.839833	310.340820	-25.602755
20470.071330	-760.839833	309.045898	-102.989952
20470.071330	-760.839833	307.750977	407.027893
20470.071330	-760.839833	306.456055	411.415985
20470.071330	-760.839833	305.160156	344.848846
20470.071330	-760.839833	303.865234	377.923553
20470.071330	-760.839833	302.568359	543.750183
20470.071330	-760.839833	301.272461	772.922546
20470.071330	-760.839833	299.975586	1199.399780
20470.071330	-760.839833	298.678711	938.177490
