#X		#Y		#Wave		#Intensity
20392.455053	-1238.122167	1999.980469	76.741631
20392.455053	-1238.122167	1999.016602	10.158926
20392.455053	-1238.122167	1998.052734	-95.572914
20392.455053	-1238.122167	1997.087891	36.344429
20392.455053	-1238.122167	1996.123047	51.475620
20392.455053	-1238.122167	1995.158203	48.983135
20392.455053	-1238.122167	1994.193359	14.024369
20392.455053	-1238.122167	1993.228516	189.303406
20392.455053	-1238.122167	1992.262695	158.774506
20392.455053	-1238.122167	1991.297852	-18.036327
20392.455053	-1238.122167	1990.332031	-204.913361
20392.455053	-1238.122167	1989.366211	-280.598877
20392.455053	-1238.122167	1988.399414	-131.340454
20392.455053	-1238.122167	1987.433594	-54.084503
20392.455053	-1238.122167	1986.466797	-115.552353
20392.455053	-1238.122167	1985.500977	82.427254
20392.455053	-1238.122167	1984.534180	124.399414
20392.455053	-1238.122167	1983.567383	-43.922745
20392.455053	-1238.122167	1982.599609	-88.796745
20392.455053	-1238.122167	1981.632813	-10.285776
20392.455053	-1238.122167	1980.665039	21.096514
20392.455053	-1238.122167	1979.697266	77.008705
20392.455053	-1238.122167	1978.729492	112.993225
20392.455053	-1238.122167	1977.761719	32.777901
20392.455053	-1238.122167	1976.792969	315.322144
20392.455053	-1238.122167	1975.825195	128.701385
20392.455053	-1238.122167	1974.856445	-3.692446
20392.455053	-1238.122167	1973.887695	90.815849
20392.455053	-1238.122167	1972.918945	5.105739
20392.455053	-1238.122167	1971.949219	-127.543396
20392.455053	-1238.122167	1970.980469	-48.195187
20392.455053	-1238.122167	1970.010742	-89.778938
20392.455053	-1238.122167	1969.041016	70.672485
20392.455053	-1238.122167	1968.071289	102.823051
20392.455053	-1238.122167	1967.101563	115.163727
20392.455053	-1238.122167	1966.130859	-239.638763
20392.455053	-1238.122167	1965.161133	191.306442
20392.455053	-1238.122167	1964.190430	112.271301
20392.455053	-1238.122167	1963.219727	195.691513
20392.455053	-1238.122167	1962.249023	138.702011
20392.455053	-1238.122167	1961.277344	160.426559
20392.455053	-1238.122167	1960.306641	233.760056
20392.455053	-1238.122167	1959.334961	-123.533615
20392.455053	-1238.122167	1958.363281	-40.444759
20392.455053	-1238.122167	1957.391602	131.101410
20392.455053	-1238.122167	1956.419922	17.308449
20392.455053	-1238.122167	1955.447266	36.268944
20392.455053	-1238.122167	1954.474609	3.566600
20392.455053	-1238.122167	1953.501953	54.395889
20392.455053	-1238.122167	1952.529297	78.146500
20392.455053	-1238.122167	1951.556641	92.031258
20392.455053	-1238.122167	1950.583984	54.304886
20392.455053	-1238.122167	1949.610352	14.109967
20392.455053	-1238.122167	1948.636719	126.132370
20392.455053	-1238.122167	1947.663086	-51.568779
20392.455053	-1238.122167	1946.689453	87.384903
20392.455053	-1238.122167	1945.715820	108.486923
20392.455053	-1238.122167	1944.741211	1.990680
20392.455053	-1238.122167	1943.767578	25.530722
20392.455053	-1238.122167	1942.792969	-90.740143
20392.455053	-1238.122167	1941.818359	6.352728
20392.455053	-1238.122167	1940.842773	15.146337
20392.455053	-1238.122167	1939.868164	-169.702576
20392.455053	-1238.122167	1938.892578	96.435020
20392.455053	-1238.122167	1937.916992	63.549847
20392.455053	-1238.122167	1936.941406	101.721619
20392.455053	-1238.122167	1935.965820	12.520177
20392.455053	-1238.122167	1934.990234	53.144226
20392.455053	-1238.122167	1934.013672	34.997646
20392.455053	-1238.122167	1933.037109	131.916504
20392.455053	-1238.122167	1932.060547	89.304367
20392.455053	-1238.122167	1931.083984	125.020767
20392.455053	-1238.122167	1930.107422	-12.968362
20392.455053	-1238.122167	1929.129883	47.236671
20392.455053	-1238.122167	1928.153320	46.293556
20392.455053	-1238.122167	1927.175781	38.027916
20392.455053	-1238.122167	1926.198242	-58.230576
20392.455053	-1238.122167	1925.219727	-61.557007
20392.455053	-1238.122167	1924.242188	59.771370
20392.455053	-1238.122167	1923.263672	-29.060558
20392.455053	-1238.122167	1922.285156	62.934792
20392.455053	-1238.122167	1921.306641	5.922996
20392.455053	-1238.122167	1920.328125	149.195557
20392.455053	-1238.122167	1919.349609	-15.200243
20392.455053	-1238.122167	1918.370117	-174.633667
20392.455053	-1238.122167	1917.391602	22.343922
20392.455053	-1238.122167	1916.412109	94.817726
20392.455053	-1238.122167	1915.431641	37.979431
20392.455053	-1238.122167	1914.452148	-70.039948
20392.455053	-1238.122167	1913.472656	0.033647
20392.455053	-1238.122167	1912.492188	-93.268845
20392.455053	-1238.122167	1911.511719	96.279633
20392.455053	-1238.122167	1910.531250	68.847038
20392.455053	-1238.122167	1909.550781	-14.604751
20392.455053	-1238.122167	1908.569336	50.621132
20392.455053	-1238.122167	1907.588867	15.966619
20392.455053	-1238.122167	1906.607422	220.033478
20392.455053	-1238.122167	1905.625977	165.918503
20392.455053	-1238.122167	1904.644531	-85.367798
20392.455053	-1238.122167	1903.662109	74.846939
20392.455053	-1238.122167	1902.680664	-115.443993
20392.455053	-1238.122167	1901.698242	-28.245241
20392.455053	-1238.122167	1900.715820	-55.405609
20392.455053	-1238.122167	1899.733398	9.894804
20392.455053	-1238.122167	1898.750000	-138.825989
20392.455053	-1238.122167	1897.767578	-182.916870
20392.455053	-1238.122167	1896.784180	125.529663
20392.455053	-1238.122167	1895.800781	-59.537590
20392.455053	-1238.122167	1894.817383	-13.654340
20392.455053	-1238.122167	1893.833984	-55.242077
20392.455053	-1238.122167	1892.850586	-4.487936
20392.455053	-1238.122167	1891.866211	-55.748993
20392.455053	-1238.122167	1890.881836	-46.268082
20392.455053	-1238.122167	1889.897461	67.620132
20392.455053	-1238.122167	1888.913086	-63.692482
20392.455053	-1238.122167	1887.927734	21.056091
20392.455053	-1238.122167	1886.943359	-127.161369
20392.455053	-1238.122167	1885.958008	-117.620911
20392.455053	-1238.122167	1884.972656	-28.028454
20392.455053	-1238.122167	1883.987305	46.987251
20392.455053	-1238.122167	1883.001953	-96.241615
20392.455053	-1238.122167	1882.015625	49.075218
20392.455053	-1238.122167	1881.029297	-65.002663
20392.455053	-1238.122167	1880.042969	-108.755447
20392.455053	-1238.122167	1879.056641	-55.572693
20392.455053	-1238.122167	1878.070313	-108.994392
20392.455053	-1238.122167	1877.083984	2.301780
20392.455053	-1238.122167	1876.096680	-135.861740
20392.455053	-1238.122167	1875.109375	18.977812
20392.455053	-1238.122167	1874.122070	147.131989
20392.455053	-1238.122167	1873.134766	50.160339
20392.455053	-1238.122167	1872.146484	-129.049316
20392.455053	-1238.122167	1871.159180	-61.428898
20392.455053	-1238.122167	1870.170898	90.817711
20392.455053	-1238.122167	1869.182617	-117.332130
20392.455053	-1238.122167	1868.194336	-40.098198
20392.455053	-1238.122167	1867.205078	49.184597
20392.455053	-1238.122167	1866.216797	-62.184231
20392.455053	-1238.122167	1865.227539	24.634319
20392.455053	-1238.122167	1864.238281	-74.629478
20392.455053	-1238.122167	1863.249023	166.736206
20392.455053	-1238.122167	1862.259766	16.739107
20392.455053	-1238.122167	1861.269531	-263.611084
20392.455053	-1238.122167	1860.279297	50.038998
20392.455053	-1238.122167	1859.290039	-29.896713
20392.455053	-1238.122167	1858.298828	-146.021805
20392.455053	-1238.122167	1857.308594	8.125503
20392.455053	-1238.122167	1856.318359	29.508970
20392.455053	-1238.122167	1855.327148	-55.264156
20392.455053	-1238.122167	1854.335938	72.187874
20392.455053	-1238.122167	1853.344727	110.359085
20392.455053	-1238.122167	1852.353516	8.675143
20392.455053	-1238.122167	1851.362305	138.382019
20392.455053	-1238.122167	1850.370117	80.052689
20392.455053	-1238.122167	1849.377930	185.550415
20392.455053	-1238.122167	1848.385742	50.095821
20392.455053	-1238.122167	1847.393555	-22.720404
20392.455053	-1238.122167	1846.401367	-107.578041
20392.455053	-1238.122167	1845.408203	67.569351
20392.455053	-1238.122167	1844.415039	131.895767
20392.455053	-1238.122167	1843.421875	75.835678
20392.455053	-1238.122167	1842.428711	58.258133
20392.455053	-1238.122167	1841.435547	81.548782
20392.455053	-1238.122167	1840.441406	1.366240
20392.455053	-1238.122167	1839.448242	-40.345272
20392.455053	-1238.122167	1838.454102	-91.700127
20392.455053	-1238.122167	1837.459961	-63.748680
20392.455053	-1238.122167	1836.464844	31.443909
20392.455053	-1238.122167	1835.470703	-60.870186
20392.455053	-1238.122167	1834.475586	-71.509727
20392.455053	-1238.122167	1833.480469	-70.180168
20392.455053	-1238.122167	1832.485352	168.860657
20392.455053	-1238.122167	1831.490234	-10.033775
20392.455053	-1238.122167	1830.495117	-80.877144
20392.455053	-1238.122167	1829.499023	-50.935059
20392.455053	-1238.122167	1828.502930	31.740602
20392.455053	-1238.122167	1827.506836	102.338333
20392.455053	-1238.122167	1826.510742	96.092522
20392.455053	-1238.122167	1825.513672	190.528412
20392.455053	-1238.122167	1824.517578	73.855339
20392.455053	-1238.122167	1823.520508	84.237968
20392.455053	-1238.122167	1822.523438	58.605259
20392.455053	-1238.122167	1821.526367	224.654541
20392.455053	-1238.122167	1820.529297	-167.723465
20392.455053	-1238.122167	1819.531250	29.331154
20392.455053	-1238.122167	1818.533203	-130.642029
20392.455053	-1238.122167	1817.535156	147.635437
20392.455053	-1238.122167	1816.537109	248.564026
20392.455053	-1238.122167	1815.539063	64.516968
20392.455053	-1238.122167	1814.540039	141.359802
20392.455053	-1238.122167	1813.541992	24.279785
20392.455053	-1238.122167	1812.542969	57.907265
20392.455053	-1238.122167	1811.543945	89.063538
20392.455053	-1238.122167	1810.543945	127.314171
20392.455053	-1238.122167	1809.544922	14.841097
20392.455053	-1238.122167	1808.544922	74.472458
20392.455053	-1238.122167	1807.544922	129.232010
20392.455053	-1238.122167	1806.544922	112.205933
20392.455053	-1238.122167	1805.544922	-122.319359
20392.455053	-1238.122167	1804.544922	-24.763514
20392.455053	-1238.122167	1803.543945	48.795109
20392.455053	-1238.122167	1802.542969	43.447067
20392.455053	-1238.122167	1801.541992	150.245407
20392.455053	-1238.122167	1800.541016	-12.817319
20392.455053	-1238.122167	1799.539063	-66.108788
20392.455053	-1238.122167	1798.538086	-19.230560
20392.455053	-1238.122167	1797.536133	101.509384
20392.455053	-1238.122167	1796.534180	172.035126
20392.455053	-1238.122167	1795.532227	-7.953715
20392.455053	-1238.122167	1794.529297	210.240356
20392.455053	-1238.122167	1793.527344	11.083956
20392.455053	-1238.122167	1792.524414	-47.453232
20392.455053	-1238.122167	1791.521484	103.662682
20392.455053	-1238.122167	1790.518555	-16.977964
20392.455053	-1238.122167	1789.514648	52.915764
20392.455053	-1238.122167	1788.511719	141.760529
20392.455053	-1238.122167	1787.507813	-136.229553
20392.455053	-1238.122167	1786.503906	-16.601162
20392.455053	-1238.122167	1785.500000	-4.217035
20392.455053	-1238.122167	1784.496094	19.980064
20392.455053	-1238.122167	1783.491211	124.979919
20392.455053	-1238.122167	1782.486328	-15.180802
20392.455053	-1238.122167	1781.481445	111.024902
20392.455053	-1238.122167	1780.476563	-7.846643
20392.455053	-1238.122167	1779.471680	32.545063
20392.455053	-1238.122167	1778.465820	44.303745
20392.455053	-1238.122167	1777.460938	-29.585625
20392.455053	-1238.122167	1776.455078	119.834648
20392.455053	-1238.122167	1775.449219	88.546234
20392.455053	-1238.122167	1774.442383	59.552990
20392.455053	-1238.122167	1773.436523	-14.634007
20392.455053	-1238.122167	1772.429688	-74.638702
20392.455053	-1238.122167	1771.422852	-13.632359
20392.455053	-1238.122167	1770.416016	-35.813370
20392.455053	-1238.122167	1769.409180	-233.684814
20392.455053	-1238.122167	1768.402344	80.930916
20392.455053	-1238.122167	1767.394531	165.225677
20392.455053	-1238.122167	1766.386719	-16.240795
20392.455053	-1238.122167	1765.378906	60.750153
20392.455053	-1238.122167	1764.371094	-78.128693
20392.455053	-1238.122167	1763.362305	145.626785
20392.455053	-1238.122167	1762.354492	18.456394
20392.455053	-1238.122167	1761.345703	19.194529
20392.455053	-1238.122167	1760.336914	-89.134644
20392.455053	-1238.122167	1759.328125	46.457176
20392.455053	-1238.122167	1758.318359	49.283325
20392.455053	-1238.122167	1757.308594	14.134880
20392.455053	-1238.122167	1756.299805	-32.918419
20392.455053	-1238.122167	1755.290039	-25.612432
20392.455053	-1238.122167	1754.279297	54.951130
20392.455053	-1238.122167	1753.269531	215.844589
20392.455053	-1238.122167	1752.258789	135.301376
20392.455053	-1238.122167	1751.249023	5.041638
20392.455053	-1238.122167	1750.238281	70.994781
20392.455053	-1238.122167	1749.226563	-101.950592
20392.455053	-1238.122167	1748.215820	-177.999573
20392.455053	-1238.122167	1747.204102	-41.425327
20392.455053	-1238.122167	1746.193359	-44.387676
20392.455053	-1238.122167	1745.181641	2.163140
20392.455053	-1238.122167	1744.168945	24.982021
20392.455053	-1238.122167	1743.157227	123.278839
20392.455053	-1238.122167	1742.144531	287.549194
20392.455053	-1238.122167	1741.132813	147.170319
20392.455053	-1238.122167	1740.120117	110.592606
20392.455053	-1238.122167	1739.106445	-15.731721
20392.455053	-1238.122167	1738.093750	-52.437599
20392.455053	-1238.122167	1737.080078	42.864388
20392.455053	-1238.122167	1736.067383	199.367752
20392.455053	-1238.122167	1735.053711	-101.700485
20392.455053	-1238.122167	1734.040039	137.100449
20392.455053	-1238.122167	1733.025391	10.391823
20392.455053	-1238.122167	1732.011719	-7.944654
20392.455053	-1238.122167	1730.997070	6.616298
20392.455053	-1238.122167	1729.982422	32.865429
20392.455053	-1238.122167	1728.967773	51.956539
20392.455053	-1238.122167	1727.952148	75.657082
20392.455053	-1238.122167	1726.937500	-157.334000
20392.455053	-1238.122167	1725.921875	-9.016526
20392.455053	-1238.122167	1724.906250	37.970039
20392.455053	-1238.122167	1723.890625	-91.607147
20392.455053	-1238.122167	1722.875000	-54.193821
20392.455053	-1238.122167	1721.858398	147.753479
20392.455053	-1238.122167	1720.841797	114.391556
20392.455053	-1238.122167	1719.825195	-83.611046
20392.455053	-1238.122167	1718.808594	21.614481
20392.455053	-1238.122167	1717.791992	183.125397
20392.455053	-1238.122167	1716.774414	182.356476
20392.455053	-1238.122167	1715.756836	129.828201
20392.455053	-1238.122167	1714.739258	105.428940
20392.455053	-1238.122167	1713.721680	-3.576950
20392.455053	-1238.122167	1712.704102	-68.005180
20392.455053	-1238.122167	1711.685547	-40.942738
20392.455053	-1238.122167	1710.667969	-28.034880
20392.455053	-1238.122167	1709.649414	-12.868434
20392.455053	-1238.122167	1708.630859	23.335466
20392.455053	-1238.122167	1707.611328	150.924194
20392.455053	-1238.122167	1706.592773	-106.211784
20392.455053	-1238.122167	1705.573242	190.035553
20392.455053	-1238.122167	1704.553711	19.581104
20392.455053	-1238.122167	1703.534180	219.454987
20392.455053	-1238.122167	1702.513672	70.003326
20392.455053	-1238.122167	1701.494141	117.363373
20392.455053	-1238.122167	1700.473633	150.573257
20392.455053	-1238.122167	1699.453125	-15.371688
20392.455053	-1238.122167	1698.432617	-38.478409
20392.455053	-1238.122167	1697.412109	109.266647
20392.455053	-1238.122167	1696.390625	-124.657837
20392.455053	-1238.122167	1695.369141	-30.916389
20392.455053	-1238.122167	1694.347656	8.911797
20392.455053	-1238.122167	1693.326172	174.991684
20392.455053	-1238.122167	1692.304688	200.612289
20392.455053	-1238.122167	1691.282227	78.829208
20392.455053	-1238.122167	1690.260742	34.201908
20392.455053	-1238.122167	1689.238281	181.203949
20392.455053	-1238.122167	1688.214844	117.740448
20392.455053	-1238.122167	1687.192383	161.746170
20392.455053	-1238.122167	1686.168945	259.401428
20392.455053	-1238.122167	1685.146484	60.334614
20392.455053	-1238.122167	1684.123047	78.466087
20392.455053	-1238.122167	1683.099609	215.618378
20392.455053	-1238.122167	1682.075195	287.291107
20392.455053	-1238.122167	1681.051758	365.901062
20392.455053	-1238.122167	1680.027344	197.066605
20392.455053	-1238.122167	1679.002930	333.882904
20392.455053	-1238.122167	1677.978516	388.958405
20392.455053	-1238.122167	1676.953125	285.366791
20392.455053	-1238.122167	1675.928711	326.350494
20392.455053	-1238.122167	1674.903320	199.410324
20392.455053	-1238.122167	1673.877930	328.869232
20392.455053	-1238.122167	1672.852539	369.681396
20392.455053	-1238.122167	1671.826172	466.344208
20392.455053	-1238.122167	1670.800781	646.805542
20392.455053	-1238.122167	1669.774414	361.338348
20392.455053	-1238.122167	1668.748047	553.304871
20392.455053	-1238.122167	1667.721680	591.504028
20392.455053	-1238.122167	1666.694336	613.347168
20392.455053	-1238.122167	1665.667969	581.635010
20392.455053	-1238.122167	1664.640625	722.071899
20392.455053	-1238.122167	1663.613281	580.935303
20392.455053	-1238.122167	1662.585938	618.916687
20392.455053	-1238.122167	1661.557617	828.924500
20392.455053	-1238.122167	1660.530273	676.136597
20392.455053	-1238.122167	1659.501953	981.302002
20392.455053	-1238.122167	1658.473633	858.690613
20392.455053	-1238.122167	1657.444336	975.425415
20392.455053	-1238.122167	1656.416016	1106.041992
20392.455053	-1238.122167	1655.386719	953.197449
20392.455053	-1238.122167	1654.358398	700.544678
20392.455053	-1238.122167	1653.328125	840.336243
20392.455053	-1238.122167	1652.298828	922.032837
20392.455053	-1238.122167	1651.269531	971.186218
20392.455053	-1238.122167	1650.239258	753.433044
20392.455053	-1238.122167	1649.208984	691.191711
20392.455053	-1238.122167	1648.178711	844.683167
20392.455053	-1238.122167	1647.148438	1079.272827
20392.455053	-1238.122167	1646.117188	866.234985
20392.455053	-1238.122167	1645.086914	1163.298950
20392.455053	-1238.122167	1644.055664	973.485840
20392.455053	-1238.122167	1643.024414	1047.915405
20392.455053	-1238.122167	1641.992188	1071.324707
20392.455053	-1238.122167	1640.960938	1124.845459
20392.455053	-1238.122167	1639.928711	1150.534912
20392.455053	-1238.122167	1638.896484	1053.485474
20392.455053	-1238.122167	1637.864258	1255.120972
20392.455053	-1238.122167	1636.832031	1063.183105
20392.455053	-1238.122167	1635.798828	1264.723389
20392.455053	-1238.122167	1634.766602	880.816956
20392.455053	-1238.122167	1633.733398	1507.968262
20392.455053	-1238.122167	1632.699219	1417.876831
20392.455053	-1238.122167	1631.666016	1468.895874
20392.455053	-1238.122167	1630.632813	1510.652344
20392.455053	-1238.122167	1629.598633	1279.626831
20392.455053	-1238.122167	1628.564453	1342.206299
20392.455053	-1238.122167	1627.530273	1411.701782
20392.455053	-1238.122167	1626.495117	1575.885620
20392.455053	-1238.122167	1625.460938	1557.562012
20392.455053	-1238.122167	1624.425781	1458.420532
20392.455053	-1238.122167	1623.390625	1350.096191
20392.455053	-1238.122167	1622.355469	1311.081543
20392.455053	-1238.122167	1621.319336	1424.408813
20392.455053	-1238.122167	1620.284180	1480.035522
20392.455053	-1238.122167	1619.248047	1542.568115
20392.455053	-1238.122167	1618.211914	1609.709106
20392.455053	-1238.122167	1617.174805	1441.608154
20392.455053	-1238.122167	1616.138672	1543.371826
20392.455053	-1238.122167	1615.101563	1483.741699
20392.455053	-1238.122167	1614.065430	1557.849609
20392.455053	-1238.122167	1613.027344	1634.233276
20392.455053	-1238.122167	1611.990234	1498.669922
20392.455053	-1238.122167	1610.953125	1724.828613
20392.455053	-1238.122167	1609.915039	1575.528442
20392.455053	-1238.122167	1608.876953	1603.614014
20392.455053	-1238.122167	1607.838867	1776.752441
20392.455053	-1238.122167	1606.800781	1673.658813
20392.455053	-1238.122167	1605.761719	1773.133667
20392.455053	-1238.122167	1604.723633	1824.301147
20392.455053	-1238.122167	1603.684570	1843.269897
20392.455053	-1238.122167	1602.644531	1726.565674
20392.455053	-1238.122167	1601.605469	1924.977417
20392.455053	-1238.122167	1600.566406	1996.909302
20392.455053	-1238.122167	1599.526367	2022.872803
20392.455053	-1238.122167	1598.486328	1740.928101
20392.455053	-1238.122167	1597.446289	1702.684692
20392.455053	-1238.122167	1596.405273	1829.885742
20392.455053	-1238.122167	1595.365234	1876.709473
20392.455053	-1238.122167	1594.324219	1990.143188
20392.455053	-1238.122167	1593.283203	2027.818848
20392.455053	-1238.122167	1592.242188	1826.810913
20392.455053	-1238.122167	1591.200195	1993.108887
20392.455053	-1238.122167	1590.159180	1762.460693
20392.455053	-1238.122167	1589.117188	1800.346313
20392.455053	-1238.122167	1588.075195	2067.628906
20392.455053	-1238.122167	1587.032227	1830.361816
20392.455053	-1238.122167	1585.990234	1953.207397
20392.455053	-1238.122167	1584.947266	1888.087524
20392.455053	-1238.122167	1583.904297	1875.763672
20392.455053	-1238.122167	1582.861328	1838.299438
20392.455053	-1238.122167	1581.818359	1686.366577
20392.455053	-1238.122167	1580.775391	1706.338379
20392.455053	-1238.122167	1579.731445	1437.816284
20392.455053	-1238.122167	1578.687500	1954.775146
20392.455053	-1238.122167	1577.643555	1784.870483
20392.455053	-1238.122167	1576.598633	1683.746704
20392.455053	-1238.122167	1575.554688	1694.861938
20392.455053	-1238.122167	1574.509766	1712.895020
20392.455053	-1238.122167	1573.464844	1367.309937
20392.455053	-1238.122167	1572.419922	1694.264771
20392.455053	-1238.122167	1571.374023	1481.561768
20392.455053	-1238.122167	1570.329102	1698.784180
20392.455053	-1238.122167	1569.283203	1520.593018
20392.455053	-1238.122167	1568.237305	1385.963379
20392.455053	-1238.122167	1567.191406	1377.115112
20392.455053	-1238.122167	1566.144531	1395.747192
20392.455053	-1238.122167	1565.098633	1446.432251
20392.455053	-1238.122167	1564.051758	1323.637695
20392.455053	-1238.122167	1563.004883	1246.628296
20392.455053	-1238.122167	1561.957031	1486.968628
20392.455053	-1238.122167	1560.910156	1241.257202
20392.455053	-1238.122167	1559.862305	1550.113281
20392.455053	-1238.122167	1558.814453	1685.573730
20392.455053	-1238.122167	1557.766602	1538.275269
20392.455053	-1238.122167	1556.718750	1409.361328
20392.455053	-1238.122167	1555.669922	1590.610718
20392.455053	-1238.122167	1554.621094	1534.837280
20392.455053	-1238.122167	1553.573242	1353.849854
20392.455053	-1238.122167	1552.523438	1649.176758
20392.455053	-1238.122167	1551.474609	1762.256226
20392.455053	-1238.122167	1550.424805	1772.888550
20392.455053	-1238.122167	1549.375000	1685.697754
20392.455053	-1238.122167	1548.325195	1489.361450
20392.455053	-1238.122167	1547.275391	1457.073730
20392.455053	-1238.122167	1546.225586	1663.836426
20392.455053	-1238.122167	1545.174805	1702.240601
20392.455053	-1238.122167	1544.124023	1724.802368
20392.455053	-1238.122167	1543.073242	1747.452148
20392.455053	-1238.122167	1542.022461	1640.582397
20392.455053	-1238.122167	1540.970703	1422.448486
20392.455053	-1238.122167	1539.919922	1381.798584
20392.455053	-1238.122167	1538.868164	1166.275024
20392.455053	-1238.122167	1537.815430	1100.884399
20392.455053	-1238.122167	1536.763672	1255.976929
20392.455053	-1238.122167	1535.710938	1165.817505
20392.455053	-1238.122167	1534.659180	1039.473389
20392.455053	-1238.122167	1533.606445	1183.437378
20392.455053	-1238.122167	1532.552734	1111.810059
20392.455053	-1238.122167	1531.500000	1085.710938
20392.455053	-1238.122167	1530.446289	1145.941895
20392.455053	-1238.122167	1529.393555	979.414978
20392.455053	-1238.122167	1528.338867	1092.015625
20392.455053	-1238.122167	1527.285156	803.325500
20392.455053	-1238.122167	1526.231445	895.737732
20392.455053	-1238.122167	1525.176758	673.146973
20392.455053	-1238.122167	1524.122070	693.242981
20392.455053	-1238.122167	1523.067383	586.557556
20392.455053	-1238.122167	1522.012695	475.496613
20392.455053	-1238.122167	1520.957031	625.047791
20392.455053	-1238.122167	1519.901367	509.713989
20392.455053	-1238.122167	1518.845703	204.364853
20392.455053	-1238.122167	1517.790039	374.594604
20392.455053	-1238.122167	1516.734375	323.089355
20392.455053	-1238.122167	1515.677734	475.352905
20392.455053	-1238.122167	1514.621094	299.653168
20392.455053	-1238.122167	1513.564453	393.288422
20392.455053	-1238.122167	1512.507813	258.612671
20392.455053	-1238.122167	1511.450195	291.406525
20392.455053	-1238.122167	1510.393555	306.227356
20392.455053	-1238.122167	1509.335938	359.576538
20392.455053	-1238.122167	1508.278320	313.604919
20392.455053	-1238.122167	1507.219727	448.493011
20392.455053	-1238.122167	1506.162109	382.434875
20392.455053	-1238.122167	1505.103516	546.853638
20392.455053	-1238.122167	1504.044922	519.421204
20392.455053	-1238.122167	1502.986328	250.594009
20392.455053	-1238.122167	1501.926758	250.554932
20392.455053	-1238.122167	1500.868164	182.950027
20392.455053	-1238.122167	1499.808594	72.630257
20392.455053	-1238.122167	1498.749023	-71.355202
20392.455053	-1238.122167	1497.688477	-55.055412
20392.455053	-1238.122167	1496.628906	-117.545029
20392.455053	-1238.122167	1495.568359	-213.699768
20392.455053	-1238.122167	1494.507813	-73.052963
20392.455053	-1238.122167	1493.447266	-360.453003
20392.455053	-1238.122167	1492.386719	-149.744354
20392.455053	-1238.122167	1491.325195	-87.651230
20392.455053	-1238.122167	1490.263672	-20.952621
20392.455053	-1238.122167	1489.202148	-62.223507
20392.455053	-1238.122167	1488.140625	-26.815243
20392.455053	-1238.122167	1487.079102	105.479401
20392.455053	-1238.122167	1486.016602	42.088104
20392.455053	-1238.122167	1484.954102	-120.135948
20392.455053	-1238.122167	1483.891602	3.484164
20392.455053	-1238.122167	1482.829102	-30.229149
20392.455053	-1238.122167	1481.765625	-9.841901
20392.455053	-1238.122167	1480.702148	-182.650848
20392.455053	-1238.122167	1479.638672	-218.174438
20392.455053	-1238.122167	1478.575195	-143.463348
20392.455053	-1238.122167	1477.511719	-306.746002
20392.455053	-1238.122167	1476.447266	-209.360306
20392.455053	-1238.122167	1475.382813	-87.216988
20392.455053	-1238.122167	1474.318359	-97.365784
20392.455053	-1238.122167	1473.253906	-33.350590
20392.455053	-1238.122167	1472.189453	246.122574
20392.455053	-1238.122167	1471.124023	63.554218
20392.455053	-1238.122167	1470.058594	-91.799049
20392.455053	-1238.122167	1468.993164	26.363562
20392.455053	-1238.122167	1467.927734	70.913132
20392.455053	-1238.122167	1466.861328	39.269550
20392.455053	-1238.122167	1465.794922	61.310978
20392.455053	-1238.122167	1464.728516	59.230732
20392.455053	-1238.122167	1463.662109	38.947701
20392.455053	-1238.122167	1462.594727	66.047256
20392.455053	-1238.122167	1461.528320	202.826355
20392.455053	-1238.122167	1460.460938	256.861176
20392.455053	-1238.122167	1459.393555	-166.727768
20392.455053	-1238.122167	1458.326172	79.702003
20392.455053	-1238.122167	1457.257813	225.670975
20392.455053	-1238.122167	1456.189453	246.163559
20392.455053	-1238.122167	1455.121094	153.780167
20392.455053	-1238.122167	1454.052734	61.805817
20392.455053	-1238.122167	1452.984375	274.302856
20392.455053	-1238.122167	1451.915039	95.200523
20392.455053	-1238.122167	1450.845703	215.178833
20392.455053	-1238.122167	1449.776367	235.356735
20392.455053	-1238.122167	1448.707031	121.763329
20392.455053	-1238.122167	1447.636719	98.710114
20392.455053	-1238.122167	1446.567383	109.246399
20392.455053	-1238.122167	1445.497070	203.027740
20392.455053	-1238.122167	1444.425781	336.019073
20392.455053	-1238.122167	1443.355469	292.642029
20392.455053	-1238.122167	1442.285156	19.310839
20392.455053	-1238.122167	1441.213867	333.261475
20392.455053	-1238.122167	1440.142578	74.978325
20392.455053	-1238.122167	1439.070313	415.633148
20392.455053	-1238.122167	1437.999023	305.447083
20392.455053	-1238.122167	1436.926758	375.888062
20392.455053	-1238.122167	1435.854492	493.217285
20392.455053	-1238.122167	1434.782227	397.653168
20392.455053	-1238.122167	1433.709961	478.758850
20392.455053	-1238.122167	1432.636719	234.208679
20392.455053	-1238.122167	1431.563477	206.176437
20392.455053	-1238.122167	1430.490234	286.487915
20392.455053	-1238.122167	1429.416992	99.386887
20392.455053	-1238.122167	1428.343750	-25.403431
20392.455053	-1238.122167	1427.269531	223.750824
20392.455053	-1238.122167	1426.195313	151.081421
20392.455053	-1238.122167	1425.121094	209.074249
20392.455053	-1238.122167	1424.046875	115.179085
20392.455053	-1238.122167	1422.971680	63.397377
20392.455053	-1238.122167	1421.896484	-65.859917
20392.455053	-1238.122167	1420.821289	109.751457
20392.455053	-1238.122167	1419.746094	114.021080
20392.455053	-1238.122167	1418.669922	53.427383
20392.455053	-1238.122167	1417.594727	111.310974
20392.455053	-1238.122167	1416.518555	49.232826
20392.455053	-1238.122167	1415.442383	141.790649
20392.455053	-1238.122167	1414.365234	48.434971
20392.455053	-1238.122167	1413.289063	9.379512
20392.455053	-1238.122167	1412.211914	39.091343
20392.455053	-1238.122167	1411.134766	86.192131
20392.455053	-1238.122167	1410.057617	12.154958
20392.455053	-1238.122167	1408.979492	201.006027
20392.455053	-1238.122167	1407.902344	151.414978
20392.455053	-1238.122167	1406.824219	313.094055
20392.455053	-1238.122167	1405.746094	351.386993
20392.455053	-1238.122167	1404.666992	295.086975
20392.455053	-1238.122167	1403.588867	292.335449
20392.455053	-1238.122167	1402.509766	324.959686
20392.455053	-1238.122167	1401.430664	273.365509
20392.455053	-1238.122167	1400.351563	307.303253
20392.455053	-1238.122167	1399.271484	460.345856
20392.455053	-1238.122167	1398.192383	316.636627
20392.455053	-1238.122167	1397.112305	497.205994
20392.455053	-1238.122167	1396.031250	464.479401
20392.455053	-1238.122167	1394.951172	597.900269
20392.455053	-1238.122167	1393.871094	432.563171
20392.455053	-1238.122167	1392.790039	492.821930
20392.455053	-1238.122167	1391.708984	276.551117
20392.455053	-1238.122167	1390.626953	260.089996
20392.455053	-1238.122167	1389.545898	379.431763
20392.455053	-1238.122167	1388.463867	299.133759
20392.455053	-1238.122167	1387.381836	506.626801
20392.455053	-1238.122167	1386.299805	330.718689
20392.455053	-1238.122167	1385.217773	197.618668
20392.455053	-1238.122167	1384.134766	196.358994
20392.455053	-1238.122167	1383.051758	159.885620
20392.455053	-1238.122167	1381.968750	-86.743614
20392.455053	-1238.122167	1380.885742	84.998856
20392.455053	-1238.122167	1379.802734	246.251907
20392.455053	-1238.122167	1378.718750	-14.230096
20392.455053	-1238.122167	1377.634766	21.868414
20392.455053	-1238.122167	1376.550781	188.362076
20392.455053	-1238.122167	1375.465820	172.819962
20392.455053	-1238.122167	1374.381836	59.731552
20392.455053	-1238.122167	1373.296875	-105.656761
20392.455053	-1238.122167	1372.211914	32.779694
20392.455053	-1238.122167	1371.126953	89.395561
20392.455053	-1238.122167	1370.041016	63.346249
20392.455053	-1238.122167	1368.955078	18.704376
20392.455053	-1238.122167	1367.869141	23.175169
20392.455053	-1238.122167	1366.783203	124.387672
20392.455053	-1238.122167	1365.697266	52.693592
20392.455053	-1238.122167	1364.610352	161.719406
20392.455053	-1238.122167	1363.523438	330.652557
20392.455053	-1238.122167	1362.436523	314.963806
20392.455053	-1238.122167	1361.349609	238.666031
20392.455053	-1238.122167	1360.261719	205.971924
20392.455053	-1238.122167	1359.174805	205.252350
20392.455053	-1238.122167	1358.086914	554.960999
20392.455053	-1238.122167	1356.998047	439.029938
20392.455053	-1238.122167	1355.910156	538.495483
20392.455053	-1238.122167	1354.821289	596.945557
20392.455053	-1238.122167	1353.732422	314.978058
20392.455053	-1238.122167	1352.643555	215.801010
20392.455053	-1238.122167	1351.554688	293.362732
20392.455053	-1238.122167	1350.464844	345.758423
20392.455053	-1238.122167	1349.375000	195.448837
20392.455053	-1238.122167	1348.285156	390.728973
20392.455053	-1238.122167	1347.195313	135.102783
20392.455053	-1238.122167	1346.105469	203.678726
20392.455053	-1238.122167	1345.014648	286.360931
20392.455053	-1238.122167	1343.923828	255.461304
20392.455053	-1238.122167	1342.833008	262.721161
20392.455053	-1238.122167	1341.741211	369.998840
20392.455053	-1238.122167	1340.650391	117.815109
20392.455053	-1238.122167	1339.558594	340.953125
20392.455053	-1238.122167	1338.466797	182.062424
20392.455053	-1238.122167	1337.374023	272.905884
20392.455053	-1238.122167	1336.282227	111.952011
20392.455053	-1238.122167	1335.189453	151.945389
20392.455053	-1238.122167	1334.096680	118.860451
20392.455053	-1238.122167	1333.003906	172.518524
20392.455053	-1238.122167	1331.910156	292.774597
20392.455053	-1238.122167	1330.817383	136.664886
20392.455053	-1238.122167	1329.723633	145.722672
20392.455053	-1238.122167	1328.629883	209.879105
20392.455053	-1238.122167	1327.535156	284.280396
20392.455053	-1238.122167	1326.441406	109.964294
20392.455053	-1238.122167	1325.346680	76.383423
20392.455053	-1238.122167	1324.251953	-26.978540
20392.455053	-1238.122167	1323.156250	269.956482
20392.455053	-1238.122167	1322.061523	235.556793
20392.455053	-1238.122167	1320.965820	-2.246011
20392.455053	-1238.122167	1319.870117	181.020782
20392.455053	-1238.122167	1318.774414	86.760498
20392.455053	-1238.122167	1317.678711	230.494598
20392.455053	-1238.122167	1316.582031	187.808289
20392.455053	-1238.122167	1315.485352	230.420166
20392.455053	-1238.122167	1314.388672	242.660309
20392.455053	-1238.122167	1313.291016	239.228271
20392.455053	-1238.122167	1312.194336	104.561867
20392.455053	-1238.122167	1311.096680	182.965561
20392.455053	-1238.122167	1309.999023	143.651855
20392.455053	-1238.122167	1308.901367	-26.798191
20392.455053	-1238.122167	1307.802734	105.717537
20392.455053	-1238.122167	1306.705078	212.843460
20392.455053	-1238.122167	1305.606445	205.967422
20392.455053	-1238.122167	1304.506836	257.619843
20392.455053	-1238.122167	1303.408203	-54.170372
20392.455053	-1238.122167	1302.308594	45.515171
20392.455053	-1238.122167	1301.208984	167.407227
20392.455053	-1238.122167	1300.109375	83.871033
20392.455053	-1238.122167	1299.009766	110.156570
20392.455053	-1238.122167	1297.909180	126.307663
20392.455053	-1238.122167	1296.808594	162.271744
20392.455053	-1238.122167	1295.708008	63.438469
20392.455053	-1238.122167	1294.607422	20.060751
20392.455053	-1238.122167	1293.506836	-18.103596
20392.455053	-1238.122167	1292.405273	40.967911
20392.455053	-1238.122167	1291.303711	-67.572357
20392.455053	-1238.122167	1290.202148	35.131065
20392.455053	-1238.122167	1289.099609	-51.625824
20392.455053	-1238.122167	1287.998047	161.705643
20392.455053	-1238.122167	1286.895508	100.403015
20392.455053	-1238.122167	1285.792969	77.651756
20392.455053	-1238.122167	1284.689453	226.480377
20392.455053	-1238.122167	1283.586914	231.952988
20392.455053	-1238.122167	1282.483398	263.833679
20392.455053	-1238.122167	1281.379883	210.716965
20392.455053	-1238.122167	1280.276367	229.121445
20392.455053	-1238.122167	1279.171875	405.950714
20392.455053	-1238.122167	1278.067383	286.475098
20392.455053	-1238.122167	1276.962891	161.068573
20392.455053	-1238.122167	1275.858398	172.706802
20392.455053	-1238.122167	1274.753906	139.197403
20392.455053	-1238.122167	1273.648438	199.128647
20392.455053	-1238.122167	1272.542969	91.278557
20392.455053	-1238.122167	1271.437500	-5.419230
20392.455053	-1238.122167	1270.331055	61.956585
20392.455053	-1238.122167	1269.225586	-5.331006
20392.455053	-1238.122167	1268.119141	181.915070
20392.455053	-1238.122167	1267.012695	89.090958
20392.455053	-1238.122167	1265.906250	109.778763
20392.455053	-1238.122167	1264.798828	88.867592
20392.455053	-1238.122167	1263.691406	268.573914
20392.455053	-1238.122167	1262.583984	320.059875
20392.455053	-1238.122167	1261.476563	257.308990
20392.455053	-1238.122167	1260.368164	246.003311
20392.455053	-1238.122167	1259.260742	282.237823
20392.455053	-1238.122167	1258.152344	78.070068
20392.455053	-1238.122167	1257.043945	76.540718
20392.455053	-1238.122167	1255.934570	19.112164
20392.455053	-1238.122167	1254.825195	45.048740
20392.455053	-1238.122167	1253.716797	-40.108856
20392.455053	-1238.122167	1252.606445	180.616257
20392.455053	-1238.122167	1251.497070	253.607742
20392.455053	-1238.122167	1250.387695	-5.577276
20392.455053	-1238.122167	1249.277344	-41.102352
20392.455053	-1238.122167	1248.166992	51.876949
20392.455053	-1238.122167	1247.055664	28.920673
20392.455053	-1238.122167	1245.945313	-94.628052
20392.455053	-1238.122167	1244.833984	-113.153137
20392.455053	-1238.122167	1243.722656	-58.599174
20392.455053	-1238.122167	1242.611328	127.442184
20392.455053	-1238.122167	1241.499023	-29.404593
20392.455053	-1238.122167	1240.387695	21.492807
20392.455053	-1238.122167	1239.275391	3.393938
20392.455053	-1238.122167	1238.162109	132.283295
20392.455053	-1238.122167	1237.049805	106.985634
20392.455053	-1238.122167	1235.936523	132.695053
20392.455053	-1238.122167	1234.823242	130.266876
20392.455053	-1238.122167	1233.709961	204.413193
20392.455053	-1238.122167	1232.596680	232.997482
20392.455053	-1238.122167	1231.482422	206.167542
20392.455053	-1238.122167	1230.369141	246.949554
20392.455053	-1238.122167	1229.253906	315.322723
20392.455053	-1238.122167	1228.139648	170.859039
20392.455053	-1238.122167	1227.025391	184.450424
20392.455053	-1238.122167	1225.910156	131.059128
20392.455053	-1238.122167	1224.794922	100.508446
20392.455053	-1238.122167	1223.679688	-54.429886
20392.455053	-1238.122167	1222.563477	-8.642360
20392.455053	-1238.122167	1221.447266	-39.524311
20392.455053	-1238.122167	1220.331055	42.479183
20392.455053	-1238.122167	1219.214844	-31.657997
20392.455053	-1238.122167	1218.098633	-8.027404
20392.455053	-1238.122167	1216.981445	-171.071274
20392.455053	-1238.122167	1215.864258	-130.842010
20392.455053	-1238.122167	1214.747070	-168.820801
20392.455053	-1238.122167	1213.629883	-139.682190
20392.455053	-1238.122167	1212.511719	-114.961250
20392.455053	-1238.122167	1211.393555	-212.530594
20392.455053	-1238.122167	1210.275391	-165.450455
20392.455053	-1238.122167	1209.157227	-192.680527
20392.455053	-1238.122167	1208.038086	-91.114372
20392.455053	-1238.122167	1206.918945	-80.114693
20392.455053	-1238.122167	1205.799805	-72.943871
20392.455053	-1238.122167	1204.680664	-159.364273
20392.455053	-1238.122167	1203.560547	-155.774460
20392.455053	-1238.122167	1202.441406	-190.885117
20392.455053	-1238.122167	1201.321289	-136.944931
20392.455053	-1238.122167	1200.200195	-193.415543
20392.455053	-1238.122167	1199.080078	-200.959549
20392.455053	-1238.122167	1197.958984	-99.552391
20392.455053	-1238.122167	1196.837891	-13.375727
20392.455053	-1238.122167	1195.716797	-147.698715
20392.455053	-1238.122167	1194.594727	-138.009033
20392.455053	-1238.122167	1193.473633	-65.439575
20392.455053	-1238.122167	1192.351563	-37.650677
20392.455053	-1238.122167	1191.229492	-94.922417
20392.455053	-1238.122167	1190.106445	69.483955
20392.455053	-1238.122167	1188.984375	63.167332
20392.455053	-1238.122167	1187.861328	-20.055370
20392.455053	-1238.122167	1186.738281	162.203918
20392.455053	-1238.122167	1185.614258	120.277565
20392.455053	-1238.122167	1184.491211	281.410339
20392.455053	-1238.122167	1183.367188	293.743042
20392.455053	-1238.122167	1182.243164	441.236237
20392.455053	-1238.122167	1181.119141	441.247803
20392.455053	-1238.122167	1179.994141	549.428284
20392.455053	-1238.122167	1178.869141	653.910217
20392.455053	-1238.122167	1177.744141	858.315247
20392.455053	-1238.122167	1176.619141	942.559814
20392.455053	-1238.122167	1175.493164	1134.320679
20392.455053	-1238.122167	1174.368164	1385.974487
20392.455053	-1238.122167	1173.242188	1423.549805
20392.455053	-1238.122167	1172.115234	1382.838989
20392.455053	-1238.122167	1170.989258	1487.268799
20392.455053	-1238.122167	1169.862305	1257.528809
20392.455053	-1238.122167	1168.735352	1078.198364
20392.455053	-1238.122167	1167.608398	940.536682
20392.455053	-1238.122167	1166.481445	840.332581
20392.455053	-1238.122167	1165.353516	538.862915
20392.455053	-1238.122167	1164.225586	467.035400
20392.455053	-1238.122167	1163.097656	260.864319
20392.455053	-1238.122167	1161.968750	99.948799
20392.455053	-1238.122167	1160.840820	227.859879
20392.455053	-1238.122167	1159.711914	160.211212
20392.455053	-1238.122167	1158.583008	68.837509
20392.455053	-1238.122167	1157.453125	83.865067
20392.455053	-1238.122167	1156.324219	152.231598
20392.455053	-1238.122167	1155.194336	76.968330
20392.455053	-1238.122167	1154.064453	16.343807
20392.455053	-1238.122167	1152.933594	10.770268
20392.455053	-1238.122167	1151.803711	90.266945
20392.455053	-1238.122167	1150.672852	-5.225171
20392.455053	-1238.122167	1149.541992	17.866402
20392.455053	-1238.122167	1148.411133	-82.846321
20392.455053	-1238.122167	1147.279297	-164.262833
20392.455053	-1238.122167	1146.147461	-45.026302
20392.455053	-1238.122167	1145.015625	-72.252220
20392.455053	-1238.122167	1143.883789	-72.977951
20392.455053	-1238.122167	1142.750977	-66.218430
20392.455053	-1238.122167	1141.619141	-177.410416
20392.455053	-1238.122167	1140.486328	-221.469315
20392.455053	-1238.122167	1139.352539	-266.048798
20392.455053	-1238.122167	1138.219727	-176.827530
20392.455053	-1238.122167	1137.085938	-194.095169
20392.455053	-1238.122167	1135.952148	-317.262909
20392.455053	-1238.122167	1134.818359	-130.792816
20392.455053	-1238.122167	1133.683594	-101.198296
20392.455053	-1238.122167	1132.549805	-35.453220
20392.455053	-1238.122167	1131.415039	84.931450
20392.455053	-1238.122167	1130.279297	202.940735
20392.455053	-1238.122167	1129.144531	211.986832
20392.455053	-1238.122167	1128.008789	321.815308
20392.455053	-1238.122167	1126.873047	332.500885
20392.455053	-1238.122167	1125.737305	295.274841
20392.455053	-1238.122167	1124.601563	259.868530
20392.455053	-1238.122167	1123.464844	365.772034
20392.455053	-1238.122167	1122.328125	278.375763
20392.455053	-1238.122167	1121.191406	230.627823
20392.455053	-1238.122167	1120.054688	158.920715
20392.455053	-1238.122167	1118.916992	187.765808
20392.455053	-1238.122167	1117.779297	197.178757
20392.455053	-1238.122167	1116.641602	345.802063
20392.455053	-1238.122167	1115.503906	161.897369
20392.455053	-1238.122167	1114.365234	218.966080
20392.455053	-1238.122167	1113.226563	67.644257
20392.455053	-1238.122167	1112.087891	104.456230
20392.455053	-1238.122167	1110.949219	32.151978
20392.455053	-1238.122167	1109.809570	124.873306
20392.455053	-1238.122167	1108.669922	26.045591
20392.455053	-1238.122167	1107.530273	-55.686661
20392.455053	-1238.122167	1106.390625	-28.025623
20392.455053	-1238.122167	1105.250000	110.534576
20392.455053	-1238.122167	1104.109375	167.849258
20392.455053	-1238.122167	1102.968750	106.598122
20392.455053	-1238.122167	1101.828125	-43.827240
20392.455053	-1238.122167	1100.686523	99.944077
20392.455053	-1238.122167	1099.544922	74.874100
20392.455053	-1238.122167	1098.403320	47.017540
20392.455053	-1238.122167	1097.261719	51.433029
20392.455053	-1238.122167	1096.120117	191.805176
20392.455053	-1238.122167	1094.977539	53.212620
20392.455053	-1238.122167	1093.834961	76.705612
20392.455053	-1238.122167	1092.691406	112.264053
20392.455053	-1238.122167	1091.548828	148.522003
20392.455053	-1238.122167	1090.405273	-28.254171
20392.455053	-1238.122167	1089.261719	33.378593
20392.455053	-1238.122167	1088.118164	49.786594
20392.455053	-1238.122167	1086.973633	128.186783
20392.455053	-1238.122167	1085.829102	-96.006363
20392.455053	-1238.122167	1084.684570	-42.587673
20392.455053	-1238.122167	1083.540039	95.899994
20392.455053	-1238.122167	1082.395508	-26.829872
20392.455053	-1238.122167	1081.250000	61.822235
20392.455053	-1238.122167	1080.104492	38.638290
20392.455053	-1238.122167	1078.958984	120.626724
20392.455053	-1238.122167	1077.812500	52.465988
20392.455053	-1238.122167	1076.666016	-4.602283
20392.455053	-1238.122167	1075.519531	86.480659
20392.455053	-1238.122167	1074.373047	130.535278
20392.455053	-1238.122167	1073.226563	76.483604
20392.455053	-1238.122167	1072.079102	94.391525
20392.455053	-1238.122167	1070.931641	13.977558
20392.455053	-1238.122167	1069.784180	111.524109
20392.455053	-1238.122167	1068.635742	131.289276
20392.455053	-1238.122167	1067.487305	261.201752
20392.455053	-1238.122167	1066.338867	152.345688
20392.455053	-1238.122167	1065.190430	87.358002
20392.455053	-1238.122167	1064.041992	409.293579
20392.455053	-1238.122167	1062.892578	254.963043
20392.455053	-1238.122167	1061.743164	185.218185
20392.455053	-1238.122167	1060.593750	256.504547
20392.455053	-1238.122167	1059.443359	328.964600
20392.455053	-1238.122167	1058.292969	112.337532
20392.455053	-1238.122167	1057.142578	52.467838
20392.455053	-1238.122167	1055.992188	101.329384
20392.455053	-1238.122167	1054.841797	249.503464
20392.455053	-1238.122167	1053.690430	190.917450
20392.455053	-1238.122167	1052.539063	65.894829
20392.455053	-1238.122167	1051.387695	72.615555
20392.455053	-1238.122167	1050.235352	36.417488
20392.455053	-1238.122167	1049.083984	-48.876339
20392.455053	-1238.122167	1047.931641	-37.803375
20392.455053	-1238.122167	1046.778320	-103.043694
20392.455053	-1238.122167	1045.625977	-49.153816
20392.455053	-1238.122167	1044.472656	-5.608025
20392.455053	-1238.122167	1043.319336	-16.525230
20392.455053	-1238.122167	1042.166016	-33.534542
20392.455053	-1238.122167	1041.012695	37.782787
20392.455053	-1238.122167	1039.858398	149.770035
20392.455053	-1238.122167	1038.704102	113.850044
20392.455053	-1238.122167	1037.549805	90.131004
20392.455053	-1238.122167	1036.394531	238.098648
20392.455053	-1238.122167	1035.239258	104.611008
20392.455053	-1238.122167	1034.083984	76.457954
20392.455053	-1238.122167	1032.928711	83.074371
20392.455053	-1238.122167	1031.773438	0.296500
20392.455053	-1238.122167	1030.617188	-74.860863
20392.455053	-1238.122167	1029.460938	120.972801
20392.455053	-1238.122167	1028.304688	-45.117722
20392.455053	-1238.122167	1027.147461	-7.870701
20392.455053	-1238.122167	1025.991211	13.146922
20392.455053	-1238.122167	1024.833984	17.015831
20392.455053	-1238.122167	1023.675781	-109.065544
20392.455053	-1238.122167	1022.518555	51.827377
20392.455053	-1238.122167	1021.360352	-34.460358
20392.455053	-1238.122167	1020.202148	-113.324913
20392.455053	-1238.122167	1019.043945	84.037781
20392.455053	-1238.122167	1017.884766	-94.652931
20392.455053	-1238.122167	1016.726563	-85.306442
20392.455053	-1238.122167	1015.567383	-403.750061
20392.455053	-1238.122167	1014.407227	-82.318016
20392.455053	-1238.122167	1013.248047	-125.760765
20392.455053	-1238.122167	1012.087891	-88.630951
20392.455053	-1238.122167	1010.927734	-17.825821
20392.455053	-1238.122167	1009.767578	13.520723
20392.455053	-1238.122167	1008.606445	-88.705315
20392.455053	-1238.122167	1007.446289	-47.144547
20392.455053	-1238.122167	1006.285156	10.117722
20392.455053	-1238.122167	1005.123047	28.542650
20392.455053	-1238.122167	1003.961914	33.777023
20392.455053	-1238.122167	1002.799805	147.740631
20392.455053	-1238.122167	1001.637695	-10.868679
20392.455053	-1238.122167	1000.475586	14.016866
20392.455053	-1238.122167	999.312500	93.804901
20392.455053	-1238.122167	998.149414	-43.479420
20392.455053	-1238.122167	996.986328	188.926956
20392.455053	-1238.122167	995.823242	19.765148
20392.455053	-1238.122167	994.659180	176.660873
20392.455053	-1238.122167	993.496094	238.877914
20392.455053	-1238.122167	992.332031	107.517914
20392.455053	-1238.122167	991.166992	136.368240
20392.455053	-1238.122167	990.002930	105.577652
20392.455053	-1238.122167	988.837891	92.368675
20392.455053	-1238.122167	987.672852	0.244852
20392.455053	-1238.122167	986.506836	45.043079
20392.455053	-1238.122167	985.341797	22.166826
20392.455053	-1238.122167	984.175781	-36.137775
20392.455053	-1238.122167	983.009766	-74.403152
20392.455053	-1238.122167	981.843750	-14.050807
20392.455053	-1238.122167	980.676758	90.408310
20392.455053	-1238.122167	979.509766	59.149406
20392.455053	-1238.122167	978.342773	-123.974121
20392.455053	-1238.122167	977.175781	-70.974098
20392.455053	-1238.122167	976.007813	-49.346001
20392.455053	-1238.122167	974.839844	10.820874
20392.455053	-1238.122167	973.671875	9.664103
20392.455053	-1238.122167	972.503906	93.951637
20392.455053	-1238.122167	971.334961	-82.269653
20392.455053	-1238.122167	970.166016	-60.499092
20392.455053	-1238.122167	968.997070	-53.975563
20392.455053	-1238.122167	967.828125	-95.444794
20392.455053	-1238.122167	966.658203	-129.940140
20392.455053	-1238.122167	965.488281	-51.684402
20392.455053	-1238.122167	964.318359	103.738777
20392.455053	-1238.122167	963.148438	-18.534966
20392.455053	-1238.122167	961.977539	-59.990303
20392.455053	-1238.122167	960.806641	187.578796
20392.455053	-1238.122167	959.635742	-81.240898
20392.455053	-1238.122167	958.463867	41.057083
20392.455053	-1238.122167	957.292969	29.918385
20392.455053	-1238.122167	956.121094	38.910210
20392.455053	-1238.122167	954.948242	107.977150
20392.455053	-1238.122167	953.776367	-23.189838
20392.455053	-1238.122167	952.603516	-37.151192
20392.455053	-1238.122167	951.430664	64.347694
20392.455053	-1238.122167	950.257813	63.669952
20392.455053	-1238.122167	949.084961	117.085945
20392.455053	-1238.122167	947.911133	55.706329
20392.455053	-1238.122167	946.737305	27.010422
20392.455053	-1238.122167	945.563477	52.377953
20392.455053	-1238.122167	944.388672	9.481005
20392.455053	-1238.122167	943.213867	97.478180
20392.455053	-1238.122167	942.039063	2.101248
20392.455053	-1238.122167	940.864258	83.009720
20392.455053	-1238.122167	939.688477	-1.301698
20392.455053	-1238.122167	938.513672	107.028114
20392.455053	-1238.122167	937.337891	65.472122
20392.455053	-1238.122167	936.161133	149.773712
20392.455053	-1238.122167	934.985352	95.171120
20392.455053	-1238.122167	933.808594	299.694733
20392.455053	-1238.122167	932.631836	278.352051
20392.455053	-1238.122167	931.454102	177.401703
20392.455053	-1238.122167	930.277344	291.055267
20392.455053	-1238.122167	929.099609	354.699371
20392.455053	-1238.122167	927.921875	316.599396
20392.455053	-1238.122167	926.743164	285.877655
20392.455053	-1238.122167	925.565430	223.744431
20392.455053	-1238.122167	924.386719	185.598358
20392.455053	-1238.122167	923.208008	147.469040
20392.455053	-1238.122167	922.028320	216.493835
20392.455053	-1238.122167	920.849609	198.648331
20392.455053	-1238.122167	919.669922	200.818283
20392.455053	-1238.122167	919.474609	29.694477
20392.455053	-1238.122167	918.309570	46.902512
20392.455053	-1238.122167	917.143555	95.465027
20392.455053	-1238.122167	915.977539	42.460072
20392.455053	-1238.122167	914.810547	83.571236
20392.455053	-1238.122167	913.644531	-48.800373
20392.455053	-1238.122167	912.477539	-11.427992
20392.455053	-1238.122167	911.310547	-22.049419
20392.455053	-1238.122167	910.143555	-75.102417
20392.455053	-1238.122167	908.975586	-76.536827
20392.455053	-1238.122167	907.807617	38.127377
20392.455053	-1238.122167	906.639648	88.220978
20392.455053	-1238.122167	905.471680	12.981991
20392.455053	-1238.122167	904.303711	120.116669
20392.455053	-1238.122167	903.134766	197.717529
20392.455053	-1238.122167	901.965820	56.144073
20392.455053	-1238.122167	900.796875	-136.942352
20392.455053	-1238.122167	899.626953	10.536509
20392.455053	-1238.122167	898.457031	27.277149
20392.455053	-1238.122167	897.287109	73.425255
20392.455053	-1238.122167	896.117188	104.815483
20392.455053	-1238.122167	894.947266	-45.899174
20392.455053	-1238.122167	893.776367	62.685143
20392.455053	-1238.122167	892.605469	105.021820
20392.455053	-1238.122167	891.434570	-34.638500
20392.455053	-1238.122167	890.262695	9.495172
20392.455053	-1238.122167	889.091797	158.309097
20392.455053	-1238.122167	887.919922	149.073517
20392.455053	-1238.122167	886.748047	193.076874
20392.455053	-1238.122167	885.575195	233.370300
20392.455053	-1238.122167	884.403320	308.502289
20392.455053	-1238.122167	883.230469	198.215118
20392.455053	-1238.122167	882.057617	214.563370
20392.455053	-1238.122167	880.883789	267.577087
20392.455053	-1238.122167	879.710938	315.043701
20392.455053	-1238.122167	878.537109	270.779510
20392.455053	-1238.122167	877.362305	133.007217
20392.455053	-1238.122167	876.188477	145.581711
20392.455053	-1238.122167	875.013672	150.801102
20392.455053	-1238.122167	873.839844	221.960754
20392.455053	-1238.122167	872.664063	-31.184677
20392.455053	-1238.122167	871.489258	-0.352076
20392.455053	-1238.122167	870.313477	-8.007121
20392.455053	-1238.122167	869.138672	-63.282082
20392.455053	-1238.122167	867.962891	-113.062637
20392.455053	-1238.122167	866.786133	-117.089493
20392.455053	-1238.122167	865.610352	-154.070999
20392.455053	-1238.122167	864.433594	-141.664444
20392.455053	-1238.122167	863.256836	-79.901451
20392.455053	-1238.122167	862.079102	-36.468620
20392.455053	-1238.122167	860.902344	23.379433
20392.455053	-1238.122167	859.724609	-2.725176
20392.455053	-1238.122167	858.546875	9.538019
20392.455053	-1238.122167	857.368164	-18.419022
20392.455053	-1238.122167	856.190430	-130.414276
20392.455053	-1238.122167	855.011719	-65.227905
20392.455053	-1238.122167	853.833008	76.602226
20392.455053	-1238.122167	852.654297	48.574169
20392.455053	-1238.122167	851.474609	69.819023
20392.455053	-1238.122167	850.294922	-45.827530
20392.455053	-1238.122167	849.115234	20.999258
20392.455053	-1238.122167	847.935547	147.973709
20392.455053	-1238.122167	846.754883	34.146736
20392.455053	-1238.122167	845.575195	80.798775
20392.455053	-1238.122167	844.393555	27.150440
20392.455053	-1238.122167	843.212891	172.165161
20392.455053	-1238.122167	842.032227	92.968048
20392.455053	-1238.122167	840.850586	146.777420
20392.455053	-1238.122167	839.668945	155.008148
20392.455053	-1238.122167	838.486328	66.697876
20392.455053	-1238.122167	837.304688	124.060303
20392.455053	-1238.122167	836.122070	57.595451
20392.455053	-1238.122167	834.939453	34.816910
20392.455053	-1238.122167	833.756836	21.125013
20392.455053	-1238.122167	832.573242	120.210098
20392.455053	-1238.122167	831.389648	124.653641
20392.455053	-1238.122167	830.206055	258.185577
20392.455053	-1238.122167	829.022461	115.291649
20392.455053	-1238.122167	827.838867	123.305794
20392.455053	-1238.122167	826.654297	-59.524639
20392.455053	-1238.122167	825.469727	13.891181
20392.455053	-1238.122167	824.284180	23.675079
20392.455053	-1238.122167	823.099609	-37.399288
20392.455053	-1238.122167	821.914063	-42.178543
20392.455053	-1238.122167	820.728516	-126.858421
20392.455053	-1238.122167	819.542969	18.992132
20392.455053	-1238.122167	818.356445	204.685272
20392.455053	-1238.122167	817.169922	-30.649506
20392.455053	-1238.122167	815.983398	180.328506
20392.455053	-1238.122167	814.796875	-11.421795
20392.455053	-1238.122167	813.609375	-141.465805
20392.455053	-1238.122167	812.422852	-6.802535
20392.455053	-1238.122167	811.235352	-89.714493
20392.455053	-1238.122167	810.046875	30.340137
20392.455053	-1238.122167	808.859375	-99.695663
20392.455053	-1238.122167	807.670898	-55.811069
20392.455053	-1238.122167	806.482422	-111.571762
20392.455053	-1238.122167	805.293945	-82.234711
20392.455053	-1238.122167	804.104492	-252.058319
20392.455053	-1238.122167	802.915039	-139.497894
20392.455053	-1238.122167	801.725586	-36.055511
20392.455053	-1238.122167	800.536133	-52.080925
20392.455053	-1238.122167	799.345703	91.044792
20392.455053	-1238.122167	798.155273	100.267807
20392.455053	-1238.122167	796.964844	-26.136169
20392.455053	-1238.122167	795.774414	-22.364546
20392.455053	-1238.122167	794.583008	-24.041151
20392.455053	-1238.122167	793.392578	-144.994995
20392.455053	-1238.122167	792.200195	68.275726
20392.455053	-1238.122167	791.008789	-25.606598
20392.455053	-1238.122167	789.816406	99.018623
20392.455053	-1238.122167	788.625000	207.318619
20392.455053	-1238.122167	787.432617	183.783020
20392.455053	-1238.122167	786.239258	33.907177
20392.455053	-1238.122167	785.046875	46.449776
20392.455053	-1238.122167	783.853516	8.451559
20392.455053	-1238.122167	782.660156	-112.518517
20392.455053	-1238.122167	781.465820	26.183538
20392.455053	-1238.122167	780.272461	76.466949
20392.455053	-1238.122167	779.078125	78.037331
20392.455053	-1238.122167	777.883789	86.787445
20392.455053	-1238.122167	776.688477	18.036488
20392.455053	-1238.122167	775.494141	6.925785
20392.455053	-1238.122167	774.298828	111.047005
20392.455053	-1238.122167	773.103516	-92.788551
20392.455053	-1238.122167	771.907227	0.452093
20392.455053	-1238.122167	770.711914	-8.960169
20392.455053	-1238.122167	769.515625	-106.567642
20392.455053	-1238.122167	768.318359	-160.987762
20392.455053	-1238.122167	767.122070	-118.288849
20392.455053	-1238.122167	765.924805	-52.260414
20392.455053	-1238.122167	764.727539	-24.044613
20392.455053	-1238.122167	763.530273	9.521464
20392.455053	-1238.122167	762.333008	-160.032089
20392.455053	-1238.122167	761.134766	-83.390793
20392.455053	-1238.122167	759.936523	-6.811912
20392.455053	-1238.122167	758.738281	53.540298
20392.455053	-1238.122167	757.540039	76.128059
20392.455053	-1238.122167	756.340820	-5.451503
20392.455053	-1238.122167	755.141602	-142.669449
20392.455053	-1238.122167	753.942383	-10.685143
20392.455053	-1238.122167	752.742188	11.768879
20392.455053	-1238.122167	751.541992	86.200645
20392.455053	-1238.122167	750.341797	-83.332413
20392.455053	-1238.122167	749.141602	-114.764526
20392.455053	-1238.122167	747.941406	99.375793
20392.455053	-1238.122167	746.740234	23.045345
20392.455053	-1238.122167	745.539063	93.649261
20392.455053	-1238.122167	744.337891	171.356323
20392.455053	-1238.122167	743.135742	73.464066
20392.455053	-1238.122167	741.933594	138.539322
20392.455053	-1238.122167	740.731445	233.990158
20392.455053	-1238.122167	739.529297	272.086914
20392.455053	-1238.122167	738.326172	297.604065
20392.455053	-1238.122167	737.124023	35.003872
20392.455053	-1238.122167	735.919922	98.056831
20392.455053	-1238.122167	734.716797	75.200676
20392.455053	-1238.122167	733.513672	105.964256
20392.455053	-1238.122167	732.309570	31.198610
20392.455053	-1238.122167	731.105469	70.823868
20392.455053	-1238.122167	729.900391	140.775467
20392.455053	-1238.122167	728.696289	60.583973
20392.455053	-1238.122167	727.491211	50.053967
20392.455053	-1238.122167	726.286133	43.064213
20392.455053	-1238.122167	725.080078	109.247810
20392.455053	-1238.122167	723.874023	9.346370
20392.455053	-1238.122167	722.668945	-108.395935
20392.455053	-1238.122167	721.461914	96.851921
20392.455053	-1238.122167	720.255859	-103.000084
20392.455053	-1238.122167	719.048828	-44.173588
20392.455053	-1238.122167	717.841797	-31.774483
20392.455053	-1238.122167	716.634766	-28.331659
20392.455053	-1238.122167	715.427734	-126.533676
20392.455053	-1238.122167	714.219727	-212.257401
20392.455053	-1238.122167	713.011719	-103.765343
20392.455053	-1238.122167	711.803711	-66.613708
20392.455053	-1238.122167	710.594727	-66.919189
20392.455053	-1238.122167	709.385742	-209.716629
20392.455053	-1238.122167	708.176758	-97.906975
20392.455053	-1238.122167	706.967773	-139.256866
20392.455053	-1238.122167	705.758789	-66.734589
20392.455053	-1238.122167	704.548828	-115.267517
20392.455053	-1238.122167	703.338867	-211.846375
20392.455053	-1238.122167	702.127930	-187.490372
20392.455053	-1238.122167	700.917969	-180.960495
20392.455053	-1238.122167	699.707031	-69.589104
20392.455053	-1238.122167	698.496094	-75.606522
20392.455053	-1238.122167	697.285156	-47.897022
20392.455053	-1238.122167	696.073242	-2.473581
20392.455053	-1238.122167	694.861328	-100.979996
20392.455053	-1238.122167	693.649414	50.909439
20392.455053	-1238.122167	692.436523	-92.032181
20392.455053	-1238.122167	691.224609	18.888771
20392.455053	-1238.122167	690.011719	56.959156
20392.455053	-1238.122167	688.798828	119.816612
20392.455053	-1238.122167	687.584961	6.983655
20392.455053	-1238.122167	686.372070	91.032097
20392.455053	-1238.122167	685.158203	93.436592
20392.455053	-1238.122167	683.943359	175.578003
20392.455053	-1238.122167	682.729492	66.222168
20392.455053	-1238.122167	681.514648	114.589211
20392.455053	-1238.122167	680.299805	33.561646
20392.455053	-1238.122167	679.084961	237.719650
20392.455053	-1238.122167	677.869141	108.805809
20392.455053	-1238.122167	676.653320	254.354584
20392.455053	-1238.122167	675.437500	401.574127
20392.455053	-1238.122167	674.221680	346.930389
20392.455053	-1238.122167	673.004883	416.133667
20392.455053	-1238.122167	671.789063	281.824860
20392.455053	-1238.122167	670.571289	451.755493
20392.455053	-1238.122167	669.354492	359.860474
20392.455053	-1238.122167	668.136719	266.197235
20392.455053	-1238.122167	666.919922	278.597412
20392.455053	-1238.122167	665.701172	103.621307
20392.455053	-1238.122167	664.483398	216.688049
20392.455053	-1238.122167	663.264648	112.387650
20392.455053	-1238.122167	662.045898	156.451294
20392.455053	-1238.122167	660.827148	156.316727
20392.455053	-1238.122167	659.608398	168.504715
20392.455053	-1238.122167	658.388672	35.918144
20392.455053	-1238.122167	657.168945	143.344528
20392.455053	-1238.122167	655.949219	148.363739
20392.455053	-1238.122167	654.728516	123.356644
20392.455053	-1238.122167	653.507813	85.981468
20392.455053	-1238.122167	652.287109	258.404510
20392.455053	-1238.122167	651.066406	243.865875
20392.455053	-1238.122167	649.844727	157.038330
20392.455053	-1238.122167	648.623047	272.849274
20392.455053	-1238.122167	647.401367	451.998779
20392.455053	-1238.122167	646.179688	578.202026
20392.455053	-1238.122167	644.957031	662.054077
20392.455053	-1238.122167	643.734375	960.626099
20392.455053	-1238.122167	642.511719	1283.683105
20392.455053	-1238.122167	641.289063	1557.298706
20392.455053	-1238.122167	640.065430	1829.004883
20392.455053	-1238.122167	638.841797	1567.570313
20392.455053	-1238.122167	637.618164	1483.843872
20392.455053	-1238.122167	636.393555	1132.855713
20392.455053	-1238.122167	635.168945	767.924255
20392.455053	-1238.122167	633.944336	684.330139
20392.455053	-1238.122167	632.719727	556.814087
20392.455053	-1238.122167	631.494141	267.692230
20392.455053	-1238.122167	630.269531	289.561676
20392.455053	-1238.122167	629.042969	235.876801
20392.455053	-1238.122167	627.817383	178.680725
20392.455053	-1238.122167	626.590820	117.968582
20392.455053	-1238.122167	625.365234	143.254105
20392.455053	-1238.122167	624.137695	91.294724
20392.455053	-1238.122167	622.911133	207.742249
20392.455053	-1238.122167	621.683594	143.466187
20392.455053	-1238.122167	620.456055	3.794528
20392.455053	-1238.122167	619.228516	16.679985
20392.455053	-1238.122167	618.000977	76.861877
20392.455053	-1238.122167	616.772461	49.374538
20392.455053	-1238.122167	615.543945	104.220863
20392.455053	-1238.122167	614.314453	123.987930
20392.455053	-1238.122167	613.085938	257.561432
20392.455053	-1238.122167	611.856445	224.721863
20392.455053	-1238.122167	610.626953	130.609421
20392.455053	-1238.122167	609.397461	82.023056
20392.455053	-1238.122167	608.166992	71.930168
20392.455053	-1238.122167	606.936523	-23.895199
20392.455053	-1238.122167	605.706055	4.484123
20392.455053	-1238.122167	604.474609	94.034058
20392.455053	-1238.122167	603.244141	54.162556
20392.455053	-1238.122167	602.012695	-52.130314
20392.455053	-1238.122167	600.780273	65.287926
20392.455053	-1238.122167	599.548828	224.579178
20392.455053	-1238.122167	598.316406	163.691269
20392.455053	-1238.122167	597.083984	69.635185
20392.455053	-1238.122167	595.851563	111.799789
20392.455053	-1238.122167	594.618164	110.290161
20392.455053	-1238.122167	593.384766	-121.607750
20392.455053	-1238.122167	592.151367	-175.433777
20392.455053	-1238.122167	590.917969	-108.870811
20392.455053	-1238.122167	589.683594	55.326859
20392.455053	-1238.122167	588.449219	32.859276
20392.455053	-1238.122167	587.214844	-82.006729
20392.455053	-1238.122167	585.979492	-27.755917
20392.455053	-1238.122167	584.745117	36.927631
20392.455053	-1238.122167	583.509766	-18.645548
20392.455053	-1238.122167	582.273438	113.929077
20392.455053	-1238.122167	581.038086	180.268707
20392.455053	-1238.122167	579.801758	28.922663
20392.455053	-1238.122167	578.565430	244.957214
20392.455053	-1238.122167	577.329102	356.471283
20392.455053	-1238.122167	576.091797	480.114380
20392.455053	-1238.122167	574.854492	370.582672
20392.455053	-1238.122167	573.617188	261.100098
20392.455053	-1238.122167	572.378906	278.608185
20392.455053	-1238.122167	571.141602	212.662552
20392.455053	-1238.122167	569.903320	285.804779
20392.455053	-1238.122167	568.664063	80.857414
20392.455053	-1238.122167	567.425781	101.881897
20392.455053	-1238.122167	566.186523	37.780655
20392.455053	-1238.122167	564.947266	-14.129077
20392.455053	-1238.122167	563.708008	31.229116
20392.455053	-1238.122167	562.467773	-142.165573
20392.455053	-1238.122167	561.227539	-34.302094
20392.455053	-1238.122167	559.987305	45.760700
20392.455053	-1238.122167	558.747070	39.054775
20392.455053	-1238.122167	557.505859	150.307877
20392.455053	-1238.122167	556.264648	273.664307
20392.455053	-1238.122167	555.023438	334.565216
20392.455053	-1238.122167	553.781250	586.125061
20392.455053	-1238.122167	552.539063	737.074951
20392.455053	-1238.122167	551.296875	882.777954
20392.455053	-1238.122167	550.054688	775.515930
20392.455053	-1238.122167	548.811523	805.136353
20392.455053	-1238.122167	547.569336	777.623108
20392.455053	-1238.122167	546.325195	516.419495
20392.455053	-1238.122167	545.082031	665.556091
20392.455053	-1238.122167	543.837891	755.808167
20392.455053	-1238.122167	542.593750	545.006409
20392.455053	-1238.122167	541.349609	574.744995
20392.455053	-1238.122167	540.105469	543.965088
20392.455053	-1238.122167	538.860352	431.954498
20392.455053	-1238.122167	537.615234	383.971405
20392.455053	-1238.122167	536.369141	339.484375
20392.455053	-1238.122167	535.124023	514.481750
20392.455053	-1238.122167	533.877930	371.566071
20392.455053	-1238.122167	532.631836	266.731750
20392.455053	-1238.122167	531.384766	136.061600
20392.455053	-1238.122167	530.138672	390.459717
20392.455053	-1238.122167	528.891602	296.116669
20392.455053	-1238.122167	527.643555	300.196991
20392.455053	-1238.122167	526.396484	521.690491
20392.455053	-1238.122167	525.148438	417.105225
20392.455053	-1238.122167	523.900391	216.018250
20392.455053	-1238.122167	522.652344	182.289261
20392.455053	-1238.122167	521.403320	155.493286
20392.455053	-1238.122167	520.154297	77.034393
20392.455053	-1238.122167	518.905273	19.314178
20392.455053	-1238.122167	517.656250	275.174652
20392.455053	-1238.122167	516.406250	-28.800396
20392.455053	-1238.122167	515.156250	75.484314
20392.455053	-1238.122167	513.906250	109.168533
20392.455053	-1238.122167	512.655273	68.852654
20392.455053	-1238.122167	511.404297	66.441345
20392.455053	-1238.122167	510.153320	100.189491
20392.455053	-1238.122167	508.902344	87.510162
20392.455053	-1238.122167	507.650391	4.353796
20392.455053	-1238.122167	506.398438	91.477844
20392.455053	-1238.122167	505.146484	99.520355
20392.455053	-1238.122167	503.893555	92.118248
20392.455053	-1238.122167	502.641602	239.391647
20392.455053	-1238.122167	501.388672	-70.326378
20392.455053	-1238.122167	500.134766	-190.960892
20392.455053	-1238.122167	498.881836	-31.620049
20392.455053	-1238.122167	497.627930	-102.369728
20392.455053	-1238.122167	496.374023	-15.153697
20392.455053	-1238.122167	495.119141	-120.146706
20392.455053	-1238.122167	493.865234	-19.186317
20392.455053	-1238.122167	492.610352	62.884735
20392.455053	-1238.122167	491.355469	-108.862968
20392.455053	-1238.122167	490.099609	-88.485641
20392.455053	-1238.122167	488.843750	-165.802032
20392.455053	-1238.122167	487.587891	-143.661591
20392.455053	-1238.122167	486.332031	-80.386452
20392.455053	-1238.122167	485.075195	-167.870422
20392.455053	-1238.122167	483.818359	-186.789001
20392.455053	-1238.122167	482.561523	3.223968
20392.455053	-1238.122167	481.304688	-77.317520
20392.455053	-1238.122167	480.046875	-32.864563
20392.455053	-1238.122167	478.789063	-29.483612
20392.455053	-1238.122167	477.531250	-38.067101
20392.455053	-1238.122167	476.272461	-68.873436
20392.455053	-1238.122167	475.013672	20.053141
20392.455053	-1238.122167	473.754883	-29.538427
20392.455053	-1238.122167	472.496094	-210.723495
20392.455053	-1238.122167	471.236328	-20.971163
20392.455053	-1238.122167	469.976563	-46.584343
20392.455053	-1238.122167	468.716797	-63.643013
20392.455053	-1238.122167	467.456055	-12.380200
20392.455053	-1238.122167	466.196289	74.720894
20392.455053	-1238.122167	464.935547	-72.104797
20392.455053	-1238.122167	463.673828	-2.110470
20392.455053	-1238.122167	462.413086	100.269257
20392.455053	-1238.122167	461.151367	-7.252472
20392.455053	-1238.122167	459.889648	37.064686
20392.455053	-1238.122167	458.626953	101.810265
20392.455053	-1238.122167	457.364258	130.704895
20392.455053	-1238.122167	456.101563	47.063183
20392.455053	-1238.122167	454.838867	-160.974197
20392.455053	-1238.122167	453.575195	-9.438290
20392.455053	-1238.122167	452.312500	-84.558281
20392.455053	-1238.122167	451.047852	-2.996855
20392.455053	-1238.122167	449.784180	-45.805836
20392.455053	-1238.122167	448.519531	35.634773
20392.455053	-1238.122167	447.254883	-117.879944
20392.455053	-1238.122167	445.990234	63.847546
20392.455053	-1238.122167	444.725586	10.669901
20392.455053	-1238.122167	443.459961	-66.355247
20392.455053	-1238.122167	442.194336	19.846136
20392.455053	-1238.122167	440.927734	14.134052
20392.455053	-1238.122167	439.662109	50.855946
20392.455053	-1238.122167	438.395508	-55.266285
20392.455053	-1238.122167	437.127930	-52.681686
20392.455053	-1238.122167	435.861328	21.169010
20392.455053	-1238.122167	434.593750	35.457146
20392.455053	-1238.122167	433.326172	95.492470
20392.455053	-1238.122167	432.058594	0.924175
20392.455053	-1238.122167	430.790039	108.262993
20392.455053	-1238.122167	429.521484	154.359451
20392.455053	-1238.122167	428.252930	217.289032
20392.455053	-1238.122167	426.984375	266.503082
20392.455053	-1238.122167	425.714844	95.119713
20392.455053	-1238.122167	424.445313	233.935471
20392.455053	-1238.122167	423.174805	297.969330
20392.455053	-1238.122167	421.905273	299.133209
20392.455053	-1238.122167	420.634766	188.319458
20392.455053	-1238.122167	419.364258	280.667053
20392.455053	-1238.122167	418.092773	410.063995
20392.455053	-1238.122167	416.822266	481.670410
20392.455053	-1238.122167	415.550781	537.826233
20392.455053	-1238.122167	414.278320	497.297058
20392.455053	-1238.122167	413.006836	561.505981
20392.455053	-1238.122167	411.734375	664.388245
20392.455053	-1238.122167	410.461914	635.091125
20392.455053	-1238.122167	409.188477	566.689758
20392.455053	-1238.122167	407.916016	623.202393
20392.455053	-1238.122167	406.642578	569.581604
20392.455053	-1238.122167	405.368164	723.589661
20392.455053	-1238.122167	404.094727	764.085022
20392.455053	-1238.122167	402.820313	751.927734
20392.455053	-1238.122167	401.545898	592.579468
20392.455053	-1238.122167	400.270508	706.533203
20392.455053	-1238.122167	398.996094	658.097534
20392.455053	-1238.122167	397.720703	746.074280
20392.455053	-1238.122167	396.444336	735.827332
20392.455053	-1238.122167	395.168945	791.056580
20392.455053	-1238.122167	393.892578	670.513794
20392.455053	-1238.122167	392.616211	601.947632
20392.455053	-1238.122167	391.339844	553.281250
20392.455053	-1238.122167	390.062500	489.087769
20392.455053	-1238.122167	388.785156	343.651947
20392.455053	-1238.122167	387.507813	297.283905
20392.455053	-1238.122167	386.229492	472.855896
20392.455053	-1238.122167	384.951172	412.167267
20392.455053	-1238.122167	383.672852	357.804779
20392.455053	-1238.122167	382.394531	503.327484
20392.455053	-1238.122167	381.115234	355.486023
20392.455053	-1238.122167	379.835938	309.868073
20392.455053	-1238.122167	378.556641	300.786713
20392.455053	-1238.122167	377.277344	240.749115
20392.455053	-1238.122167	375.997070	213.833328
20392.455053	-1238.122167	374.716797	6.515929
20392.455053	-1238.122167	373.435547	168.482880
20392.455053	-1238.122167	372.155273	160.108810
20392.455053	-1238.122167	370.874023	13.380373
20392.455053	-1238.122167	369.591797	-33.121300
20392.455053	-1238.122167	368.310547	67.567963
20392.455053	-1238.122167	367.028320	83.617676
20392.455053	-1238.122167	365.746094	-26.882559
20392.455053	-1238.122167	364.463867	24.777300
20392.455053	-1238.122167	363.180664	48.861744
20392.455053	-1238.122167	361.897461	37.001812
20392.455053	-1238.122167	360.614258	86.470947
20392.455053	-1238.122167	359.330078	9.399076
20392.455053	-1238.122167	358.045898	-76.788322
20392.455053	-1238.122167	356.761719	12.252390
20392.455053	-1238.122167	355.477539	33.421112
20392.455053	-1238.122167	354.192383	21.901508
20392.455053	-1238.122167	352.907227	-23.962183
20392.455053	-1238.122167	351.622070	78.352821
20392.455053	-1238.122167	350.336914	109.415779
20392.455053	-1238.122167	349.050781	126.132683
20392.455053	-1238.122167	347.764648	19.742294
20392.455053	-1238.122167	346.477539	-18.996220
20392.455053	-1238.122167	345.191406	157.095932
20392.455053	-1238.122167	343.904297	109.653015
20392.455053	-1238.122167	342.616211	99.620338
20392.455053	-1238.122167	341.329102	91.900673
20392.455053	-1238.122167	340.041016	71.366432
20392.455053	-1238.122167	338.752930	-109.005165
20392.455053	-1238.122167	337.463867	-166.855225
20392.455053	-1238.122167	336.175781	64.786308
20392.455053	-1238.122167	334.886719	16.245220
20392.455053	-1238.122167	333.596680	-91.962494
20392.455053	-1238.122167	332.307617	70.710388
20392.455053	-1238.122167	331.017578	-66.699478
20392.455053	-1238.122167	329.727539	18.191183
20392.455053	-1238.122167	328.436523	39.950085
20392.455053	-1238.122167	327.146484	47.021843
20392.455053	-1238.122167	325.855469	-177.430069
20392.455053	-1238.122167	324.563477	-149.899460
20392.455053	-1238.122167	323.272461	-23.819775
20392.455053	-1238.122167	321.980469	90.662697
20392.455053	-1238.122167	320.688477	-56.301594
20392.455053	-1238.122167	319.395508	18.347582
20392.455053	-1238.122167	318.103516	4.821366
20392.455053	-1238.122167	316.810547	16.250160
20392.455053	-1238.122167	315.516602	-95.546753
20392.455053	-1238.122167	314.223633	-257.212952
20392.455053	-1238.122167	312.929688	-71.256142
20392.455053	-1238.122167	311.635742	-20.225626
20392.455053	-1238.122167	310.340820	48.856522
20392.455053	-1238.122167	309.045898	-75.143578
20392.455053	-1238.122167	307.750977	-119.551018
20392.455053	-1238.122167	306.456055	-92.765686
20392.455053	-1238.122167	305.160156	154.591339
20392.455053	-1238.122167	303.865234	75.971718
20392.455053	-1238.122167	302.568359	11.799534
20392.455053	-1238.122167	301.272461	234.500824
20392.455053	-1238.122167	299.975586	297.188446
20392.455053	-1238.122167	298.678711	337.733124
