#X		#Y		#Wave		#Intensity
20471.276383	-756.432833	1999.980469	-222.665588
20471.276383	-756.432833	1999.016602	-11.470930
20471.276383	-756.432833	1998.052734	118.578186
20471.276383	-756.432833	1997.087891	196.804016
20471.276383	-756.432833	1996.123047	-9.670769
20471.276383	-756.432833	1995.158203	41.814274
20471.276383	-756.432833	1994.193359	125.722511
20471.276383	-756.432833	1993.228516	232.122955
20471.276383	-756.432833	1992.262695	53.989403
20471.276383	-756.432833	1991.297852	-37.215607
20471.276383	-756.432833	1990.332031	-26.704918
20471.276383	-756.432833	1989.366211	60.716827
20471.276383	-756.432833	1988.399414	79.032745
20471.276383	-756.432833	1987.433594	156.899612
20471.276383	-756.432833	1986.466797	4.926241
20471.276383	-756.432833	1985.500977	83.142967
20471.276383	-756.432833	1984.534180	334.552216
20471.276383	-756.432833	1983.567383	94.166489
20471.276383	-756.432833	1982.599609	195.059708
20471.276383	-756.432833	1981.632813	58.874748
20471.276383	-756.432833	1980.665039	-59.819611
20471.276383	-756.432833	1979.697266	244.018295
20471.276383	-756.432833	1978.729492	56.467617
20471.276383	-756.432833	1977.761719	32.068592
20471.276383	-756.432833	1976.792969	42.361698
20471.276383	-756.432833	1975.825195	-16.334328
20471.276383	-756.432833	1974.856445	-158.791031
20471.276383	-756.432833	1973.887695	-81.511726
20471.276383	-756.432833	1972.918945	30.377489
20471.276383	-756.432833	1971.949219	-79.633499
20471.276383	-756.432833	1970.980469	234.598755
20471.276383	-756.432833	1970.010742	-102.029625
20471.276383	-756.432833	1969.041016	15.081654
20471.276383	-756.432833	1968.071289	154.409592
20471.276383	-756.432833	1967.101563	76.940102
20471.276383	-756.432833	1966.130859	-214.746857
20471.276383	-756.432833	1965.161133	-186.068756
20471.276383	-756.432833	1964.190430	-184.422729
20471.276383	-756.432833	1963.219727	-66.997414
20471.276383	-756.432833	1962.249023	99.674103
20471.276383	-756.432833	1961.277344	86.673546
20471.276383	-756.432833	1960.306641	14.670277
20471.276383	-756.432833	1959.334961	-143.365570
20471.276383	-756.432833	1958.363281	-52.861691
20471.276383	-756.432833	1957.391602	-122.206169
20471.276383	-756.432833	1956.419922	32.268669
20471.276383	-756.432833	1955.447266	-19.785297
20471.276383	-756.432833	1954.474609	-69.329773
20471.276383	-756.432833	1953.501953	90.059036
20471.276383	-756.432833	1952.529297	28.279619
20471.276383	-756.432833	1951.556641	57.440506
20471.276383	-756.432833	1950.583984	74.328041
20471.276383	-756.432833	1949.610352	61.761723
20471.276383	-756.432833	1948.636719	14.840720
20471.276383	-756.432833	1947.663086	-162.153275
20471.276383	-756.432833	1946.689453	78.160126
20471.276383	-756.432833	1945.715820	239.868439
20471.276383	-756.432833	1944.741211	136.557175
20471.276383	-756.432833	1943.767578	30.832752
20471.276383	-756.432833	1942.792969	84.560997
20471.276383	-756.432833	1941.818359	148.075882
20471.276383	-756.432833	1940.842773	84.085251
20471.276383	-756.432833	1939.868164	64.229950
20471.276383	-756.432833	1938.892578	34.575272
20471.276383	-756.432833	1937.916992	-39.182259
20471.276383	-756.432833	1936.941406	85.507355
20471.276383	-756.432833	1935.965820	-86.225746
20471.276383	-756.432833	1934.990234	13.910729
20471.276383	-756.432833	1934.013672	-50.044937
20471.276383	-756.432833	1933.037109	-104.202530
20471.276383	-756.432833	1932.060547	81.492119
20471.276383	-756.432833	1931.083984	68.891098
20471.276383	-756.432833	1930.107422	198.171738
20471.276383	-756.432833	1929.129883	217.309982
20471.276383	-756.432833	1928.153320	-25.269161
20471.276383	-756.432833	1927.175781	-37.933712
20471.276383	-756.432833	1926.198242	34.945297
20471.276383	-756.432833	1925.219727	-51.107304
20471.276383	-756.432833	1924.242188	92.559502
20471.276383	-756.432833	1923.263672	79.770004
20471.276383	-756.432833	1922.285156	47.411270
20471.276383	-756.432833	1921.306641	-24.046978
20471.276383	-756.432833	1920.328125	36.355247
20471.276383	-756.432833	1919.349609	108.909042
20471.276383	-756.432833	1918.370117	-45.618534
20471.276383	-756.432833	1917.391602	256.270935
20471.276383	-756.432833	1916.412109	99.261909
20471.276383	-756.432833	1915.431641	8.146474
20471.276383	-756.432833	1914.452148	124.362823
20471.276383	-756.432833	1913.472656	194.159561
20471.276383	-756.432833	1912.492188	-53.092758
20471.276383	-756.432833	1911.511719	75.141159
20471.276383	-756.432833	1910.531250	139.913437
20471.276383	-756.432833	1909.550781	-73.195473
20471.276383	-756.432833	1908.569336	-47.486908
20471.276383	-756.432833	1907.588867	119.461464
20471.276383	-756.432833	1906.607422	-74.167374
20471.276383	-756.432833	1905.625977	-72.953934
20471.276383	-756.432833	1904.644531	-96.132072
20471.276383	-756.432833	1903.662109	-87.700516
20471.276383	-756.432833	1902.680664	154.327103
20471.276383	-756.432833	1901.698242	45.817070
20471.276383	-756.432833	1900.715820	-150.281525
20471.276383	-756.432833	1899.733398	356.619843
20471.276383	-756.432833	1898.750000	-48.706207
20471.276383	-756.432833	1897.767578	-13.822516
20471.276383	-756.432833	1896.784180	-32.482338
20471.276383	-756.432833	1895.800781	126.252037
20471.276383	-756.432833	1894.817383	29.712395
20471.276383	-756.432833	1893.833984	263.600647
20471.276383	-756.432833	1892.850586	169.404846
20471.276383	-756.432833	1891.866211	138.343719
20471.276383	-756.432833	1890.881836	-324.999207
20471.276383	-756.432833	1889.897461	-91.415123
20471.276383	-756.432833	1888.913086	-69.153206
20471.276383	-756.432833	1887.927734	149.634995
20471.276383	-756.432833	1886.943359	6.740354
20471.276383	-756.432833	1885.958008	91.899963
20471.276383	-756.432833	1884.972656	26.588339
20471.276383	-756.432833	1883.987305	0.055378
20471.276383	-756.432833	1883.001953	114.113487
20471.276383	-756.432833	1882.015625	160.199768
20471.276383	-756.432833	1881.029297	-94.332130
20471.276383	-756.432833	1880.042969	179.468918
20471.276383	-756.432833	1879.056641	-164.720413
20471.276383	-756.432833	1878.070313	154.917221
20471.276383	-756.432833	1877.083984	-19.701214
20471.276383	-756.432833	1876.096680	-7.847872
20471.276383	-756.432833	1875.109375	-136.472458
20471.276383	-756.432833	1874.122070	-69.030075
20471.276383	-756.432833	1873.134766	-21.024643
20471.276383	-756.432833	1872.146484	-111.012657
20471.276383	-756.432833	1871.159180	-60.700554
20471.276383	-756.432833	1870.170898	253.190262
20471.276383	-756.432833	1869.182617	92.915482
20471.276383	-756.432833	1868.194336	24.528830
20471.276383	-756.432833	1867.205078	18.969673
20471.276383	-756.432833	1866.216797	-88.152481
20471.276383	-756.432833	1865.227539	77.783264
20471.276383	-756.432833	1864.238281	33.404922
20471.276383	-756.432833	1863.249023	133.930298
20471.276383	-756.432833	1862.259766	-14.397431
20471.276383	-756.432833	1861.269531	175.339340
20471.276383	-756.432833	1860.279297	142.841125
20471.276383	-756.432833	1859.290039	-44.180645
20471.276383	-756.432833	1858.298828	-81.557472
20471.276383	-756.432833	1857.308594	28.217009
20471.276383	-756.432833	1856.318359	38.988033
20471.276383	-756.432833	1855.327148	-0.950128
20471.276383	-756.432833	1854.335938	-48.159370
20471.276383	-756.432833	1853.344727	126.418922
20471.276383	-756.432833	1852.353516	132.133408
20471.276383	-756.432833	1851.362305	313.738983
20471.276383	-756.432833	1850.370117	225.332413
20471.276383	-756.432833	1849.377930	-5.241711
20471.276383	-756.432833	1848.385742	53.279320
20471.276383	-756.432833	1847.393555	41.884785
20471.276383	-756.432833	1846.401367	93.047356
20471.276383	-756.432833	1845.408203	62.283443
20471.276383	-756.432833	1844.415039	325.136139
20471.276383	-756.432833	1843.421875	-81.188522
20471.276383	-756.432833	1842.428711	20.278242
20471.276383	-756.432833	1841.435547	63.919239
20471.276383	-756.432833	1840.441406	-34.418320
20471.276383	-756.432833	1839.448242	-72.648636
20471.276383	-756.432833	1838.454102	-58.024601
20471.276383	-756.432833	1837.459961	23.848742
20471.276383	-756.432833	1836.464844	16.711950
20471.276383	-756.432833	1835.470703	67.198090
20471.276383	-756.432833	1834.475586	-12.123886
20471.276383	-756.432833	1833.480469	-72.252380
20471.276383	-756.432833	1832.485352	52.512779
20471.276383	-756.432833	1831.490234	-22.117496
20471.276383	-756.432833	1830.495117	20.862616
20471.276383	-756.432833	1829.499023	10.965757
20471.276383	-756.432833	1828.502930	200.201569
20471.276383	-756.432833	1827.506836	170.974319
20471.276383	-756.432833	1826.510742	67.340576
20471.276383	-756.432833	1825.513672	-26.717487
20471.276383	-756.432833	1824.517578	20.691074
20471.276383	-756.432833	1823.520508	29.665325
20471.276383	-756.432833	1822.523438	-57.300438
20471.276383	-756.432833	1821.526367	69.012466
20471.276383	-756.432833	1820.529297	22.699665
20471.276383	-756.432833	1819.531250	-97.919121
20471.276383	-756.432833	1818.533203	-41.296677
20471.276383	-756.432833	1817.535156	-6.302232
20471.276383	-756.432833	1816.537109	93.272133
20471.276383	-756.432833	1815.539063	-94.514091
20471.276383	-756.432833	1814.540039	-105.171562
20471.276383	-756.432833	1813.541992	195.215195
20471.276383	-756.432833	1812.542969	105.444267
20471.276383	-756.432833	1811.543945	140.040741
20471.276383	-756.432833	1810.543945	28.676388
20471.276383	-756.432833	1809.544922	125.336380
20471.276383	-756.432833	1808.544922	-36.299774
20471.276383	-756.432833	1807.544922	-128.611099
20471.276383	-756.432833	1806.544922	-44.095760
20471.276383	-756.432833	1805.544922	-83.915031
20471.276383	-756.432833	1804.544922	81.672157
20471.276383	-756.432833	1803.543945	46.505142
20471.276383	-756.432833	1802.542969	94.875061
20471.276383	-756.432833	1801.541992	-7.246548
20471.276383	-756.432833	1800.541016	215.263199
20471.276383	-756.432833	1799.539063	39.052994
20471.276383	-756.432833	1798.538086	13.188227
20471.276383	-756.432833	1797.536133	197.220261
20471.276383	-756.432833	1796.534180	-29.150288
20471.276383	-756.432833	1795.532227	-19.390392
20471.276383	-756.432833	1794.529297	116.677643
20471.276383	-756.432833	1793.527344	193.041611
20471.276383	-756.432833	1792.524414	221.642944
20471.276383	-756.432833	1791.521484	-71.539177
20471.276383	-756.432833	1790.518555	-85.902390
20471.276383	-756.432833	1789.514648	128.362534
20471.276383	-756.432833	1788.511719	11.435340
20471.276383	-756.432833	1787.507813	-157.900330
20471.276383	-756.432833	1786.503906	-1.060559
20471.276383	-756.432833	1785.500000	179.463272
20471.276383	-756.432833	1784.496094	214.684601
20471.276383	-756.432833	1783.491211	111.818611
20471.276383	-756.432833	1782.486328	123.122276
20471.276383	-756.432833	1781.481445	124.847343
20471.276383	-756.432833	1780.476563	50.411579
20471.276383	-756.432833	1779.471680	-104.898117
20471.276383	-756.432833	1778.465820	-41.513382
20471.276383	-756.432833	1777.460938	-4.353857
20471.276383	-756.432833	1776.455078	42.230026
20471.276383	-756.432833	1775.449219	-208.248489
20471.276383	-756.432833	1774.442383	61.512123
20471.276383	-756.432833	1773.436523	-124.876076
20471.276383	-756.432833	1772.429688	346.472351
20471.276383	-756.432833	1771.422852	-148.657654
20471.276383	-756.432833	1770.416016	11.447555
20471.276383	-756.432833	1769.409180	142.950851
20471.276383	-756.432833	1768.402344	162.823700
20471.276383	-756.432833	1767.394531	80.611328
20471.276383	-756.432833	1766.386719	33.942749
20471.276383	-756.432833	1765.378906	-48.343403
20471.276383	-756.432833	1764.371094	-121.179962
20471.276383	-756.432833	1763.362305	125.946815
20471.276383	-756.432833	1762.354492	131.182541
20471.276383	-756.432833	1761.345703	136.343918
20471.276383	-756.432833	1760.336914	-263.676971
20471.276383	-756.432833	1759.328125	-0.395010
20471.276383	-756.432833	1758.318359	236.663208
20471.276383	-756.432833	1757.308594	101.829391
20471.276383	-756.432833	1756.299805	298.406158
20471.276383	-756.432833	1755.290039	56.969284
20471.276383	-756.432833	1754.279297	-80.330261
20471.276383	-756.432833	1753.269531	-9.436601
20471.276383	-756.432833	1752.258789	-184.656174
20471.276383	-756.432833	1751.249023	27.994907
20471.276383	-756.432833	1750.238281	30.040997
20471.276383	-756.432833	1749.226563	79.291267
20471.276383	-756.432833	1748.215820	-96.087402
20471.276383	-756.432833	1747.204102	127.907501
20471.276383	-756.432833	1746.193359	-92.447517
20471.276383	-756.432833	1745.181641	67.538277
20471.276383	-756.432833	1744.168945	71.501205
20471.276383	-756.432833	1743.157227	4.556075
20471.276383	-756.432833	1742.144531	-52.998367
20471.276383	-756.432833	1741.132813	106.574028
20471.276383	-756.432833	1740.120117	-265.010254
20471.276383	-756.432833	1739.106445	-129.214508
20471.276383	-756.432833	1738.093750	105.551346
20471.276383	-756.432833	1737.080078	59.458481
20471.276383	-756.432833	1736.067383	138.308167
20471.276383	-756.432833	1735.053711	115.659981
20471.276383	-756.432833	1734.040039	-230.013214
20471.276383	-756.432833	1733.025391	-106.607727
20471.276383	-756.432833	1732.011719	-82.286568
20471.276383	-756.432833	1730.997070	-53.345173
20471.276383	-756.432833	1729.982422	149.824371
20471.276383	-756.432833	1728.967773	53.741444
20471.276383	-756.432833	1727.952148	-7.067715
20471.276383	-756.432833	1726.937500	-122.066208
20471.276383	-756.432833	1725.921875	42.993820
20471.276383	-756.432833	1724.906250	-39.181702
20471.276383	-756.432833	1723.890625	-215.515747
20471.276383	-756.432833	1722.875000	-93.101196
20471.276383	-756.432833	1721.858398	153.837799
20471.276383	-756.432833	1720.841797	-144.946625
20471.276383	-756.432833	1719.825195	68.841293
20471.276383	-756.432833	1718.808594	-201.756516
20471.276383	-756.432833	1717.791992	87.014740
20471.276383	-756.432833	1716.774414	121.819267
20471.276383	-756.432833	1715.756836	-29.058220
20471.276383	-756.432833	1714.739258	10.301160
20471.276383	-756.432833	1713.721680	51.916874
20471.276383	-756.432833	1712.704102	185.008591
20471.276383	-756.432833	1711.685547	1.054668
20471.276383	-756.432833	1710.667969	18.947792
20471.276383	-756.432833	1709.649414	-54.768414
20471.276383	-756.432833	1708.630859	80.271362
20471.276383	-756.432833	1707.611328	41.592098
20471.276383	-756.432833	1706.592773	87.289215
20471.276383	-756.432833	1705.573242	81.296432
20471.276383	-756.432833	1704.553711	108.048706
20471.276383	-756.432833	1703.534180	226.125137
20471.276383	-756.432833	1702.513672	72.231071
20471.276383	-756.432833	1701.494141	161.998779
20471.276383	-756.432833	1700.473633	246.958008
20471.276383	-756.432833	1699.453125	6.259905
20471.276383	-756.432833	1698.432617	191.752182
20471.276383	-756.432833	1697.412109	103.178062
20471.276383	-756.432833	1696.390625	419.495422
20471.276383	-756.432833	1695.369141	17.149698
20471.276383	-756.432833	1694.347656	185.798172
20471.276383	-756.432833	1693.326172	204.583527
20471.276383	-756.432833	1692.304688	277.081024
20471.276383	-756.432833	1691.282227	272.291229
20471.276383	-756.432833	1690.260742	384.339264
20471.276383	-756.432833	1689.238281	316.262238
20471.276383	-756.432833	1688.214844	383.676239
20471.276383	-756.432833	1687.192383	460.345490
20471.276383	-756.432833	1686.168945	520.543030
20471.276383	-756.432833	1685.146484	232.621277
20471.276383	-756.432833	1684.123047	446.816864
20471.276383	-756.432833	1683.099609	569.793945
20471.276383	-756.432833	1682.075195	445.185272
20471.276383	-756.432833	1681.051758	448.928833
20471.276383	-756.432833	1680.027344	317.238342
20471.276383	-756.432833	1679.002930	472.491058
20471.276383	-756.432833	1677.978516	394.345428
20471.276383	-756.432833	1676.953125	537.698669
20471.276383	-756.432833	1675.928711	638.962036
20471.276383	-756.432833	1674.903320	684.148438
20471.276383	-756.432833	1673.877930	745.557434
20471.276383	-756.432833	1672.852539	781.234192
20471.276383	-756.432833	1671.826172	583.814941
20471.276383	-756.432833	1670.800781	773.106140
20471.276383	-756.432833	1669.774414	554.654358
20471.276383	-756.432833	1668.748047	645.915649
20471.276383	-756.432833	1667.721680	792.943115
20471.276383	-756.432833	1666.694336	769.905884
20471.276383	-756.432833	1665.667969	786.380737
20471.276383	-756.432833	1664.640625	912.122437
20471.276383	-756.432833	1663.613281	770.212585
20471.276383	-756.432833	1662.585938	858.549072
20471.276383	-756.432833	1661.557617	1170.008667
20471.276383	-756.432833	1660.530273	1267.390503
20471.276383	-756.432833	1659.501953	862.547485
20471.276383	-756.432833	1658.473633	1055.082031
20471.276383	-756.432833	1657.444336	1110.364014
20471.276383	-756.432833	1656.416016	1244.555298
20471.276383	-756.432833	1655.386719	1267.119751
20471.276383	-756.432833	1654.358398	1131.703003
20471.276383	-756.432833	1653.328125	1265.577148
20471.276383	-756.432833	1652.298828	1441.129028
20471.276383	-756.432833	1651.269531	1256.796997
20471.276383	-756.432833	1650.239258	1483.183594
20471.276383	-756.432833	1649.208984	1549.331665
20471.276383	-756.432833	1648.178711	1501.725830
20471.276383	-756.432833	1647.148438	1352.029785
20471.276383	-756.432833	1646.117188	1608.084473
20471.276383	-756.432833	1645.086914	1497.703735
20471.276383	-756.432833	1644.055664	1568.075684
20471.276383	-756.432833	1643.024414	1490.044922
20471.276383	-756.432833	1641.992188	1557.930908
20471.276383	-756.432833	1640.960938	1936.147461
20471.276383	-756.432833	1639.928711	1774.508301
20471.276383	-756.432833	1638.896484	1728.648315
20471.276383	-756.432833	1637.864258	1742.936523
20471.276383	-756.432833	1636.832031	1701.605835
20471.276383	-756.432833	1635.798828	1771.298462
20471.276383	-756.432833	1634.766602	1838.604858
20471.276383	-756.432833	1633.733398	2026.102783
20471.276383	-756.432833	1632.699219	2093.185303
20471.276383	-756.432833	1631.666016	1912.769409
20471.276383	-756.432833	1630.632813	1947.378052
20471.276383	-756.432833	1629.598633	1771.553711
20471.276383	-756.432833	1628.564453	1891.557983
20471.276383	-756.432833	1627.530273	2032.255859
20471.276383	-756.432833	1626.495117	2078.112305
20471.276383	-756.432833	1625.460938	2375.671143
20471.276383	-756.432833	1624.425781	2174.240479
20471.276383	-756.432833	1623.390625	2155.233887
20471.276383	-756.432833	1622.355469	2191.582764
20471.276383	-756.432833	1621.319336	2290.165039
20471.276383	-756.432833	1620.284180	2321.757080
20471.276383	-756.432833	1619.248047	2493.999268
20471.276383	-756.432833	1618.211914	2308.604492
20471.276383	-756.432833	1617.174805	2402.260742
20471.276383	-756.432833	1616.138672	2389.786621
20471.276383	-756.432833	1615.101563	2727.651855
20471.276383	-756.432833	1614.065430	2641.272461
20471.276383	-756.432833	1613.027344	2697.719482
20471.276383	-756.432833	1611.990234	2454.608643
20471.276383	-756.432833	1610.953125	2768.983398
20471.276383	-756.432833	1609.915039	2535.063721
20471.276383	-756.432833	1608.876953	2692.626465
20471.276383	-756.432833	1607.838867	2831.668945
20471.276383	-756.432833	1606.800781	2565.527588
20471.276383	-756.432833	1605.761719	3022.011475
20471.276383	-756.432833	1604.723633	3052.655029
20471.276383	-756.432833	1603.684570	3315.563232
20471.276383	-756.432833	1602.644531	3166.643311
20471.276383	-756.432833	1601.605469	3272.994385
20471.276383	-756.432833	1600.566406	3314.900391
20471.276383	-756.432833	1599.526367	3538.320801
20471.276383	-756.432833	1598.486328	3940.868408
20471.276383	-756.432833	1597.446289	3704.493164
20471.276383	-756.432833	1596.405273	3605.990479
20471.276383	-756.432833	1595.365234	3895.657471
20471.276383	-756.432833	1594.324219	4169.091797
20471.276383	-756.432833	1593.283203	4098.019531
20471.276383	-756.432833	1592.242188	4240.417969
20471.276383	-756.432833	1591.200195	4215.186523
20471.276383	-756.432833	1590.159180	3937.564941
20471.276383	-756.432833	1589.117188	4001.821289
20471.276383	-756.432833	1588.075195	3719.699219
20471.276383	-756.432833	1587.032227	3666.962891
20471.276383	-756.432833	1585.990234	3602.778564
20471.276383	-756.432833	1584.947266	3485.860840
20471.276383	-756.432833	1583.904297	3680.652832
20471.276383	-756.432833	1582.861328	3790.571777
20471.276383	-756.432833	1581.818359	3987.483887
20471.276383	-756.432833	1580.775391	3820.122803
20471.276383	-756.432833	1579.731445	3822.256592
20471.276383	-756.432833	1578.687500	3753.400391
20471.276383	-756.432833	1577.643555	3746.364258
20471.276383	-756.432833	1576.598633	3746.169922
20471.276383	-756.432833	1575.554688	4304.300293
20471.276383	-756.432833	1574.509766	4269.661621
20471.276383	-756.432833	1573.464844	4658.177734
20471.276383	-756.432833	1572.419922	4724.089355
20471.276383	-756.432833	1571.374023	4769.376465
20471.276383	-756.432833	1570.329102	4867.233887
20471.276383	-756.432833	1569.283203	5138.730957
20471.276383	-756.432833	1568.237305	5033.084961
20471.276383	-756.432833	1567.191406	5016.581543
20471.276383	-756.432833	1566.144531	5066.306641
20471.276383	-756.432833	1565.098633	5216.514648
20471.276383	-756.432833	1564.051758	5195.404785
20471.276383	-756.432833	1563.004883	5375.195313
20471.276383	-756.432833	1561.957031	5703.258789
20471.276383	-756.432833	1560.910156	5704.899902
20471.276383	-756.432833	1559.862305	5790.946777
20471.276383	-756.432833	1558.814453	5699.049316
20471.276383	-756.432833	1557.766602	5392.822754
20471.276383	-756.432833	1556.718750	5369.465332
20471.276383	-756.432833	1555.669922	5227.569336
20471.276383	-756.432833	1554.621094	5197.424316
20471.276383	-756.432833	1553.573242	4848.292480
20471.276383	-756.432833	1552.523438	4676.993652
20471.276383	-756.432833	1551.474609	4109.444824
20471.276383	-756.432833	1550.424805	4018.104736
20471.276383	-756.432833	1549.375000	3888.113037
20471.276383	-756.432833	1548.325195	3525.985107
20471.276383	-756.432833	1547.275391	3555.510742
20471.276383	-756.432833	1546.225586	2931.941650
20471.276383	-756.432833	1545.174805	2752.288574
20471.276383	-756.432833	1544.124023	2898.021729
20471.276383	-756.432833	1543.073242	2793.552734
20471.276383	-756.432833	1542.022461	2491.329590
20471.276383	-756.432833	1540.970703	2143.772217
20471.276383	-756.432833	1539.919922	2005.512451
20471.276383	-756.432833	1538.868164	1840.052734
20471.276383	-756.432833	1537.815430	1947.324951
20471.276383	-756.432833	1536.763672	1779.742432
20471.276383	-756.432833	1535.710938	1684.924805
20471.276383	-756.432833	1534.659180	1771.855591
20471.276383	-756.432833	1533.606445	1679.425049
20471.276383	-756.432833	1532.552734	1618.834839
20471.276383	-756.432833	1531.500000	1431.242065
20471.276383	-756.432833	1530.446289	1649.888672
20471.276383	-756.432833	1529.393555	1718.790039
20471.276383	-756.432833	1528.338867	1656.135254
20471.276383	-756.432833	1527.285156	1729.622559
20471.276383	-756.432833	1526.231445	1540.144287
20471.276383	-756.432833	1525.176758	1588.777710
20471.276383	-756.432833	1524.122070	1852.735229
20471.276383	-756.432833	1523.067383	1921.785034
20471.276383	-756.432833	1522.012695	1877.594238
20471.276383	-756.432833	1520.957031	1944.442505
20471.276383	-756.432833	1519.901367	1981.882935
20471.276383	-756.432833	1518.845703	2017.104492
20471.276383	-756.432833	1517.790039	1905.241211
20471.276383	-756.432833	1516.734375	1949.638184
20471.276383	-756.432833	1515.677734	2109.459961
20471.276383	-756.432833	1514.621094	2196.892334
20471.276383	-756.432833	1513.564453	1940.567383
20471.276383	-756.432833	1512.507813	2116.322510
20471.276383	-756.432833	1511.450195	2136.060547
20471.276383	-756.432833	1510.393555	2155.875977
20471.276383	-756.432833	1509.335938	1913.583496
20471.276383	-756.432833	1508.278320	1947.120361
20471.276383	-756.432833	1507.219727	1854.196655
20471.276383	-756.432833	1506.162109	2084.380615
20471.276383	-756.432833	1505.103516	1743.217896
20471.276383	-756.432833	1504.044922	1738.667236
20471.276383	-756.432833	1502.986328	1612.306030
20471.276383	-756.432833	1501.926758	1479.290039
20471.276383	-756.432833	1500.868164	1319.346680
20471.276383	-756.432833	1499.808594	1017.412292
20471.276383	-756.432833	1498.749023	1191.587646
20471.276383	-756.432833	1497.688477	962.115540
20471.276383	-756.432833	1496.628906	1233.353760
20471.276383	-756.432833	1495.568359	1243.078247
20471.276383	-756.432833	1494.507813	833.700684
20471.276383	-756.432833	1493.447266	863.960632
20471.276383	-756.432833	1492.386719	1047.490234
20471.276383	-756.432833	1491.325195	1240.036743
20471.276383	-756.432833	1490.263672	1410.082153
20471.276383	-756.432833	1489.202148	1393.286743
20471.276383	-756.432833	1488.140625	1201.014893
20471.276383	-756.432833	1487.079102	1483.785522
20471.276383	-756.432833	1486.016602	1807.035034
20471.276383	-756.432833	1484.954102	1900.788574
20471.276383	-756.432833	1483.891602	2095.824707
20471.276383	-756.432833	1482.829102	1886.109253
20471.276383	-756.432833	1481.765625	1885.674927
20471.276383	-756.432833	1480.702148	2303.437012
20471.276383	-756.432833	1479.638672	2037.949341
20471.276383	-756.432833	1478.575195	2080.490479
20471.276383	-756.432833	1477.511719	2195.009033
20471.276383	-756.432833	1476.447266	2186.029785
20471.276383	-756.432833	1475.382813	1948.126099
20471.276383	-756.432833	1474.318359	1959.658325
20471.276383	-756.432833	1473.253906	1683.934204
20471.276383	-756.432833	1472.189453	1624.073975
20471.276383	-756.432833	1471.124023	1783.867065
20471.276383	-756.432833	1470.058594	1513.266846
20471.276383	-756.432833	1468.993164	1733.926514
20471.276383	-756.432833	1467.927734	1611.798584
20471.276383	-756.432833	1466.861328	1559.240967
20471.276383	-756.432833	1465.794922	1540.114868
20471.276383	-756.432833	1464.728516	1700.554077
20471.276383	-756.432833	1463.662109	1822.960083
20471.276383	-756.432833	1462.594727	1600.691406
20471.276383	-756.432833	1461.528320	1461.147339
20471.276383	-756.432833	1460.460938	1534.698608
20471.276383	-756.432833	1459.393555	1409.711182
20471.276383	-756.432833	1458.326172	1578.842285
20471.276383	-756.432833	1457.257813	1333.986328
20471.276383	-756.432833	1456.189453	1048.602783
20471.276383	-756.432833	1455.121094	1173.846924
20471.276383	-756.432833	1454.052734	1181.098511
20471.276383	-756.432833	1452.984375	1267.905518
20471.276383	-756.432833	1451.915039	1381.791626
20471.276383	-756.432833	1450.845703	1225.454102
20471.276383	-756.432833	1449.776367	1214.778442
20471.276383	-756.432833	1448.707031	1231.160156
20471.276383	-756.432833	1447.636719	1406.848145
20471.276383	-756.432833	1446.567383	1414.654053
20471.276383	-756.432833	1445.497070	1390.494873
20471.276383	-756.432833	1444.425781	1252.909058
20471.276383	-756.432833	1443.355469	1088.595947
20471.276383	-756.432833	1442.285156	1122.396606
20471.276383	-756.432833	1441.213867	1040.871094
20471.276383	-756.432833	1440.142578	988.394775
20471.276383	-756.432833	1439.070313	1125.991089
20471.276383	-756.432833	1437.999023	895.586487
20471.276383	-756.432833	1436.926758	966.920410
20471.276383	-756.432833	1435.854492	732.422302
20471.276383	-756.432833	1434.782227	633.086060
20471.276383	-756.432833	1433.709961	653.255188
20471.276383	-756.432833	1432.636719	714.562256
20471.276383	-756.432833	1431.563477	705.075684
20471.276383	-756.432833	1430.490234	586.130188
20471.276383	-756.432833	1429.416992	512.304565
20471.276383	-756.432833	1428.343750	677.443298
20471.276383	-756.432833	1427.269531	522.814392
20471.276383	-756.432833	1426.195313	472.554810
20471.276383	-756.432833	1425.121094	378.125122
20471.276383	-756.432833	1424.046875	232.159805
20471.276383	-756.432833	1422.971680	411.267212
20471.276383	-756.432833	1421.896484	394.399139
20471.276383	-756.432833	1420.821289	119.936028
20471.276383	-756.432833	1419.746094	229.298416
20471.276383	-756.432833	1418.669922	114.613785
20471.276383	-756.432833	1417.594727	328.076294
20471.276383	-756.432833	1416.518555	276.832062
20471.276383	-756.432833	1415.442383	277.990082
20471.276383	-756.432833	1414.365234	354.757477
20471.276383	-756.432833	1413.289063	454.882813
20471.276383	-756.432833	1412.211914	295.699890
20471.276383	-756.432833	1411.134766	560.359985
20471.276383	-756.432833	1410.057617	541.033508
20471.276383	-756.432833	1408.979492	466.724182
20471.276383	-756.432833	1407.902344	639.329346
20471.276383	-756.432833	1406.824219	687.505554
20471.276383	-756.432833	1405.746094	598.469727
20471.276383	-756.432833	1404.666992	694.165527
20471.276383	-756.432833	1403.588867	998.236084
20471.276383	-756.432833	1402.509766	1023.582336
20471.276383	-756.432833	1401.430664	775.665588
20471.276383	-756.432833	1400.351563	887.665833
20471.276383	-756.432833	1399.271484	973.177917
20471.276383	-756.432833	1398.192383	1071.771118
20471.276383	-756.432833	1397.112305	1093.816406
20471.276383	-756.432833	1396.031250	1058.045288
20471.276383	-756.432833	1394.951172	989.525757
20471.276383	-756.432833	1393.871094	1078.694702
20471.276383	-756.432833	1392.790039	1205.224121
20471.276383	-756.432833	1391.708984	1314.218262
20471.276383	-756.432833	1390.626953	1321.862915
20471.276383	-756.432833	1389.545898	1203.586060
20471.276383	-756.432833	1388.463867	1287.468140
20471.276383	-756.432833	1387.381836	1406.120728
20471.276383	-756.432833	1386.299805	1665.360107
20471.276383	-756.432833	1385.217773	1526.380005
20471.276383	-756.432833	1384.134766	1495.697144
20471.276383	-756.432833	1383.051758	1379.906616
20471.276383	-756.432833	1381.968750	1280.615723
20471.276383	-756.432833	1380.885742	1157.811035
20471.276383	-756.432833	1379.802734	925.453430
20471.276383	-756.432833	1378.718750	1163.781250
20471.276383	-756.432833	1377.634766	1054.851563
20471.276383	-756.432833	1376.550781	750.314575
20471.276383	-756.432833	1375.465820	769.116150
20471.276383	-756.432833	1374.381836	726.751526
20471.276383	-756.432833	1373.296875	501.643707
20471.276383	-756.432833	1372.211914	336.420013
20471.276383	-756.432833	1371.126953	353.783508
20471.276383	-756.432833	1370.041016	526.643555
20471.276383	-756.432833	1368.955078	547.736450
20471.276383	-756.432833	1367.869141	340.636169
20471.276383	-756.432833	1366.783203	319.136566
20471.276383	-756.432833	1365.697266	122.708145
20471.276383	-756.432833	1364.610352	267.757202
20471.276383	-756.432833	1363.523438	-41.768131
20471.276383	-756.432833	1362.436523	12.521621
20471.276383	-756.432833	1361.349609	218.013901
20471.276383	-756.432833	1360.261719	186.358719
20471.276383	-756.432833	1359.174805	-18.164448
20471.276383	-756.432833	1358.086914	-38.314793
20471.276383	-756.432833	1356.998047	-62.908524
20471.276383	-756.432833	1355.910156	50.600380
20471.276383	-756.432833	1354.821289	-83.422318
20471.276383	-756.432833	1353.732422	-195.747803
20471.276383	-756.432833	1352.643555	-14.814936
20471.276383	-756.432833	1351.554688	-338.288147
20471.276383	-756.432833	1350.464844	-2.915523
20471.276383	-756.432833	1349.375000	163.154053
20471.276383	-756.432833	1348.285156	408.764893
20471.276383	-756.432833	1347.195313	-64.923302
20471.276383	-756.432833	1346.105469	-48.161942
20471.276383	-756.432833	1345.014648	329.086731
20471.276383	-756.432833	1343.923828	279.012817
20471.276383	-756.432833	1342.833008	301.090393
20471.276383	-756.432833	1341.741211	114.652634
20471.276383	-756.432833	1340.650391	264.215424
20471.276383	-756.432833	1339.558594	172.178116
20471.276383	-756.432833	1338.466797	282.554108
20471.276383	-756.432833	1337.374023	84.794312
20471.276383	-756.432833	1336.282227	14.011961
20471.276383	-756.432833	1335.189453	164.516724
20471.276383	-756.432833	1334.096680	58.567444
20471.276383	-756.432833	1333.003906	33.800213
20471.276383	-756.432833	1331.910156	67.388252
20471.276383	-756.432833	1330.817383	178.813339
20471.276383	-756.432833	1329.723633	322.177582
20471.276383	-756.432833	1328.629883	324.132599
20471.276383	-756.432833	1327.535156	366.526886
20471.276383	-756.432833	1326.441406	536.940613
20471.276383	-756.432833	1325.346680	558.829590
20471.276383	-756.432833	1324.251953	488.285126
20471.276383	-756.432833	1323.156250	622.518616
20471.276383	-756.432833	1322.061523	699.177307
20471.276383	-756.432833	1320.965820	511.111725
20471.276383	-756.432833	1319.870117	494.929077
20471.276383	-756.432833	1318.774414	286.241852
20471.276383	-756.432833	1317.678711	520.307007
20471.276383	-756.432833	1316.582031	111.617912
20471.276383	-756.432833	1315.485352	153.371140
20471.276383	-756.432833	1314.388672	325.021790
20471.276383	-756.432833	1313.291016	195.568604
20471.276383	-756.432833	1312.194336	233.165817
20471.276383	-756.432833	1311.096680	296.214233
20471.276383	-756.432833	1309.999023	404.312836
20471.276383	-756.432833	1308.901367	396.936310
20471.276383	-756.432833	1307.802734	323.858307
20471.276383	-756.432833	1306.705078	462.292267
20471.276383	-756.432833	1305.606445	530.511292
20471.276383	-756.432833	1304.506836	705.963074
20471.276383	-756.432833	1303.408203	657.927429
20471.276383	-756.432833	1302.308594	640.083557
20471.276383	-756.432833	1301.208984	585.631958
20471.276383	-756.432833	1300.109375	796.060669
20471.276383	-756.432833	1299.009766	824.059998
20471.276383	-756.432833	1297.909180	548.131409
20471.276383	-756.432833	1296.808594	828.108398
20471.276383	-756.432833	1295.708008	614.310181
20471.276383	-756.432833	1294.607422	455.328339
20471.276383	-756.432833	1293.506836	666.303345
20471.276383	-756.432833	1292.405273	637.856262
20471.276383	-756.432833	1291.303711	631.928345
20471.276383	-756.432833	1290.202148	768.388489
20471.276383	-756.432833	1289.099609	716.896240
20471.276383	-756.432833	1287.998047	987.438660
20471.276383	-756.432833	1286.895508	809.688477
20471.276383	-756.432833	1285.792969	1014.203613
20471.276383	-756.432833	1284.689453	1264.343994
20471.276383	-756.432833	1283.586914	1363.471924
20471.276383	-756.432833	1282.483398	1415.069458
20471.276383	-756.432833	1281.379883	1396.782837
20471.276383	-756.432833	1280.276367	1475.759155
20471.276383	-756.432833	1279.171875	1507.891235
20471.276383	-756.432833	1278.067383	1334.466553
20471.276383	-756.432833	1276.962891	1480.677856
20471.276383	-756.432833	1275.858398	1340.207764
20471.276383	-756.432833	1274.753906	1226.783081
20471.276383	-756.432833	1273.648438	1159.491577
20471.276383	-756.432833	1272.542969	1225.591797
20471.276383	-756.432833	1271.437500	1083.422974
20471.276383	-756.432833	1270.331055	913.760681
20471.276383	-756.432833	1269.225586	874.533325
20471.276383	-756.432833	1268.119141	772.982666
20471.276383	-756.432833	1267.012695	663.327454
20471.276383	-756.432833	1265.906250	803.164063
20471.276383	-756.432833	1264.798828	606.155884
20471.276383	-756.432833	1263.691406	644.112305
20471.276383	-756.432833	1262.583984	634.746643
20471.276383	-756.432833	1261.476563	543.605408
20471.276383	-756.432833	1260.368164	476.808350
20471.276383	-756.432833	1259.260742	494.266632
20471.276383	-756.432833	1258.152344	605.719666
20471.276383	-756.432833	1257.043945	605.621704
20471.276383	-756.432833	1255.934570	569.857605
20471.276383	-756.432833	1254.825195	509.361877
20471.276383	-756.432833	1253.716797	468.620422
20471.276383	-756.432833	1252.606445	582.309998
20471.276383	-756.432833	1251.497070	417.229218
20471.276383	-756.432833	1250.387695	474.886230
20471.276383	-756.432833	1249.277344	396.322571
20471.276383	-756.432833	1248.166992	282.842285
20471.276383	-756.432833	1247.055664	134.538910
20471.276383	-756.432833	1245.945313	172.385818
20471.276383	-756.432833	1244.833984	124.196609
20471.276383	-756.432833	1243.722656	168.035767
20471.276383	-756.432833	1242.611328	120.944633
20471.276383	-756.432833	1241.499023	16.828524
20471.276383	-756.432833	1240.387695	42.888672
20471.276383	-756.432833	1239.275391	-42.809738
20471.276383	-756.432833	1238.162109	-91.111900
20471.276383	-756.432833	1237.049805	-318.713440
20471.276383	-756.432833	1235.936523	-84.334999
20471.276383	-756.432833	1234.823242	-131.093277
20471.276383	-756.432833	1233.709961	-12.719441
20471.276383	-756.432833	1232.596680	0.106154
20471.276383	-756.432833	1231.482422	-51.222431
20471.276383	-756.432833	1230.369141	13.934373
20471.276383	-756.432833	1229.253906	-36.932125
20471.276383	-756.432833	1228.139648	-117.496254
20471.276383	-756.432833	1227.025391	10.825531
20471.276383	-756.432833	1225.910156	33.496857
20471.276383	-756.432833	1224.794922	125.118217
20471.276383	-756.432833	1223.679688	9.797313
20471.276383	-756.432833	1222.563477	202.598465
20471.276383	-756.432833	1221.447266	255.966736
20471.276383	-756.432833	1220.331055	97.556702
20471.276383	-756.432833	1219.214844	167.544388
20471.276383	-756.432833	1218.098633	55.901752
20471.276383	-756.432833	1216.981445	238.788010
20471.276383	-756.432833	1215.864258	230.155823
20471.276383	-756.432833	1214.747070	103.055267
20471.276383	-756.432833	1213.629883	254.646744
20471.276383	-756.432833	1212.511719	430.654053
20471.276383	-756.432833	1211.393555	296.156677
20471.276383	-756.432833	1210.275391	488.889252
20471.276383	-756.432833	1209.157227	296.550262
20471.276383	-756.432833	1208.038086	373.676086
20471.276383	-756.432833	1206.918945	423.406677
20471.276383	-756.432833	1205.799805	386.672913
20471.276383	-756.432833	1204.680664	366.811951
20471.276383	-756.432833	1203.560547	325.041931
20471.276383	-756.432833	1202.441406	117.775024
20471.276383	-756.432833	1201.321289	324.850555
20471.276383	-756.432833	1200.200195	230.663315
20471.276383	-756.432833	1199.080078	167.042435
20471.276383	-756.432833	1197.958984	152.254059
20471.276383	-756.432833	1196.837891	287.930115
20471.276383	-756.432833	1195.716797	232.240814
20471.276383	-756.432833	1194.594727	270.526398
20471.276383	-756.432833	1193.473633	336.267273
20471.276383	-756.432833	1192.351563	316.336121
20471.276383	-756.432833	1191.229492	276.020111
20471.276383	-756.432833	1190.106445	452.321655
20471.276383	-756.432833	1188.984375	564.240723
20471.276383	-756.432833	1187.861328	492.513153
20471.276383	-756.432833	1186.738281	764.150879
20471.276383	-756.432833	1185.614258	697.288086
20471.276383	-756.432833	1184.491211	690.224548
20471.276383	-756.432833	1183.367188	601.175659
20471.276383	-756.432833	1182.243164	598.762695
20471.276383	-756.432833	1181.119141	540.980042
20471.276383	-756.432833	1179.994141	615.445313
20471.276383	-756.432833	1178.869141	582.391113
20471.276383	-756.432833	1177.744141	424.929077
20471.276383	-756.432833	1176.619141	436.326111
20471.276383	-756.432833	1175.493164	307.865753
20471.276383	-756.432833	1174.368164	50.793369
20471.276383	-756.432833	1173.242188	126.993118
20471.276383	-756.432833	1172.115234	-6.382398
20471.276383	-756.432833	1170.989258	-49.538815
20471.276383	-756.432833	1169.862305	-20.346043
20471.276383	-756.432833	1168.735352	-55.269493
20471.276383	-756.432833	1167.608398	-91.541229
20471.276383	-756.432833	1166.481445	-63.147209
20471.276383	-756.432833	1165.353516	-129.543350
20471.276383	-756.432833	1164.225586	26.188868
20471.276383	-756.432833	1163.097656	-51.147442
20471.276383	-756.432833	1161.968750	-9.000458
20471.276383	-756.432833	1160.840820	-76.136719
20471.276383	-756.432833	1159.711914	34.613388
20471.276383	-756.432833	1158.583008	-128.542343
20471.276383	-756.432833	1157.453125	-84.553207
20471.276383	-756.432833	1156.324219	-50.998867
20471.276383	-756.432833	1155.194336	-7.194378
20471.276383	-756.432833	1154.064453	221.917847
20471.276383	-756.432833	1152.933594	208.003616
20471.276383	-756.432833	1151.803711	231.224869
20471.276383	-756.432833	1150.672852	157.820908
20471.276383	-756.432833	1149.541992	116.726471
20471.276383	-756.432833	1148.411133	94.728218
20471.276383	-756.432833	1147.279297	193.529816
20471.276383	-756.432833	1146.147461	356.347443
20471.276383	-756.432833	1145.015625	121.460953
20471.276383	-756.432833	1143.883789	176.893311
20471.276383	-756.432833	1142.750977	270.106812
20471.276383	-756.432833	1141.619141	330.024200
20471.276383	-756.432833	1140.486328	363.085083
20471.276383	-756.432833	1139.352539	386.559357
20471.276383	-756.432833	1138.219727	592.726624
20471.276383	-756.432833	1137.085938	499.315247
20471.276383	-756.432833	1135.952148	384.503906
20471.276383	-756.432833	1134.818359	524.390869
20471.276383	-756.432833	1133.683594	592.311035
20471.276383	-756.432833	1132.549805	707.130676
20471.276383	-756.432833	1131.415039	706.485718
20471.276383	-756.432833	1130.279297	872.278931
20471.276383	-756.432833	1129.144531	1028.730469
20471.276383	-756.432833	1128.008789	1162.153809
20471.276383	-756.432833	1126.873047	1096.729004
20471.276383	-756.432833	1125.737305	1200.592651
20471.276383	-756.432833	1124.601563	1127.563965
20471.276383	-756.432833	1123.464844	1043.279907
20471.276383	-756.432833	1122.328125	1160.224854
20471.276383	-756.432833	1121.191406	1312.705200
20471.276383	-756.432833	1120.054688	1514.158447
20471.276383	-756.432833	1118.916992	1315.401001
20471.276383	-756.432833	1117.779297	1099.404907
20471.276383	-756.432833	1116.641602	1157.213013
20471.276383	-756.432833	1115.503906	1153.423828
20471.276383	-756.432833	1114.365234	863.223694
20471.276383	-756.432833	1113.226563	867.612427
20471.276383	-756.432833	1112.087891	687.200256
20471.276383	-756.432833	1110.949219	663.260559
20471.276383	-756.432833	1109.809570	699.391541
20471.276383	-756.432833	1108.669922	638.310181
20471.276383	-756.432833	1107.530273	538.172668
20471.276383	-756.432833	1106.390625	483.326721
20471.276383	-756.432833	1105.250000	352.002899
20471.276383	-756.432833	1104.109375	449.007599
20471.276383	-756.432833	1102.968750	383.369110
20471.276383	-756.432833	1101.828125	442.756470
20471.276383	-756.432833	1100.686523	272.478119
20471.276383	-756.432833	1099.544922	334.284180
20471.276383	-756.432833	1098.403320	302.746002
20471.276383	-756.432833	1097.261719	272.638153
20471.276383	-756.432833	1096.120117	88.211708
20471.276383	-756.432833	1094.977539	287.072632
20471.276383	-756.432833	1093.834961	96.498863
20471.276383	-756.432833	1092.691406	277.701660
20471.276383	-756.432833	1091.548828	311.766846
20471.276383	-756.432833	1090.405273	316.952576
20471.276383	-756.432833	1089.261719	384.957153
20471.276383	-756.432833	1088.118164	309.371735
20471.276383	-756.432833	1086.973633	455.758636
20471.276383	-756.432833	1085.829102	496.393707
20471.276383	-756.432833	1084.684570	427.260712
20471.276383	-756.432833	1083.540039	523.498596
20471.276383	-756.432833	1082.395508	483.816711
20471.276383	-756.432833	1081.250000	501.472260
20471.276383	-756.432833	1080.104492	538.913635
20471.276383	-756.432833	1078.958984	668.379456
20471.276383	-756.432833	1077.812500	376.676544
20471.276383	-756.432833	1076.666016	513.586609
20471.276383	-756.432833	1075.519531	496.911835
20471.276383	-756.432833	1074.373047	551.988647
20471.276383	-756.432833	1073.226563	393.240417
20471.276383	-756.432833	1072.079102	556.789795
20471.276383	-756.432833	1070.931641	586.560730
20471.276383	-756.432833	1069.784180	671.962097
20471.276383	-756.432833	1068.635742	529.984314
20471.276383	-756.432833	1067.487305	510.789154
20471.276383	-756.432833	1066.338867	588.842041
20471.276383	-756.432833	1065.190430	632.383789
20471.276383	-756.432833	1064.041992	782.817383
20471.276383	-756.432833	1062.892578	682.430786
20471.276383	-756.432833	1061.743164	1025.785767
20471.276383	-756.432833	1060.593750	811.910278
20471.276383	-756.432833	1059.443359	674.827454
20471.276383	-756.432833	1058.292969	687.855164
20471.276383	-756.432833	1057.142578	764.291138
20471.276383	-756.432833	1055.992188	826.609741
20471.276383	-756.432833	1054.841797	683.599792
20471.276383	-756.432833	1053.690430	746.632446
20471.276383	-756.432833	1052.539063	857.324280
20471.276383	-756.432833	1051.387695	875.664368
20471.276383	-756.432833	1050.235352	1156.214966
20471.276383	-756.432833	1049.083984	1049.538574
20471.276383	-756.432833	1047.931641	1170.957153
20471.276383	-756.432833	1046.778320	1474.774780
20471.276383	-756.432833	1045.625977	1462.434692
20471.276383	-756.432833	1044.472656	1355.173096
20471.276383	-756.432833	1043.319336	1290.372192
20471.276383	-756.432833	1042.166016	1440.772339
20471.276383	-756.432833	1041.012695	1487.791504
20471.276383	-756.432833	1039.858398	1666.918701
20471.276383	-756.432833	1038.704102	1653.023193
20471.276383	-756.432833	1037.549805	1510.166504
20471.276383	-756.432833	1036.394531	1438.455688
20471.276383	-756.432833	1035.239258	1328.659546
20471.276383	-756.432833	1034.083984	1196.577271
20471.276383	-756.432833	1032.928711	1289.084839
20471.276383	-756.432833	1031.773438	1191.005615
20471.276383	-756.432833	1030.617188	1086.899292
20471.276383	-756.432833	1029.460938	1062.053101
20471.276383	-756.432833	1028.304688	827.255310
20471.276383	-756.432833	1027.147461	748.334839
20471.276383	-756.432833	1025.991211	819.220459
20471.276383	-756.432833	1024.833984	977.659424
20471.276383	-756.432833	1023.675781	982.032593
20471.276383	-756.432833	1022.518555	906.718689
20471.276383	-756.432833	1021.360352	907.044434
20471.276383	-756.432833	1020.202148	823.533447
20471.276383	-756.432833	1019.043945	716.713501
20471.276383	-756.432833	1017.884766	824.517090
20471.276383	-756.432833	1016.726563	748.254944
20471.276383	-756.432833	1015.567383	859.894287
20471.276383	-756.432833	1014.407227	629.549561
20471.276383	-756.432833	1013.248047	749.192200
20471.276383	-756.432833	1012.087891	615.092651
20471.276383	-756.432833	1010.927734	839.054810
20471.276383	-756.432833	1009.767578	953.384888
20471.276383	-756.432833	1008.606445	998.701172
20471.276383	-756.432833	1007.446289	872.666016
20471.276383	-756.432833	1006.285156	980.796631
20471.276383	-756.432833	1005.123047	948.833618
20471.276383	-756.432833	1003.961914	1215.621460
20471.276383	-756.432833	1002.799805	1001.132996
20471.276383	-756.432833	1001.637695	889.497437
20471.276383	-756.432833	1000.475586	683.919495
20471.276383	-756.432833	999.312500	924.470886
20471.276383	-756.432833	998.149414	1027.430664
20471.276383	-756.432833	996.986328	1058.997681
20471.276383	-756.432833	995.823242	923.005737
20471.276383	-756.432833	994.659180	854.402100
20471.276383	-756.432833	993.496094	865.632019
20471.276383	-756.432833	992.332031	787.282776
20471.276383	-756.432833	991.166992	622.138000
20471.276383	-756.432833	990.002930	455.539185
20471.276383	-756.432833	988.837891	501.534882
20471.276383	-756.432833	987.672852	691.454956
20471.276383	-756.432833	986.506836	609.494202
20471.276383	-756.432833	985.341797	612.889465
20471.276383	-756.432833	984.175781	572.530396
20471.276383	-756.432833	983.009766	662.858704
20471.276383	-756.432833	981.843750	504.976685
20471.276383	-756.432833	980.676758	658.579834
20471.276383	-756.432833	979.509766	711.400085
20471.276383	-756.432833	978.342773	845.631714
20471.276383	-756.432833	977.175781	894.078491
20471.276383	-756.432833	976.007813	852.781067
20471.276383	-756.432833	974.839844	1008.417175
20471.276383	-756.432833	973.671875	857.607971
20471.276383	-756.432833	972.503906	566.789001
20471.276383	-756.432833	971.334961	606.674500
20471.276383	-756.432833	970.166016	724.349854
20471.276383	-756.432833	968.997070	798.875671
20471.276383	-756.432833	967.828125	516.991272
20471.276383	-756.432833	966.658203	557.864746
20471.276383	-756.432833	965.488281	475.234161
20471.276383	-756.432833	964.318359	548.723694
20471.276383	-756.432833	963.148438	633.824646
20471.276383	-756.432833	961.977539	429.848267
20471.276383	-756.432833	960.806641	422.763672
20471.276383	-756.432833	959.635742	559.889282
20471.276383	-756.432833	958.463867	444.626038
20471.276383	-756.432833	957.292969	467.183228
20471.276383	-756.432833	956.121094	529.792114
20471.276383	-756.432833	954.948242	490.185059
20471.276383	-756.432833	953.776367	473.125580
20471.276383	-756.432833	952.603516	577.295654
20471.276383	-756.432833	951.430664	387.023529
20471.276383	-756.432833	950.257813	461.423615
20471.276383	-756.432833	949.084961	351.840851
20471.276383	-756.432833	947.911133	282.816193
20471.276383	-756.432833	946.737305	287.427155
20471.276383	-756.432833	945.563477	344.214966
20471.276383	-756.432833	944.388672	351.023163
20471.276383	-756.432833	943.213867	155.322037
20471.276383	-756.432833	942.039063	211.518127
20471.276383	-756.432833	940.864258	191.044312
20471.276383	-756.432833	939.688477	338.646149
20471.276383	-756.432833	938.513672	219.390854
20471.276383	-756.432833	937.337891	418.809296
20471.276383	-756.432833	936.161133	432.541260
20471.276383	-756.432833	934.985352	322.760742
20471.276383	-756.432833	933.808594	534.508057
20471.276383	-756.432833	932.631836	580.217041
20471.276383	-756.432833	931.454102	514.772583
20471.276383	-756.432833	930.277344	530.723267
20471.276383	-756.432833	929.099609	652.883362
20471.276383	-756.432833	927.921875	718.118530
20471.276383	-756.432833	926.743164	612.766602
20471.276383	-756.432833	925.565430	635.868835
20471.276383	-756.432833	924.386719	550.192139
20471.276383	-756.432833	923.208008	694.201111
20471.276383	-756.432833	922.028320	247.860352
20471.276383	-756.432833	920.849609	409.034698
20471.276383	-756.432833	919.669922	409.334473
20471.276383	-756.432833	919.474609	651.596436
20471.276383	-756.432833	918.309570	311.472748
20471.276383	-756.432833	917.143555	408.200165
20471.276383	-756.432833	915.977539	638.058044
20471.276383	-756.432833	914.810547	490.381683
20471.276383	-756.432833	913.644531	303.256195
20471.276383	-756.432833	912.477539	308.474884
20471.276383	-756.432833	911.310547	382.666901
20471.276383	-756.432833	910.143555	202.927322
20471.276383	-756.432833	908.975586	316.443726
20471.276383	-756.432833	907.807617	319.006531
20471.276383	-756.432833	906.639648	38.270336
20471.276383	-756.432833	905.471680	104.832108
20471.276383	-756.432833	904.303711	107.311272
20471.276383	-756.432833	903.134766	97.443138
20471.276383	-756.432833	901.965820	102.306374
20471.276383	-756.432833	900.796875	-335.774536
20471.276383	-756.432833	899.626953	18.433706
20471.276383	-756.432833	898.457031	-50.584908
20471.276383	-756.432833	897.287109	133.676743
20471.276383	-756.432833	896.117188	145.730637
20471.276383	-756.432833	894.947266	15.180548
20471.276383	-756.432833	893.776367	118.122887
20471.276383	-756.432833	892.605469	71.114052
20471.276383	-756.432833	891.434570	338.538086
20471.276383	-756.432833	890.262695	166.189529
20471.276383	-756.432833	889.091797	20.897966
20471.276383	-756.432833	887.919922	184.980743
20471.276383	-756.432833	886.748047	81.425987
20471.276383	-756.432833	885.575195	-14.746241
20471.276383	-756.432833	884.403320	1.965602
20471.276383	-756.432833	883.230469	40.728329
20471.276383	-756.432833	882.057617	206.991058
20471.276383	-756.432833	880.883789	44.592110
20471.276383	-756.432833	879.710938	-68.724693
20471.276383	-756.432833	878.537109	-132.987976
20471.276383	-756.432833	877.362305	-116.371452
20471.276383	-756.432833	876.188477	-36.070709
20471.276383	-756.432833	875.013672	14.790816
20471.276383	-756.432833	873.839844	-118.057663
20471.276383	-756.432833	872.664063	-152.919128
20471.276383	-756.432833	871.489258	10.519418
20471.276383	-756.432833	870.313477	173.883469
20471.276383	-756.432833	869.138672	65.552666
20471.276383	-756.432833	867.962891	140.753021
20471.276383	-756.432833	866.786133	-21.348400
20471.276383	-756.432833	865.610352	-117.355377
20471.276383	-756.432833	864.433594	-71.511642
20471.276383	-756.432833	863.256836	35.425835
20471.276383	-756.432833	862.079102	56.777588
20471.276383	-756.432833	860.902344	105.003242
20471.276383	-756.432833	859.724609	31.058262
20471.276383	-756.432833	858.546875	-59.950119
20471.276383	-756.432833	857.368164	-238.831284
20471.276383	-756.432833	856.190430	16.962204
20471.276383	-756.432833	855.011719	128.634811
20471.276383	-756.432833	853.833008	118.242935
20471.276383	-756.432833	852.654297	176.183960
20471.276383	-756.432833	851.474609	63.342815
20471.276383	-756.432833	850.294922	38.362740
20471.276383	-756.432833	849.115234	149.963364
20471.276383	-756.432833	847.935547	-21.283180
20471.276383	-756.432833	846.754883	-107.132607
20471.276383	-756.432833	845.575195	-10.154948
20471.276383	-756.432833	844.393555	30.754988
20471.276383	-756.432833	843.212891	117.949669
20471.276383	-756.432833	842.032227	105.267075
20471.276383	-756.432833	840.850586	68.256157
20471.276383	-756.432833	839.668945	-97.752571
20471.276383	-756.432833	838.486328	-68.952339
20471.276383	-756.432833	837.304688	-96.115631
20471.276383	-756.432833	836.122070	-266.796661
20471.276383	-756.432833	834.939453	68.578140
20471.276383	-756.432833	833.756836	12.279919
20471.276383	-756.432833	832.573242	116.507057
20471.276383	-756.432833	831.389648	55.404289
20471.276383	-756.432833	830.206055	-15.372515
20471.276383	-756.432833	829.022461	-71.516121
20471.276383	-756.432833	827.838867	-45.009357
20471.276383	-756.432833	826.654297	3.373507
20471.276383	-756.432833	825.469727	49.331696
20471.276383	-756.432833	824.284180	61.305794
20471.276383	-756.432833	823.099609	-101.480309
20471.276383	-756.432833	821.914063	80.464378
20471.276383	-756.432833	820.728516	22.136766
20471.276383	-756.432833	819.542969	-26.435366
20471.276383	-756.432833	818.356445	-65.257698
20471.276383	-756.432833	817.169922	203.941925
20471.276383	-756.432833	815.983398	22.100428
20471.276383	-756.432833	814.796875	247.597061
20471.276383	-756.432833	813.609375	-33.483036
20471.276383	-756.432833	812.422852	-55.153870
20471.276383	-756.432833	811.235352	68.564079
20471.276383	-756.432833	810.046875	59.052032
20471.276383	-756.432833	808.859375	83.476402
20471.276383	-756.432833	807.670898	238.655670
20471.276383	-756.432833	806.482422	8.942667
20471.276383	-756.432833	805.293945	188.337570
20471.276383	-756.432833	804.104492	171.709747
20471.276383	-756.432833	802.915039	-147.254135
20471.276383	-756.432833	801.725586	128.898193
20471.276383	-756.432833	800.536133	80.956863
20471.276383	-756.432833	799.345703	16.144798
20471.276383	-756.432833	798.155273	48.073254
20471.276383	-756.432833	796.964844	-28.721605
20471.276383	-756.432833	795.774414	-129.611832
20471.276383	-756.432833	794.583008	-25.109848
20471.276383	-756.432833	793.392578	86.626541
20471.276383	-756.432833	792.200195	-88.975014
20471.276383	-756.432833	791.008789	-146.186050
20471.276383	-756.432833	789.816406	-85.078209
20471.276383	-756.432833	788.625000	-96.353577
20471.276383	-756.432833	787.432617	-143.780014
20471.276383	-756.432833	786.239258	-51.256039
20471.276383	-756.432833	785.046875	-334.934143
20471.276383	-756.432833	783.853516	-116.973747
20471.276383	-756.432833	782.660156	-91.911667
20471.276383	-756.432833	781.465820	51.262180
20471.276383	-756.432833	780.272461	-227.255386
20471.276383	-756.432833	779.078125	-231.000595
20471.276383	-756.432833	777.883789	18.179934
20471.276383	-756.432833	776.688477	36.120529
20471.276383	-756.432833	775.494141	17.969854
20471.276383	-756.432833	774.298828	-43.469337
20471.276383	-756.432833	773.103516	-6.186430
20471.276383	-756.432833	771.907227	4.644108
20471.276383	-756.432833	770.711914	87.662842
20471.276383	-756.432833	769.515625	-40.964085
20471.276383	-756.432833	768.318359	82.963081
20471.276383	-756.432833	767.122070	-91.230743
20471.276383	-756.432833	765.924805	-17.765078
20471.276383	-756.432833	764.727539	38.875237
20471.276383	-756.432833	763.530273	220.447418
20471.276383	-756.432833	762.333008	5.638319
20471.276383	-756.432833	761.134766	71.919968
20471.276383	-756.432833	759.936523	-51.482685
20471.276383	-756.432833	758.738281	110.848602
20471.276383	-756.432833	757.540039	150.734421
20471.276383	-756.432833	756.340820	188.225845
20471.276383	-756.432833	755.141602	69.787910
20471.276383	-756.432833	753.942383	76.140533
20471.276383	-756.432833	752.742188	99.296707
20471.276383	-756.432833	751.541992	215.964493
20471.276383	-756.432833	750.341797	133.649887
20471.276383	-756.432833	749.141602	104.107887
20471.276383	-756.432833	747.941406	215.959656
20471.276383	-756.432833	746.740234	361.316803
20471.276383	-756.432833	745.539063	123.426254
20471.276383	-756.432833	744.337891	55.657196
20471.276383	-756.432833	743.135742	64.539139
20471.276383	-756.432833	741.933594	-19.919336
20471.276383	-756.432833	740.731445	-78.010262
20471.276383	-756.432833	739.529297	2.698923
20471.276383	-756.432833	738.326172	30.758202
20471.276383	-756.432833	737.124023	-63.155277
20471.276383	-756.432833	735.919922	74.906403
20471.276383	-756.432833	734.716797	155.541946
20471.276383	-756.432833	733.513672	358.037598
20471.276383	-756.432833	732.309570	34.759678
20471.276383	-756.432833	731.105469	91.471390
20471.276383	-756.432833	729.900391	267.585907
20471.276383	-756.432833	728.696289	264.522339
20471.276383	-756.432833	727.491211	-146.804886
20471.276383	-756.432833	726.286133	-30.433458
20471.276383	-756.432833	725.080078	-112.195404
20471.276383	-756.432833	723.874023	92.393097
20471.276383	-756.432833	722.668945	187.152771
20471.276383	-756.432833	721.461914	122.070366
20471.276383	-756.432833	720.255859	-9.762424
20471.276383	-756.432833	719.048828	3.875221
20471.276383	-756.432833	717.841797	-144.585663
20471.276383	-756.432833	716.634766	133.562546
20471.276383	-756.432833	715.427734	180.473740
20471.276383	-756.432833	714.219727	-77.548607
20471.276383	-756.432833	713.011719	121.770287
20471.276383	-756.432833	711.803711	-64.738968
20471.276383	-756.432833	710.594727	34.472122
20471.276383	-756.432833	709.385742	140.759384
20471.276383	-756.432833	708.176758	237.459259
20471.276383	-756.432833	706.967773	-22.760756
20471.276383	-756.432833	705.758789	-52.181450
20471.276383	-756.432833	704.548828	30.149817
20471.276383	-756.432833	703.338867	3.049851
20471.276383	-756.432833	702.127930	-26.445780
20471.276383	-756.432833	700.917969	146.041336
20471.276383	-756.432833	699.707031	125.963692
20471.276383	-756.432833	698.496094	63.098099
20471.276383	-756.432833	697.285156	228.225250
20471.276383	-756.432833	696.073242	122.546547
20471.276383	-756.432833	694.861328	164.061523
20471.276383	-756.432833	693.649414	174.660217
20471.276383	-756.432833	692.436523	130.631805
20471.276383	-756.432833	691.224609	321.456696
20471.276383	-756.432833	690.011719	49.605350
20471.276383	-756.432833	688.798828	344.618469
20471.276383	-756.432833	687.584961	447.403229
20471.276383	-756.432833	686.372070	334.371918
20471.276383	-756.432833	685.158203	389.608002
20471.276383	-756.432833	683.943359	522.960327
20471.276383	-756.432833	682.729492	535.377625
20471.276383	-756.432833	681.514648	412.724304
20471.276383	-756.432833	680.299805	576.595947
20471.276383	-756.432833	679.084961	553.298706
20471.276383	-756.432833	677.869141	439.999939
20471.276383	-756.432833	676.653320	568.072876
20471.276383	-756.432833	675.437500	499.640961
20471.276383	-756.432833	674.221680	421.707367
20471.276383	-756.432833	673.004883	603.892578
20471.276383	-756.432833	671.789063	511.639465
20471.276383	-756.432833	670.571289	502.093445
20471.276383	-756.432833	669.354492	442.841248
20471.276383	-756.432833	668.136719	577.308594
20471.276383	-756.432833	666.919922	253.302124
20471.276383	-756.432833	665.701172	236.420685
20471.276383	-756.432833	664.483398	486.323029
20471.276383	-756.432833	663.264648	447.984222
20471.276383	-756.432833	662.045898	312.792786
20471.276383	-756.432833	660.827148	323.896606
20471.276383	-756.432833	659.608398	533.112549
20471.276383	-756.432833	658.388672	553.422668
20471.276383	-756.432833	657.168945	491.081940
20471.276383	-756.432833	655.949219	445.181702
20471.276383	-756.432833	654.728516	420.422546
20471.276383	-756.432833	653.507813	485.147675
20471.276383	-756.432833	652.287109	592.167114
20471.276383	-756.432833	651.066406	486.993195
20471.276383	-756.432833	649.844727	518.385742
20471.276383	-756.432833	648.623047	507.271393
20471.276383	-756.432833	647.401367	446.611603
20471.276383	-756.432833	646.179688	581.262390
20471.276383	-756.432833	644.957031	633.372192
20471.276383	-756.432833	643.734375	402.979156
20471.276383	-756.432833	642.511719	553.697266
20471.276383	-756.432833	641.289063	457.268433
20471.276383	-756.432833	640.065430	384.283020
20471.276383	-756.432833	638.841797	412.312958
20471.276383	-756.432833	637.618164	491.929321
20471.276383	-756.432833	636.393555	265.878510
20471.276383	-756.432833	635.168945	411.046295
20471.276383	-756.432833	633.944336	577.176636
20471.276383	-756.432833	632.719727	595.152100
20471.276383	-756.432833	631.494141	507.330353
20471.276383	-756.432833	630.269531	407.689148
20471.276383	-756.432833	629.042969	652.989563
20471.276383	-756.432833	627.817383	367.723358
20471.276383	-756.432833	626.590820	218.526215
20471.276383	-756.432833	625.365234	346.055573
20471.276383	-756.432833	624.137695	407.731567
20471.276383	-756.432833	622.911133	455.187897
20471.276383	-756.432833	621.683594	340.744141
20471.276383	-756.432833	620.456055	362.150757
20471.276383	-756.432833	619.228516	474.799530
20471.276383	-756.432833	618.000977	465.450409
20471.276383	-756.432833	616.772461	455.966888
20471.276383	-756.432833	615.543945	579.828552
20471.276383	-756.432833	614.314453	366.370392
20471.276383	-756.432833	613.085938	300.333344
20471.276383	-756.432833	611.856445	135.895935
20471.276383	-756.432833	610.626953	422.949402
20471.276383	-756.432833	609.397461	529.625000
20471.276383	-756.432833	608.166992	465.389374
20471.276383	-756.432833	606.936523	494.569641
20471.276383	-756.432833	605.706055	635.806030
20471.276383	-756.432833	604.474609	281.353027
20471.276383	-756.432833	603.244141	522.772766
20471.276383	-756.432833	602.012695	369.126221
20471.276383	-756.432833	600.780273	425.611084
20471.276383	-756.432833	599.548828	488.941711
20471.276383	-756.432833	598.316406	435.363068
20471.276383	-756.432833	597.083984	626.756348
20471.276383	-756.432833	595.851563	444.531555
20471.276383	-756.432833	594.618164	544.554932
20471.276383	-756.432833	593.384766	350.470795
20471.276383	-756.432833	592.151367	265.941284
20471.276383	-756.432833	590.917969	479.765320
20471.276383	-756.432833	589.683594	411.271759
20471.276383	-756.432833	588.449219	368.301819
20471.276383	-756.432833	587.214844	399.775635
20471.276383	-756.432833	585.979492	410.118530
20471.276383	-756.432833	584.745117	392.371307
20471.276383	-756.432833	583.509766	574.756409
20471.276383	-756.432833	582.273438	524.088379
20471.276383	-756.432833	581.038086	412.786713
20471.276383	-756.432833	579.801758	340.948334
20471.276383	-756.432833	578.565430	466.775146
20471.276383	-756.432833	577.329102	648.239441
20471.276383	-756.432833	576.091797	673.652710
20471.276383	-756.432833	574.854492	568.700867
20471.276383	-756.432833	573.617188	570.596497
20471.276383	-756.432833	572.378906	579.317993
20471.276383	-756.432833	571.141602	662.269531
20471.276383	-756.432833	569.903320	775.244873
20471.276383	-756.432833	568.664063	530.317932
20471.276383	-756.432833	567.425781	417.741333
20471.276383	-756.432833	566.186523	330.612091
20471.276383	-756.432833	564.947266	538.194397
20471.276383	-756.432833	563.708008	494.909363
20471.276383	-756.432833	562.467773	581.443054
20471.276383	-756.432833	561.227539	150.491638
20471.276383	-756.432833	559.987305	345.815338
20471.276383	-756.432833	558.747070	455.132355
20471.276383	-756.432833	557.505859	536.450867
20471.276383	-756.432833	556.264648	274.571136
20471.276383	-756.432833	555.023438	260.637421
20471.276383	-756.432833	553.781250	339.254364
20471.276383	-756.432833	552.539063	239.361435
20471.276383	-756.432833	551.296875	215.816849
20471.276383	-756.432833	550.054688	247.736618
20471.276383	-756.432833	548.811523	348.966553
20471.276383	-756.432833	547.569336	419.964142
20471.276383	-756.432833	546.325195	159.919128
20471.276383	-756.432833	545.082031	202.939667
20471.276383	-756.432833	543.837891	271.268005
20471.276383	-756.432833	542.593750	200.720642
20471.276383	-756.432833	541.349609	-82.591858
20471.276383	-756.432833	540.105469	57.103222
20471.276383	-756.432833	538.860352	-87.610291
20471.276383	-756.432833	537.615234	185.826828
20471.276383	-756.432833	536.369141	75.598953
20471.276383	-756.432833	535.124023	-69.303146
20471.276383	-756.432833	533.877930	44.357105
20471.276383	-756.432833	532.631836	-3.706318
20471.276383	-756.432833	531.384766	15.086412
20471.276383	-756.432833	530.138672	-194.634613
20471.276383	-756.432833	528.891602	-92.917282
20471.276383	-756.432833	527.643555	-275.023804
20471.276383	-756.432833	526.396484	-150.422226
20471.276383	-756.432833	525.148438	-16.732939
20471.276383	-756.432833	523.900391	49.987236
20471.276383	-756.432833	522.652344	-58.526489
20471.276383	-756.432833	521.403320	-144.026413
20471.276383	-756.432833	520.154297	-42.967525
20471.276383	-756.432833	518.905273	-36.429958
20471.276383	-756.432833	517.656250	-99.025055
20471.276383	-756.432833	516.406250	-177.767822
20471.276383	-756.432833	515.156250	35.765919
20471.276383	-756.432833	513.906250	-31.560484
20471.276383	-756.432833	512.655273	0.012361
20471.276383	-756.432833	511.404297	72.932243
20471.276383	-756.432833	510.153320	166.480545
20471.276383	-756.432833	508.902344	218.573425
20471.276383	-756.432833	507.650391	171.766190
20471.276383	-756.432833	506.398438	95.077072
20471.276383	-756.432833	505.146484	94.217224
20471.276383	-756.432833	503.893555	-51.387962
20471.276383	-756.432833	502.641602	271.560699
20471.276383	-756.432833	501.388672	-11.815627
20471.276383	-756.432833	500.134766	85.972466
20471.276383	-756.432833	498.881836	50.607056
20471.276383	-756.432833	497.627930	51.954346
20471.276383	-756.432833	496.374023	53.299313
20471.276383	-756.432833	495.119141	20.229465
20471.276383	-756.432833	493.865234	-60.964798
20471.276383	-756.432833	492.610352	132.985077
20471.276383	-756.432833	491.355469	246.639374
20471.276383	-756.432833	490.099609	-102.661469
20471.276383	-756.432833	488.843750	38.506050
20471.276383	-756.432833	487.587891	-166.252533
20471.276383	-756.432833	486.332031	73.388023
20471.276383	-756.432833	485.075195	-69.432076
20471.276383	-756.432833	483.818359	170.128418
20471.276383	-756.432833	482.561523	75.471802
20471.276383	-756.432833	481.304688	232.589142
20471.276383	-756.432833	480.046875	-54.145031
20471.276383	-756.432833	478.789063	45.819225
20471.276383	-756.432833	477.531250	72.609558
20471.276383	-756.432833	476.272461	225.162949
20471.276383	-756.432833	475.013672	123.985069
20471.276383	-756.432833	473.754883	-27.372784
20471.276383	-756.432833	472.496094	-119.210014
20471.276383	-756.432833	471.236328	-35.078049
20471.276383	-756.432833	469.976563	76.479500
20471.276383	-756.432833	468.716797	-31.141705
20471.276383	-756.432833	467.456055	41.670849
20471.276383	-756.432833	466.196289	103.115089
20471.276383	-756.432833	464.935547	175.995911
20471.276383	-756.432833	463.673828	77.807373
20471.276383	-756.432833	462.413086	-6.574574
20471.276383	-756.432833	461.151367	55.076839
20471.276383	-756.432833	459.889648	-17.733503
20471.276383	-756.432833	458.626953	37.190483
20471.276383	-756.432833	457.364258	181.038834
20471.276383	-756.432833	456.101563	85.676666
20471.276383	-756.432833	454.838867	231.881104
20471.276383	-756.432833	453.575195	-24.998842
20471.276383	-756.432833	452.312500	221.499512
20471.276383	-756.432833	451.047852	240.314606
20471.276383	-756.432833	449.784180	284.242615
20471.276383	-756.432833	448.519531	50.625214
20471.276383	-756.432833	447.254883	85.620247
20471.276383	-756.432833	445.990234	-11.236705
20471.276383	-756.432833	444.725586	103.494003
20471.276383	-756.432833	443.459961	129.578339
20471.276383	-756.432833	442.194336	71.628098
20471.276383	-756.432833	440.927734	166.016342
20471.276383	-756.432833	439.662109	96.865425
20471.276383	-756.432833	438.395508	86.861916
20471.276383	-756.432833	437.127930	206.362137
20471.276383	-756.432833	435.861328	210.091827
20471.276383	-756.432833	434.593750	395.467499
20471.276383	-756.432833	433.326172	163.240311
20471.276383	-756.432833	432.058594	262.439087
20471.276383	-756.432833	430.790039	71.270996
20471.276383	-756.432833	429.521484	-74.407463
20471.276383	-756.432833	428.252930	9.038014
20471.276383	-756.432833	426.984375	-68.472458
20471.276383	-756.432833	425.714844	-116.459496
20471.276383	-756.432833	424.445313	-62.427528
20471.276383	-756.432833	423.174805	-1.608820
20471.276383	-756.432833	421.905273	9.377005
20471.276383	-756.432833	420.634766	-144.952988
20471.276383	-756.432833	419.364258	-156.578537
20471.276383	-756.432833	418.092773	33.245033
20471.276383	-756.432833	416.822266	1.201046
20471.276383	-756.432833	415.550781	89.057816
20471.276383	-756.432833	414.278320	77.305580
20471.276383	-756.432833	413.006836	-11.365836
20471.276383	-756.432833	411.734375	40.132622
20471.276383	-756.432833	410.461914	21.469385
20471.276383	-756.432833	409.188477	-121.571419
20471.276383	-756.432833	407.916016	-86.110275
20471.276383	-756.432833	406.642578	-118.541039
20471.276383	-756.432833	405.368164	-81.053993
20471.276383	-756.432833	404.094727	-66.274780
20471.276383	-756.432833	402.820313	-24.550613
20471.276383	-756.432833	401.545898	-100.364014
20471.276383	-756.432833	400.270508	13.247119
20471.276383	-756.432833	398.996094	-67.391342
20471.276383	-756.432833	397.720703	-109.850700
20471.276383	-756.432833	396.444336	100.075600
20471.276383	-756.432833	395.168945	138.332397
20471.276383	-756.432833	393.892578	83.894257
20471.276383	-756.432833	392.616211	6.677211
20471.276383	-756.432833	391.339844	107.218452
20471.276383	-756.432833	390.062500	128.554169
20471.276383	-756.432833	388.785156	223.880951
20471.276383	-756.432833	387.507813	230.997360
20471.276383	-756.432833	386.229492	-41.432735
20471.276383	-756.432833	384.951172	-21.531839
20471.276383	-756.432833	383.672852	49.698265
20471.276383	-756.432833	382.394531	-23.535089
20471.276383	-756.432833	381.115234	352.649902
20471.276383	-756.432833	379.835938	145.717316
20471.276383	-756.432833	378.556641	26.035789
20471.276383	-756.432833	377.277344	13.749472
20471.276383	-756.432833	375.997070	207.630280
20471.276383	-756.432833	374.716797	158.143845
20471.276383	-756.432833	373.435547	-31.264156
20471.276383	-756.432833	372.155273	77.453438
20471.276383	-756.432833	370.874023	156.199478
20471.276383	-756.432833	369.591797	-122.804749
20471.276383	-756.432833	368.310547	-160.057037
20471.276383	-756.432833	367.028320	26.259657
20471.276383	-756.432833	365.746094	-10.475105
20471.276383	-756.432833	364.463867	223.302765
20471.276383	-756.432833	363.180664	137.575836
20471.276383	-756.432833	361.897461	349.085236
20471.276383	-756.432833	360.614258	380.146240
20471.276383	-756.432833	359.330078	246.495041
20471.276383	-756.432833	358.045898	210.361328
20471.276383	-756.432833	356.761719	376.914856
20471.276383	-756.432833	355.477539	139.048615
20471.276383	-756.432833	354.192383	70.157722
20471.276383	-756.432833	352.907227	219.352585
20471.276383	-756.432833	351.622070	154.481918
20471.276383	-756.432833	350.336914	16.600979
20471.276383	-756.432833	349.050781	183.746124
20471.276383	-756.432833	347.764648	194.938858
20471.276383	-756.432833	346.477539	108.327141
20471.276383	-756.432833	345.191406	33.527859
20471.276383	-756.432833	343.904297	113.455566
20471.276383	-756.432833	342.616211	46.253582
20471.276383	-756.432833	341.329102	118.005470
20471.276383	-756.432833	340.041016	9.052028
20471.276383	-756.432833	338.752930	152.729126
20471.276383	-756.432833	337.463867	-127.769768
20471.276383	-756.432833	336.175781	-50.862228
20471.276383	-756.432833	334.886719	-43.215240
20471.276383	-756.432833	333.596680	42.397495
20471.276383	-756.432833	332.307617	85.478706
20471.276383	-756.432833	331.017578	-43.483902
20471.276383	-756.432833	329.727539	-30.006289
20471.276383	-756.432833	328.436523	101.153877
20471.276383	-756.432833	327.146484	-153.780853
20471.276383	-756.432833	325.855469	23.049906
20471.276383	-756.432833	324.563477	-1.454798
20471.276383	-756.432833	323.272461	-160.311401
20471.276383	-756.432833	321.980469	-46.133373
20471.276383	-756.432833	320.688477	-115.552040
20471.276383	-756.432833	319.395508	34.271358
20471.276383	-756.432833	318.103516	-86.365288
20471.276383	-756.432833	316.810547	-90.397270
20471.276383	-756.432833	315.516602	-13.608493
20471.276383	-756.432833	314.223633	-160.692734
20471.276383	-756.432833	312.929688	-189.363007
20471.276383	-756.432833	311.635742	151.469391
20471.276383	-756.432833	310.340820	63.459305
20471.276383	-756.432833	309.045898	-264.273987
20471.276383	-756.432833	307.750977	105.800072
20471.276383	-756.432833	306.456055	238.021790
20471.276383	-756.432833	305.160156	92.340988
20471.276383	-756.432833	303.865234	230.698349
20471.276383	-756.432833	302.568359	148.591324
20471.276383	-756.432833	301.272461	279.081207
20471.276383	-756.432833	299.975586	415.321838
20471.276383	-756.432833	298.678711	428.620453
