#X		#Y		#Wave		#Intensity
12364.689894	-1216.611667	1999.980469	75.501671
12364.689894	-1216.611667	1999.016602	-100.493240
12364.689894	-1216.611667	1998.052734	118.040215
12364.689894	-1216.611667	1997.087891	130.649063
12364.689894	-1216.611667	1996.123047	-216.159363
12364.689894	-1216.611667	1995.158203	68.705048
12364.689894	-1216.611667	1994.193359	-149.456757
12364.689894	-1216.611667	1993.228516	38.440189
12364.689894	-1216.611667	1992.262695	193.954269
12364.689894	-1216.611667	1991.297852	59.669300
12364.689894	-1216.611667	1990.332031	-166.254272
12364.689894	-1216.611667	1989.366211	-16.089287
12364.689894	-1216.611667	1988.399414	42.374031
12364.689894	-1216.611667	1987.433594	28.983591
12364.689894	-1216.611667	1986.466797	22.919985
12364.689894	-1216.611667	1985.500977	36.548847
12364.689894	-1216.611667	1984.534180	-169.938126
12364.689894	-1216.611667	1983.567383	-104.543343
12364.689894	-1216.611667	1982.599609	-21.954737
12364.689894	-1216.611667	1981.632813	35.824421
12364.689894	-1216.611667	1980.665039	-49.767212
12364.689894	-1216.611667	1979.697266	-78.586647
12364.689894	-1216.611667	1978.729492	-11.148339
12364.689894	-1216.611667	1977.761719	48.800755
12364.689894	-1216.611667	1976.792969	32.148853
12364.689894	-1216.611667	1975.825195	-73.392372
12364.689894	-1216.611667	1974.856445	-92.577965
12364.689894	-1216.611667	1973.887695	90.505295
12364.689894	-1216.611667	1972.918945	34.216389
12364.689894	-1216.611667	1971.949219	182.603973
12364.689894	-1216.611667	1970.980469	74.470467
12364.689894	-1216.611667	1970.010742	175.894913
12364.689894	-1216.611667	1969.041016	70.211174
12364.689894	-1216.611667	1968.071289	-57.635338
12364.689894	-1216.611667	1967.101563	-8.053793
12364.689894	-1216.611667	1966.130859	75.979378
12364.689894	-1216.611667	1965.161133	54.060268
12364.689894	-1216.611667	1964.190430	49.373600
12364.689894	-1216.611667	1963.219727	74.224503
12364.689894	-1216.611667	1962.249023	86.751228
12364.689894	-1216.611667	1961.277344	116.495445
12364.689894	-1216.611667	1960.306641	-13.716618
12364.689894	-1216.611667	1959.334961	35.716286
12364.689894	-1216.611667	1958.363281	85.133087
12364.689894	-1216.611667	1957.391602	33.704865
12364.689894	-1216.611667	1956.419922	46.232471
12364.689894	-1216.611667	1955.447266	7.135079
12364.689894	-1216.611667	1954.474609	117.999359
12364.689894	-1216.611667	1953.501953	142.822250
12364.689894	-1216.611667	1952.529297	10.399434
12364.689894	-1216.611667	1951.556641	45.090027
12364.689894	-1216.611667	1950.583984	-67.582878
12364.689894	-1216.611667	1949.610352	3.979250
12364.689894	-1216.611667	1948.636719	53.438751
12364.689894	-1216.611667	1947.663086	240.368332
12364.689894	-1216.611667	1946.689453	54.198029
12364.689894	-1216.611667	1945.715820	-1.824758
12364.689894	-1216.611667	1944.741211	-21.002083
12364.689894	-1216.611667	1943.767578	75.146820
12364.689894	-1216.611667	1942.792969	-49.438530
12364.689894	-1216.611667	1941.818359	54.091103
12364.689894	-1216.611667	1940.842773	-9.096721
12364.689894	-1216.611667	1939.868164	84.643333
12364.689894	-1216.611667	1938.892578	85.254715
12364.689894	-1216.611667	1937.916992	139.803101
12364.689894	-1216.611667	1936.941406	-133.900208
12364.689894	-1216.611667	1935.965820	251.391602
12364.689894	-1216.611667	1934.990234	129.666504
12364.689894	-1216.611667	1934.013672	30.056767
12364.689894	-1216.611667	1933.037109	13.750684
12364.689894	-1216.611667	1932.060547	-142.017838
12364.689894	-1216.611667	1931.083984	172.133514
12364.689894	-1216.611667	1930.107422	72.739304
12364.689894	-1216.611667	1929.129883	-87.733238
12364.689894	-1216.611667	1928.153320	-116.040672
12364.689894	-1216.611667	1927.175781	-24.486319
12364.689894	-1216.611667	1926.198242	5.955418
12364.689894	-1216.611667	1925.219727	92.641373
12364.689894	-1216.611667	1924.242188	-62.600536
12364.689894	-1216.611667	1923.263672	31.476337
12364.689894	-1216.611667	1922.285156	40.056435
12364.689894	-1216.611667	1921.306641	-56.351425
12364.689894	-1216.611667	1920.328125	-152.683762
12364.689894	-1216.611667	1919.349609	-273.354706
12364.689894	-1216.611667	1918.370117	-47.309128
12364.689894	-1216.611667	1917.391602	24.934319
12364.689894	-1216.611667	1916.412109	-32.139111
12364.689894	-1216.611667	1915.431641	88.945129
12364.689894	-1216.611667	1914.452148	97.820404
12364.689894	-1216.611667	1913.472656	-59.107693
12364.689894	-1216.611667	1912.492188	-106.213707
12364.689894	-1216.611667	1911.511719	0.324638
12364.689894	-1216.611667	1910.531250	53.237469
12364.689894	-1216.611667	1909.550781	-100.974609
12364.689894	-1216.611667	1908.569336	3.180108
12364.689894	-1216.611667	1907.588867	-4.725358
12364.689894	-1216.611667	1906.607422	-5.285344
12364.689894	-1216.611667	1905.625977	154.911865
12364.689894	-1216.611667	1904.644531	-40.381313
12364.689894	-1216.611667	1903.662109	-89.511986
12364.689894	-1216.611667	1902.680664	43.945885
12364.689894	-1216.611667	1901.698242	-204.646713
12364.689894	-1216.611667	1900.715820	-73.582497
12364.689894	-1216.611667	1899.733398	-76.317139
12364.689894	-1216.611667	1898.750000	147.154831
12364.689894	-1216.611667	1897.767578	-183.811325
12364.689894	-1216.611667	1896.784180	12.918071
12364.689894	-1216.611667	1895.800781	95.366463
12364.689894	-1216.611667	1894.817383	233.707916
12364.689894	-1216.611667	1893.833984	180.079407
12364.689894	-1216.611667	1892.850586	-58.123379
12364.689894	-1216.611667	1891.866211	-29.041344
12364.689894	-1216.611667	1890.881836	17.053782
12364.689894	-1216.611667	1889.897461	109.288132
12364.689894	-1216.611667	1888.913086	-67.931885
12364.689894	-1216.611667	1887.927734	276.739166
12364.689894	-1216.611667	1886.943359	-92.092308
12364.689894	-1216.611667	1885.958008	-26.497280
12364.689894	-1216.611667	1884.972656	56.074535
12364.689894	-1216.611667	1883.987305	-86.904121
12364.689894	-1216.611667	1883.001953	-62.503490
12364.689894	-1216.611667	1882.015625	29.785982
12364.689894	-1216.611667	1881.029297	44.497845
12364.689894	-1216.611667	1880.042969	20.447569
12364.689894	-1216.611667	1879.056641	-71.417564
12364.689894	-1216.611667	1878.070313	-17.886589
12364.689894	-1216.611667	1877.083984	74.390099
12364.689894	-1216.611667	1876.096680	123.058823
12364.689894	-1216.611667	1875.109375	74.878563
12364.689894	-1216.611667	1874.122070	-60.414387
12364.689894	-1216.611667	1873.134766	155.277618
12364.689894	-1216.611667	1872.146484	7.942701
12364.689894	-1216.611667	1871.159180	-15.947237
12364.689894	-1216.611667	1870.170898	-1.119039
12364.689894	-1216.611667	1869.182617	-136.227905
12364.689894	-1216.611667	1868.194336	43.046429
12364.689894	-1216.611667	1867.205078	-46.078411
12364.689894	-1216.611667	1866.216797	-62.656017
12364.689894	-1216.611667	1865.227539	51.267475
12364.689894	-1216.611667	1864.238281	32.265331
12364.689894	-1216.611667	1863.249023	-131.667404
12364.689894	-1216.611667	1862.259766	-63.681190
12364.689894	-1216.611667	1861.269531	-169.583801
12364.689894	-1216.611667	1860.279297	16.678473
12364.689894	-1216.611667	1859.290039	251.143738
12364.689894	-1216.611667	1858.298828	96.963005
12364.689894	-1216.611667	1857.308594	65.893318
12364.689894	-1216.611667	1856.318359	32.415939
12364.689894	-1216.611667	1855.327148	66.478928
12364.689894	-1216.611667	1854.335938	-32.114956
12364.689894	-1216.611667	1853.344727	21.217218
12364.689894	-1216.611667	1852.353516	-70.121307
12364.689894	-1216.611667	1851.362305	41.018814
12364.689894	-1216.611667	1850.370117	137.646133
12364.689894	-1216.611667	1849.377930	48.707016
12364.689894	-1216.611667	1848.385742	-66.711693
12364.689894	-1216.611667	1847.393555	104.494446
12364.689894	-1216.611667	1846.401367	63.720875
12364.689894	-1216.611667	1845.408203	246.839371
12364.689894	-1216.611667	1844.415039	-41.908710
12364.689894	-1216.611667	1843.421875	-126.008751
12364.689894	-1216.611667	1842.428711	-80.168808
12364.689894	-1216.611667	1841.435547	85.914803
12364.689894	-1216.611667	1840.441406	184.564926
12364.689894	-1216.611667	1839.448242	186.963867
12364.689894	-1216.611667	1838.454102	134.036667
12364.689894	-1216.611667	1837.459961	-238.610886
12364.689894	-1216.611667	1836.464844	117.085213
12364.689894	-1216.611667	1835.470703	174.653183
12364.689894	-1216.611667	1834.475586	54.385056
12364.689894	-1216.611667	1833.480469	-92.291939
12364.689894	-1216.611667	1832.485352	22.828266
12364.689894	-1216.611667	1831.490234	-18.201561
12364.689894	-1216.611667	1830.495117	70.387169
12364.689894	-1216.611667	1829.499023	199.711990
12364.689894	-1216.611667	1828.502930	96.172966
12364.689894	-1216.611667	1827.506836	11.830704
12364.689894	-1216.611667	1826.510742	128.988983
12364.689894	-1216.611667	1825.513672	392.368744
12364.689894	-1216.611667	1824.517578	106.472656
12364.689894	-1216.611667	1823.520508	288.161438
12364.689894	-1216.611667	1822.523438	244.415482
12364.689894	-1216.611667	1821.526367	35.277885
12364.689894	-1216.611667	1820.529297	56.207760
12364.689894	-1216.611667	1819.531250	50.731518
12364.689894	-1216.611667	1818.533203	16.470390
12364.689894	-1216.611667	1817.535156	255.184296
12364.689894	-1216.611667	1816.537109	96.299187
12364.689894	-1216.611667	1815.539063	16.424597
12364.689894	-1216.611667	1814.540039	180.663925
12364.689894	-1216.611667	1813.541992	174.890015
12364.689894	-1216.611667	1812.542969	51.832870
12364.689894	-1216.611667	1811.543945	110.571136
12364.689894	-1216.611667	1810.543945	85.526421
12364.689894	-1216.611667	1809.544922	53.267300
12364.689894	-1216.611667	1808.544922	40.091797
12364.689894	-1216.611667	1807.544922	-47.230774
12364.689894	-1216.611667	1806.544922	20.763737
12364.689894	-1216.611667	1805.544922	40.891037
12364.689894	-1216.611667	1804.544922	144.567444
12364.689894	-1216.611667	1803.543945	85.728935
12364.689894	-1216.611667	1802.542969	77.004509
12364.689894	-1216.611667	1801.541992	125.527313
12364.689894	-1216.611667	1800.541016	178.747894
12364.689894	-1216.611667	1799.539063	95.846191
12364.689894	-1216.611667	1798.538086	17.689924
12364.689894	-1216.611667	1797.536133	123.205956
12364.689894	-1216.611667	1796.534180	-26.608126
12364.689894	-1216.611667	1795.532227	164.608429
12364.689894	-1216.611667	1794.529297	212.623230
12364.689894	-1216.611667	1793.527344	-11.212927
12364.689894	-1216.611667	1792.524414	122.496994
12364.689894	-1216.611667	1791.521484	-8.427785
12364.689894	-1216.611667	1790.518555	94.128456
12364.689894	-1216.611667	1789.514648	115.585419
12364.689894	-1216.611667	1788.511719	144.114868
12364.689894	-1216.611667	1787.507813	172.565475
12364.689894	-1216.611667	1786.503906	198.558594
12364.689894	-1216.611667	1785.500000	-8.801744
12364.689894	-1216.611667	1784.496094	126.556328
12364.689894	-1216.611667	1783.491211	192.787567
12364.689894	-1216.611667	1782.486328	23.404259
12364.689894	-1216.611667	1781.481445	146.577896
12364.689894	-1216.611667	1780.476563	88.898926
12364.689894	-1216.611667	1779.471680	-54.422054
12364.689894	-1216.611667	1778.465820	47.088787
12364.689894	-1216.611667	1777.460938	-72.543648
12364.689894	-1216.611667	1776.455078	45.424503
12364.689894	-1216.611667	1775.449219	72.995338
12364.689894	-1216.611667	1774.442383	176.492081
12364.689894	-1216.611667	1773.436523	-73.984566
12364.689894	-1216.611667	1772.429688	34.106621
12364.689894	-1216.611667	1771.422852	-26.473152
12364.689894	-1216.611667	1770.416016	10.214369
12364.689894	-1216.611667	1769.409180	68.173859
12364.689894	-1216.611667	1768.402344	0.284990
12364.689894	-1216.611667	1767.394531	13.000505
12364.689894	-1216.611667	1766.386719	51.727531
12364.689894	-1216.611667	1765.378906	-40.058506
12364.689894	-1216.611667	1764.371094	48.304359
12364.689894	-1216.611667	1763.362305	-67.303627
12364.689894	-1216.611667	1762.354492	-2.818192
12364.689894	-1216.611667	1761.345703	33.129627
12364.689894	-1216.611667	1760.336914	12.131055
12364.689894	-1216.611667	1759.328125	-87.100113
12364.689894	-1216.611667	1758.318359	48.076820
12364.689894	-1216.611667	1757.308594	-115.206627
12364.689894	-1216.611667	1756.299805	-233.520798
12364.689894	-1216.611667	1755.290039	0.788661
12364.689894	-1216.611667	1754.279297	159.203934
12364.689894	-1216.611667	1753.269531	14.649102
12364.689894	-1216.611667	1752.258789	-68.428925
12364.689894	-1216.611667	1751.249023	44.752625
12364.689894	-1216.611667	1750.238281	-33.720901
12364.689894	-1216.611667	1749.226563	34.331009
12364.689894	-1216.611667	1748.215820	107.013855
12364.689894	-1216.611667	1747.204102	-35.466316
12364.689894	-1216.611667	1746.193359	-7.841586
12364.689894	-1216.611667	1745.181641	-34.641502
12364.689894	-1216.611667	1744.168945	-189.053650
12364.689894	-1216.611667	1743.157227	-22.322344
12364.689894	-1216.611667	1742.144531	-275.989227
12364.689894	-1216.611667	1741.132813	32.177231
12364.689894	-1216.611667	1740.120117	-11.506433
12364.689894	-1216.611667	1739.106445	107.559372
12364.689894	-1216.611667	1738.093750	-99.053497
12364.689894	-1216.611667	1737.080078	-192.449814
12364.689894	-1216.611667	1736.067383	-83.067177
12364.689894	-1216.611667	1735.053711	-37.467640
12364.689894	-1216.611667	1734.040039	29.256636
12364.689894	-1216.611667	1733.025391	-194.025558
12364.689894	-1216.611667	1732.011719	119.986076
12364.689894	-1216.611667	1730.997070	-143.427261
12364.689894	-1216.611667	1729.982422	40.746101
12364.689894	-1216.611667	1728.967773	-185.014984
12364.689894	-1216.611667	1727.952148	-118.789276
12364.689894	-1216.611667	1726.937500	-137.406601
12364.689894	-1216.611667	1725.921875	-167.863708
12364.689894	-1216.611667	1724.906250	20.478420
12364.689894	-1216.611667	1723.890625	138.090881
12364.689894	-1216.611667	1722.875000	43.869579
12364.689894	-1216.611667	1721.858398	1.350675
12364.689894	-1216.611667	1720.841797	-67.089195
12364.689894	-1216.611667	1719.825195	-81.497452
12364.689894	-1216.611667	1718.808594	-98.319946
12364.689894	-1216.611667	1717.791992	-171.609940
12364.689894	-1216.611667	1716.774414	-17.023897
12364.689894	-1216.611667	1715.756836	-15.267821
12364.689894	-1216.611667	1714.739258	174.325760
12364.689894	-1216.611667	1713.721680	-14.309042
12364.689894	-1216.611667	1712.704102	24.810678
12364.689894	-1216.611667	1711.685547	-95.786247
12364.689894	-1216.611667	1710.667969	30.042280
12364.689894	-1216.611667	1709.649414	-55.442547
12364.689894	-1216.611667	1708.630859	-49.459892
12364.689894	-1216.611667	1707.611328	120.644852
12364.689894	-1216.611667	1706.592773	-2.524765
12364.689894	-1216.611667	1705.573242	-24.892548
12364.689894	-1216.611667	1704.553711	-77.790665
12364.689894	-1216.611667	1703.534180	23.965078
12364.689894	-1216.611667	1702.513672	102.178474
12364.689894	-1216.611667	1701.494141	46.758366
12364.689894	-1216.611667	1700.473633	-57.901192
12364.689894	-1216.611667	1699.453125	118.467567
12364.689894	-1216.611667	1698.432617	114.405327
12364.689894	-1216.611667	1697.412109	-41.890965
12364.689894	-1216.611667	1696.390625	40.560940
12364.689894	-1216.611667	1695.369141	122.922607
12364.689894	-1216.611667	1694.347656	81.185936
12364.689894	-1216.611667	1693.326172	212.523499
12364.689894	-1216.611667	1692.304688	39.693790
12364.689894	-1216.611667	1691.282227	-81.685387
12364.689894	-1216.611667	1690.260742	-58.106308
12364.689894	-1216.611667	1689.238281	166.433441
12364.689894	-1216.611667	1688.214844	21.559441
12364.689894	-1216.611667	1687.192383	82.324661
12364.689894	-1216.611667	1686.168945	180.387512
12364.689894	-1216.611667	1685.146484	222.310898
12364.689894	-1216.611667	1684.123047	338.890778
12364.689894	-1216.611667	1683.099609	179.860657
12364.689894	-1216.611667	1682.075195	60.519669
12364.689894	-1216.611667	1681.051758	113.900818
12364.689894	-1216.611667	1680.027344	360.888611
12364.689894	-1216.611667	1679.002930	131.786087
12364.689894	-1216.611667	1677.978516	222.297226
12364.689894	-1216.611667	1676.953125	207.771729
12364.689894	-1216.611667	1675.928711	445.044800
12364.689894	-1216.611667	1674.903320	269.535736
12364.689894	-1216.611667	1673.877930	303.828125
12364.689894	-1216.611667	1672.852539	184.260712
12364.689894	-1216.611667	1671.826172	216.135193
12364.689894	-1216.611667	1670.800781	429.667053
12364.689894	-1216.611667	1669.774414	237.816315
12364.689894	-1216.611667	1668.748047	460.489960
12364.689894	-1216.611667	1667.721680	401.335388
12364.689894	-1216.611667	1666.694336	642.429565
12364.689894	-1216.611667	1665.667969	736.789124
12364.689894	-1216.611667	1664.640625	721.708679
12364.689894	-1216.611667	1663.613281	697.294739
12364.689894	-1216.611667	1662.585938	693.790344
12364.689894	-1216.611667	1661.557617	785.589783
12364.689894	-1216.611667	1660.530273	691.331970
12364.689894	-1216.611667	1659.501953	599.395386
12364.689894	-1216.611667	1658.473633	758.466736
12364.689894	-1216.611667	1657.444336	689.721313
12364.689894	-1216.611667	1656.416016	600.076782
12364.689894	-1216.611667	1655.386719	854.196472
12364.689894	-1216.611667	1654.358398	727.345642
12364.689894	-1216.611667	1653.328125	626.038818
12364.689894	-1216.611667	1652.298828	527.078796
12364.689894	-1216.611667	1651.269531	917.855835
12364.689894	-1216.611667	1650.239258	749.207336
12364.689894	-1216.611667	1649.208984	754.608337
12364.689894	-1216.611667	1648.178711	771.584167
12364.689894	-1216.611667	1647.148438	920.727600
12364.689894	-1216.611667	1646.117188	1039.640625
12364.689894	-1216.611667	1645.086914	1119.089966
12364.689894	-1216.611667	1644.055664	1288.877197
12364.689894	-1216.611667	1643.024414	1171.230347
12364.689894	-1216.611667	1641.992188	1181.035767
12364.689894	-1216.611667	1640.960938	1264.959473
12364.689894	-1216.611667	1639.928711	1334.932861
12364.689894	-1216.611667	1638.896484	1358.556274
12364.689894	-1216.611667	1637.864258	1386.789673
12364.689894	-1216.611667	1636.832031	1280.753052
12364.689894	-1216.611667	1635.798828	1401.530884
12364.689894	-1216.611667	1634.766602	1344.105835
12364.689894	-1216.611667	1633.733398	1124.753052
12364.689894	-1216.611667	1632.699219	1071.995972
12364.689894	-1216.611667	1631.666016	1421.626831
12364.689894	-1216.611667	1630.632813	1463.626465
12364.689894	-1216.611667	1629.598633	1348.412354
12364.689894	-1216.611667	1628.564453	1163.909912
12364.689894	-1216.611667	1627.530273	1286.791992
12364.689894	-1216.611667	1626.495117	1192.459351
12364.689894	-1216.611667	1625.460938	1255.236450
12364.689894	-1216.611667	1624.425781	1435.754883
12364.689894	-1216.611667	1623.390625	1369.161987
12364.689894	-1216.611667	1622.355469	1385.700684
12364.689894	-1216.611667	1621.319336	1483.005371
12364.689894	-1216.611667	1620.284180	1501.835938
12364.689894	-1216.611667	1619.248047	1546.032104
12364.689894	-1216.611667	1618.211914	1694.017334
12364.689894	-1216.611667	1617.174805	1645.921997
12364.689894	-1216.611667	1616.138672	1590.948242
12364.689894	-1216.611667	1615.101563	1630.513184
12364.689894	-1216.611667	1614.065430	1626.293335
12364.689894	-1216.611667	1613.027344	1405.460693
12364.689894	-1216.611667	1611.990234	1509.587402
12364.689894	-1216.611667	1610.953125	1383.345093
12364.689894	-1216.611667	1609.915039	1540.426025
12364.689894	-1216.611667	1608.876953	1706.674072
12364.689894	-1216.611667	1607.838867	1543.676147
12364.689894	-1216.611667	1606.800781	1578.702026
12364.689894	-1216.611667	1605.761719	1487.159546
12364.689894	-1216.611667	1604.723633	1646.466187
12364.689894	-1216.611667	1603.684570	1377.866699
12364.689894	-1216.611667	1602.644531	1700.447998
12364.689894	-1216.611667	1601.605469	1611.344238
12364.689894	-1216.611667	1600.566406	1761.392212
12364.689894	-1216.611667	1599.526367	1982.653198
12364.689894	-1216.611667	1598.486328	1755.732056
12364.689894	-1216.611667	1597.446289	1816.130615
12364.689894	-1216.611667	1596.405273	1695.048096
12364.689894	-1216.611667	1595.365234	1663.625977
12364.689894	-1216.611667	1594.324219	1799.865479
12364.689894	-1216.611667	1593.283203	1667.472534
12364.689894	-1216.611667	1592.242188	1994.239136
12364.689894	-1216.611667	1591.200195	2001.909546
12364.689894	-1216.611667	1590.159180	1897.191406
12364.689894	-1216.611667	1589.117188	1893.478760
12364.689894	-1216.611667	1588.075195	1928.795654
12364.689894	-1216.611667	1587.032227	1808.195190
12364.689894	-1216.611667	1585.990234	1708.324097
12364.689894	-1216.611667	1584.947266	2007.370728
12364.689894	-1216.611667	1583.904297	1740.271973
12364.689894	-1216.611667	1582.861328	1927.004395
12364.689894	-1216.611667	1581.818359	1918.981079
12364.689894	-1216.611667	1580.775391	1954.523193
12364.689894	-1216.611667	1579.731445	1960.316895
12364.689894	-1216.611667	1578.687500	1934.100830
12364.689894	-1216.611667	1577.643555	1598.915039
12364.689894	-1216.611667	1576.598633	1767.400757
12364.689894	-1216.611667	1575.554688	1670.446899
12364.689894	-1216.611667	1574.509766	1909.870605
12364.689894	-1216.611667	1573.464844	1817.592773
12364.689894	-1216.611667	1572.419922	1716.255859
12364.689894	-1216.611667	1571.374023	1699.599243
12364.689894	-1216.611667	1570.329102	1728.729004
12364.689894	-1216.611667	1569.283203	1837.886475
12364.689894	-1216.611667	1568.237305	1816.807739
12364.689894	-1216.611667	1567.191406	1549.056396
12364.689894	-1216.611667	1566.144531	1779.404785
12364.689894	-1216.611667	1565.098633	1543.851440
12364.689894	-1216.611667	1564.051758	1543.617432
12364.689894	-1216.611667	1563.004883	1657.583374
12364.689894	-1216.611667	1561.957031	1881.110840
12364.689894	-1216.611667	1560.910156	1846.762939
12364.689894	-1216.611667	1559.862305	1830.734375
12364.689894	-1216.611667	1558.814453	1753.187256
12364.689894	-1216.611667	1557.766602	1504.691772
12364.689894	-1216.611667	1556.718750	1671.341553
12364.689894	-1216.611667	1555.669922	1801.507446
12364.689894	-1216.611667	1554.621094	1772.143433
12364.689894	-1216.611667	1553.573242	1612.975830
12364.689894	-1216.611667	1552.523438	1510.881714
12364.689894	-1216.611667	1551.474609	1479.517822
12364.689894	-1216.611667	1550.424805	1498.332397
12364.689894	-1216.611667	1549.375000	1410.191528
12364.689894	-1216.611667	1548.325195	1171.905151
12364.689894	-1216.611667	1547.275391	1099.939209
12364.689894	-1216.611667	1546.225586	843.747314
12364.689894	-1216.611667	1545.174805	894.874023
12364.689894	-1216.611667	1544.124023	695.832031
12364.689894	-1216.611667	1543.073242	963.175842
12364.689894	-1216.611667	1542.022461	664.301636
12364.689894	-1216.611667	1540.970703	654.336121
12364.689894	-1216.611667	1539.919922	794.474243
12364.689894	-1216.611667	1538.868164	646.020691
12364.689894	-1216.611667	1537.815430	563.586609
12364.689894	-1216.611667	1536.763672	488.087250
12364.689894	-1216.611667	1535.710938	569.400879
12364.689894	-1216.611667	1534.659180	553.129761
12364.689894	-1216.611667	1533.606445	750.345032
12364.689894	-1216.611667	1532.552734	652.481934
12364.689894	-1216.611667	1531.500000	484.397369
12364.689894	-1216.611667	1530.446289	264.271088
12364.689894	-1216.611667	1529.393555	402.740692
12364.689894	-1216.611667	1528.338867	525.353577
12364.689894	-1216.611667	1527.285156	384.969879
12364.689894	-1216.611667	1526.231445	616.538330
12364.689894	-1216.611667	1525.176758	480.892761
12364.689894	-1216.611667	1524.122070	463.233887
12364.689894	-1216.611667	1523.067383	486.454773
12364.689894	-1216.611667	1522.012695	496.162476
12364.689894	-1216.611667	1520.957031	585.222412
12364.689894	-1216.611667	1519.901367	590.552612
12364.689894	-1216.611667	1518.845703	294.860626
12364.689894	-1216.611667	1517.790039	350.226074
12364.689894	-1216.611667	1516.734375	369.453186
12364.689894	-1216.611667	1515.677734	241.687057
12364.689894	-1216.611667	1514.621094	252.059158
12364.689894	-1216.611667	1513.564453	253.474258
12364.689894	-1216.611667	1512.507813	182.620300
12364.689894	-1216.611667	1511.450195	335.710175
12364.689894	-1216.611667	1510.393555	339.652618
12364.689894	-1216.611667	1509.335938	29.549734
12364.689894	-1216.611667	1508.278320	302.620239
12364.689894	-1216.611667	1507.219727	241.334106
12364.689894	-1216.611667	1506.162109	195.984177
12364.689894	-1216.611667	1505.103516	186.876312
12364.689894	-1216.611667	1504.044922	322.364563
12364.689894	-1216.611667	1502.986328	216.369278
12364.689894	-1216.611667	1501.926758	180.474136
12364.689894	-1216.611667	1500.868164	90.543251
12364.689894	-1216.611667	1499.808594	104.517159
12364.689894	-1216.611667	1498.749023	-50.575775
12364.689894	-1216.611667	1497.688477	1.954958
12364.689894	-1216.611667	1496.628906	165.043930
12364.689894	-1216.611667	1495.568359	280.830688
12364.689894	-1216.611667	1494.507813	259.197632
12364.689894	-1216.611667	1493.447266	104.734932
12364.689894	-1216.611667	1492.386719	200.496613
12364.689894	-1216.611667	1491.325195	82.347527
12364.689894	-1216.611667	1490.263672	88.204834
12364.689894	-1216.611667	1489.202148	-0.397972
12364.689894	-1216.611667	1488.140625	-30.334658
12364.689894	-1216.611667	1487.079102	261.675323
12364.689894	-1216.611667	1486.016602	4.645672
12364.689894	-1216.611667	1484.954102	152.762589
12364.689894	-1216.611667	1483.891602	-88.187561
12364.689894	-1216.611667	1482.829102	-153.530746
12364.689894	-1216.611667	1481.765625	163.468811
12364.689894	-1216.611667	1480.702148	-29.803915
12364.689894	-1216.611667	1479.638672	111.962776
12364.689894	-1216.611667	1478.575195	-27.066870
12364.689894	-1216.611667	1477.511719	65.457916
12364.689894	-1216.611667	1476.447266	54.714764
12364.689894	-1216.611667	1475.382813	-36.707809
12364.689894	-1216.611667	1474.318359	-17.966888
12364.689894	-1216.611667	1473.253906	-37.291824
12364.689894	-1216.611667	1472.189453	60.219856
12364.689894	-1216.611667	1471.124023	350.686676
12364.689894	-1216.611667	1470.058594	367.540344
12364.689894	-1216.611667	1468.993164	462.714569
12364.689894	-1216.611667	1467.927734	177.622498
12364.689894	-1216.611667	1466.861328	418.565674
12364.689894	-1216.611667	1465.794922	455.591553
12364.689894	-1216.611667	1464.728516	507.048859
12364.689894	-1216.611667	1463.662109	459.503052
12364.689894	-1216.611667	1462.594727	512.741394
12364.689894	-1216.611667	1461.528320	537.242310
12364.689894	-1216.611667	1460.460938	543.937805
12364.689894	-1216.611667	1459.393555	422.610046
12364.689894	-1216.611667	1458.326172	628.583191
12364.689894	-1216.611667	1457.257813	503.906708
12364.689894	-1216.611667	1456.189453	608.591919
12364.689894	-1216.611667	1455.121094	629.083130
12364.689894	-1216.611667	1454.052734	614.146912
12364.689894	-1216.611667	1452.984375	705.426758
12364.689894	-1216.611667	1451.915039	740.344727
12364.689894	-1216.611667	1450.845703	769.634094
12364.689894	-1216.611667	1449.776367	599.917908
12364.689894	-1216.611667	1448.707031	707.247864
12364.689894	-1216.611667	1447.636719	735.042419
12364.689894	-1216.611667	1446.567383	735.329712
12364.689894	-1216.611667	1445.497070	657.558167
12364.689894	-1216.611667	1444.425781	915.698669
12364.689894	-1216.611667	1443.355469	806.664490
12364.689894	-1216.611667	1442.285156	1069.677002
12364.689894	-1216.611667	1441.213867	682.393494
12364.689894	-1216.611667	1440.142578	708.274719
12364.689894	-1216.611667	1439.070313	776.790649
12364.689894	-1216.611667	1437.999023	641.901489
12364.689894	-1216.611667	1436.926758	575.493530
12364.689894	-1216.611667	1435.854492	388.058502
12364.689894	-1216.611667	1434.782227	480.950653
12364.689894	-1216.611667	1433.709961	363.550690
12364.689894	-1216.611667	1432.636719	510.004852
12364.689894	-1216.611667	1431.563477	461.678345
12364.689894	-1216.611667	1430.490234	579.683350
12364.689894	-1216.611667	1429.416992	328.549774
12364.689894	-1216.611667	1428.343750	373.162231
12364.689894	-1216.611667	1427.269531	237.861755
12364.689894	-1216.611667	1426.195313	248.377304
12364.689894	-1216.611667	1425.121094	345.731079
12364.689894	-1216.611667	1424.046875	480.272369
12364.689894	-1216.611667	1422.971680	397.533081
12364.689894	-1216.611667	1421.896484	223.533691
12364.689894	-1216.611667	1420.821289	219.040512
12364.689894	-1216.611667	1419.746094	296.544434
12364.689894	-1216.611667	1418.669922	402.855042
12364.689894	-1216.611667	1417.594727	371.729279
12364.689894	-1216.611667	1416.518555	488.760315
12364.689894	-1216.611667	1415.442383	432.763916
12364.689894	-1216.611667	1414.365234	487.688660
12364.689894	-1216.611667	1413.289063	332.906952
12364.689894	-1216.611667	1412.211914	414.763611
12364.689894	-1216.611667	1411.134766	518.435303
12364.689894	-1216.611667	1410.057617	544.926636
12364.689894	-1216.611667	1408.979492	292.446259
12364.689894	-1216.611667	1407.902344	427.339325
12364.689894	-1216.611667	1406.824219	682.304993
12364.689894	-1216.611667	1405.746094	484.780304
12364.689894	-1216.611667	1404.666992	716.757446
12364.689894	-1216.611667	1403.588867	766.308350
12364.689894	-1216.611667	1402.509766	696.800903
12364.689894	-1216.611667	1401.430664	872.864929
12364.689894	-1216.611667	1400.351563	624.005920
12364.689894	-1216.611667	1399.271484	895.027161
12364.689894	-1216.611667	1398.192383	768.185059
12364.689894	-1216.611667	1397.112305	868.777100
12364.689894	-1216.611667	1396.031250	910.810913
12364.689894	-1216.611667	1394.951172	869.846008
12364.689894	-1216.611667	1393.871094	908.683960
12364.689894	-1216.611667	1392.790039	883.950806
12364.689894	-1216.611667	1391.708984	610.990295
12364.689894	-1216.611667	1390.626953	602.286133
12364.689894	-1216.611667	1389.545898	788.651794
12364.689894	-1216.611667	1388.463867	1092.605957
12364.689894	-1216.611667	1387.381836	812.223389
12364.689894	-1216.611667	1386.299805	794.987122
12364.689894	-1216.611667	1385.217773	778.790039
12364.689894	-1216.611667	1384.134766	833.015808
12364.689894	-1216.611667	1383.051758	902.574768
12364.689894	-1216.611667	1381.968750	902.122620
12364.689894	-1216.611667	1380.885742	856.310181
12364.689894	-1216.611667	1379.802734	1025.829346
12364.689894	-1216.611667	1378.718750	1009.101929
12364.689894	-1216.611667	1377.634766	1135.306641
12364.689894	-1216.611667	1376.550781	889.422302
12364.689894	-1216.611667	1375.465820	984.383911
12364.689894	-1216.611667	1374.381836	937.985840
12364.689894	-1216.611667	1373.296875	985.241211
12364.689894	-1216.611667	1372.211914	1144.674927
12364.689894	-1216.611667	1371.126953	1093.311523
12364.689894	-1216.611667	1370.041016	1024.036621
12364.689894	-1216.611667	1368.955078	1231.734253
12364.689894	-1216.611667	1367.869141	1191.090088
12364.689894	-1216.611667	1366.783203	1320.148560
12364.689894	-1216.611667	1365.697266	1323.570068
12364.689894	-1216.611667	1364.610352	1510.554077
12364.689894	-1216.611667	1363.523438	1230.479004
12364.689894	-1216.611667	1362.436523	1315.803223
12364.689894	-1216.611667	1361.349609	1333.987061
12364.689894	-1216.611667	1360.261719	1447.060181
12364.689894	-1216.611667	1359.174805	1543.893799
12364.689894	-1216.611667	1358.086914	1512.751343
12364.689894	-1216.611667	1356.998047	1343.349854
12364.689894	-1216.611667	1355.910156	1510.157104
12364.689894	-1216.611667	1354.821289	1643.028442
12364.689894	-1216.611667	1353.732422	1690.634644
12364.689894	-1216.611667	1352.643555	1722.335449
12364.689894	-1216.611667	1351.554688	1583.863525
12364.689894	-1216.611667	1350.464844	1347.489380
12364.689894	-1216.611667	1349.375000	1578.885620
12364.689894	-1216.611667	1348.285156	1388.599121
12364.689894	-1216.611667	1347.195313	1285.184204
12364.689894	-1216.611667	1346.105469	1338.089111
12364.689894	-1216.611667	1345.014648	1227.404053
12364.689894	-1216.611667	1343.923828	1161.905640
12364.689894	-1216.611667	1342.833008	1356.983765
12364.689894	-1216.611667	1341.741211	1161.006226
12364.689894	-1216.611667	1340.650391	1445.999146
12364.689894	-1216.611667	1339.558594	1196.617432
12364.689894	-1216.611667	1338.466797	1322.014526
12364.689894	-1216.611667	1337.374023	1357.670654
12364.689894	-1216.611667	1336.282227	1240.744141
12364.689894	-1216.611667	1335.189453	1318.268677
12364.689894	-1216.611667	1334.096680	1111.237793
12364.689894	-1216.611667	1333.003906	1261.860962
12364.689894	-1216.611667	1331.910156	1158.561035
12364.689894	-1216.611667	1330.817383	1132.643066
12364.689894	-1216.611667	1329.723633	922.161926
12364.689894	-1216.611667	1328.629883	1061.870728
12364.689894	-1216.611667	1327.535156	843.145752
12364.689894	-1216.611667	1326.441406	982.935425
12364.689894	-1216.611667	1325.346680	1064.226318
12364.689894	-1216.611667	1324.251953	863.669922
12364.689894	-1216.611667	1323.156250	825.719910
12364.689894	-1216.611667	1322.061523	927.889587
12364.689894	-1216.611667	1320.965820	988.372009
12364.689894	-1216.611667	1319.870117	680.034424
12364.689894	-1216.611667	1318.774414	611.288086
12364.689894	-1216.611667	1317.678711	634.162354
12364.689894	-1216.611667	1316.582031	641.409058
12364.689894	-1216.611667	1315.485352	875.540527
12364.689894	-1216.611667	1314.388672	749.094055
12364.689894	-1216.611667	1313.291016	495.689606
12364.689894	-1216.611667	1312.194336	716.893433
12364.689894	-1216.611667	1311.096680	599.183655
12364.689894	-1216.611667	1309.999023	476.344849
12364.689894	-1216.611667	1308.901367	474.041321
12364.689894	-1216.611667	1307.802734	317.916595
12364.689894	-1216.611667	1306.705078	469.179138
12364.689894	-1216.611667	1305.606445	450.821106
12364.689894	-1216.611667	1304.506836	353.096649
12364.689894	-1216.611667	1303.408203	590.463989
12364.689894	-1216.611667	1302.308594	295.392975
12364.689894	-1216.611667	1301.208984	651.065430
12364.689894	-1216.611667	1300.109375	400.768677
12364.689894	-1216.611667	1299.009766	497.118958
12364.689894	-1216.611667	1297.909180	480.962402
12364.689894	-1216.611667	1296.808594	491.762878
12364.689894	-1216.611667	1295.708008	568.803711
12364.689894	-1216.611667	1294.607422	510.816467
12364.689894	-1216.611667	1293.506836	603.106018
12364.689894	-1216.611667	1292.405273	477.457062
12364.689894	-1216.611667	1291.303711	329.966095
12364.689894	-1216.611667	1290.202148	570.667419
12364.689894	-1216.611667	1289.099609	569.235535
12364.689894	-1216.611667	1287.998047	437.482147
12364.689894	-1216.611667	1286.895508	433.850708
12364.689894	-1216.611667	1285.792969	486.173920
12364.689894	-1216.611667	1284.689453	324.295288
12364.689894	-1216.611667	1283.586914	373.848633
12364.689894	-1216.611667	1282.483398	401.847900
12364.689894	-1216.611667	1281.379883	487.681366
12364.689894	-1216.611667	1280.276367	409.353088
12364.689894	-1216.611667	1279.171875	468.777008
12364.689894	-1216.611667	1278.067383	375.978943
12364.689894	-1216.611667	1276.962891	320.632904
12364.689894	-1216.611667	1275.858398	312.700928
12364.689894	-1216.611667	1274.753906	204.646103
12364.689894	-1216.611667	1273.648438	491.018158
12364.689894	-1216.611667	1272.542969	328.566528
12364.689894	-1216.611667	1271.437500	240.165359
12364.689894	-1216.611667	1270.331055	185.074448
12364.689894	-1216.611667	1269.225586	283.393860
12364.689894	-1216.611667	1268.119141	319.258240
12364.689894	-1216.611667	1267.012695	215.086853
12364.689894	-1216.611667	1265.906250	78.446243
12364.689894	-1216.611667	1264.798828	238.119736
12364.689894	-1216.611667	1263.691406	87.249168
12364.689894	-1216.611667	1262.583984	226.727295
12364.689894	-1216.611667	1261.476563	386.385345
12364.689894	-1216.611667	1260.368164	340.028168
12364.689894	-1216.611667	1259.260742	309.570007
12364.689894	-1216.611667	1258.152344	378.832336
12364.689894	-1216.611667	1257.043945	126.389557
12364.689894	-1216.611667	1255.934570	299.622711
12364.689894	-1216.611667	1254.825195	207.993896
12364.689894	-1216.611667	1253.716797	268.953522
12364.689894	-1216.611667	1252.606445	312.891388
12364.689894	-1216.611667	1251.497070	175.083115
12364.689894	-1216.611667	1250.387695	162.453659
12364.689894	-1216.611667	1249.277344	193.576508
12364.689894	-1216.611667	1248.166992	258.372742
12364.689894	-1216.611667	1247.055664	197.179474
12364.689894	-1216.611667	1245.945313	127.464661
12364.689894	-1216.611667	1244.833984	194.252960
12364.689894	-1216.611667	1243.722656	162.527954
12364.689894	-1216.611667	1242.611328	85.918770
12364.689894	-1216.611667	1241.499023	214.088730
12364.689894	-1216.611667	1240.387695	80.704979
12364.689894	-1216.611667	1239.275391	150.741425
12364.689894	-1216.611667	1238.162109	160.110413
12364.689894	-1216.611667	1237.049805	42.702744
12364.689894	-1216.611667	1235.936523	30.921993
12364.689894	-1216.611667	1234.823242	2.466630
12364.689894	-1216.611667	1233.709961	-54.429710
12364.689894	-1216.611667	1232.596680	-2.027528
12364.689894	-1216.611667	1231.482422	-44.353943
12364.689894	-1216.611667	1230.369141	-88.255341
12364.689894	-1216.611667	1229.253906	-68.272591
12364.689894	-1216.611667	1228.139648	-184.811584
12364.689894	-1216.611667	1227.025391	-122.194344
12364.689894	-1216.611667	1225.910156	-37.208775
12364.689894	-1216.611667	1224.794922	-94.418030
12364.689894	-1216.611667	1223.679688	-66.396057
12364.689894	-1216.611667	1222.563477	-106.135849
12364.689894	-1216.611667	1221.447266	-157.247391
12364.689894	-1216.611667	1220.331055	-102.741135
12364.689894	-1216.611667	1219.214844	-10.046486
12364.689894	-1216.611667	1218.098633	-151.243225
12364.689894	-1216.611667	1216.981445	34.573067
12364.689894	-1216.611667	1215.864258	-37.420403
12364.689894	-1216.611667	1214.747070	-52.080746
12364.689894	-1216.611667	1213.629883	3.317938
12364.689894	-1216.611667	1212.511719	12.405594
12364.689894	-1216.611667	1211.393555	15.492334
12364.689894	-1216.611667	1210.275391	-70.462532
12364.689894	-1216.611667	1209.157227	-36.763355
12364.689894	-1216.611667	1208.038086	-14.044903
12364.689894	-1216.611667	1206.918945	49.337013
12364.689894	-1216.611667	1205.799805	-59.119209
12364.689894	-1216.611667	1204.680664	-100.362442
12364.689894	-1216.611667	1203.560547	12.046703
12364.689894	-1216.611667	1202.441406	128.396530
12364.689894	-1216.611667	1201.321289	168.114243
12364.689894	-1216.611667	1200.200195	83.785133
12364.689894	-1216.611667	1199.080078	-89.200798
12364.689894	-1216.611667	1197.958984	-14.433055
12364.689894	-1216.611667	1196.837891	-125.525986
12364.689894	-1216.611667	1195.716797	-6.913766
12364.689894	-1216.611667	1194.594727	-11.085886
12364.689894	-1216.611667	1193.473633	-135.368835
12364.689894	-1216.611667	1192.351563	-81.364082
12364.689894	-1216.611667	1191.229492	64.978249
12364.689894	-1216.611667	1190.106445	-20.578493
12364.689894	-1216.611667	1188.984375	47.793743
12364.689894	-1216.611667	1187.861328	-7.502802
12364.689894	-1216.611667	1186.738281	36.559414
12364.689894	-1216.611667	1185.614258	-93.288582
12364.689894	-1216.611667	1184.491211	4.758077
12364.689894	-1216.611667	1183.367188	99.830910
12364.689894	-1216.611667	1182.243164	-28.332434
12364.689894	-1216.611667	1181.119141	-86.293999
12364.689894	-1216.611667	1179.994141	2.354856
12364.689894	-1216.611667	1178.869141	10.058911
12364.689894	-1216.611667	1177.744141	-38.627636
12364.689894	-1216.611667	1176.619141	63.369919
12364.689894	-1216.611667	1175.493164	120.788216
12364.689894	-1216.611667	1174.368164	126.208168
12364.689894	-1216.611667	1173.242188	107.163071
12364.689894	-1216.611667	1172.115234	217.762726
12364.689894	-1216.611667	1170.989258	284.877319
12364.689894	-1216.611667	1169.862305	100.623932
12364.689894	-1216.611667	1168.735352	93.557121
12364.689894	-1216.611667	1167.608398	81.829758
12364.689894	-1216.611667	1166.481445	70.112297
12364.689894	-1216.611667	1165.353516	172.255371
12364.689894	-1216.611667	1164.225586	-34.473438
12364.689894	-1216.611667	1163.097656	84.985031
12364.689894	-1216.611667	1161.968750	137.258636
12364.689894	-1216.611667	1160.840820	-113.147888
12364.689894	-1216.611667	1159.711914	-78.646400
12364.689894	-1216.611667	1158.583008	-247.353851
12364.689894	-1216.611667	1157.453125	-149.520447
12364.689894	-1216.611667	1156.324219	12.890138
12364.689894	-1216.611667	1155.194336	-201.591873
12364.689894	-1216.611667	1154.064453	-84.057831
12364.689894	-1216.611667	1152.933594	-179.090134
12364.689894	-1216.611667	1151.803711	-159.699951
12364.689894	-1216.611667	1150.672852	-89.976486
12364.689894	-1216.611667	1149.541992	-97.210159
12364.689894	-1216.611667	1148.411133	-141.748947
12364.689894	-1216.611667	1147.279297	28.407587
12364.689894	-1216.611667	1146.147461	36.870567
12364.689894	-1216.611667	1145.015625	100.907257
12364.689894	-1216.611667	1143.883789	187.540787
12364.689894	-1216.611667	1142.750977	72.726524
12364.689894	-1216.611667	1141.619141	69.105522
12364.689894	-1216.611667	1140.486328	168.943268
12364.689894	-1216.611667	1139.352539	-37.031151
12364.689894	-1216.611667	1138.219727	63.633163
12364.689894	-1216.611667	1137.085938	74.913383
12364.689894	-1216.611667	1135.952148	113.280457
12364.689894	-1216.611667	1134.818359	9.760496
12364.689894	-1216.611667	1133.683594	105.205040
12364.689894	-1216.611667	1132.549805	76.807678
12364.689894	-1216.611667	1131.415039	267.113495
12364.689894	-1216.611667	1130.279297	248.498093
12364.689894	-1216.611667	1129.144531	95.075294
12364.689894	-1216.611667	1128.008789	158.144806
12364.689894	-1216.611667	1126.873047	187.809830
12364.689894	-1216.611667	1125.737305	339.028168
12364.689894	-1216.611667	1124.601563	356.992035
12364.689894	-1216.611667	1123.464844	382.142395
12364.689894	-1216.611667	1122.328125	354.230194
12364.689894	-1216.611667	1121.191406	273.369446
12364.689894	-1216.611667	1120.054688	267.541443
12364.689894	-1216.611667	1118.916992	215.230026
12364.689894	-1216.611667	1117.779297	156.489014
12364.689894	-1216.611667	1116.641602	190.698135
12364.689894	-1216.611667	1115.503906	180.952942
12364.689894	-1216.611667	1114.365234	268.946045
12364.689894	-1216.611667	1113.226563	111.108505
12364.689894	-1216.611667	1112.087891	105.033897
12364.689894	-1216.611667	1110.949219	219.835403
12364.689894	-1216.611667	1109.809570	315.639038
12364.689894	-1216.611667	1108.669922	221.277435
12364.689894	-1216.611667	1107.530273	262.439941
12364.689894	-1216.611667	1106.390625	124.562973
12364.689894	-1216.611667	1105.250000	192.115158
12364.689894	-1216.611667	1104.109375	112.942047
12364.689894	-1216.611667	1102.968750	156.455658
12364.689894	-1216.611667	1101.828125	23.432281
12364.689894	-1216.611667	1100.686523	164.911667
12364.689894	-1216.611667	1099.544922	123.685852
12364.689894	-1216.611667	1098.403320	302.672760
12364.689894	-1216.611667	1097.261719	202.656509
12364.689894	-1216.611667	1096.120117	172.504272
12364.689894	-1216.611667	1094.977539	175.843414
12364.689894	-1216.611667	1093.834961	229.615707
12364.689894	-1216.611667	1092.691406	371.812714
12364.689894	-1216.611667	1091.548828	287.996094
12364.689894	-1216.611667	1090.405273	247.417542
12364.689894	-1216.611667	1089.261719	313.856903
12364.689894	-1216.611667	1088.118164	152.932358
12364.689894	-1216.611667	1086.973633	104.896965
12364.689894	-1216.611667	1085.829102	203.302261
12364.689894	-1216.611667	1084.684570	224.725388
12364.689894	-1216.611667	1083.540039	164.923203
12364.689894	-1216.611667	1082.395508	22.096910
12364.689894	-1216.611667	1081.250000	204.885086
12364.689894	-1216.611667	1080.104492	271.424500
12364.689894	-1216.611667	1078.958984	231.286484
12364.689894	-1216.611667	1077.812500	125.381927
12364.689894	-1216.611667	1076.666016	88.088020
12364.689894	-1216.611667	1075.519531	261.940948
12364.689894	-1216.611667	1074.373047	353.608765
12364.689894	-1216.611667	1073.226563	466.908875
12364.689894	-1216.611667	1072.079102	463.727539
12364.689894	-1216.611667	1070.931641	448.112183
12364.689894	-1216.611667	1069.784180	353.438843
12364.689894	-1216.611667	1068.635742	466.494995
12364.689894	-1216.611667	1067.487305	624.135803
12364.689894	-1216.611667	1066.338867	576.081177
12364.689894	-1216.611667	1065.190430	593.065430
12364.689894	-1216.611667	1064.041992	720.497009
12364.689894	-1216.611667	1062.892578	530.120178
12364.689894	-1216.611667	1061.743164	449.638031
12364.689894	-1216.611667	1060.593750	527.205933
12364.689894	-1216.611667	1059.443359	508.565125
12364.689894	-1216.611667	1058.292969	622.401306
12364.689894	-1216.611667	1057.142578	423.131622
12364.689894	-1216.611667	1055.992188	296.640961
12364.689894	-1216.611667	1054.841797	381.876709
12364.689894	-1216.611667	1053.690430	361.815277
12364.689894	-1216.611667	1052.539063	277.446289
12364.689894	-1216.611667	1051.387695	118.360741
12364.689894	-1216.611667	1050.235352	186.223328
12364.689894	-1216.611667	1049.083984	70.069366
12364.689894	-1216.611667	1047.931641	194.932129
12364.689894	-1216.611667	1046.778320	32.589985
12364.689894	-1216.611667	1045.625977	32.971127
12364.689894	-1216.611667	1044.472656	113.610504
12364.689894	-1216.611667	1043.319336	189.346863
12364.689894	-1216.611667	1042.166016	133.088593
12364.689894	-1216.611667	1041.012695	51.722614
12364.689894	-1216.611667	1039.858398	203.273560
12364.689894	-1216.611667	1038.704102	443.999329
12364.689894	-1216.611667	1037.549805	71.544678
12364.689894	-1216.611667	1036.394531	306.985840
12364.689894	-1216.611667	1035.239258	328.702972
12364.689894	-1216.611667	1034.083984	16.397436
12364.689894	-1216.611667	1032.928711	215.598770
12364.689894	-1216.611667	1031.773438	187.750534
12364.689894	-1216.611667	1030.617188	142.755966
12364.689894	-1216.611667	1029.460938	314.074493
12364.689894	-1216.611667	1028.304688	197.868515
12364.689894	-1216.611667	1027.147461	205.273483
12364.689894	-1216.611667	1025.991211	205.543518
12364.689894	-1216.611667	1024.833984	172.566528
12364.689894	-1216.611667	1023.675781	334.366028
12364.689894	-1216.611667	1022.518555	256.996246
12364.689894	-1216.611667	1021.360352	270.894592
12364.689894	-1216.611667	1020.202148	51.061943
12364.689894	-1216.611667	1019.043945	175.381409
12364.689894	-1216.611667	1017.884766	157.015457
12364.689894	-1216.611667	1016.726563	480.623260
12364.689894	-1216.611667	1015.567383	40.065617
12364.689894	-1216.611667	1014.407227	198.038010
12364.689894	-1216.611667	1013.248047	68.150040
12364.689894	-1216.611667	1012.087891	156.849197
12364.689894	-1216.611667	1010.927734	228.451202
12364.689894	-1216.611667	1009.767578	133.716095
12364.689894	-1216.611667	1008.606445	-32.154896
12364.689894	-1216.611667	1007.446289	65.973694
12364.689894	-1216.611667	1006.285156	118.993256
12364.689894	-1216.611667	1005.123047	0.543616
12364.689894	-1216.611667	1003.961914	147.182343
12364.689894	-1216.611667	1002.799805	-21.056803
12364.689894	-1216.611667	1001.637695	-24.425152
12364.689894	-1216.611667	1000.475586	50.840294
12364.689894	-1216.611667	999.312500	3.493189
12364.689894	-1216.611667	998.149414	30.831179
12364.689894	-1216.611667	996.986328	-84.182541
12364.689894	-1216.611667	995.823242	-221.772278
12364.689894	-1216.611667	994.659180	9.205115
12364.689894	-1216.611667	993.496094	-88.885384
12364.689894	-1216.611667	992.332031	-70.528343
12364.689894	-1216.611667	991.166992	-57.313400
12364.689894	-1216.611667	990.002930	10.965473
12364.689894	-1216.611667	988.837891	3.729739
12364.689894	-1216.611667	987.672852	-52.245045
12364.689894	-1216.611667	986.506836	127.340263
12364.689894	-1216.611667	985.341797	84.279884
12364.689894	-1216.611667	984.175781	-44.083130
12364.689894	-1216.611667	983.009766	34.444897
12364.689894	-1216.611667	981.843750	12.315453
12364.689894	-1216.611667	980.676758	-18.878565
12364.689894	-1216.611667	979.509766	73.933594
12364.689894	-1216.611667	978.342773	144.726868
12364.689894	-1216.611667	977.175781	-60.647854
12364.689894	-1216.611667	976.007813	-56.499180
12364.689894	-1216.611667	974.839844	142.418594
12364.689894	-1216.611667	973.671875	-86.550446
12364.689894	-1216.611667	972.503906	152.487549
12364.689894	-1216.611667	971.334961	11.876184
12364.689894	-1216.611667	970.166016	-32.864285
12364.689894	-1216.611667	968.997070	79.308464
12364.689894	-1216.611667	967.828125	113.727745
12364.689894	-1216.611667	966.658203	23.772173
12364.689894	-1216.611667	965.488281	166.630127
12364.689894	-1216.611667	964.318359	236.115372
12364.689894	-1216.611667	963.148438	-24.787359
12364.689894	-1216.611667	961.977539	-308.794342
12364.689894	-1216.611667	960.806641	36.001686
12364.689894	-1216.611667	959.635742	120.560997
12364.689894	-1216.611667	958.463867	-5.429436
12364.689894	-1216.611667	957.292969	-111.481316
12364.689894	-1216.611667	956.121094	-124.338234
12364.689894	-1216.611667	954.948242	-149.426712
12364.689894	-1216.611667	953.776367	-104.301262
12364.689894	-1216.611667	952.603516	53.906662
12364.689894	-1216.611667	951.430664	-24.203066
12364.689894	-1216.611667	950.257813	112.122795
12364.689894	-1216.611667	949.084961	-64.094940
12364.689894	-1216.611667	947.911133	129.308929
12364.689894	-1216.611667	946.737305	-60.867348
12364.689894	-1216.611667	945.563477	-23.845150
12364.689894	-1216.611667	944.388672	-159.748428
12364.689894	-1216.611667	943.213867	-47.202679
12364.689894	-1216.611667	942.039063	-14.953707
12364.689894	-1216.611667	940.864258	-18.377184
12364.689894	-1216.611667	939.688477	203.164551
12364.689894	-1216.611667	938.513672	79.218315
12364.689894	-1216.611667	937.337891	54.528839
12364.689894	-1216.611667	936.161133	79.257462
12364.689894	-1216.611667	934.985352	33.055668
12364.689894	-1216.611667	933.808594	259.184601
12364.689894	-1216.611667	932.631836	-4.667533
12364.689894	-1216.611667	931.454102	-13.014647
12364.689894	-1216.611667	930.277344	186.822296
12364.689894	-1216.611667	929.099609	195.029022
12364.689894	-1216.611667	927.921875	127.385628
12364.689894	-1216.611667	926.743164	-34.832840
12364.689894	-1216.611667	925.565430	242.920029
12364.689894	-1216.611667	924.386719	234.393234
12364.689894	-1216.611667	923.208008	251.834747
12364.689894	-1216.611667	922.028320	110.863220
12364.689894	-1216.611667	920.849609	142.459854
12364.689894	-1216.611667	919.669922	145.078522
12364.689894	-1216.611667	919.474609	96.464523
12364.689894	-1216.611667	918.309570	33.454269
12364.689894	-1216.611667	917.143555	20.051172
12364.689894	-1216.611667	915.977539	37.329487
12364.689894	-1216.611667	914.810547	156.111832
12364.689894	-1216.611667	913.644531	-109.995354
12364.689894	-1216.611667	912.477539	-97.500435
12364.689894	-1216.611667	911.310547	221.744171
12364.689894	-1216.611667	910.143555	149.177170
12364.689894	-1216.611667	908.975586	187.483353
12364.689894	-1216.611667	907.807617	-123.296097
12364.689894	-1216.611667	906.639648	87.128120
12364.689894	-1216.611667	905.471680	-141.044571
12364.689894	-1216.611667	904.303711	3.250493
12364.689894	-1216.611667	903.134766	74.413803
12364.689894	-1216.611667	901.965820	-33.533867
12364.689894	-1216.611667	900.796875	-21.329617
12364.689894	-1216.611667	899.626953	-79.805450
12364.689894	-1216.611667	898.457031	-79.417091
12364.689894	-1216.611667	897.287109	-114.363579
12364.689894	-1216.611667	896.117188	-62.236515
12364.689894	-1216.611667	894.947266	-0.742750
12364.689894	-1216.611667	893.776367	-54.574757
12364.689894	-1216.611667	892.605469	-77.830757
12364.689894	-1216.611667	891.434570	-4.681474
12364.689894	-1216.611667	890.262695	-42.089966
12364.689894	-1216.611667	889.091797	110.901611
12364.689894	-1216.611667	887.919922	-107.530502
12364.689894	-1216.611667	886.748047	-43.923901
12364.689894	-1216.611667	885.575195	-158.909698
12364.689894	-1216.611667	884.403320	-121.199844
12364.689894	-1216.611667	883.230469	163.047760
12364.689894	-1216.611667	882.057617	48.023102
12364.689894	-1216.611667	880.883789	29.266869
12364.689894	-1216.611667	879.710938	12.841664
12364.689894	-1216.611667	878.537109	-34.100044
12364.689894	-1216.611667	877.362305	-134.999588
12364.689894	-1216.611667	876.188477	24.463543
12364.689894	-1216.611667	875.013672	3.279593
12364.689894	-1216.611667	873.839844	148.539642
12364.689894	-1216.611667	872.664063	5.409041
12364.689894	-1216.611667	871.489258	106.041016
12364.689894	-1216.611667	870.313477	190.210815
12364.689894	-1216.611667	869.138672	131.426636
12364.689894	-1216.611667	867.962891	159.304459
12364.689894	-1216.611667	866.786133	2.163668
12364.689894	-1216.611667	865.610352	30.015478
12364.689894	-1216.611667	864.433594	109.330246
12364.689894	-1216.611667	863.256836	1.377309
12364.689894	-1216.611667	862.079102	-34.019814
12364.689894	-1216.611667	860.902344	-106.851723
12364.689894	-1216.611667	859.724609	-58.058372
12364.689894	-1216.611667	858.546875	-23.336210
12364.689894	-1216.611667	857.368164	-16.699673
12364.689894	-1216.611667	856.190430	-33.461517
12364.689894	-1216.611667	855.011719	24.542641
12364.689894	-1216.611667	853.833008	-78.703903
12364.689894	-1216.611667	852.654297	42.313553
12364.689894	-1216.611667	851.474609	44.157593
12364.689894	-1216.611667	850.294922	-3.051725
12364.689894	-1216.611667	849.115234	61.789146
12364.689894	-1216.611667	847.935547	-162.824661
12364.689894	-1216.611667	846.754883	4.655715
12364.689894	-1216.611667	845.575195	-187.232620
12364.689894	-1216.611667	844.393555	-26.853989
12364.689894	-1216.611667	843.212891	128.774124
12364.689894	-1216.611667	842.032227	186.393860
12364.689894	-1216.611667	840.850586	269.611603
12364.689894	-1216.611667	839.668945	215.270157
12364.689894	-1216.611667	838.486328	249.475861
12364.689894	-1216.611667	837.304688	353.534546
12364.689894	-1216.611667	836.122070	287.503601
12364.689894	-1216.611667	834.939453	468.316681
12364.689894	-1216.611667	833.756836	378.966949
12364.689894	-1216.611667	832.573242	485.160187
12364.689894	-1216.611667	831.389648	600.598694
12364.689894	-1216.611667	830.206055	169.182892
12364.689894	-1216.611667	829.022461	379.974152
12364.689894	-1216.611667	827.838867	462.740082
12364.689894	-1216.611667	826.654297	380.354309
12364.689894	-1216.611667	825.469727	556.036804
12364.689894	-1216.611667	824.284180	585.193420
12364.689894	-1216.611667	823.099609	472.559113
12364.689894	-1216.611667	821.914063	385.509094
12364.689894	-1216.611667	820.728516	386.743805
12364.689894	-1216.611667	819.542969	325.250519
12364.689894	-1216.611667	818.356445	94.260185
12364.689894	-1216.611667	817.169922	213.885376
12364.689894	-1216.611667	815.983398	38.672890
12364.689894	-1216.611667	814.796875	100.204666
12364.689894	-1216.611667	813.609375	1.606114
12364.689894	-1216.611667	812.422852	35.241352
12364.689894	-1216.611667	811.235352	85.074150
12364.689894	-1216.611667	810.046875	262.387543
12364.689894	-1216.611667	808.859375	1.479359
12364.689894	-1216.611667	807.670898	18.775150
12364.689894	-1216.611667	806.482422	202.876907
12364.689894	-1216.611667	805.293945	303.477844
12364.689894	-1216.611667	804.104492	271.992279
12364.689894	-1216.611667	802.915039	145.551529
12364.689894	-1216.611667	801.725586	77.020691
12364.689894	-1216.611667	800.536133	40.901585
12364.689894	-1216.611667	799.345703	143.631851
12364.689894	-1216.611667	798.155273	-75.324104
12364.689894	-1216.611667	796.964844	-23.552380
12364.689894	-1216.611667	795.774414	37.424427
12364.689894	-1216.611667	794.583008	98.351479
12364.689894	-1216.611667	793.392578	50.570984
12364.689894	-1216.611667	792.200195	9.720044
12364.689894	-1216.611667	791.008789	-49.626839
12364.689894	-1216.611667	789.816406	66.621292
12364.689894	-1216.611667	788.625000	-32.032082
12364.689894	-1216.611667	787.432617	-26.742172
12364.689894	-1216.611667	786.239258	186.331604
12364.689894	-1216.611667	785.046875	59.936020
12364.689894	-1216.611667	783.853516	141.293640
12364.689894	-1216.611667	782.660156	-79.703178
12364.689894	-1216.611667	781.465820	-69.923782
12364.689894	-1216.611667	780.272461	133.582840
12364.689894	-1216.611667	779.078125	-4.332965
12364.689894	-1216.611667	777.883789	44.541523
12364.689894	-1216.611667	776.688477	-150.981491
12364.689894	-1216.611667	775.494141	-141.330704
12364.689894	-1216.611667	774.298828	-87.932335
12364.689894	-1216.611667	773.103516	-43.797203
12364.689894	-1216.611667	771.907227	-2.012620
12364.689894	-1216.611667	770.711914	19.001669
12364.689894	-1216.611667	769.515625	-49.812565
12364.689894	-1216.611667	768.318359	-1.231957
12364.689894	-1216.611667	767.122070	-79.275734
12364.689894	-1216.611667	765.924805	-21.563791
12364.689894	-1216.611667	764.727539	15.391235
12364.689894	-1216.611667	763.530273	118.999298
12364.689894	-1216.611667	762.333008	96.064880
12364.689894	-1216.611667	761.134766	1.842253
12364.689894	-1216.611667	759.936523	-50.999493
12364.689894	-1216.611667	758.738281	24.840216
12364.689894	-1216.611667	757.540039	-101.565590
12364.689894	-1216.611667	756.340820	49.993320
12364.689894	-1216.611667	755.141602	-133.842194
12364.689894	-1216.611667	753.942383	-214.308670
12364.689894	-1216.611667	752.742188	63.344086
12364.689894	-1216.611667	751.541992	31.005051
12364.689894	-1216.611667	750.341797	14.709168
12364.689894	-1216.611667	749.141602	-72.731277
12364.689894	-1216.611667	747.941406	-50.069420
12364.689894	-1216.611667	746.740234	-11.397982
12364.689894	-1216.611667	745.539063	160.203400
12364.689894	-1216.611667	744.337891	-135.922714
12364.689894	-1216.611667	743.135742	12.647482
12364.689894	-1216.611667	741.933594	-72.592331
12364.689894	-1216.611667	740.731445	73.545143
12364.689894	-1216.611667	739.529297	77.584099
12364.689894	-1216.611667	738.326172	-99.313477
12364.689894	-1216.611667	737.124023	-56.389210
12364.689894	-1216.611667	735.919922	165.017029
12364.689894	-1216.611667	734.716797	24.722235
12364.689894	-1216.611667	733.513672	110.958679
12364.689894	-1216.611667	732.309570	-159.725067
12364.689894	-1216.611667	731.105469	70.523338
12364.689894	-1216.611667	729.900391	51.406689
12364.689894	-1216.611667	728.696289	34.548027
12364.689894	-1216.611667	727.491211	-9.766961
12364.689894	-1216.611667	726.286133	-152.360641
12364.689894	-1216.611667	725.080078	18.061512
12364.689894	-1216.611667	723.874023	-92.575752
12364.689894	-1216.611667	722.668945	-45.628780
12364.689894	-1216.611667	721.461914	145.097687
12364.689894	-1216.611667	720.255859	57.218536
12364.689894	-1216.611667	719.048828	272.872620
12364.689894	-1216.611667	717.841797	205.461380
12364.689894	-1216.611667	716.634766	233.852844
12364.689894	-1216.611667	715.427734	47.798756
12364.689894	-1216.611667	714.219727	85.253540
12364.689894	-1216.611667	713.011719	145.451828
12364.689894	-1216.611667	711.803711	-31.467882
12364.689894	-1216.611667	710.594727	92.457527
12364.689894	-1216.611667	709.385742	-0.157336
12364.689894	-1216.611667	708.176758	7.455928
12364.689894	-1216.611667	706.967773	53.742474
12364.689894	-1216.611667	705.758789	70.369133
12364.689894	-1216.611667	704.548828	96.051819
12364.689894	-1216.611667	703.338867	26.090858
12364.689894	-1216.611667	702.127930	288.344696
12364.689894	-1216.611667	700.917969	52.211216
12364.689894	-1216.611667	699.707031	111.829300
12364.689894	-1216.611667	698.496094	160.010162
12364.689894	-1216.611667	697.285156	176.299561
12364.689894	-1216.611667	696.073242	215.269669
12364.689894	-1216.611667	694.861328	88.275749
12364.689894	-1216.611667	693.649414	149.885071
12364.689894	-1216.611667	692.436523	109.198021
12364.689894	-1216.611667	691.224609	234.287872
12364.689894	-1216.611667	690.011719	14.125037
12364.689894	-1216.611667	688.798828	232.177277
12364.689894	-1216.611667	687.584961	132.319275
12364.689894	-1216.611667	686.372070	257.126526
12364.689894	-1216.611667	685.158203	177.639557
12364.689894	-1216.611667	683.943359	166.192123
12364.689894	-1216.611667	682.729492	274.906860
12364.689894	-1216.611667	681.514648	394.867950
12364.689894	-1216.611667	680.299805	297.107941
12364.689894	-1216.611667	679.084961	285.472443
12364.689894	-1216.611667	677.869141	228.474609
12364.689894	-1216.611667	676.653320	411.603088
12364.689894	-1216.611667	675.437500	261.648865
12364.689894	-1216.611667	674.221680	387.991821
12364.689894	-1216.611667	673.004883	296.882263
12364.689894	-1216.611667	671.789063	298.578217
12364.689894	-1216.611667	670.571289	429.222229
12364.689894	-1216.611667	669.354492	362.919830
12364.689894	-1216.611667	668.136719	224.208618
12364.689894	-1216.611667	666.919922	218.955322
12364.689894	-1216.611667	665.701172	297.319733
12364.689894	-1216.611667	664.483398	65.887222
12364.689894	-1216.611667	663.264648	268.477448
12364.689894	-1216.611667	662.045898	86.773849
12364.689894	-1216.611667	660.827148	151.367325
12364.689894	-1216.611667	659.608398	294.950317
12364.689894	-1216.611667	658.388672	237.431000
12364.689894	-1216.611667	657.168945	46.676640
12364.689894	-1216.611667	655.949219	68.155067
12364.689894	-1216.611667	654.728516	89.578133
12364.689894	-1216.611667	653.507813	65.819046
12364.689894	-1216.611667	652.287109	148.056625
12364.689894	-1216.611667	651.066406	241.494064
12364.689894	-1216.611667	649.844727	285.233765
12364.689894	-1216.611667	648.623047	283.820984
12364.689894	-1216.611667	647.401367	29.910114
12364.689894	-1216.611667	646.179688	231.288406
12364.689894	-1216.611667	644.957031	333.397980
12364.689894	-1216.611667	643.734375	270.978577
12364.689894	-1216.611667	642.511719	280.612396
12364.689894	-1216.611667	641.289063	402.782959
12364.689894	-1216.611667	640.065430	223.193085
12364.689894	-1216.611667	638.841797	372.244751
12364.689894	-1216.611667	637.618164	264.660797
12364.689894	-1216.611667	636.393555	229.069717
12364.689894	-1216.611667	635.168945	179.955658
12364.689894	-1216.611667	633.944336	200.533691
12364.689894	-1216.611667	632.719727	200.826477
12364.689894	-1216.611667	631.494141	203.321777
12364.689894	-1216.611667	630.269531	214.768372
12364.689894	-1216.611667	629.042969	-21.000898
12364.689894	-1216.611667	627.817383	60.041973
12364.689894	-1216.611667	626.590820	82.611397
12364.689894	-1216.611667	625.365234	26.541391
12364.689894	-1216.611667	624.137695	-81.188065
12364.689894	-1216.611667	622.911133	13.101803
12364.689894	-1216.611667	621.683594	-72.218544
12364.689894	-1216.611667	620.456055	30.920488
12364.689894	-1216.611667	619.228516	26.306313
12364.689894	-1216.611667	618.000977	68.750763
12364.689894	-1216.611667	616.772461	93.197380
12364.689894	-1216.611667	615.543945	142.253021
12364.689894	-1216.611667	614.314453	97.116066
12364.689894	-1216.611667	613.085938	36.279400
12364.689894	-1216.611667	611.856445	44.873825
12364.689894	-1216.611667	610.626953	-58.560074
12364.689894	-1216.611667	609.397461	185.105026
12364.689894	-1216.611667	608.166992	56.979507
12364.689894	-1216.611667	606.936523	38.553291
12364.689894	-1216.611667	605.706055	-55.990620
12364.689894	-1216.611667	604.474609	21.747175
12364.689894	-1216.611667	603.244141	97.184845
12364.689894	-1216.611667	602.012695	-1.891900
12364.689894	-1216.611667	600.780273	-87.550102
12364.689894	-1216.611667	599.548828	121.885406
12364.689894	-1216.611667	598.316406	27.230494
12364.689894	-1216.611667	597.083984	10.791719
12364.689894	-1216.611667	595.851563	76.988472
12364.689894	-1216.611667	594.618164	-95.874718
12364.689894	-1216.611667	593.384766	-92.279259
12364.689894	-1216.611667	592.151367	-128.904404
12364.689894	-1216.611667	590.917969	-36.078785
12364.689894	-1216.611667	589.683594	49.977654
12364.689894	-1216.611667	588.449219	-109.468353
12364.689894	-1216.611667	587.214844	-48.030586
12364.689894	-1216.611667	585.979492	84.715492
12364.689894	-1216.611667	584.745117	-47.965473
12364.689894	-1216.611667	583.509766	225.114960
12364.689894	-1216.611667	582.273438	110.226746
12364.689894	-1216.611667	581.038086	155.807510
12364.689894	-1216.611667	579.801758	-48.186817
12364.689894	-1216.611667	578.565430	68.628838
12364.689894	-1216.611667	577.329102	116.332138
12364.689894	-1216.611667	576.091797	30.398281
12364.689894	-1216.611667	574.854492	-133.435028
12364.689894	-1216.611667	573.617188	-108.052055
12364.689894	-1216.611667	572.378906	55.243076
12364.689894	-1216.611667	571.141602	13.790635
12364.689894	-1216.611667	569.903320	130.238647
12364.689894	-1216.611667	568.664063	106.521202
12364.689894	-1216.611667	567.425781	-159.526230
12364.689894	-1216.611667	566.186523	25.716949
12364.689894	-1216.611667	564.947266	90.861633
12364.689894	-1216.611667	563.708008	-55.106312
12364.689894	-1216.611667	562.467773	-134.398361
12364.689894	-1216.611667	561.227539	10.621799
12364.689894	-1216.611667	559.987305	33.444923
12364.689894	-1216.611667	558.747070	-14.794691
12364.689894	-1216.611667	557.505859	-176.222626
12364.689894	-1216.611667	556.264648	-217.780670
12364.689894	-1216.611667	555.023438	-97.393105
12364.689894	-1216.611667	553.781250	-34.745136
12364.689894	-1216.611667	552.539063	-74.142776
12364.689894	-1216.611667	551.296875	108.159592
12364.689894	-1216.611667	550.054688	-19.942038
12364.689894	-1216.611667	548.811523	-17.262804
12364.689894	-1216.611667	547.569336	49.658100
12364.689894	-1216.611667	546.325195	-20.808353
12364.689894	-1216.611667	545.082031	-7.097631
12364.689894	-1216.611667	543.837891	-152.827866
12364.689894	-1216.611667	542.593750	33.540668
12364.689894	-1216.611667	541.349609	118.011330
12364.689894	-1216.611667	540.105469	142.691971
12364.689894	-1216.611667	538.860352	25.761465
12364.689894	-1216.611667	537.615234	194.189224
12364.689894	-1216.611667	536.369141	121.498802
12364.689894	-1216.611667	535.124023	35.570019
12364.689894	-1216.611667	533.877930	221.535538
12364.689894	-1216.611667	532.631836	89.190872
12364.689894	-1216.611667	531.384766	-32.063484
12364.689894	-1216.611667	530.138672	45.534061
12364.689894	-1216.611667	528.891602	28.121956
12364.689894	-1216.611667	527.643555	-33.455769
12364.689894	-1216.611667	526.396484	68.346664
12364.689894	-1216.611667	525.148438	2.358036
12364.689894	-1216.611667	523.900391	59.958767
12364.689894	-1216.611667	522.652344	-47.929039
12364.689894	-1216.611667	521.403320	-14.622858
12364.689894	-1216.611667	520.154297	-131.286270
12364.689894	-1216.611667	518.905273	84.997864
12364.689894	-1216.611667	517.656250	25.659391
12364.689894	-1216.611667	516.406250	162.466675
12364.689894	-1216.611667	515.156250	116.339050
12364.689894	-1216.611667	513.906250	1.940655
12364.689894	-1216.611667	512.655273	-0.102807
12364.689894	-1216.611667	511.404297	11.060552
12364.689894	-1216.611667	510.153320	-138.486282
12364.689894	-1216.611667	508.902344	-373.807770
12364.689894	-1216.611667	507.650391	-204.165100
12364.689894	-1216.611667	506.398438	-126.999428
12364.689894	-1216.611667	505.146484	-188.437851
12364.689894	-1216.611667	503.893555	-111.325592
12364.689894	-1216.611667	502.641602	-137.578217
12364.689894	-1216.611667	501.388672	-104.483727
12364.689894	-1216.611667	500.134766	-5.488687
12364.689894	-1216.611667	498.881836	-119.657211
12364.689894	-1216.611667	497.627930	-194.249100
12364.689894	-1216.611667	496.374023	-60.183369
12364.689894	-1216.611667	495.119141	32.091953
12364.689894	-1216.611667	493.865234	166.034103
12364.689894	-1216.611667	492.610352	-121.484116
12364.689894	-1216.611667	491.355469	203.307602
12364.689894	-1216.611667	490.099609	-22.695251
12364.689894	-1216.611667	488.843750	78.190628
12364.689894	-1216.611667	487.587891	150.514328
12364.689894	-1216.611667	486.332031	86.867867
12364.689894	-1216.611667	485.075195	88.986382
12364.689894	-1216.611667	483.818359	1.241445
12364.689894	-1216.611667	482.561523	-7.607111
12364.689894	-1216.611667	481.304688	154.387985
12364.689894	-1216.611667	480.046875	-12.209305
12364.689894	-1216.611667	478.789063	-71.466057
12364.689894	-1216.611667	477.531250	-51.910770
12364.689894	-1216.611667	476.272461	-19.258995
12364.689894	-1216.611667	475.013672	157.771637
12364.689894	-1216.611667	473.754883	150.940552
12364.689894	-1216.611667	472.496094	130.964081
12364.689894	-1216.611667	471.236328	183.125381
12364.689894	-1216.611667	469.976563	143.414627
12364.689894	-1216.611667	468.716797	127.734489
12364.689894	-1216.611667	467.456055	13.687169
12364.689894	-1216.611667	466.196289	142.174423
12364.689894	-1216.611667	464.935547	331.727356
12364.689894	-1216.611667	463.673828	379.204315
12364.689894	-1216.611667	462.413086	251.956192
12364.689894	-1216.611667	461.151367	439.056671
12364.689894	-1216.611667	459.889648	477.626312
12364.689894	-1216.611667	458.626953	426.665955
12364.689894	-1216.611667	457.364258	757.444519
12364.689894	-1216.611667	456.101563	697.623596
12364.689894	-1216.611667	454.838867	881.998535
12364.689894	-1216.611667	453.575195	913.625244
12364.689894	-1216.611667	452.312500	912.490295
12364.689894	-1216.611667	451.047852	843.729370
12364.689894	-1216.611667	449.784180	857.730286
12364.689894	-1216.611667	448.519531	743.136292
12364.689894	-1216.611667	447.254883	628.520508
12364.689894	-1216.611667	445.990234	587.908020
12364.689894	-1216.611667	444.725586	462.341278
12364.689894	-1216.611667	443.459961	325.858521
12364.689894	-1216.611667	442.194336	600.588257
12364.689894	-1216.611667	440.927734	376.939331
12364.689894	-1216.611667	439.662109	296.847351
12364.689894	-1216.611667	438.395508	329.757507
12364.689894	-1216.611667	437.127930	251.673325
12364.689894	-1216.611667	435.861328	423.477692
12364.689894	-1216.611667	434.593750	327.809326
12364.689894	-1216.611667	433.326172	316.798248
12364.689894	-1216.611667	432.058594	155.799271
12364.689894	-1216.611667	430.790039	192.357254
12364.689894	-1216.611667	429.521484	176.663635
12364.689894	-1216.611667	428.252930	93.551270
12364.689894	-1216.611667	426.984375	190.465195
12364.689894	-1216.611667	425.714844	209.074310
12364.689894	-1216.611667	424.445313	294.772949
12364.689894	-1216.611667	423.174805	15.913074
12364.689894	-1216.611667	421.905273	235.736526
12364.689894	-1216.611667	420.634766	329.552948
12364.689894	-1216.611667	419.364258	223.756516
12364.689894	-1216.611667	418.092773	289.002655
12364.689894	-1216.611667	416.822266	-3.420467
12364.689894	-1216.611667	415.550781	319.218872
12364.689894	-1216.611667	414.278320	282.034515
12364.689894	-1216.611667	413.006836	125.590317
12364.689894	-1216.611667	411.734375	122.674225
12364.689894	-1216.611667	410.461914	43.794334
12364.689894	-1216.611667	409.188477	64.235588
12364.689894	-1216.611667	407.916016	186.108292
12364.689894	-1216.611667	406.642578	37.335926
12364.689894	-1216.611667	405.368164	102.424461
12364.689894	-1216.611667	404.094727	59.142906
12364.689894	-1216.611667	402.820313	272.790924
12364.689894	-1216.611667	401.545898	123.049301
12364.689894	-1216.611667	400.270508	83.248978
12364.689894	-1216.611667	398.996094	408.196869
12364.689894	-1216.611667	397.720703	123.730072
12364.689894	-1216.611667	396.444336	5.295320
12364.689894	-1216.611667	395.168945	225.473648
12364.689894	-1216.611667	393.892578	222.930161
12364.689894	-1216.611667	392.616211	19.388544
12364.689894	-1216.611667	391.339844	246.985703
12364.689894	-1216.611667	390.062500	245.501770
12364.689894	-1216.611667	388.785156	299.692749
12364.689894	-1216.611667	387.507813	504.361725
12364.689894	-1216.611667	386.229492	46.877041
12364.689894	-1216.611667	384.951172	7.188093
12364.689894	-1216.611667	383.672852	135.115753
12364.689894	-1216.611667	382.394531	197.929855
12364.689894	-1216.611667	381.115234	115.971893
12364.689894	-1216.611667	379.835938	371.575226
12364.689894	-1216.611667	378.556641	359.688477
12364.689894	-1216.611667	377.277344	304.268860
12364.689894	-1216.611667	375.997070	220.376923
12364.689894	-1216.611667	374.716797	460.789551
12364.689894	-1216.611667	373.435547	201.621567
12364.689894	-1216.611667	372.155273	129.078857
12364.689894	-1216.611667	370.874023	-49.351513
12364.689894	-1216.611667	369.591797	12.387006
12364.689894	-1216.611667	368.310547	-1.690446
12364.689894	-1216.611667	367.028320	11.523585
12364.689894	-1216.611667	365.746094	4.763714
12364.689894	-1216.611667	364.463867	38.147984
12364.689894	-1216.611667	363.180664	68.676422
12364.689894	-1216.611667	361.897461	298.105469
12364.689894	-1216.611667	360.614258	-69.816002
12364.689894	-1216.611667	359.330078	166.663193
12364.689894	-1216.611667	358.045898	67.687683
12364.689894	-1216.611667	356.761719	188.863541
12364.689894	-1216.611667	355.477539	64.787743
12364.689894	-1216.611667	354.192383	32.104134
12364.689894	-1216.611667	352.907227	142.187515
12364.689894	-1216.611667	351.622070	99.252800
12364.689894	-1216.611667	350.336914	121.869949
12364.689894	-1216.611667	349.050781	115.716736
12364.689894	-1216.611667	347.764648	258.530121
12364.689894	-1216.611667	346.477539	117.743446
12364.689894	-1216.611667	345.191406	-58.158421
12364.689894	-1216.611667	343.904297	-50.980732
12364.689894	-1216.611667	342.616211	190.475494
12364.689894	-1216.611667	341.329102	20.167948
12364.689894	-1216.611667	340.041016	-78.452774
12364.689894	-1216.611667	338.752930	-75.497429
12364.689894	-1216.611667	337.463867	65.241882
12364.689894	-1216.611667	336.175781	-177.698364
12364.689894	-1216.611667	334.886719	-114.079140
12364.689894	-1216.611667	333.596680	-196.967850
12364.689894	-1216.611667	332.307617	-172.091843
12364.689894	-1216.611667	331.017578	-116.487503
12364.689894	-1216.611667	329.727539	-235.093201
12364.689894	-1216.611667	328.436523	1.408194
12364.689894	-1216.611667	327.146484	8.202019
12364.689894	-1216.611667	325.855469	-176.277390
12364.689894	-1216.611667	324.563477	-59.269459
12364.689894	-1216.611667	323.272461	-99.360764
12364.689894	-1216.611667	321.980469	-179.319183
12364.689894	-1216.611667	320.688477	-60.395439
12364.689894	-1216.611667	319.395508	-105.053291
12364.689894	-1216.611667	318.103516	-106.473312
12364.689894	-1216.611667	316.810547	1.213738
12364.689894	-1216.611667	315.516602	-259.113068
12364.689894	-1216.611667	314.223633	-56.818390
12364.689894	-1216.611667	312.929688	58.478386
12364.689894	-1216.611667	311.635742	33.647640
12364.689894	-1216.611667	310.340820	-39.825493
12364.689894	-1216.611667	309.045898	118.894470
12364.689894	-1216.611667	307.750977	201.243088
12364.689894	-1216.611667	306.456055	273.142609
12364.689894	-1216.611667	305.160156	421.654877
12364.689894	-1216.611667	303.865234	572.425659
12364.689894	-1216.611667	302.568359	414.989777
12364.689894	-1216.611667	301.272461	597.639465
12364.689894	-1216.611667	299.975586	797.137878
12364.689894	-1216.611667	298.678711	792.654419
