#X		#Y		#Wave		#Intensity
20387.875851	-1243.018833	1999.980469	-123.342888
20387.875851	-1243.018833	1999.016602	-168.332047
20387.875851	-1243.018833	1998.052734	-46.915871
20387.875851	-1243.018833	1997.087891	-162.303375
20387.875851	-1243.018833	1996.123047	-100.570801
20387.875851	-1243.018833	1995.158203	19.319950
20387.875851	-1243.018833	1994.193359	66.111160
20387.875851	-1243.018833	1993.228516	-59.166737
20387.875851	-1243.018833	1992.262695	-32.030170
20387.875851	-1243.018833	1991.297852	88.040817
20387.875851	-1243.018833	1990.332031	122.863853
20387.875851	-1243.018833	1989.366211	156.642883
20387.875851	-1243.018833	1988.399414	-20.866701
20387.875851	-1243.018833	1987.433594	151.967728
20387.875851	-1243.018833	1986.466797	259.522705
20387.875851	-1243.018833	1985.500977	57.067791
20387.875851	-1243.018833	1984.534180	-69.521835
20387.875851	-1243.018833	1983.567383	272.740295
20387.875851	-1243.018833	1982.599609	28.408310
20387.875851	-1243.018833	1981.632813	373.927399
20387.875851	-1243.018833	1980.665039	-5.207825
20387.875851	-1243.018833	1979.697266	338.774658
20387.875851	-1243.018833	1978.729492	109.065369
20387.875851	-1243.018833	1977.761719	219.522110
20387.875851	-1243.018833	1976.792969	72.608620
20387.875851	-1243.018833	1975.825195	342.272095
20387.875851	-1243.018833	1974.856445	270.758698
20387.875851	-1243.018833	1973.887695	53.188015
20387.875851	-1243.018833	1972.918945	178.066772
20387.875851	-1243.018833	1971.949219	171.714111
20387.875851	-1243.018833	1970.980469	335.057739
20387.875851	-1243.018833	1970.010742	293.292664
20387.875851	-1243.018833	1969.041016	270.862000
20387.875851	-1243.018833	1968.071289	250.527130
20387.875851	-1243.018833	1967.101563	362.896545
20387.875851	-1243.018833	1966.130859	235.929855
20387.875851	-1243.018833	1965.161133	298.354645
20387.875851	-1243.018833	1964.190430	382.619629
20387.875851	-1243.018833	1963.219727	52.953682
20387.875851	-1243.018833	1962.249023	311.485870
20387.875851	-1243.018833	1961.277344	257.113037
20387.875851	-1243.018833	1960.306641	-11.529070
20387.875851	-1243.018833	1959.334961	59.239231
20387.875851	-1243.018833	1958.363281	380.698212
20387.875851	-1243.018833	1957.391602	187.874603
20387.875851	-1243.018833	1956.419922	349.054352
20387.875851	-1243.018833	1955.447266	500.202515
20387.875851	-1243.018833	1954.474609	321.810944
20387.875851	-1243.018833	1953.501953	281.005920
20387.875851	-1243.018833	1952.529297	166.417130
20387.875851	-1243.018833	1951.556641	267.978516
20387.875851	-1243.018833	1950.583984	394.004364
20387.875851	-1243.018833	1949.610352	-5.584581
20387.875851	-1243.018833	1948.636719	181.738403
20387.875851	-1243.018833	1947.663086	59.669079
20387.875851	-1243.018833	1946.689453	325.418427
20387.875851	-1243.018833	1945.715820	115.023087
20387.875851	-1243.018833	1944.741211	2.845035
20387.875851	-1243.018833	1943.767578	86.975822
20387.875851	-1243.018833	1942.792969	382.012421
20387.875851	-1243.018833	1941.818359	71.334145
20387.875851	-1243.018833	1940.842773	216.805405
20387.875851	-1243.018833	1939.868164	261.797089
20387.875851	-1243.018833	1938.892578	323.989014
20387.875851	-1243.018833	1937.916992	187.768555
20387.875851	-1243.018833	1936.941406	228.065308
20387.875851	-1243.018833	1935.965820	403.152313
20387.875851	-1243.018833	1934.990234	-183.313019
20387.875851	-1243.018833	1934.013672	109.506409
20387.875851	-1243.018833	1933.037109	47.380516
20387.875851	-1243.018833	1932.060547	134.694214
20387.875851	-1243.018833	1931.083984	55.703201
20387.875851	-1243.018833	1930.107422	74.735085
20387.875851	-1243.018833	1929.129883	-77.338867
20387.875851	-1243.018833	1928.153320	-305.021637
20387.875851	-1243.018833	1927.175781	34.800777
20387.875851	-1243.018833	1926.198242	-48.292343
20387.875851	-1243.018833	1925.219727	-11.438133
20387.875851	-1243.018833	1924.242188	89.104134
20387.875851	-1243.018833	1923.263672	-59.457733
20387.875851	-1243.018833	1922.285156	-141.843048
20387.875851	-1243.018833	1921.306641	81.275101
20387.875851	-1243.018833	1920.328125	-242.528549
20387.875851	-1243.018833	1919.349609	-60.640484
20387.875851	-1243.018833	1918.370117	57.877605
20387.875851	-1243.018833	1917.391602	17.893091
20387.875851	-1243.018833	1916.412109	148.907318
20387.875851	-1243.018833	1915.431641	-66.394379
20387.875851	-1243.018833	1914.452148	-103.367111
20387.875851	-1243.018833	1913.472656	123.246895
20387.875851	-1243.018833	1912.492188	76.856354
20387.875851	-1243.018833	1911.511719	-200.934540
20387.875851	-1243.018833	1910.531250	60.231724
20387.875851	-1243.018833	1909.550781	189.886276
20387.875851	-1243.018833	1908.569336	-255.349426
20387.875851	-1243.018833	1907.588867	-13.264225
20387.875851	-1243.018833	1906.607422	-19.525229
20387.875851	-1243.018833	1905.625977	64.496811
20387.875851	-1243.018833	1904.644531	92.667984
20387.875851	-1243.018833	1903.662109	-171.107086
20387.875851	-1243.018833	1902.680664	-57.366070
20387.875851	-1243.018833	1901.698242	22.435753
20387.875851	-1243.018833	1900.715820	-121.443291
20387.875851	-1243.018833	1899.733398	-12.124297
20387.875851	-1243.018833	1898.750000	238.375519
20387.875851	-1243.018833	1897.767578	-36.257515
20387.875851	-1243.018833	1896.784180	75.912880
20387.875851	-1243.018833	1895.800781	-8.674961
20387.875851	-1243.018833	1894.817383	307.903992
20387.875851	-1243.018833	1893.833984	-172.419510
20387.875851	-1243.018833	1892.850586	-139.839844
20387.875851	-1243.018833	1891.866211	16.746990
20387.875851	-1243.018833	1890.881836	272.984863
20387.875851	-1243.018833	1889.897461	77.684914
20387.875851	-1243.018833	1888.913086	47.665905
20387.875851	-1243.018833	1887.927734	136.717468
20387.875851	-1243.018833	1886.943359	-94.431992
20387.875851	-1243.018833	1885.958008	-138.557175
20387.875851	-1243.018833	1884.972656	108.535065
20387.875851	-1243.018833	1883.987305	147.094620
20387.875851	-1243.018833	1883.001953	23.302937
20387.875851	-1243.018833	1882.015625	-83.358826
20387.875851	-1243.018833	1881.029297	-8.083194
20387.875851	-1243.018833	1880.042969	16.379368
20387.875851	-1243.018833	1879.056641	-36.596684
20387.875851	-1243.018833	1878.070313	41.355213
20387.875851	-1243.018833	1877.083984	-84.076180
20387.875851	-1243.018833	1876.096680	272.514221
20387.875851	-1243.018833	1875.109375	-0.426617
20387.875851	-1243.018833	1874.122070	-115.844879
20387.875851	-1243.018833	1873.134766	-3.649751
20387.875851	-1243.018833	1872.146484	-24.510347
20387.875851	-1243.018833	1871.159180	-25.946997
20387.875851	-1243.018833	1870.170898	-75.699287
20387.875851	-1243.018833	1869.182617	-4.459721
20387.875851	-1243.018833	1868.194336	6.354449
20387.875851	-1243.018833	1867.205078	242.033081
20387.875851	-1243.018833	1866.216797	226.291412
20387.875851	-1243.018833	1865.227539	84.933060
20387.875851	-1243.018833	1864.238281	57.210365
20387.875851	-1243.018833	1863.249023	118.899231
20387.875851	-1243.018833	1862.259766	74.314575
20387.875851	-1243.018833	1861.269531	476.484467
20387.875851	-1243.018833	1860.279297	323.229401
20387.875851	-1243.018833	1859.290039	278.651001
20387.875851	-1243.018833	1858.298828	193.061020
20387.875851	-1243.018833	1857.308594	539.404297
20387.875851	-1243.018833	1856.318359	357.271301
20387.875851	-1243.018833	1855.327148	315.086365
20387.875851	-1243.018833	1854.335938	82.374939
20387.875851	-1243.018833	1853.344727	40.197849
20387.875851	-1243.018833	1852.353516	142.637405
20387.875851	-1243.018833	1851.362305	208.842316
20387.875851	-1243.018833	1850.370117	376.183990
20387.875851	-1243.018833	1849.377930	647.006287
20387.875851	-1243.018833	1848.385742	296.188446
20387.875851	-1243.018833	1847.393555	-13.622856
20387.875851	-1243.018833	1846.401367	293.043396
20387.875851	-1243.018833	1845.408203	240.802399
20387.875851	-1243.018833	1844.415039	527.888977
20387.875851	-1243.018833	1843.421875	364.750702
20387.875851	-1243.018833	1842.428711	394.069489
20387.875851	-1243.018833	1841.435547	377.568359
20387.875851	-1243.018833	1840.441406	185.389404
20387.875851	-1243.018833	1839.448242	385.145813
20387.875851	-1243.018833	1838.454102	421.221039
20387.875851	-1243.018833	1837.459961	373.024445
20387.875851	-1243.018833	1836.464844	521.797363
20387.875851	-1243.018833	1835.470703	204.208694
20387.875851	-1243.018833	1834.475586	273.402679
20387.875851	-1243.018833	1833.480469	738.765869
20387.875851	-1243.018833	1832.485352	699.468689
20387.875851	-1243.018833	1831.490234	249.435562
20387.875851	-1243.018833	1830.495117	385.180695
20387.875851	-1243.018833	1829.499023	295.085236
20387.875851	-1243.018833	1828.502930	171.257294
20387.875851	-1243.018833	1827.506836	548.758057
20387.875851	-1243.018833	1826.510742	609.283691
20387.875851	-1243.018833	1825.513672	566.466553
20387.875851	-1243.018833	1824.517578	523.475464
20387.875851	-1243.018833	1823.520508	463.518005
20387.875851	-1243.018833	1822.523438	619.117554
20387.875851	-1243.018833	1821.526367	573.136353
20387.875851	-1243.018833	1820.529297	340.057800
20387.875851	-1243.018833	1819.531250	456.620941
20387.875851	-1243.018833	1818.533203	489.084534
20387.875851	-1243.018833	1817.535156	346.486786
20387.875851	-1243.018833	1816.537109	526.949951
20387.875851	-1243.018833	1815.539063	678.381531
20387.875851	-1243.018833	1814.540039	841.476624
20387.875851	-1243.018833	1813.541992	425.161163
20387.875851	-1243.018833	1812.542969	623.634521
20387.875851	-1243.018833	1811.543945	735.661255
20387.875851	-1243.018833	1810.543945	502.982666
20387.875851	-1243.018833	1809.544922	652.724060
20387.875851	-1243.018833	1808.544922	584.577148
20387.875851	-1243.018833	1807.544922	571.157410
20387.875851	-1243.018833	1806.544922	796.449036
20387.875851	-1243.018833	1805.544922	942.525940
20387.875851	-1243.018833	1804.544922	364.409637
20387.875851	-1243.018833	1803.543945	514.705017
20387.875851	-1243.018833	1802.542969	416.292877
20387.875851	-1243.018833	1801.541992	756.934998
20387.875851	-1243.018833	1800.541016	667.461548
20387.875851	-1243.018833	1799.539063	496.560669
20387.875851	-1243.018833	1798.538086	394.620209
20387.875851	-1243.018833	1797.536133	583.463257
20387.875851	-1243.018833	1796.534180	485.675720
20387.875851	-1243.018833	1795.532227	559.314758
20387.875851	-1243.018833	1794.529297	463.297638
20387.875851	-1243.018833	1793.527344	724.591919
20387.875851	-1243.018833	1792.524414	298.992432
20387.875851	-1243.018833	1791.521484	550.008911
20387.875851	-1243.018833	1790.518555	452.728058
20387.875851	-1243.018833	1789.514648	502.827698
20387.875851	-1243.018833	1788.511719	400.142181
20387.875851	-1243.018833	1787.507813	275.703644
20387.875851	-1243.018833	1786.503906	577.125366
20387.875851	-1243.018833	1785.500000	697.170288
20387.875851	-1243.018833	1784.496094	645.458740
20387.875851	-1243.018833	1783.491211	700.469543
20387.875851	-1243.018833	1782.486328	417.274750
20387.875851	-1243.018833	1781.481445	276.535889
20387.875851	-1243.018833	1780.476563	613.479126
20387.875851	-1243.018833	1779.471680	571.877502
20387.875851	-1243.018833	1778.465820	296.935120
20387.875851	-1243.018833	1777.460938	435.291534
20387.875851	-1243.018833	1776.455078	596.964294
20387.875851	-1243.018833	1775.449219	648.905273
20387.875851	-1243.018833	1774.442383	479.514648
20387.875851	-1243.018833	1773.436523	305.069946
20387.875851	-1243.018833	1772.429688	355.863403
20387.875851	-1243.018833	1771.422852	373.010803
20387.875851	-1243.018833	1770.416016	368.397186
20387.875851	-1243.018833	1769.409180	510.526886
20387.875851	-1243.018833	1768.402344	362.740143
20387.875851	-1243.018833	1767.394531	871.704590
20387.875851	-1243.018833	1766.386719	801.358521
20387.875851	-1243.018833	1765.378906	718.782654
20387.875851	-1243.018833	1764.371094	616.870300
20387.875851	-1243.018833	1763.362305	910.436401
20387.875851	-1243.018833	1762.354492	625.228394
20387.875851	-1243.018833	1761.345703	555.331970
20387.875851	-1243.018833	1760.336914	612.984924
20387.875851	-1243.018833	1759.328125	428.606445
20387.875851	-1243.018833	1758.318359	582.517517
20387.875851	-1243.018833	1757.308594	331.078522
20387.875851	-1243.018833	1756.299805	543.333069
20387.875851	-1243.018833	1755.290039	546.790283
20387.875851	-1243.018833	1754.279297	881.104858
20387.875851	-1243.018833	1753.269531	550.074890
20387.875851	-1243.018833	1752.258789	197.443726
20387.875851	-1243.018833	1751.249023	599.001587
20387.875851	-1243.018833	1750.238281	328.427795
20387.875851	-1243.018833	1749.226563	88.248535
20387.875851	-1243.018833	1748.215820	381.961548
20387.875851	-1243.018833	1747.204102	566.412109
20387.875851	-1243.018833	1746.193359	362.908264
20387.875851	-1243.018833	1745.181641	466.141571
20387.875851	-1243.018833	1744.168945	368.130646
20387.875851	-1243.018833	1743.157227	444.516235
20387.875851	-1243.018833	1742.144531	279.608826
20387.875851	-1243.018833	1741.132813	123.818367
20387.875851	-1243.018833	1740.120117	215.452011
20387.875851	-1243.018833	1739.106445	443.462372
20387.875851	-1243.018833	1738.093750	284.097870
20387.875851	-1243.018833	1737.080078	140.860855
20387.875851	-1243.018833	1736.067383	202.464325
20387.875851	-1243.018833	1735.053711	204.655258
20387.875851	-1243.018833	1734.040039	62.632717
20387.875851	-1243.018833	1733.025391	-72.708076
20387.875851	-1243.018833	1732.011719	50.835606
20387.875851	-1243.018833	1730.997070	312.896606
20387.875851	-1243.018833	1729.982422	447.246094
20387.875851	-1243.018833	1728.967773	369.176483
20387.875851	-1243.018833	1727.952148	149.415390
20387.875851	-1243.018833	1726.937500	270.728241
20387.875851	-1243.018833	1725.921875	66.736649
20387.875851	-1243.018833	1724.906250	238.950363
20387.875851	-1243.018833	1723.890625	149.527298
20387.875851	-1243.018833	1722.875000	233.818817
20387.875851	-1243.018833	1721.858398	91.853439
20387.875851	-1243.018833	1720.841797	330.492279
20387.875851	-1243.018833	1719.825195	6.737303
20387.875851	-1243.018833	1718.808594	7.098291
20387.875851	-1243.018833	1717.791992	298.487457
20387.875851	-1243.018833	1716.774414	-157.872849
20387.875851	-1243.018833	1715.756836	102.079849
20387.875851	-1243.018833	1714.739258	347.453278
20387.875851	-1243.018833	1713.721680	-206.097946
20387.875851	-1243.018833	1712.704102	-69.530411
20387.875851	-1243.018833	1711.685547	-161.138885
20387.875851	-1243.018833	1710.667969	427.583252
20387.875851	-1243.018833	1709.649414	330.467682
20387.875851	-1243.018833	1708.630859	-79.019814
20387.875851	-1243.018833	1707.611328	50.744808
20387.875851	-1243.018833	1706.592773	55.831680
20387.875851	-1243.018833	1705.573242	67.544609
20387.875851	-1243.018833	1704.553711	-54.736931
20387.875851	-1243.018833	1703.534180	122.683296
20387.875851	-1243.018833	1702.513672	156.685760
20387.875851	-1243.018833	1701.494141	82.586403
20387.875851	-1243.018833	1700.473633	148.668396
20387.875851	-1243.018833	1699.453125	-113.514969
20387.875851	-1243.018833	1698.432617	36.182026
20387.875851	-1243.018833	1697.412109	-48.639778
20387.875851	-1243.018833	1696.390625	-115.089760
20387.875851	-1243.018833	1695.369141	-151.429581
20387.875851	-1243.018833	1694.347656	-134.275024
20387.875851	-1243.018833	1693.326172	4.189778
20387.875851	-1243.018833	1692.304688	-395.682129
20387.875851	-1243.018833	1691.282227	-192.442734
20387.875851	-1243.018833	1690.260742	283.988953
20387.875851	-1243.018833	1689.238281	121.714249
20387.875851	-1243.018833	1688.214844	393.847198
20387.875851	-1243.018833	1687.192383	252.015686
20387.875851	-1243.018833	1686.168945	600.491211
20387.875851	-1243.018833	1685.146484	444.047424
20387.875851	-1243.018833	1684.123047	4.738031
20387.875851	-1243.018833	1683.099609	177.039795
20387.875851	-1243.018833	1682.075195	-117.952919
20387.875851	-1243.018833	1681.051758	338.465424
20387.875851	-1243.018833	1680.027344	59.311512
20387.875851	-1243.018833	1679.002930	318.922699
20387.875851	-1243.018833	1677.978516	347.222931
20387.875851	-1243.018833	1676.953125	321.549683
20387.875851	-1243.018833	1675.928711	538.161987
20387.875851	-1243.018833	1674.903320	304.437469
20387.875851	-1243.018833	1673.877930	119.486450
20387.875851	-1243.018833	1672.852539	512.281921
20387.875851	-1243.018833	1671.826172	892.970825
20387.875851	-1243.018833	1670.800781	851.674133
20387.875851	-1243.018833	1669.774414	814.753784
20387.875851	-1243.018833	1668.748047	831.161072
20387.875851	-1243.018833	1667.721680	921.824341
20387.875851	-1243.018833	1666.694336	860.866272
20387.875851	-1243.018833	1665.667969	862.587769
20387.875851	-1243.018833	1664.640625	1261.913208
20387.875851	-1243.018833	1663.613281	1479.406738
20387.875851	-1243.018833	1662.585938	1277.937866
20387.875851	-1243.018833	1661.557617	1313.476318
20387.875851	-1243.018833	1660.530273	1690.619995
20387.875851	-1243.018833	1659.501953	1767.494629
20387.875851	-1243.018833	1658.473633	1827.872437
20387.875851	-1243.018833	1657.444336	1718.349243
20387.875851	-1243.018833	1656.416016	1922.364258
20387.875851	-1243.018833	1655.386719	1793.909302
20387.875851	-1243.018833	1654.358398	2085.709473
20387.875851	-1243.018833	1653.328125	2061.342529
20387.875851	-1243.018833	1652.298828	2598.646484
20387.875851	-1243.018833	1651.269531	2938.292969
20387.875851	-1243.018833	1650.239258	3233.500488
20387.875851	-1243.018833	1649.208984	2869.542236
20387.875851	-1243.018833	1648.178711	2865.109131
20387.875851	-1243.018833	1647.148438	3106.359863
20387.875851	-1243.018833	1646.117188	3303.264648
20387.875851	-1243.018833	1645.086914	3263.544678
20387.875851	-1243.018833	1644.055664	3552.781250
20387.875851	-1243.018833	1643.024414	3897.391113
20387.875851	-1243.018833	1641.992188	4021.584229
20387.875851	-1243.018833	1640.960938	4147.979492
20387.875851	-1243.018833	1639.928711	4169.934570
20387.875851	-1243.018833	1638.896484	4219.560059
20387.875851	-1243.018833	1637.864258	4845.523438
20387.875851	-1243.018833	1636.832031	4795.261230
20387.875851	-1243.018833	1635.798828	5024.890625
20387.875851	-1243.018833	1634.766602	5282.159180
20387.875851	-1243.018833	1633.733398	5647.915039
20387.875851	-1243.018833	1632.699219	5601.701172
20387.875851	-1243.018833	1631.666016	5978.660645
20387.875851	-1243.018833	1630.632813	6133.452637
20387.875851	-1243.018833	1629.598633	6685.646484
20387.875851	-1243.018833	1628.564453	6971.793945
20387.875851	-1243.018833	1627.530273	6608.487793
20387.875851	-1243.018833	1626.495117	7213.181152
20387.875851	-1243.018833	1625.460938	7577.440430
20387.875851	-1243.018833	1624.425781	8114.656250
20387.875851	-1243.018833	1623.390625	8155.230469
20387.875851	-1243.018833	1622.355469	8602.036133
20387.875851	-1243.018833	1621.319336	8930.882813
20387.875851	-1243.018833	1620.284180	9338.092773
20387.875851	-1243.018833	1619.248047	9412.858398
20387.875851	-1243.018833	1618.211914	9464.520508
20387.875851	-1243.018833	1617.174805	9811.291992
20387.875851	-1243.018833	1616.138672	9927.411133
20387.875851	-1243.018833	1615.101563	10237.077148
20387.875851	-1243.018833	1614.065430	10283.945313
20387.875851	-1243.018833	1613.027344	10867.610352
20387.875851	-1243.018833	1611.990234	10794.518555
20387.875851	-1243.018833	1610.953125	11209.807617
20387.875851	-1243.018833	1609.915039	11325.524414
20387.875851	-1243.018833	1608.876953	11779.705078
20387.875851	-1243.018833	1607.838867	12316.628906
20387.875851	-1243.018833	1606.800781	12765.926758
20387.875851	-1243.018833	1605.761719	12639.743164
20387.875851	-1243.018833	1604.723633	12941.662109
20387.875851	-1243.018833	1603.684570	13305.582031
20387.875851	-1243.018833	1602.644531	13545.176758
20387.875851	-1243.018833	1601.605469	13527.272461
20387.875851	-1243.018833	1600.566406	13927.861328
20387.875851	-1243.018833	1599.526367	14220.291992
20387.875851	-1243.018833	1598.486328	14377.110352
20387.875851	-1243.018833	1597.446289	14193.913086
20387.875851	-1243.018833	1596.405273	14373.785156
20387.875851	-1243.018833	1595.365234	14158.706055
20387.875851	-1243.018833	1594.324219	14607.385742
20387.875851	-1243.018833	1593.283203	14619.797852
20387.875851	-1243.018833	1592.242188	13748.606445
20387.875851	-1243.018833	1591.200195	13791.200195
20387.875851	-1243.018833	1590.159180	13882.141602
20387.875851	-1243.018833	1589.117188	13592.324219
20387.875851	-1243.018833	1588.075195	13263.762695
20387.875851	-1243.018833	1587.032227	13217.471680
20387.875851	-1243.018833	1585.990234	13419.012695
20387.875851	-1243.018833	1584.947266	13682.462891
20387.875851	-1243.018833	1583.904297	13748.872070
20387.875851	-1243.018833	1582.861328	13173.843750
20387.875851	-1243.018833	1581.818359	13774.432617
20387.875851	-1243.018833	1580.775391	13729.057617
20387.875851	-1243.018833	1579.731445	13676.949219
20387.875851	-1243.018833	1578.687500	13151.113281
20387.875851	-1243.018833	1577.643555	13316.972656
20387.875851	-1243.018833	1576.598633	13714.057617
20387.875851	-1243.018833	1575.554688	13264.606445
20387.875851	-1243.018833	1574.509766	13273.023438
20387.875851	-1243.018833	1573.464844	12874.505859
20387.875851	-1243.018833	1572.419922	12865.121094
20387.875851	-1243.018833	1571.374023	12407.767578
20387.875851	-1243.018833	1570.329102	12092.590820
20387.875851	-1243.018833	1569.283203	11832.564453
20387.875851	-1243.018833	1568.237305	11531.739258
20387.875851	-1243.018833	1567.191406	11069.052734
20387.875851	-1243.018833	1566.144531	10725.516602
20387.875851	-1243.018833	1565.098633	10992.158203
20387.875851	-1243.018833	1564.051758	10548.792969
20387.875851	-1243.018833	1563.004883	10048.785156
20387.875851	-1243.018833	1561.957031	10370.831055
20387.875851	-1243.018833	1560.910156	9590.892578
20387.875851	-1243.018833	1559.862305	9452.571289
20387.875851	-1243.018833	1558.814453	9570.045898
20387.875851	-1243.018833	1557.766602	9149.534180
20387.875851	-1243.018833	1556.718750	8613.174805
20387.875851	-1243.018833	1555.669922	8665.418945
20387.875851	-1243.018833	1554.621094	8376.046875
20387.875851	-1243.018833	1553.573242	7959.512695
20387.875851	-1243.018833	1552.523438	7869.140625
20387.875851	-1243.018833	1551.474609	7870.267090
20387.875851	-1243.018833	1550.424805	7650.739746
20387.875851	-1243.018833	1549.375000	7663.860352
20387.875851	-1243.018833	1548.325195	7251.567383
20387.875851	-1243.018833	1547.275391	6917.145508
20387.875851	-1243.018833	1546.225586	7090.637695
20387.875851	-1243.018833	1545.174805	6597.707520
20387.875851	-1243.018833	1544.124023	6753.601074
20387.875851	-1243.018833	1543.073242	6741.467285
20387.875851	-1243.018833	1542.022461	6359.036133
20387.875851	-1243.018833	1540.970703	5870.199219
20387.875851	-1243.018833	1539.919922	5836.531738
20387.875851	-1243.018833	1538.868164	5957.711914
20387.875851	-1243.018833	1537.815430	5588.385254
20387.875851	-1243.018833	1536.763672	5714.812012
20387.875851	-1243.018833	1535.710938	5621.200195
20387.875851	-1243.018833	1534.659180	5503.047852
20387.875851	-1243.018833	1533.606445	5696.297852
20387.875851	-1243.018833	1532.552734	5812.621582
20387.875851	-1243.018833	1531.500000	5538.976563
20387.875851	-1243.018833	1530.446289	5644.686523
20387.875851	-1243.018833	1529.393555	5088.378418
20387.875851	-1243.018833	1528.338867	5226.609375
20387.875851	-1243.018833	1527.285156	5063.621582
20387.875851	-1243.018833	1526.231445	4876.145508
20387.875851	-1243.018833	1525.176758	5001.901367
20387.875851	-1243.018833	1524.122070	4792.597656
20387.875851	-1243.018833	1523.067383	4606.436035
20387.875851	-1243.018833	1522.012695	4110.396484
20387.875851	-1243.018833	1520.957031	4122.254883
20387.875851	-1243.018833	1519.901367	3953.362305
20387.875851	-1243.018833	1518.845703	3780.416992
20387.875851	-1243.018833	1517.790039	3610.218506
20387.875851	-1243.018833	1516.734375	3286.609375
20387.875851	-1243.018833	1515.677734	3563.121338
20387.875851	-1243.018833	1514.621094	2989.353271
20387.875851	-1243.018833	1513.564453	3119.644043
20387.875851	-1243.018833	1512.507813	2868.152100
20387.875851	-1243.018833	1511.450195	2770.897217
20387.875851	-1243.018833	1510.393555	2703.528809
20387.875851	-1243.018833	1509.335938	2268.217773
20387.875851	-1243.018833	1508.278320	1869.669189
20387.875851	-1243.018833	1507.219727	2081.638916
20387.875851	-1243.018833	1506.162109	2242.048584
20387.875851	-1243.018833	1505.103516	1583.096802
20387.875851	-1243.018833	1504.044922	1579.593018
20387.875851	-1243.018833	1502.986328	1400.474731
20387.875851	-1243.018833	1501.926758	1361.776855
20387.875851	-1243.018833	1500.868164	1517.625488
20387.875851	-1243.018833	1499.808594	1335.453979
20387.875851	-1243.018833	1498.749023	986.907104
20387.875851	-1243.018833	1497.688477	1065.138550
20387.875851	-1243.018833	1496.628906	981.499084
20387.875851	-1243.018833	1495.568359	749.560303
20387.875851	-1243.018833	1494.507813	718.761902
20387.875851	-1243.018833	1493.447266	429.322205
20387.875851	-1243.018833	1492.386719	356.739014
20387.875851	-1243.018833	1491.325195	503.115662
20387.875851	-1243.018833	1490.263672	332.389832
20387.875851	-1243.018833	1489.202148	175.721191
20387.875851	-1243.018833	1488.140625	98.378746
20387.875851	-1243.018833	1487.079102	458.158783
20387.875851	-1243.018833	1486.016602	-0.784496
20387.875851	-1243.018833	1484.954102	116.857208
20387.875851	-1243.018833	1483.891602	16.762838
20387.875851	-1243.018833	1482.829102	-204.224609
20387.875851	-1243.018833	1481.765625	-60.406307
20387.875851	-1243.018833	1480.702148	286.156830
20387.875851	-1243.018833	1479.638672	-90.547836
20387.875851	-1243.018833	1478.575195	438.906464
20387.875851	-1243.018833	1477.511719	63.335167
20387.875851	-1243.018833	1476.447266	258.888397
20387.875851	-1243.018833	1475.382813	499.772247
20387.875851	-1243.018833	1474.318359	460.444519
20387.875851	-1243.018833	1473.253906	105.292702
20387.875851	-1243.018833	1472.189453	385.583160
20387.875851	-1243.018833	1471.124023	569.860779
20387.875851	-1243.018833	1470.058594	801.821106
20387.875851	-1243.018833	1468.993164	970.929749
20387.875851	-1243.018833	1467.927734	919.028870
20387.875851	-1243.018833	1466.861328	869.850647
20387.875851	-1243.018833	1465.794922	794.168823
20387.875851	-1243.018833	1464.728516	1019.358643
20387.875851	-1243.018833	1463.662109	884.404968
20387.875851	-1243.018833	1462.594727	392.197845
20387.875851	-1243.018833	1461.528320	468.757294
20387.875851	-1243.018833	1460.460938	1062.158447
20387.875851	-1243.018833	1459.393555	1097.654297
20387.875851	-1243.018833	1458.326172	1023.856262
20387.875851	-1243.018833	1457.257813	1033.051147
20387.875851	-1243.018833	1456.189453	1065.328247
20387.875851	-1243.018833	1455.121094	1103.593750
20387.875851	-1243.018833	1454.052734	998.996094
20387.875851	-1243.018833	1452.984375	1294.925903
20387.875851	-1243.018833	1451.915039	980.626892
20387.875851	-1243.018833	1450.845703	995.945801
20387.875851	-1243.018833	1449.776367	1041.579590
20387.875851	-1243.018833	1448.707031	969.049316
20387.875851	-1243.018833	1447.636719	775.805969
20387.875851	-1243.018833	1446.567383	615.007874
20387.875851	-1243.018833	1445.497070	1343.094482
20387.875851	-1243.018833	1444.425781	1198.539307
20387.875851	-1243.018833	1443.355469	1280.390503
20387.875851	-1243.018833	1442.285156	1378.853516
20387.875851	-1243.018833	1441.213867	1326.063232
20387.875851	-1243.018833	1440.142578	1571.421509
20387.875851	-1243.018833	1439.070313	1599.036987
20387.875851	-1243.018833	1437.999023	1545.437012
20387.875851	-1243.018833	1436.926758	1837.990112
20387.875851	-1243.018833	1435.854492	1762.084351
20387.875851	-1243.018833	1434.782227	1890.177856
20387.875851	-1243.018833	1433.709961	2043.855713
20387.875851	-1243.018833	1432.636719	2444.978760
20387.875851	-1243.018833	1431.563477	2053.904297
20387.875851	-1243.018833	1430.490234	1891.177612
20387.875851	-1243.018833	1429.416992	2077.836914
20387.875851	-1243.018833	1428.343750	1935.400757
20387.875851	-1243.018833	1427.269531	2228.114990
20387.875851	-1243.018833	1426.195313	1955.552612
20387.875851	-1243.018833	1425.121094	2135.177246
20387.875851	-1243.018833	1424.046875	1983.405518
20387.875851	-1243.018833	1422.971680	1956.899292
20387.875851	-1243.018833	1421.896484	2154.225586
20387.875851	-1243.018833	1420.821289	2238.254150
20387.875851	-1243.018833	1419.746094	2345.444336
20387.875851	-1243.018833	1418.669922	2428.135498
20387.875851	-1243.018833	1417.594727	2627.242920
20387.875851	-1243.018833	1416.518555	3121.060303
20387.875851	-1243.018833	1415.442383	2956.834717
20387.875851	-1243.018833	1414.365234	3200.106689
20387.875851	-1243.018833	1413.289063	3669.983154
20387.875851	-1243.018833	1412.211914	3275.823242
20387.875851	-1243.018833	1411.134766	3689.056396
20387.875851	-1243.018833	1410.057617	3627.407471
20387.875851	-1243.018833	1408.979492	3344.070557
20387.875851	-1243.018833	1407.902344	3815.472656
20387.875851	-1243.018833	1406.824219	4141.359863
20387.875851	-1243.018833	1405.746094	3776.050049
20387.875851	-1243.018833	1404.666992	4009.653076
20387.875851	-1243.018833	1403.588867	4331.154297
20387.875851	-1243.018833	1402.509766	4345.428223
20387.875851	-1243.018833	1401.430664	4650.814453
20387.875851	-1243.018833	1400.351563	4585.556641
20387.875851	-1243.018833	1399.271484	4584.173340
20387.875851	-1243.018833	1398.192383	4960.348633
20387.875851	-1243.018833	1397.112305	4969.671875
20387.875851	-1243.018833	1396.031250	5102.556641
20387.875851	-1243.018833	1394.951172	5223.637695
20387.875851	-1243.018833	1393.871094	5818.765137
20387.875851	-1243.018833	1392.790039	5860.976074
20387.875851	-1243.018833	1391.708984	5749.858887
20387.875851	-1243.018833	1390.626953	6043.204590
20387.875851	-1243.018833	1389.545898	6033.150879
20387.875851	-1243.018833	1388.463867	6251.548828
20387.875851	-1243.018833	1387.381836	6391.394531
20387.875851	-1243.018833	1386.299805	6353.752930
20387.875851	-1243.018833	1385.217773	6283.640137
20387.875851	-1243.018833	1384.134766	6706.498535
20387.875851	-1243.018833	1383.051758	6415.061035
20387.875851	-1243.018833	1381.968750	6825.313965
20387.875851	-1243.018833	1380.885742	6862.762207
20387.875851	-1243.018833	1379.802734	6908.727539
20387.875851	-1243.018833	1378.718750	7232.993164
20387.875851	-1243.018833	1377.634766	7246.344727
20387.875851	-1243.018833	1376.550781	7653.823730
20387.875851	-1243.018833	1375.465820	7595.064941
20387.875851	-1243.018833	1374.381836	7788.854980
20387.875851	-1243.018833	1373.296875	7365.899414
20387.875851	-1243.018833	1372.211914	7598.786133
20387.875851	-1243.018833	1371.126953	7684.751465
20387.875851	-1243.018833	1370.041016	7439.354004
20387.875851	-1243.018833	1368.955078	7808.307129
20387.875851	-1243.018833	1367.869141	7624.974609
20387.875851	-1243.018833	1366.783203	7890.267578
20387.875851	-1243.018833	1365.697266	8328.332031
20387.875851	-1243.018833	1364.610352	8319.443359
20387.875851	-1243.018833	1363.523438	8317.351563
20387.875851	-1243.018833	1362.436523	8599.108398
20387.875851	-1243.018833	1361.349609	8892.019531
20387.875851	-1243.018833	1360.261719	9105.474609
20387.875851	-1243.018833	1359.174805	9009.520508
20387.875851	-1243.018833	1358.086914	8691.539063
20387.875851	-1243.018833	1356.998047	8402.875000
20387.875851	-1243.018833	1355.910156	8731.862305
20387.875851	-1243.018833	1354.821289	8443.145508
20387.875851	-1243.018833	1353.732422	8697.449219
20387.875851	-1243.018833	1352.643555	8770.132813
20387.875851	-1243.018833	1351.554688	8582.782227
20387.875851	-1243.018833	1350.464844	8544.366211
20387.875851	-1243.018833	1349.375000	8369.308594
20387.875851	-1243.018833	1348.285156	8642.550781
20387.875851	-1243.018833	1347.195313	8474.458984
20387.875851	-1243.018833	1346.105469	8621.746094
20387.875851	-1243.018833	1345.014648	8293.890625
20387.875851	-1243.018833	1343.923828	8451.626953
20387.875851	-1243.018833	1342.833008	9123.871094
20387.875851	-1243.018833	1341.741211	8854.103516
20387.875851	-1243.018833	1340.650391	8925.949219
20387.875851	-1243.018833	1339.558594	8714.784180
20387.875851	-1243.018833	1338.466797	8364.816406
20387.875851	-1243.018833	1337.374023	8203.352539
20387.875851	-1243.018833	1336.282227	7490.327148
20387.875851	-1243.018833	1335.189453	7544.478516
20387.875851	-1243.018833	1334.096680	7066.320801
20387.875851	-1243.018833	1333.003906	6778.507324
20387.875851	-1243.018833	1331.910156	6766.786621
20387.875851	-1243.018833	1330.817383	6711.822266
20387.875851	-1243.018833	1329.723633	6585.475586
20387.875851	-1243.018833	1328.629883	6532.962891
20387.875851	-1243.018833	1327.535156	6275.479980
20387.875851	-1243.018833	1326.441406	6527.819824
20387.875851	-1243.018833	1325.346680	6468.225586
20387.875851	-1243.018833	1324.251953	6445.928223
20387.875851	-1243.018833	1323.156250	6431.768066
20387.875851	-1243.018833	1322.061523	6460.544922
20387.875851	-1243.018833	1320.965820	6641.054199
20387.875851	-1243.018833	1319.870117	6579.451172
20387.875851	-1243.018833	1318.774414	6608.216797
20387.875851	-1243.018833	1317.678711	6662.530762
20387.875851	-1243.018833	1316.582031	6364.012695
20387.875851	-1243.018833	1315.485352	6210.825684
20387.875851	-1243.018833	1314.388672	6329.429688
20387.875851	-1243.018833	1313.291016	5935.738770
20387.875851	-1243.018833	1312.194336	5764.931152
20387.875851	-1243.018833	1311.096680	5894.997070
20387.875851	-1243.018833	1309.999023	5860.641113
20387.875851	-1243.018833	1308.901367	5866.823730
20387.875851	-1243.018833	1307.802734	6114.413574
20387.875851	-1243.018833	1306.705078	5966.506836
20387.875851	-1243.018833	1305.606445	5960.195313
20387.875851	-1243.018833	1304.506836	5704.319336
20387.875851	-1243.018833	1303.408203	5885.119629
20387.875851	-1243.018833	1302.308594	5884.426270
20387.875851	-1243.018833	1301.208984	5879.988281
20387.875851	-1243.018833	1300.109375	5868.029297
20387.875851	-1243.018833	1299.009766	5930.923828
20387.875851	-1243.018833	1297.909180	6172.869141
20387.875851	-1243.018833	1296.808594	6001.184570
20387.875851	-1243.018833	1295.708008	6081.549805
20387.875851	-1243.018833	1294.607422	6160.675781
20387.875851	-1243.018833	1293.506836	6106.562500
20387.875851	-1243.018833	1292.405273	5745.834473
20387.875851	-1243.018833	1291.303711	5978.520508
20387.875851	-1243.018833	1290.202148	6266.769043
20387.875851	-1243.018833	1289.099609	5909.700684
20387.875851	-1243.018833	1287.998047	5910.781738
20387.875851	-1243.018833	1286.895508	5500.498047
20387.875851	-1243.018833	1285.792969	5764.759766
20387.875851	-1243.018833	1284.689453	5527.395996
20387.875851	-1243.018833	1283.586914	5425.615723
20387.875851	-1243.018833	1282.483398	5370.211914
20387.875851	-1243.018833	1281.379883	5590.407715
20387.875851	-1243.018833	1280.276367	5431.478516
20387.875851	-1243.018833	1279.171875	5510.417480
20387.875851	-1243.018833	1278.067383	5354.806641
20387.875851	-1243.018833	1276.962891	5262.554199
20387.875851	-1243.018833	1275.858398	5073.102051
20387.875851	-1243.018833	1274.753906	5085.748535
20387.875851	-1243.018833	1273.648438	5167.833496
20387.875851	-1243.018833	1272.542969	4789.473633
20387.875851	-1243.018833	1271.437500	4834.338379
20387.875851	-1243.018833	1270.331055	4839.095703
20387.875851	-1243.018833	1269.225586	4455.921387
20387.875851	-1243.018833	1268.119141	4606.218262
20387.875851	-1243.018833	1267.012695	4843.626465
20387.875851	-1243.018833	1265.906250	4345.860840
20387.875851	-1243.018833	1264.798828	3980.411621
20387.875851	-1243.018833	1263.691406	3870.552979
20387.875851	-1243.018833	1262.583984	3958.140869
20387.875851	-1243.018833	1261.476563	3944.480225
20387.875851	-1243.018833	1260.368164	3749.811279
20387.875851	-1243.018833	1259.260742	3739.910889
20387.875851	-1243.018833	1258.152344	3568.907227
20387.875851	-1243.018833	1257.043945	3660.512207
20387.875851	-1243.018833	1255.934570	3518.651855
20387.875851	-1243.018833	1254.825195	3457.961670
20387.875851	-1243.018833	1253.716797	3578.658691
20387.875851	-1243.018833	1252.606445	3477.184570
20387.875851	-1243.018833	1251.497070	3519.846924
20387.875851	-1243.018833	1250.387695	3443.911865
20387.875851	-1243.018833	1249.277344	3292.398926
20387.875851	-1243.018833	1248.166992	3299.418213
20387.875851	-1243.018833	1247.055664	3318.429199
20387.875851	-1243.018833	1245.945313	3251.335205
20387.875851	-1243.018833	1244.833984	3304.241699
20387.875851	-1243.018833	1243.722656	3420.625977
20387.875851	-1243.018833	1242.611328	3312.446045
20387.875851	-1243.018833	1241.499023	3248.766357
20387.875851	-1243.018833	1240.387695	3462.333984
20387.875851	-1243.018833	1239.275391	3532.311523
20387.875851	-1243.018833	1238.162109	3274.067139
20387.875851	-1243.018833	1237.049805	3364.540527
20387.875851	-1243.018833	1235.936523	3449.853516
20387.875851	-1243.018833	1234.823242	3545.440674
20387.875851	-1243.018833	1233.709961	3438.278809
20387.875851	-1243.018833	1232.596680	3392.041016
20387.875851	-1243.018833	1231.482422	3515.163330
20387.875851	-1243.018833	1230.369141	3632.791260
20387.875851	-1243.018833	1229.253906	3643.923340
20387.875851	-1243.018833	1228.139648	3634.697266
20387.875851	-1243.018833	1227.025391	3612.135498
20387.875851	-1243.018833	1225.910156	3422.355469
20387.875851	-1243.018833	1224.794922	3460.854736
20387.875851	-1243.018833	1223.679688	3127.204346
20387.875851	-1243.018833	1222.563477	2868.750488
20387.875851	-1243.018833	1221.447266	2982.066650
20387.875851	-1243.018833	1220.331055	2833.431396
20387.875851	-1243.018833	1219.214844	2711.950928
20387.875851	-1243.018833	1218.098633	2948.139893
20387.875851	-1243.018833	1216.981445	2825.358154
20387.875851	-1243.018833	1215.864258	2860.728516
20387.875851	-1243.018833	1214.747070	3023.181396
20387.875851	-1243.018833	1213.629883	2918.392090
20387.875851	-1243.018833	1212.511719	2852.833252
20387.875851	-1243.018833	1211.393555	2896.440674
20387.875851	-1243.018833	1210.275391	2671.160400
20387.875851	-1243.018833	1209.157227	2879.505615
20387.875851	-1243.018833	1208.038086	2793.800293
20387.875851	-1243.018833	1206.918945	2632.468994
20387.875851	-1243.018833	1205.799805	2501.907227
20387.875851	-1243.018833	1204.680664	2702.766846
20387.875851	-1243.018833	1203.560547	2549.768311
20387.875851	-1243.018833	1202.441406	2433.681152
20387.875851	-1243.018833	1201.321289	2481.008057
20387.875851	-1243.018833	1200.200195	2451.900391
20387.875851	-1243.018833	1199.080078	2358.933105
20387.875851	-1243.018833	1197.958984	2633.387451
20387.875851	-1243.018833	1196.837891	2679.813232
20387.875851	-1243.018833	1195.716797	2385.079346
20387.875851	-1243.018833	1194.594727	2464.331787
20387.875851	-1243.018833	1193.473633	2568.388428
20387.875851	-1243.018833	1192.351563	2557.260254
20387.875851	-1243.018833	1191.229492	2546.712646
20387.875851	-1243.018833	1190.106445	2154.039795
20387.875851	-1243.018833	1188.984375	2083.060547
20387.875851	-1243.018833	1187.861328	1850.857544
20387.875851	-1243.018833	1186.738281	1996.167358
20387.875851	-1243.018833	1185.614258	2030.822510
20387.875851	-1243.018833	1184.491211	1890.206055
20387.875851	-1243.018833	1183.367188	1930.742920
20387.875851	-1243.018833	1182.243164	1669.270142
20387.875851	-1243.018833	1181.119141	1724.307129
20387.875851	-1243.018833	1179.994141	1664.867554
20387.875851	-1243.018833	1178.869141	1647.187256
20387.875851	-1243.018833	1177.744141	1666.371826
20387.875851	-1243.018833	1176.619141	1375.337036
20387.875851	-1243.018833	1175.493164	1367.795654
20387.875851	-1243.018833	1174.368164	1526.548950
20387.875851	-1243.018833	1173.242188	1625.349976
20387.875851	-1243.018833	1172.115234	1682.151733
20387.875851	-1243.018833	1170.989258	1687.162598
20387.875851	-1243.018833	1169.862305	1558.598022
20387.875851	-1243.018833	1168.735352	1403.484131
20387.875851	-1243.018833	1167.608398	1438.217773
20387.875851	-1243.018833	1166.481445	1512.230835
20387.875851	-1243.018833	1165.353516	1409.103760
20387.875851	-1243.018833	1164.225586	1274.736938
20387.875851	-1243.018833	1163.097656	1319.374634
20387.875851	-1243.018833	1161.968750	1297.243530
20387.875851	-1243.018833	1160.840820	1317.000610
20387.875851	-1243.018833	1159.711914	1347.792236
20387.875851	-1243.018833	1158.583008	879.292786
20387.875851	-1243.018833	1157.453125	1127.021484
20387.875851	-1243.018833	1156.324219	964.767395
20387.875851	-1243.018833	1155.194336	888.738159
20387.875851	-1243.018833	1154.064453	886.515320
20387.875851	-1243.018833	1152.933594	763.014038
20387.875851	-1243.018833	1151.803711	910.007080
20387.875851	-1243.018833	1150.672852	928.435425
20387.875851	-1243.018833	1149.541992	863.723022
20387.875851	-1243.018833	1148.411133	1036.616821
20387.875851	-1243.018833	1147.279297	864.097412
20387.875851	-1243.018833	1146.147461	862.755615
20387.875851	-1243.018833	1145.015625	936.144836
20387.875851	-1243.018833	1143.883789	853.447510
20387.875851	-1243.018833	1142.750977	943.378357
20387.875851	-1243.018833	1141.619141	1135.565063
20387.875851	-1243.018833	1140.486328	839.818848
20387.875851	-1243.018833	1139.352539	743.017029
20387.875851	-1243.018833	1138.219727	504.958374
20387.875851	-1243.018833	1137.085938	524.332031
20387.875851	-1243.018833	1135.952148	428.005768
20387.875851	-1243.018833	1134.818359	466.896667
20387.875851	-1243.018833	1133.683594	191.809921
20387.875851	-1243.018833	1132.549805	401.349060
20387.875851	-1243.018833	1131.415039	230.914368
20387.875851	-1243.018833	1130.279297	282.416626
20387.875851	-1243.018833	1129.144531	347.913635
20387.875851	-1243.018833	1128.008789	358.257782
20387.875851	-1243.018833	1126.873047	388.746277
20387.875851	-1243.018833	1125.737305	59.630409
20387.875851	-1243.018833	1124.601563	52.522774
20387.875851	-1243.018833	1123.464844	43.699867
20387.875851	-1243.018833	1122.328125	146.946075
20387.875851	-1243.018833	1121.191406	128.514725
20387.875851	-1243.018833	1120.054688	142.207977
20387.875851	-1243.018833	1118.916992	130.166931
20387.875851	-1243.018833	1117.779297	56.840889
20387.875851	-1243.018833	1116.641602	51.901253
20387.875851	-1243.018833	1115.503906	209.103439
20387.875851	-1243.018833	1114.365234	223.767548
20387.875851	-1243.018833	1113.226563	130.322281
20387.875851	-1243.018833	1112.087891	175.778992
20387.875851	-1243.018833	1110.949219	91.899055
20387.875851	-1243.018833	1109.809570	207.472626
20387.875851	-1243.018833	1108.669922	-46.570728
20387.875851	-1243.018833	1107.530273	167.823410
20387.875851	-1243.018833	1106.390625	21.115747
20387.875851	-1243.018833	1105.250000	243.574295
20387.875851	-1243.018833	1104.109375	-20.477942
20387.875851	-1243.018833	1102.968750	153.091690
20387.875851	-1243.018833	1101.828125	22.351423
20387.875851	-1243.018833	1100.686523	259.330322
20387.875851	-1243.018833	1099.544922	143.389343
20387.875851	-1243.018833	1098.403320	38.272617
20387.875851	-1243.018833	1097.261719	109.341415
20387.875851	-1243.018833	1096.120117	28.183620
20387.875851	-1243.018833	1094.977539	282.044250
20387.875851	-1243.018833	1093.834961	-9.411876
20387.875851	-1243.018833	1092.691406	54.819675
20387.875851	-1243.018833	1091.548828	287.396088
20387.875851	-1243.018833	1090.405273	142.544739
20387.875851	-1243.018833	1089.261719	-81.660454
20387.875851	-1243.018833	1088.118164	56.190834
20387.875851	-1243.018833	1086.973633	258.272095
20387.875851	-1243.018833	1085.829102	149.396179
20387.875851	-1243.018833	1084.684570	76.651184
20387.875851	-1243.018833	1083.540039	-86.390358
20387.875851	-1243.018833	1082.395508	-167.525055
20387.875851	-1243.018833	1081.250000	111.425621
20387.875851	-1243.018833	1080.104492	-44.427547
20387.875851	-1243.018833	1078.958984	-61.902588
20387.875851	-1243.018833	1077.812500	8.233208
20387.875851	-1243.018833	1076.666016	-31.580620
20387.875851	-1243.018833	1075.519531	-138.021393
20387.875851	-1243.018833	1074.373047	-52.739075
20387.875851	-1243.018833	1073.226563	-18.846491
20387.875851	-1243.018833	1072.079102	-118.012184
20387.875851	-1243.018833	1070.931641	-61.649067
20387.875851	-1243.018833	1069.784180	-40.832794
20387.875851	-1243.018833	1068.635742	-120.277328
20387.875851	-1243.018833	1067.487305	-123.842224
20387.875851	-1243.018833	1066.338867	-94.185104
20387.875851	-1243.018833	1065.190430	-124.725296
20387.875851	-1243.018833	1064.041992	-13.237585
20387.875851	-1243.018833	1062.892578	-160.872330
20387.875851	-1243.018833	1061.743164	-187.902084
20387.875851	-1243.018833	1060.593750	-267.427765
20387.875851	-1243.018833	1059.443359	-215.043549
20387.875851	-1243.018833	1058.292969	-111.240181
20387.875851	-1243.018833	1057.142578	-211.005203
20387.875851	-1243.018833	1055.992188	-75.373032
20387.875851	-1243.018833	1054.841797	-74.243301
20387.875851	-1243.018833	1053.690430	-13.957154
20387.875851	-1243.018833	1052.539063	-75.174202
20387.875851	-1243.018833	1051.387695	123.213776
20387.875851	-1243.018833	1050.235352	118.460861
20387.875851	-1243.018833	1049.083984	63.555355
20387.875851	-1243.018833	1047.931641	-98.095192
20387.875851	-1243.018833	1046.778320	-103.412308
20387.875851	-1243.018833	1045.625977	-89.181961
20387.875851	-1243.018833	1044.472656	-23.204657
20387.875851	-1243.018833	1043.319336	-33.282959
20387.875851	-1243.018833	1042.166016	-46.113213
20387.875851	-1243.018833	1041.012695	-161.165176
20387.875851	-1243.018833	1039.858398	63.659473
20387.875851	-1243.018833	1038.704102	115.691727
20387.875851	-1243.018833	1037.549805	50.581005
20387.875851	-1243.018833	1036.394531	193.026718
20387.875851	-1243.018833	1035.239258	148.448303
20387.875851	-1243.018833	1034.083984	111.467896
20387.875851	-1243.018833	1032.928711	62.332603
20387.875851	-1243.018833	1031.773438	-123.326637
20387.875851	-1243.018833	1030.617188	44.232742
20387.875851	-1243.018833	1029.460938	-39.950737
20387.875851	-1243.018833	1028.304688	85.736305
20387.875851	-1243.018833	1027.147461	15.037938
20387.875851	-1243.018833	1025.991211	2.845123
20387.875851	-1243.018833	1024.833984	-158.084732
20387.875851	-1243.018833	1023.675781	-186.556671
20387.875851	-1243.018833	1022.518555	-187.864243
20387.875851	-1243.018833	1021.360352	103.701141
20387.875851	-1243.018833	1020.202148	14.545610
20387.875851	-1243.018833	1019.043945	-111.940025
20387.875851	-1243.018833	1017.884766	98.894318
20387.875851	-1243.018833	1016.726563	-41.052872
20387.875851	-1243.018833	1015.567383	-58.422180
20387.875851	-1243.018833	1014.407227	66.533211
20387.875851	-1243.018833	1013.248047	173.939316
20387.875851	-1243.018833	1012.087891	47.696617
20387.875851	-1243.018833	1010.927734	222.603195
20387.875851	-1243.018833	1009.767578	-33.786987
20387.875851	-1243.018833	1008.606445	-120.686356
20387.875851	-1243.018833	1007.446289	19.769957
20387.875851	-1243.018833	1006.285156	209.099136
20387.875851	-1243.018833	1005.123047	319.441650
20387.875851	-1243.018833	1003.961914	283.933716
20387.875851	-1243.018833	1002.799805	290.186432
20387.875851	-1243.018833	1001.637695	250.767639
20387.875851	-1243.018833	1000.475586	180.200073
20387.875851	-1243.018833	999.312500	202.285858
20387.875851	-1243.018833	998.149414	277.875488
20387.875851	-1243.018833	996.986328	270.017151
20387.875851	-1243.018833	995.823242	212.116379
20387.875851	-1243.018833	994.659180	114.571426
20387.875851	-1243.018833	993.496094	4.837526
20387.875851	-1243.018833	992.332031	-153.395706
20387.875851	-1243.018833	991.166992	-191.194778
20387.875851	-1243.018833	990.002930	24.154167
20387.875851	-1243.018833	988.837891	-175.120987
20387.875851	-1243.018833	987.672852	-301.831543
20387.875851	-1243.018833	986.506836	-357.684662
20387.875851	-1243.018833	985.341797	61.592197
20387.875851	-1243.018833	984.175781	6.094988
20387.875851	-1243.018833	983.009766	-167.168701
20387.875851	-1243.018833	981.843750	-89.125336
20387.875851	-1243.018833	980.676758	-78.724892
20387.875851	-1243.018833	979.509766	-50.841255
20387.875851	-1243.018833	978.342773	-103.479988
20387.875851	-1243.018833	977.175781	-14.280447
20387.875851	-1243.018833	976.007813	109.293213
20387.875851	-1243.018833	974.839844	98.453537
20387.875851	-1243.018833	973.671875	177.470337
20387.875851	-1243.018833	972.503906	110.108551
20387.875851	-1243.018833	971.334961	204.444550
20387.875851	-1243.018833	970.166016	384.694275
20387.875851	-1243.018833	968.997070	264.308197
20387.875851	-1243.018833	967.828125	151.310028
20387.875851	-1243.018833	966.658203	243.125259
20387.875851	-1243.018833	965.488281	152.269104
20387.875851	-1243.018833	964.318359	105.853165
20387.875851	-1243.018833	963.148438	65.089577
20387.875851	-1243.018833	961.977539	274.508881
20387.875851	-1243.018833	960.806641	14.024158
20387.875851	-1243.018833	959.635742	-39.630955
20387.875851	-1243.018833	958.463867	327.155762
20387.875851	-1243.018833	957.292969	97.116463
20387.875851	-1243.018833	956.121094	38.226231
20387.875851	-1243.018833	954.948242	74.493759
20387.875851	-1243.018833	953.776367	40.487728
20387.875851	-1243.018833	952.603516	151.003876
20387.875851	-1243.018833	951.430664	27.829142
20387.875851	-1243.018833	950.257813	-26.032421
20387.875851	-1243.018833	949.084961	71.647865
20387.875851	-1243.018833	947.911133	190.001755
20387.875851	-1243.018833	946.737305	301.508942
20387.875851	-1243.018833	945.563477	131.073792
20387.875851	-1243.018833	944.388672	174.989914
20387.875851	-1243.018833	943.213867	296.072174
20387.875851	-1243.018833	942.039063	151.614639
20387.875851	-1243.018833	940.864258	138.775574
20387.875851	-1243.018833	939.688477	359.273926
20387.875851	-1243.018833	938.513672	281.835022
20387.875851	-1243.018833	937.337891	147.738388
20387.875851	-1243.018833	936.161133	-49.420551
20387.875851	-1243.018833	934.985352	-110.337784
20387.875851	-1243.018833	933.808594	216.444305
20387.875851	-1243.018833	932.631836	179.218857
20387.875851	-1243.018833	931.454102	125.296867
20387.875851	-1243.018833	930.277344	52.867748
20387.875851	-1243.018833	929.099609	114.503601
20387.875851	-1243.018833	927.921875	157.813293
20387.875851	-1243.018833	926.743164	131.136765
20387.875851	-1243.018833	925.565430	63.971607
20387.875851	-1243.018833	924.386719	44.502525
20387.875851	-1243.018833	923.208008	168.166779
20387.875851	-1243.018833	922.028320	143.043167
20387.875851	-1243.018833	920.849609	55.438515
20387.875851	-1243.018833	919.669922	68.049484
20387.875851	-1243.018833	919.474609	37.774715
20387.875851	-1243.018833	918.309570	81.991837
20387.875851	-1243.018833	917.143555	118.779846
20387.875851	-1243.018833	915.977539	-7.737095
20387.875851	-1243.018833	914.810547	107.729202
20387.875851	-1243.018833	913.644531	228.553741
20387.875851	-1243.018833	912.477539	307.105011
20387.875851	-1243.018833	911.310547	64.896057
20387.875851	-1243.018833	910.143555	163.434433
20387.875851	-1243.018833	908.975586	260.030334
20387.875851	-1243.018833	907.807617	237.481186
20387.875851	-1243.018833	906.639648	62.907749
20387.875851	-1243.018833	905.471680	98.820404
20387.875851	-1243.018833	904.303711	387.182648
20387.875851	-1243.018833	903.134766	349.681213
20387.875851	-1243.018833	901.965820	227.969299
20387.875851	-1243.018833	900.796875	387.880432
20387.875851	-1243.018833	899.626953	426.976105
20387.875851	-1243.018833	898.457031	367.258270
20387.875851	-1243.018833	897.287109	420.811401
20387.875851	-1243.018833	896.117188	424.926086
20387.875851	-1243.018833	894.947266	534.932800
20387.875851	-1243.018833	893.776367	613.774536
20387.875851	-1243.018833	892.605469	509.880188
20387.875851	-1243.018833	891.434570	517.335205
20387.875851	-1243.018833	890.262695	356.771606
20387.875851	-1243.018833	889.091797	314.826752
20387.875851	-1243.018833	887.919922	391.447937
20387.875851	-1243.018833	886.748047	208.894455
20387.875851	-1243.018833	885.575195	179.572510
20387.875851	-1243.018833	884.403320	148.358093
20387.875851	-1243.018833	883.230469	73.333717
20387.875851	-1243.018833	882.057617	297.229523
20387.875851	-1243.018833	880.883789	211.134003
20387.875851	-1243.018833	879.710938	-48.115444
20387.875851	-1243.018833	878.537109	117.163673
20387.875851	-1243.018833	877.362305	183.952820
20387.875851	-1243.018833	876.188477	268.846558
20387.875851	-1243.018833	875.013672	133.336487
20387.875851	-1243.018833	873.839844	198.040817
20387.875851	-1243.018833	872.664063	97.046516
20387.875851	-1243.018833	871.489258	56.060822
20387.875851	-1243.018833	870.313477	-65.016022
20387.875851	-1243.018833	869.138672	-69.715797
20387.875851	-1243.018833	867.962891	40.086075
20387.875851	-1243.018833	866.786133	53.421684
20387.875851	-1243.018833	865.610352	57.584747
20387.875851	-1243.018833	864.433594	72.586143
20387.875851	-1243.018833	863.256836	154.739731
20387.875851	-1243.018833	862.079102	7.902276
20387.875851	-1243.018833	860.902344	37.222382
20387.875851	-1243.018833	859.724609	162.706482
20387.875851	-1243.018833	858.546875	416.968384
20387.875851	-1243.018833	857.368164	153.752243
20387.875851	-1243.018833	856.190430	81.113342
20387.875851	-1243.018833	855.011719	46.540920
20387.875851	-1243.018833	853.833008	-78.788513
20387.875851	-1243.018833	852.654297	-117.085098
20387.875851	-1243.018833	851.474609	-52.076786
20387.875851	-1243.018833	850.294922	-66.934593
20387.875851	-1243.018833	849.115234	93.954529
20387.875851	-1243.018833	847.935547	129.666489
20387.875851	-1243.018833	846.754883	89.201553
20387.875851	-1243.018833	845.575195	-69.067650
20387.875851	-1243.018833	844.393555	75.107010
20387.875851	-1243.018833	843.212891	34.455296
20387.875851	-1243.018833	842.032227	62.534935
20387.875851	-1243.018833	840.850586	209.988358
20387.875851	-1243.018833	839.668945	147.397842
20387.875851	-1243.018833	838.486328	102.853928
20387.875851	-1243.018833	837.304688	199.331543
20387.875851	-1243.018833	836.122070	286.655579
20387.875851	-1243.018833	834.939453	-14.864971
20387.875851	-1243.018833	833.756836	79.540962
20387.875851	-1243.018833	832.573242	88.892159
20387.875851	-1243.018833	831.389648	-96.989494
20387.875851	-1243.018833	830.206055	-152.802734
20387.875851	-1243.018833	829.022461	-26.249271
20387.875851	-1243.018833	827.838867	-145.420471
20387.875851	-1243.018833	826.654297	-163.513779
20387.875851	-1243.018833	825.469727	69.222626
20387.875851	-1243.018833	824.284180	151.994461
20387.875851	-1243.018833	823.099609	-185.765839
20387.875851	-1243.018833	821.914063	-27.378813
20387.875851	-1243.018833	820.728516	85.767952
20387.875851	-1243.018833	819.542969	-107.763710
20387.875851	-1243.018833	818.356445	-198.536118
20387.875851	-1243.018833	817.169922	-125.334152
20387.875851	-1243.018833	815.983398	109.937195
20387.875851	-1243.018833	814.796875	-206.304840
20387.875851	-1243.018833	813.609375	12.499150
20387.875851	-1243.018833	812.422852	-118.271904
20387.875851	-1243.018833	811.235352	-24.001518
20387.875851	-1243.018833	810.046875	-63.075462
20387.875851	-1243.018833	808.859375	-122.028450
20387.875851	-1243.018833	807.670898	126.664688
20387.875851	-1243.018833	806.482422	-42.235474
20387.875851	-1243.018833	805.293945	-166.193619
20387.875851	-1243.018833	804.104492	-56.405010
20387.875851	-1243.018833	802.915039	-56.436977
20387.875851	-1243.018833	801.725586	0.954732
20387.875851	-1243.018833	800.536133	11.494830
20387.875851	-1243.018833	799.345703	-154.160751
20387.875851	-1243.018833	798.155273	-109.658173
20387.875851	-1243.018833	796.964844	-162.268860
20387.875851	-1243.018833	795.774414	-46.158752
20387.875851	-1243.018833	794.583008	-163.600052
20387.875851	-1243.018833	793.392578	-31.593269
20387.875851	-1243.018833	792.200195	-125.868416
20387.875851	-1243.018833	791.008789	-87.438591
20387.875851	-1243.018833	789.816406	-58.100651
20387.875851	-1243.018833	788.625000	-41.442326
20387.875851	-1243.018833	787.432617	-66.141701
20387.875851	-1243.018833	786.239258	-26.400255
20387.875851	-1243.018833	785.046875	-10.093268
20387.875851	-1243.018833	783.853516	43.729492
20387.875851	-1243.018833	782.660156	-311.089813
20387.875851	-1243.018833	781.465820	-232.380173
20387.875851	-1243.018833	780.272461	36.017094
20387.875851	-1243.018833	779.078125	-64.670273
20387.875851	-1243.018833	777.883789	-382.049957
20387.875851	-1243.018833	776.688477	-176.789230
20387.875851	-1243.018833	775.494141	-77.315620
20387.875851	-1243.018833	774.298828	-78.193169
20387.875851	-1243.018833	773.103516	-97.082924
20387.875851	-1243.018833	771.907227	-141.125229
20387.875851	-1243.018833	770.711914	34.641853
20387.875851	-1243.018833	769.515625	153.004990
20387.875851	-1243.018833	768.318359	92.468620
20387.875851	-1243.018833	767.122070	62.202358
20387.875851	-1243.018833	765.924805	-111.100571
20387.875851	-1243.018833	764.727539	-45.125877
20387.875851	-1243.018833	763.530273	102.829430
20387.875851	-1243.018833	762.333008	93.477142
20387.875851	-1243.018833	761.134766	274.985504
20387.875851	-1243.018833	759.936523	117.203346
20387.875851	-1243.018833	758.738281	187.731171
20387.875851	-1243.018833	757.540039	288.414520
20387.875851	-1243.018833	756.340820	117.821594
20387.875851	-1243.018833	755.141602	186.097580
20387.875851	-1243.018833	753.942383	-29.258623
20387.875851	-1243.018833	752.742188	61.900883
20387.875851	-1243.018833	751.541992	213.463852
20387.875851	-1243.018833	750.341797	188.432114
20387.875851	-1243.018833	749.141602	-214.367310
20387.875851	-1243.018833	747.941406	278.644592
20387.875851	-1243.018833	746.740234	367.118988
20387.875851	-1243.018833	745.539063	316.550690
20387.875851	-1243.018833	744.337891	256.950348
20387.875851	-1243.018833	743.135742	275.512756
20387.875851	-1243.018833	741.933594	171.156937
20387.875851	-1243.018833	740.731445	329.931610
20387.875851	-1243.018833	739.529297	227.071060
20387.875851	-1243.018833	738.326172	239.656311
20387.875851	-1243.018833	737.124023	223.637283
20387.875851	-1243.018833	735.919922	203.903275
20387.875851	-1243.018833	734.716797	352.814850
20387.875851	-1243.018833	733.513672	336.288879
20387.875851	-1243.018833	732.309570	220.143021
20387.875851	-1243.018833	731.105469	116.307304
20387.875851	-1243.018833	729.900391	228.936096
20387.875851	-1243.018833	728.696289	-100.614494
20387.875851	-1243.018833	727.491211	98.627243
20387.875851	-1243.018833	726.286133	95.353607
20387.875851	-1243.018833	725.080078	65.297562
20387.875851	-1243.018833	723.874023	35.081367
20387.875851	-1243.018833	722.668945	116.411858
20387.875851	-1243.018833	721.461914	185.115997
20387.875851	-1243.018833	720.255859	152.593475
20387.875851	-1243.018833	719.048828	227.994843
20387.875851	-1243.018833	717.841797	141.967560
20387.875851	-1243.018833	716.634766	261.261688
20387.875851	-1243.018833	715.427734	72.191841
20387.875851	-1243.018833	714.219727	-70.951607
20387.875851	-1243.018833	713.011719	139.809479
20387.875851	-1243.018833	711.803711	-85.063766
20387.875851	-1243.018833	710.594727	77.464722
20387.875851	-1243.018833	709.385742	-9.693789
20387.875851	-1243.018833	708.176758	-77.546913
20387.875851	-1243.018833	706.967773	126.757149
20387.875851	-1243.018833	705.758789	185.818253
20387.875851	-1243.018833	704.548828	297.685516
20387.875851	-1243.018833	703.338867	27.606939
20387.875851	-1243.018833	702.127930	-41.140106
20387.875851	-1243.018833	700.917969	100.160934
20387.875851	-1243.018833	699.707031	255.331955
20387.875851	-1243.018833	698.496094	184.236877
20387.875851	-1243.018833	697.285156	93.558716
20387.875851	-1243.018833	696.073242	221.571228
20387.875851	-1243.018833	694.861328	229.342957
20387.875851	-1243.018833	693.649414	342.766937
20387.875851	-1243.018833	692.436523	454.175171
20387.875851	-1243.018833	691.224609	260.268219
20387.875851	-1243.018833	690.011719	387.118652
20387.875851	-1243.018833	688.798828	270.461914
20387.875851	-1243.018833	687.584961	192.418533
20387.875851	-1243.018833	686.372070	265.747070
20387.875851	-1243.018833	685.158203	145.057999
20387.875851	-1243.018833	683.943359	212.663986
20387.875851	-1243.018833	682.729492	322.309021
20387.875851	-1243.018833	681.514648	236.282379
20387.875851	-1243.018833	680.299805	359.544403
20387.875851	-1243.018833	679.084961	329.452301
20387.875851	-1243.018833	677.869141	341.387238
20387.875851	-1243.018833	676.653320	460.412628
20387.875851	-1243.018833	675.437500	299.559601
20387.875851	-1243.018833	674.221680	391.762604
20387.875851	-1243.018833	673.004883	490.744080
20387.875851	-1243.018833	671.789063	380.341919
20387.875851	-1243.018833	670.571289	447.235931
20387.875851	-1243.018833	669.354492	508.635895
20387.875851	-1243.018833	668.136719	404.690277
20387.875851	-1243.018833	666.919922	369.081116
20387.875851	-1243.018833	665.701172	342.038147
20387.875851	-1243.018833	664.483398	451.726379
20387.875851	-1243.018833	663.264648	447.081116
20387.875851	-1243.018833	662.045898	489.605591
20387.875851	-1243.018833	660.827148	303.860565
20387.875851	-1243.018833	659.608398	435.432220
20387.875851	-1243.018833	658.388672	433.468201
20387.875851	-1243.018833	657.168945	438.312317
20387.875851	-1243.018833	655.949219	427.175873
20387.875851	-1243.018833	654.728516	468.397522
20387.875851	-1243.018833	653.507813	418.294342
20387.875851	-1243.018833	652.287109	401.288605
20387.875851	-1243.018833	651.066406	272.006836
20387.875851	-1243.018833	649.844727	111.047905
20387.875851	-1243.018833	648.623047	263.293121
20387.875851	-1243.018833	647.401367	194.755783
20387.875851	-1243.018833	646.179688	393.757751
20387.875851	-1243.018833	644.957031	407.025452
20387.875851	-1243.018833	643.734375	407.842255
20387.875851	-1243.018833	642.511719	403.212830
20387.875851	-1243.018833	641.289063	588.947449
20387.875851	-1243.018833	640.065430	576.876587
20387.875851	-1243.018833	638.841797	527.913269
20387.875851	-1243.018833	637.618164	470.036865
20387.875851	-1243.018833	636.393555	457.389984
20387.875851	-1243.018833	635.168945	418.354980
20387.875851	-1243.018833	633.944336	438.506042
20387.875851	-1243.018833	632.719727	311.815918
20387.875851	-1243.018833	631.494141	326.341705
20387.875851	-1243.018833	630.269531	384.307098
20387.875851	-1243.018833	629.042969	344.328339
20387.875851	-1243.018833	627.817383	368.725983
20387.875851	-1243.018833	626.590820	511.488708
20387.875851	-1243.018833	625.365234	566.844360
20387.875851	-1243.018833	624.137695	527.828613
20387.875851	-1243.018833	622.911133	669.903442
20387.875851	-1243.018833	621.683594	581.722595
20387.875851	-1243.018833	620.456055	364.488007
20387.875851	-1243.018833	619.228516	450.204987
20387.875851	-1243.018833	618.000977	497.395447
20387.875851	-1243.018833	616.772461	305.867279
20387.875851	-1243.018833	615.543945	211.709869
20387.875851	-1243.018833	614.314453	310.553101
20387.875851	-1243.018833	613.085938	530.979553
20387.875851	-1243.018833	611.856445	340.619537
20387.875851	-1243.018833	610.626953	362.329712
20387.875851	-1243.018833	609.397461	135.228973
20387.875851	-1243.018833	608.166992	213.977005
20387.875851	-1243.018833	606.936523	210.840164
20387.875851	-1243.018833	605.706055	-11.394614
20387.875851	-1243.018833	604.474609	25.121565
20387.875851	-1243.018833	603.244141	191.739227
20387.875851	-1243.018833	602.012695	146.257828
20387.875851	-1243.018833	600.780273	359.294159
20387.875851	-1243.018833	599.548828	360.342102
20387.875851	-1243.018833	598.316406	194.620468
20387.875851	-1243.018833	597.083984	356.725922
20387.875851	-1243.018833	595.851563	209.848969
20387.875851	-1243.018833	594.618164	387.167938
20387.875851	-1243.018833	593.384766	18.092468
20387.875851	-1243.018833	592.151367	65.068024
20387.875851	-1243.018833	590.917969	111.878036
20387.875851	-1243.018833	589.683594	170.636047
20387.875851	-1243.018833	588.449219	49.058880
20387.875851	-1243.018833	587.214844	-24.108051
20387.875851	-1243.018833	585.979492	6.498591
20387.875851	-1243.018833	584.745117	-108.449516
20387.875851	-1243.018833	583.509766	-81.565910
20387.875851	-1243.018833	582.273438	-319.617065
20387.875851	-1243.018833	581.038086	-201.256851
20387.875851	-1243.018833	579.801758	-48.497696
20387.875851	-1243.018833	578.565430	-108.646217
20387.875851	-1243.018833	577.329102	-132.579834
20387.875851	-1243.018833	576.091797	166.625778
20387.875851	-1243.018833	574.854492	0.665336
20387.875851	-1243.018833	573.617188	-35.739902
20387.875851	-1243.018833	572.378906	-35.981201
20387.875851	-1243.018833	571.141602	138.139694
20387.875851	-1243.018833	569.903320	49.576962
20387.875851	-1243.018833	568.664063	-49.431698
20387.875851	-1243.018833	567.425781	-77.707062
20387.875851	-1243.018833	566.186523	-73.300224
20387.875851	-1243.018833	564.947266	24.179581
20387.875851	-1243.018833	563.708008	214.675430
20387.875851	-1243.018833	562.467773	80.743889
20387.875851	-1243.018833	561.227539	86.447830
20387.875851	-1243.018833	559.987305	324.791901
20387.875851	-1243.018833	558.747070	38.994564
20387.875851	-1243.018833	557.505859	90.959877
20387.875851	-1243.018833	556.264648	234.132828
20387.875851	-1243.018833	555.023438	272.102051
20387.875851	-1243.018833	553.781250	117.088814
20387.875851	-1243.018833	552.539063	113.581268
20387.875851	-1243.018833	551.296875	68.696365
20387.875851	-1243.018833	550.054688	269.863556
20387.875851	-1243.018833	548.811523	269.552032
20387.875851	-1243.018833	547.569336	284.685028
20387.875851	-1243.018833	546.325195	100.207474
20387.875851	-1243.018833	545.082031	-22.320183
20387.875851	-1243.018833	543.837891	90.650780
20387.875851	-1243.018833	542.593750	52.273815
20387.875851	-1243.018833	541.349609	-37.684742
20387.875851	-1243.018833	540.105469	40.719154
20387.875851	-1243.018833	538.860352	-116.293663
20387.875851	-1243.018833	537.615234	166.348297
20387.875851	-1243.018833	536.369141	134.615768
20387.875851	-1243.018833	535.124023	168.114075
20387.875851	-1243.018833	533.877930	72.832863
20387.875851	-1243.018833	532.631836	157.724457
20387.875851	-1243.018833	531.384766	-54.238548
20387.875851	-1243.018833	530.138672	42.599922
20387.875851	-1243.018833	528.891602	-109.276535
20387.875851	-1243.018833	527.643555	42.308331
20387.875851	-1243.018833	526.396484	60.145294
20387.875851	-1243.018833	525.148438	-110.557549
20387.875851	-1243.018833	523.900391	-210.955429
20387.875851	-1243.018833	522.652344	-6.428889
20387.875851	-1243.018833	521.403320	187.705307
20387.875851	-1243.018833	520.154297	53.024239
20387.875851	-1243.018833	518.905273	-103.856689
20387.875851	-1243.018833	517.656250	143.220886
20387.875851	-1243.018833	516.406250	272.111908
20387.875851	-1243.018833	515.156250	359.893250
20387.875851	-1243.018833	513.906250	341.605865
20387.875851	-1243.018833	512.655273	283.983551
20387.875851	-1243.018833	511.404297	301.614655
20387.875851	-1243.018833	510.153320	274.811432
20387.875851	-1243.018833	508.902344	289.046295
20387.875851	-1243.018833	507.650391	311.806732
20387.875851	-1243.018833	506.398438	245.755005
20387.875851	-1243.018833	505.146484	318.074158
20387.875851	-1243.018833	503.893555	310.114868
20387.875851	-1243.018833	502.641602	88.826530
20387.875851	-1243.018833	501.388672	-4.370482
20387.875851	-1243.018833	500.134766	-29.275688
20387.875851	-1243.018833	498.881836	-49.006527
20387.875851	-1243.018833	497.627930	74.537010
20387.875851	-1243.018833	496.374023	-240.169281
20387.875851	-1243.018833	495.119141	-50.118954
20387.875851	-1243.018833	493.865234	78.538704
20387.875851	-1243.018833	492.610352	-56.979282
20387.875851	-1243.018833	491.355469	92.103149
20387.875851	-1243.018833	490.099609	75.909340
20387.875851	-1243.018833	488.843750	-42.427521
20387.875851	-1243.018833	487.587891	-48.313557
20387.875851	-1243.018833	486.332031	-4.801491
20387.875851	-1243.018833	485.075195	-66.815186
20387.875851	-1243.018833	483.818359	-280.206451
20387.875851	-1243.018833	482.561523	-153.253021
20387.875851	-1243.018833	481.304688	-143.678040
20387.875851	-1243.018833	480.046875	-55.882359
20387.875851	-1243.018833	478.789063	99.904587
20387.875851	-1243.018833	477.531250	14.297091
20387.875851	-1243.018833	476.272461	132.645935
20387.875851	-1243.018833	475.013672	276.451569
20387.875851	-1243.018833	473.754883	226.581757
20387.875851	-1243.018833	472.496094	151.281021
20387.875851	-1243.018833	471.236328	284.844910
20387.875851	-1243.018833	469.976563	277.478210
20387.875851	-1243.018833	468.716797	480.567505
20387.875851	-1243.018833	467.456055	520.677429
20387.875851	-1243.018833	466.196289	392.863190
20387.875851	-1243.018833	464.935547	344.800873
20387.875851	-1243.018833	463.673828	425.610779
20387.875851	-1243.018833	462.413086	450.466583
20387.875851	-1243.018833	461.151367	453.254761
20387.875851	-1243.018833	459.889648	615.322998
20387.875851	-1243.018833	458.626953	689.195496
20387.875851	-1243.018833	457.364258	554.688171
20387.875851	-1243.018833	456.101563	550.617249
20387.875851	-1243.018833	454.838867	502.507813
20387.875851	-1243.018833	453.575195	352.810852
20387.875851	-1243.018833	452.312500	355.479584
20387.875851	-1243.018833	451.047852	510.348389
20387.875851	-1243.018833	449.784180	274.371460
20387.875851	-1243.018833	448.519531	310.718048
20387.875851	-1243.018833	447.254883	560.046021
20387.875851	-1243.018833	445.990234	242.892242
20387.875851	-1243.018833	444.725586	236.797394
20387.875851	-1243.018833	443.459961	272.856720
20387.875851	-1243.018833	442.194336	443.975128
20387.875851	-1243.018833	440.927734	380.139801
20387.875851	-1243.018833	439.662109	527.342957
20387.875851	-1243.018833	438.395508	649.038147
20387.875851	-1243.018833	437.127930	429.586243
20387.875851	-1243.018833	435.861328	643.844177
20387.875851	-1243.018833	434.593750	419.185944
20387.875851	-1243.018833	433.326172	361.489441
20387.875851	-1243.018833	432.058594	544.841064
20387.875851	-1243.018833	430.790039	304.724792
20387.875851	-1243.018833	429.521484	383.154510
20387.875851	-1243.018833	428.252930	646.770325
20387.875851	-1243.018833	426.984375	397.840851
20387.875851	-1243.018833	425.714844	667.674438
20387.875851	-1243.018833	424.445313	763.703796
20387.875851	-1243.018833	423.174805	699.476501
20387.875851	-1243.018833	421.905273	796.691956
20387.875851	-1243.018833	420.634766	962.608276
20387.875851	-1243.018833	419.364258	863.991211
20387.875851	-1243.018833	418.092773	909.815735
20387.875851	-1243.018833	416.822266	817.429565
20387.875851	-1243.018833	415.550781	825.663879
20387.875851	-1243.018833	414.278320	924.351074
20387.875851	-1243.018833	413.006836	679.764893
20387.875851	-1243.018833	411.734375	666.846985
20387.875851	-1243.018833	410.461914	814.879395
20387.875851	-1243.018833	409.188477	901.970825
20387.875851	-1243.018833	407.916016	800.545654
20387.875851	-1243.018833	406.642578	591.262390
20387.875851	-1243.018833	405.368164	693.872009
20387.875851	-1243.018833	404.094727	1116.601929
20387.875851	-1243.018833	402.820313	907.695313
20387.875851	-1243.018833	401.545898	993.670959
20387.875851	-1243.018833	400.270508	1013.659424
20387.875851	-1243.018833	398.996094	1311.521729
20387.875851	-1243.018833	397.720703	1048.685547
20387.875851	-1243.018833	396.444336	666.351135
20387.875851	-1243.018833	395.168945	845.046509
20387.875851	-1243.018833	393.892578	1086.693115
20387.875851	-1243.018833	392.616211	1037.791260
20387.875851	-1243.018833	391.339844	964.803955
20387.875851	-1243.018833	390.062500	651.685974
20387.875851	-1243.018833	388.785156	833.521240
20387.875851	-1243.018833	387.507813	1141.745728
20387.875851	-1243.018833	386.229492	915.240173
20387.875851	-1243.018833	384.951172	703.102234
20387.875851	-1243.018833	383.672852	642.447510
20387.875851	-1243.018833	382.394531	647.865906
20387.875851	-1243.018833	381.115234	563.764526
20387.875851	-1243.018833	379.835938	706.125488
20387.875851	-1243.018833	378.556641	735.522949
20387.875851	-1243.018833	377.277344	849.155457
20387.875851	-1243.018833	375.997070	609.241150
20387.875851	-1243.018833	374.716797	465.269958
20387.875851	-1243.018833	373.435547	465.527405
20387.875851	-1243.018833	372.155273	671.731750
20387.875851	-1243.018833	370.874023	833.282593
20387.875851	-1243.018833	369.591797	739.926331
20387.875851	-1243.018833	368.310547	818.954651
20387.875851	-1243.018833	367.028320	871.650208
20387.875851	-1243.018833	365.746094	764.634521
20387.875851	-1243.018833	364.463867	683.028748
20387.875851	-1243.018833	363.180664	758.411743
20387.875851	-1243.018833	361.897461	1042.341064
20387.875851	-1243.018833	360.614258	1004.830078
20387.875851	-1243.018833	359.330078	920.838806
20387.875851	-1243.018833	358.045898	911.976257
20387.875851	-1243.018833	356.761719	974.819702
20387.875851	-1243.018833	355.477539	764.699707
20387.875851	-1243.018833	354.192383	799.284912
20387.875851	-1243.018833	352.907227	773.923889
20387.875851	-1243.018833	351.622070	723.547974
20387.875851	-1243.018833	350.336914	879.306519
20387.875851	-1243.018833	349.050781	791.996277
20387.875851	-1243.018833	347.764648	583.141113
20387.875851	-1243.018833	346.477539	639.980225
20387.875851	-1243.018833	345.191406	365.847687
20387.875851	-1243.018833	343.904297	388.781006
20387.875851	-1243.018833	342.616211	487.612762
20387.875851	-1243.018833	341.329102	49.597301
20387.875851	-1243.018833	340.041016	217.166183
20387.875851	-1243.018833	338.752930	224.714142
20387.875851	-1243.018833	337.463867	158.509369
20387.875851	-1243.018833	336.175781	45.239334
20387.875851	-1243.018833	334.886719	70.511482
20387.875851	-1243.018833	333.596680	328.705322
20387.875851	-1243.018833	332.307617	259.322754
20387.875851	-1243.018833	331.017578	44.705036
20387.875851	-1243.018833	329.727539	-101.230515
20387.875851	-1243.018833	328.436523	-79.259819
20387.875851	-1243.018833	327.146484	54.288742
20387.875851	-1243.018833	325.855469	224.562164
20387.875851	-1243.018833	324.563477	-15.638833
20387.875851	-1243.018833	323.272461	-3.697607
20387.875851	-1243.018833	321.980469	-76.052025
20387.875851	-1243.018833	320.688477	-123.399147
20387.875851	-1243.018833	319.395508	-40.046417
20387.875851	-1243.018833	318.103516	40.070347
20387.875851	-1243.018833	316.810547	-56.982979
20387.875851	-1243.018833	315.516602	103.676865
20387.875851	-1243.018833	314.223633	231.084488
20387.875851	-1243.018833	312.929688	35.739830
20387.875851	-1243.018833	311.635742	301.087219
20387.875851	-1243.018833	310.340820	207.245300
20387.875851	-1243.018833	309.045898	228.495148
20387.875851	-1243.018833	307.750977	405.958374
20387.875851	-1243.018833	306.456055	79.093224
20387.875851	-1243.018833	305.160156	218.516922
20387.875851	-1243.018833	303.865234	-121.441010
20387.875851	-1243.018833	302.568359	364.023651
20387.875851	-1243.018833	301.272461	167.103775
20387.875851	-1243.018833	299.975586	-21.167427
20387.875851	-1243.018833	298.678711	31.723166
