#X		#Y		#Wave		#Intensity
12361.074734	-1209.266667	1999.980469	108.791458
12361.074734	-1209.266667	1999.016602	-143.557510
12361.074734	-1209.266667	1998.052734	-11.758641
12361.074734	-1209.266667	1997.087891	-85.853569
12361.074734	-1209.266667	1996.123047	0.973804
12361.074734	-1209.266667	1995.158203	15.781089
12361.074734	-1209.266667	1994.193359	-113.211143
12361.074734	-1209.266667	1993.228516	-125.907463
12361.074734	-1209.266667	1992.262695	49.431393
12361.074734	-1209.266667	1991.297852	-277.921570
12361.074734	-1209.266667	1990.332031	-97.918518
12361.074734	-1209.266667	1989.366211	-17.077152
12361.074734	-1209.266667	1988.399414	43.830078
12361.074734	-1209.266667	1987.433594	-36.383297
12361.074734	-1209.266667	1986.466797	6.984481
12361.074734	-1209.266667	1985.500977	141.725647
12361.074734	-1209.266667	1984.534180	118.103806
12361.074734	-1209.266667	1983.567383	-1.993498
12361.074734	-1209.266667	1982.599609	162.059464
12361.074734	-1209.266667	1981.632813	-141.004333
12361.074734	-1209.266667	1980.665039	-258.760315
12361.074734	-1209.266667	1979.697266	-43.112988
12361.074734	-1209.266667	1978.729492	71.139778
12361.074734	-1209.266667	1977.761719	56.900204
12361.074734	-1209.266667	1976.792969	-21.579065
12361.074734	-1209.266667	1975.825195	-23.574621
12361.074734	-1209.266667	1974.856445	85.413887
12361.074734	-1209.266667	1973.887695	105.495422
12361.074734	-1209.266667	1972.918945	-49.610912
12361.074734	-1209.266667	1971.949219	244.141724
12361.074734	-1209.266667	1970.980469	177.748260
12361.074734	-1209.266667	1970.010742	99.011833
12361.074734	-1209.266667	1969.041016	-56.140476
12361.074734	-1209.266667	1968.071289	96.778557
12361.074734	-1209.266667	1967.101563	222.507034
12361.074734	-1209.266667	1966.130859	20.520777
12361.074734	-1209.266667	1965.161133	18.088978
12361.074734	-1209.266667	1964.190430	55.035374
12361.074734	-1209.266667	1963.219727	-228.123428
12361.074734	-1209.266667	1962.249023	-55.794250
12361.074734	-1209.266667	1961.277344	84.458160
12361.074734	-1209.266667	1960.306641	131.141083
12361.074734	-1209.266667	1959.334961	165.491745
12361.074734	-1209.266667	1958.363281	-6.801660
12361.074734	-1209.266667	1957.391602	98.867317
12361.074734	-1209.266667	1956.419922	157.772049
12361.074734	-1209.266667	1955.447266	150.273087
12361.074734	-1209.266667	1954.474609	145.232193
12361.074734	-1209.266667	1953.501953	105.788727
12361.074734	-1209.266667	1952.529297	95.845673
12361.074734	-1209.266667	1951.556641	-140.096420
12361.074734	-1209.266667	1950.583984	41.596752
12361.074734	-1209.266667	1949.610352	134.822449
12361.074734	-1209.266667	1948.636719	107.713516
12361.074734	-1209.266667	1947.663086	63.441147
12361.074734	-1209.266667	1946.689453	156.636429
12361.074734	-1209.266667	1945.715820	171.284912
12361.074734	-1209.266667	1944.741211	33.827560
12361.074734	-1209.266667	1943.767578	259.470612
12361.074734	-1209.266667	1942.792969	77.930801
12361.074734	-1209.266667	1941.818359	168.649017
12361.074734	-1209.266667	1940.842773	26.446939
12361.074734	-1209.266667	1939.868164	129.428894
12361.074734	-1209.266667	1938.892578	24.082022
12361.074734	-1209.266667	1937.916992	269.171173
12361.074734	-1209.266667	1936.941406	41.388378
12361.074734	-1209.266667	1935.965820	-68.724716
12361.074734	-1209.266667	1934.990234	71.004318
12361.074734	-1209.266667	1934.013672	-73.311081
12361.074734	-1209.266667	1933.037109	-227.343903
12361.074734	-1209.266667	1932.060547	-19.073225
12361.074734	-1209.266667	1931.083984	61.897785
12361.074734	-1209.266667	1930.107422	206.471786
12361.074734	-1209.266667	1929.129883	-209.143127
12361.074734	-1209.266667	1928.153320	-18.060570
12361.074734	-1209.266667	1927.175781	-132.675262
12361.074734	-1209.266667	1926.198242	-120.098190
12361.074734	-1209.266667	1925.219727	-78.174080
12361.074734	-1209.266667	1924.242188	-92.446571
12361.074734	-1209.266667	1923.263672	-143.343567
12361.074734	-1209.266667	1922.285156	-247.941132
12361.074734	-1209.266667	1921.306641	138.455002
12361.074734	-1209.266667	1920.328125	50.984406
12361.074734	-1209.266667	1919.349609	29.491682
12361.074734	-1209.266667	1918.370117	235.048035
12361.074734	-1209.266667	1917.391602	-59.774586
12361.074734	-1209.266667	1916.412109	-173.894196
12361.074734	-1209.266667	1915.431641	-97.653770
12361.074734	-1209.266667	1914.452148	78.593613
12361.074734	-1209.266667	1913.472656	81.640732
12361.074734	-1209.266667	1912.492188	-171.319214
12361.074734	-1209.266667	1911.511719	-58.479137
12361.074734	-1209.266667	1910.531250	-325.900970
12361.074734	-1209.266667	1909.550781	-15.637888
12361.074734	-1209.266667	1908.569336	121.534554
12361.074734	-1209.266667	1907.588867	-62.884697
12361.074734	-1209.266667	1906.607422	-76.723679
12361.074734	-1209.266667	1905.625977	-24.789864
12361.074734	-1209.266667	1904.644531	-111.636551
12361.074734	-1209.266667	1903.662109	-120.538345
12361.074734	-1209.266667	1902.680664	-78.308144
12361.074734	-1209.266667	1901.698242	-172.347153
12361.074734	-1209.266667	1900.715820	23.178535
12361.074734	-1209.266667	1899.733398	-121.894821
12361.074734	-1209.266667	1898.750000	-120.981522
12361.074734	-1209.266667	1897.767578	-124.917191
12361.074734	-1209.266667	1896.784180	-46.184025
12361.074734	-1209.266667	1895.800781	134.617142
12361.074734	-1209.266667	1894.817383	-39.440247
12361.074734	-1209.266667	1893.833984	7.680138
12361.074734	-1209.266667	1892.850586	-312.023499
12361.074734	-1209.266667	1891.866211	9.601942
12361.074734	-1209.266667	1890.881836	-3.996709
12361.074734	-1209.266667	1889.897461	-15.154273
12361.074734	-1209.266667	1888.913086	-31.156769
12361.074734	-1209.266667	1887.927734	30.515045
12361.074734	-1209.266667	1886.943359	63.050518
12361.074734	-1209.266667	1885.958008	61.612038
12361.074734	-1209.266667	1884.972656	82.006691
12361.074734	-1209.266667	1883.987305	-1.886554
12361.074734	-1209.266667	1883.001953	113.079796
12361.074734	-1209.266667	1882.015625	-48.364124
12361.074734	-1209.266667	1881.029297	-13.421052
12361.074734	-1209.266667	1880.042969	-85.119293
12361.074734	-1209.266667	1879.056641	-118.028183
12361.074734	-1209.266667	1878.070313	6.530015
12361.074734	-1209.266667	1877.083984	92.284775
12361.074734	-1209.266667	1876.096680	-93.210602
12361.074734	-1209.266667	1875.109375	14.306944
12361.074734	-1209.266667	1874.122070	-42.826694
12361.074734	-1209.266667	1873.134766	-22.502176
12361.074734	-1209.266667	1872.146484	138.147232
12361.074734	-1209.266667	1871.159180	15.672091
12361.074734	-1209.266667	1870.170898	-104.350349
12361.074734	-1209.266667	1869.182617	-246.107239
12361.074734	-1209.266667	1868.194336	-95.258781
12361.074734	-1209.266667	1867.205078	79.691536
12361.074734	-1209.266667	1866.216797	-40.312038
12361.074734	-1209.266667	1865.227539	-82.960007
12361.074734	-1209.266667	1864.238281	-224.669922
12361.074734	-1209.266667	1863.249023	218.236847
12361.074734	-1209.266667	1862.259766	-121.561043
12361.074734	-1209.266667	1861.269531	-239.099426
12361.074734	-1209.266667	1860.279297	-120.017456
12361.074734	-1209.266667	1859.290039	-34.796043
12361.074734	-1209.266667	1858.298828	50.365597
12361.074734	-1209.266667	1857.308594	31.715378
12361.074734	-1209.266667	1856.318359	87.831703
12361.074734	-1209.266667	1855.327148	18.473536
12361.074734	-1209.266667	1854.335938	-5.068466
12361.074734	-1209.266667	1853.344727	34.057198
12361.074734	-1209.266667	1852.353516	63.494015
12361.074734	-1209.266667	1851.362305	223.038803
12361.074734	-1209.266667	1850.370117	61.992409
12361.074734	-1209.266667	1849.377930	-65.297745
12361.074734	-1209.266667	1848.385742	132.618500
12361.074734	-1209.266667	1847.393555	-86.227646
12361.074734	-1209.266667	1846.401367	29.673548
12361.074734	-1209.266667	1845.408203	68.451851
12361.074734	-1209.266667	1844.415039	20.523264
12361.074734	-1209.266667	1843.421875	109.747139
12361.074734	-1209.266667	1842.428711	-22.467367
12361.074734	-1209.266667	1841.435547	57.024281
12361.074734	-1209.266667	1840.441406	138.844849
12361.074734	-1209.266667	1839.448242	-19.884058
12361.074734	-1209.266667	1838.454102	18.552805
12361.074734	-1209.266667	1837.459961	131.448700
12361.074734	-1209.266667	1836.464844	-46.560074
12361.074734	-1209.266667	1835.470703	-8.282204
12361.074734	-1209.266667	1834.475586	145.249176
12361.074734	-1209.266667	1833.480469	101.703529
12361.074734	-1209.266667	1832.485352	178.203949
12361.074734	-1209.266667	1831.490234	259.425323
12361.074734	-1209.266667	1830.495117	287.746613
12361.074734	-1209.266667	1829.499023	215.191528
12361.074734	-1209.266667	1828.502930	-1.378776
12361.074734	-1209.266667	1827.506836	-37.973965
12361.074734	-1209.266667	1826.510742	35.737133
12361.074734	-1209.266667	1825.513672	80.577850
12361.074734	-1209.266667	1824.517578	43.814934
12361.074734	-1209.266667	1823.520508	107.698418
12361.074734	-1209.266667	1822.523438	104.379845
12361.074734	-1209.266667	1821.526367	55.465843
12361.074734	-1209.266667	1820.529297	121.523964
12361.074734	-1209.266667	1819.531250	12.603834
12361.074734	-1209.266667	1818.533203	25.819187
12361.074734	-1209.266667	1817.535156	161.100906
12361.074734	-1209.266667	1816.537109	152.603516
12361.074734	-1209.266667	1815.539063	38.712006
12361.074734	-1209.266667	1814.540039	32.498211
12361.074734	-1209.266667	1813.541992	-98.213043
12361.074734	-1209.266667	1812.542969	-8.833090
12361.074734	-1209.266667	1811.543945	310.085327
12361.074734	-1209.266667	1810.543945	23.723223
12361.074734	-1209.266667	1809.544922	158.252640
12361.074734	-1209.266667	1808.544922	194.635818
12361.074734	-1209.266667	1807.544922	75.563492
12361.074734	-1209.266667	1806.544922	243.244019
12361.074734	-1209.266667	1805.544922	38.043968
12361.074734	-1209.266667	1804.544922	320.189331
12361.074734	-1209.266667	1803.543945	48.021790
12361.074734	-1209.266667	1802.542969	110.205193
12361.074734	-1209.266667	1801.541992	-181.071579
12361.074734	-1209.266667	1800.541016	-56.955551
12361.074734	-1209.266667	1799.539063	62.259026
12361.074734	-1209.266667	1798.538086	76.362122
12361.074734	-1209.266667	1797.536133	68.904404
12361.074734	-1209.266667	1796.534180	35.131245
12361.074734	-1209.266667	1795.532227	-129.875793
12361.074734	-1209.266667	1794.529297	-113.688622
12361.074734	-1209.266667	1793.527344	9.694505
12361.074734	-1209.266667	1792.524414	49.522778
12361.074734	-1209.266667	1791.521484	39.209019
12361.074734	-1209.266667	1790.518555	250.401260
12361.074734	-1209.266667	1789.514648	-0.713919
12361.074734	-1209.266667	1788.511719	-25.548010
12361.074734	-1209.266667	1787.507813	128.131866
12361.074734	-1209.266667	1786.503906	103.110069
12361.074734	-1209.266667	1785.500000	-45.765091
12361.074734	-1209.266667	1784.496094	50.463104
12361.074734	-1209.266667	1783.491211	-15.239848
12361.074734	-1209.266667	1782.486328	2.263333
12361.074734	-1209.266667	1781.481445	-99.254181
12361.074734	-1209.266667	1780.476563	-10.569997
12361.074734	-1209.266667	1779.471680	249.184799
12361.074734	-1209.266667	1778.465820	190.204865
12361.074734	-1209.266667	1777.460938	52.732960
12361.074734	-1209.266667	1776.455078	-331.913696
12361.074734	-1209.266667	1775.449219	198.198761
12361.074734	-1209.266667	1774.442383	193.552795
12361.074734	-1209.266667	1773.436523	-39.167679
12361.074734	-1209.266667	1772.429688	17.795368
12361.074734	-1209.266667	1771.422852	48.533398
12361.074734	-1209.266667	1770.416016	50.688892
12361.074734	-1209.266667	1769.409180	43.262737
12361.074734	-1209.266667	1768.402344	47.614243
12361.074734	-1209.266667	1767.394531	-59.626144
12361.074734	-1209.266667	1766.386719	-43.581318
12361.074734	-1209.266667	1765.378906	-70.315758
12361.074734	-1209.266667	1764.371094	-156.400772
12361.074734	-1209.266667	1763.362305	117.756737
12361.074734	-1209.266667	1762.354492	26.751793
12361.074734	-1209.266667	1761.345703	151.312500
12361.074734	-1209.266667	1760.336914	26.982542
12361.074734	-1209.266667	1759.328125	-234.769257
12361.074734	-1209.266667	1758.318359	168.940872
12361.074734	-1209.266667	1757.308594	-88.187836
12361.074734	-1209.266667	1756.299805	26.362610
12361.074734	-1209.266667	1755.290039	178.642639
12361.074734	-1209.266667	1754.279297	4.206820
12361.074734	-1209.266667	1753.269531	265.088348
12361.074734	-1209.266667	1752.258789	-27.747746
12361.074734	-1209.266667	1751.249023	69.676407
12361.074734	-1209.266667	1750.238281	51.103851
12361.074734	-1209.266667	1749.226563	-130.684189
12361.074734	-1209.266667	1748.215820	-7.567693
12361.074734	-1209.266667	1747.204102	-35.841179
12361.074734	-1209.266667	1746.193359	-0.387209
12361.074734	-1209.266667	1745.181641	53.855865
12361.074734	-1209.266667	1744.168945	18.229891
12361.074734	-1209.266667	1743.157227	171.454376
12361.074734	-1209.266667	1742.144531	104.953827
12361.074734	-1209.266667	1741.132813	-15.889787
12361.074734	-1209.266667	1740.120117	-63.621014
12361.074734	-1209.266667	1739.106445	74.980980
12361.074734	-1209.266667	1738.093750	296.025238
12361.074734	-1209.266667	1737.080078	-16.180674
12361.074734	-1209.266667	1736.067383	91.429665
12361.074734	-1209.266667	1735.053711	-25.088408
12361.074734	-1209.266667	1734.040039	30.442135
12361.074734	-1209.266667	1733.025391	24.578222
12361.074734	-1209.266667	1732.011719	56.345921
12361.074734	-1209.266667	1730.997070	135.130096
12361.074734	-1209.266667	1729.982422	-160.734650
12361.074734	-1209.266667	1728.967773	30.940672
12361.074734	-1209.266667	1727.952148	-50.689674
12361.074734	-1209.266667	1726.937500	95.999832
12361.074734	-1209.266667	1725.921875	-32.849785
12361.074734	-1209.266667	1724.906250	-117.016769
12361.074734	-1209.266667	1723.890625	-158.880432
12361.074734	-1209.266667	1722.875000	-85.537865
12361.074734	-1209.266667	1721.858398	8.855295
12361.074734	-1209.266667	1720.841797	-7.388027
12361.074734	-1209.266667	1719.825195	-115.394173
12361.074734	-1209.266667	1718.808594	-185.825607
12361.074734	-1209.266667	1717.791992	32.763611
12361.074734	-1209.266667	1716.774414	-209.362518
12361.074734	-1209.266667	1715.756836	119.401344
12361.074734	-1209.266667	1714.739258	-68.775192
12361.074734	-1209.266667	1713.721680	-148.929535
12361.074734	-1209.266667	1712.704102	12.709520
12361.074734	-1209.266667	1711.685547	33.354916
12361.074734	-1209.266667	1710.667969	-96.278511
12361.074734	-1209.266667	1709.649414	-298.688477
12361.074734	-1209.266667	1708.630859	-41.251492
12361.074734	-1209.266667	1707.611328	-152.265594
12361.074734	-1209.266667	1706.592773	-340.687256
12361.074734	-1209.266667	1705.573242	73.490257
12361.074734	-1209.266667	1704.553711	-61.130810
12361.074734	-1209.266667	1703.534180	-97.325050
12361.074734	-1209.266667	1702.513672	-131.240311
12361.074734	-1209.266667	1701.494141	-101.934982
12361.074734	-1209.266667	1700.473633	-89.116737
12361.074734	-1209.266667	1699.453125	19.658836
12361.074734	-1209.266667	1698.432617	-66.026367
12361.074734	-1209.266667	1697.412109	-212.611923
12361.074734	-1209.266667	1696.390625	-97.052605
12361.074734	-1209.266667	1695.369141	-89.252365
12361.074734	-1209.266667	1694.347656	0.379515
12361.074734	-1209.266667	1693.326172	-22.372866
12361.074734	-1209.266667	1692.304688	240.174988
12361.074734	-1209.266667	1691.282227	142.425507
12361.074734	-1209.266667	1690.260742	79.740555
12361.074734	-1209.266667	1689.238281	313.884064
12361.074734	-1209.266667	1688.214844	339.865570
12361.074734	-1209.266667	1687.192383	340.092224
12361.074734	-1209.266667	1686.168945	36.543449
12361.074734	-1209.266667	1685.146484	200.228104
12361.074734	-1209.266667	1684.123047	76.540581
12361.074734	-1209.266667	1683.099609	359.118591
12361.074734	-1209.266667	1682.075195	134.955124
12361.074734	-1209.266667	1681.051758	253.937271
12361.074734	-1209.266667	1680.027344	78.789207
12361.074734	-1209.266667	1679.002930	524.261169
12361.074734	-1209.266667	1677.978516	454.004578
12361.074734	-1209.266667	1676.953125	409.371582
12361.074734	-1209.266667	1675.928711	259.797607
12361.074734	-1209.266667	1674.903320	196.483032
12361.074734	-1209.266667	1673.877930	377.889252
12361.074734	-1209.266667	1672.852539	419.362030
12361.074734	-1209.266667	1671.826172	318.640137
12361.074734	-1209.266667	1670.800781	509.117371
12361.074734	-1209.266667	1669.774414	338.470337
12361.074734	-1209.266667	1668.748047	521.797424
12361.074734	-1209.266667	1667.721680	777.192383
12361.074734	-1209.266667	1666.694336	587.850952
12361.074734	-1209.266667	1665.667969	877.974915
12361.074734	-1209.266667	1664.640625	628.126282
12361.074734	-1209.266667	1663.613281	478.375275
12361.074734	-1209.266667	1662.585938	561.241577
12361.074734	-1209.266667	1661.557617	802.163940
12361.074734	-1209.266667	1660.530273	691.905823
12361.074734	-1209.266667	1659.501953	683.928589
12361.074734	-1209.266667	1658.473633	915.311401
12361.074734	-1209.266667	1657.444336	828.227234
12361.074734	-1209.266667	1656.416016	880.558960
12361.074734	-1209.266667	1655.386719	1023.422058
12361.074734	-1209.266667	1654.358398	987.404541
12361.074734	-1209.266667	1653.328125	921.170715
12361.074734	-1209.266667	1652.298828	1172.989136
12361.074734	-1209.266667	1651.269531	1097.437256
12361.074734	-1209.266667	1650.239258	936.026917
12361.074734	-1209.266667	1649.208984	1173.712402
12361.074734	-1209.266667	1648.178711	1255.878662
12361.074734	-1209.266667	1647.148438	1224.360718
12361.074734	-1209.266667	1646.117188	921.540833
12361.074734	-1209.266667	1645.086914	1196.087891
12361.074734	-1209.266667	1644.055664	1164.554077
12361.074734	-1209.266667	1643.024414	1288.286011
12361.074734	-1209.266667	1641.992188	1272.937500
12361.074734	-1209.266667	1640.960938	1206.637329
12361.074734	-1209.266667	1639.928711	1351.102783
12361.074734	-1209.266667	1638.896484	1507.085815
12361.074734	-1209.266667	1637.864258	1415.287964
12361.074734	-1209.266667	1636.832031	1508.698608
12361.074734	-1209.266667	1635.798828	1565.031860
12361.074734	-1209.266667	1634.766602	1665.318115
12361.074734	-1209.266667	1633.733398	1770.181763
12361.074734	-1209.266667	1632.699219	1856.491089
12361.074734	-1209.266667	1631.666016	1665.294189
12361.074734	-1209.266667	1630.632813	1820.974976
12361.074734	-1209.266667	1629.598633	1694.579712
12361.074734	-1209.266667	1628.564453	2009.658325
12361.074734	-1209.266667	1627.530273	1855.567627
12361.074734	-1209.266667	1626.495117	1925.619141
12361.074734	-1209.266667	1625.460938	2129.634521
12361.074734	-1209.266667	1624.425781	2042.599365
12361.074734	-1209.266667	1623.390625	2184.188721
12361.074734	-1209.266667	1622.355469	2124.907471
12361.074734	-1209.266667	1621.319336	2134.889893
12361.074734	-1209.266667	1620.284180	2207.201416
12361.074734	-1209.266667	1619.248047	2062.630615
12361.074734	-1209.266667	1618.211914	2102.660889
12361.074734	-1209.266667	1617.174805	2170.358398
12361.074734	-1209.266667	1616.138672	2039.776001
12361.074734	-1209.266667	1615.101563	2056.791016
12361.074734	-1209.266667	1614.065430	2087.665283
12361.074734	-1209.266667	1613.027344	2388.135742
12361.074734	-1209.266667	1611.990234	2232.356689
12361.074734	-1209.266667	1610.953125	2265.552002
12361.074734	-1209.266667	1609.915039	2183.598877
12361.074734	-1209.266667	1608.876953	2626.691162
12361.074734	-1209.266667	1607.838867	2376.710938
12361.074734	-1209.266667	1606.800781	2223.530273
12361.074734	-1209.266667	1605.761719	2309.754883
12361.074734	-1209.266667	1604.723633	2593.860596
12361.074734	-1209.266667	1603.684570	2634.045898
12361.074734	-1209.266667	1602.644531	2412.057861
12361.074734	-1209.266667	1601.605469	2162.614746
12361.074734	-1209.266667	1600.566406	2094.927490
12361.074734	-1209.266667	1599.526367	2151.414307
12361.074734	-1209.266667	1598.486328	2403.257080
12361.074734	-1209.266667	1597.446289	2443.666016
12361.074734	-1209.266667	1596.405273	2093.572754
12361.074734	-1209.266667	1595.365234	2085.886475
12361.074734	-1209.266667	1594.324219	1958.831665
12361.074734	-1209.266667	1593.283203	2196.909912
12361.074734	-1209.266667	1592.242188	2304.108643
12361.074734	-1209.266667	1591.200195	2060.180420
12361.074734	-1209.266667	1590.159180	2107.811279
12361.074734	-1209.266667	1589.117188	2173.815430
12361.074734	-1209.266667	1588.075195	2409.573730
12361.074734	-1209.266667	1587.032227	2090.344482
12361.074734	-1209.266667	1585.990234	2122.090576
12361.074734	-1209.266667	1584.947266	2163.037109
12361.074734	-1209.266667	1583.904297	2389.661865
12361.074734	-1209.266667	1582.861328	2304.636230
12361.074734	-1209.266667	1581.818359	2480.865234
12361.074734	-1209.266667	1580.775391	2286.035645
12361.074734	-1209.266667	1579.731445	2228.734131
12361.074734	-1209.266667	1578.687500	2013.540527
12361.074734	-1209.266667	1577.643555	1942.711426
12361.074734	-1209.266667	1576.598633	2146.599609
12361.074734	-1209.266667	1575.554688	2215.485107
12361.074734	-1209.266667	1574.509766	2057.912354
12361.074734	-1209.266667	1573.464844	2319.048340
12361.074734	-1209.266667	1572.419922	2399.489502
12361.074734	-1209.266667	1571.374023	2235.317871
12361.074734	-1209.266667	1570.329102	2165.015381
12361.074734	-1209.266667	1569.283203	2254.791504
12361.074734	-1209.266667	1568.237305	2020.126953
12361.074734	-1209.266667	1567.191406	2000.384155
12361.074734	-1209.266667	1566.144531	2163.449951
12361.074734	-1209.266667	1565.098633	2139.274170
12361.074734	-1209.266667	1564.051758	2147.141602
12361.074734	-1209.266667	1563.004883	1997.573242
12361.074734	-1209.266667	1561.957031	1928.016968
12361.074734	-1209.266667	1560.910156	1929.318604
12361.074734	-1209.266667	1559.862305	1793.806030
12361.074734	-1209.266667	1558.814453	1738.265991
12361.074734	-1209.266667	1557.766602	1865.277588
12361.074734	-1209.266667	1556.718750	1793.954956
12361.074734	-1209.266667	1555.669922	1727.296875
12361.074734	-1209.266667	1554.621094	1489.810303
12361.074734	-1209.266667	1553.573242	1612.564575
12361.074734	-1209.266667	1552.523438	1689.771606
12361.074734	-1209.266667	1551.474609	1543.818848
12361.074734	-1209.266667	1550.424805	1300.074585
12361.074734	-1209.266667	1549.375000	1555.178223
12361.074734	-1209.266667	1548.325195	1553.027222
12361.074734	-1209.266667	1547.275391	1323.362549
12361.074734	-1209.266667	1546.225586	1230.421265
12361.074734	-1209.266667	1545.174805	1337.820190
12361.074734	-1209.266667	1544.124023	1308.790161
12361.074734	-1209.266667	1543.073242	1282.144409
12361.074734	-1209.266667	1542.022461	1269.248779
12361.074734	-1209.266667	1540.970703	933.626892
12361.074734	-1209.266667	1539.919922	1255.130737
12361.074734	-1209.266667	1538.868164	1274.357178
12361.074734	-1209.266667	1537.815430	1468.617798
12361.074734	-1209.266667	1536.763672	1060.937866
12361.074734	-1209.266667	1535.710938	1105.473511
12361.074734	-1209.266667	1534.659180	1175.083496
12361.074734	-1209.266667	1533.606445	985.951782
12361.074734	-1209.266667	1532.552734	917.294006
12361.074734	-1209.266667	1531.500000	916.857056
12361.074734	-1209.266667	1530.446289	698.706299
12361.074734	-1209.266667	1529.393555	1066.023682
12361.074734	-1209.266667	1528.338867	947.931763
12361.074734	-1209.266667	1527.285156	1009.141296
12361.074734	-1209.266667	1526.231445	802.916931
12361.074734	-1209.266667	1525.176758	1000.347839
12361.074734	-1209.266667	1524.122070	762.695862
12361.074734	-1209.266667	1523.067383	672.526001
12361.074734	-1209.266667	1522.012695	528.137756
12361.074734	-1209.266667	1520.957031	671.552368
12361.074734	-1209.266667	1519.901367	726.714722
12361.074734	-1209.266667	1518.845703	417.467285
12361.074734	-1209.266667	1517.790039	524.949158
12361.074734	-1209.266667	1516.734375	390.354309
12361.074734	-1209.266667	1515.677734	246.872498
12361.074734	-1209.266667	1514.621094	327.524170
12361.074734	-1209.266667	1513.564453	390.167297
12361.074734	-1209.266667	1512.507813	79.790619
12361.074734	-1209.266667	1511.450195	104.258163
12361.074734	-1209.266667	1510.393555	259.943085
12361.074734	-1209.266667	1509.335938	196.467514
12361.074734	-1209.266667	1508.278320	200.923462
12361.074734	-1209.266667	1507.219727	144.497650
12361.074734	-1209.266667	1506.162109	65.636444
12361.074734	-1209.266667	1505.103516	108.867188
12361.074734	-1209.266667	1504.044922	-30.673685
12361.074734	-1209.266667	1502.986328	-138.431107
12361.074734	-1209.266667	1501.926758	-45.170975
12361.074734	-1209.266667	1500.868164	-46.584827
12361.074734	-1209.266667	1499.808594	-81.716492
12361.074734	-1209.266667	1498.749023	-267.825684
12361.074734	-1209.266667	1497.688477	-140.288239
12361.074734	-1209.266667	1496.628906	-105.110161
12361.074734	-1209.266667	1495.568359	-157.733780
12361.074734	-1209.266667	1494.507813	-156.121490
12361.074734	-1209.266667	1493.447266	-255.776886
12361.074734	-1209.266667	1492.386719	-244.877457
12361.074734	-1209.266667	1491.325195	-107.725105
12361.074734	-1209.266667	1490.263672	-80.843307
12361.074734	-1209.266667	1489.202148	-400.564819
12361.074734	-1209.266667	1488.140625	-123.513435
12361.074734	-1209.266667	1487.079102	-26.488731
12361.074734	-1209.266667	1486.016602	-5.877046
12361.074734	-1209.266667	1484.954102	-237.104858
12361.074734	-1209.266667	1483.891602	-27.263769
12361.074734	-1209.266667	1482.829102	-102.970787
12361.074734	-1209.266667	1481.765625	111.508301
12361.074734	-1209.266667	1480.702148	202.406647
12361.074734	-1209.266667	1479.638672	77.642357
12361.074734	-1209.266667	1478.575195	350.760498
12361.074734	-1209.266667	1477.511719	145.364700
12361.074734	-1209.266667	1476.447266	-32.757515
12361.074734	-1209.266667	1475.382813	63.251312
12361.074734	-1209.266667	1474.318359	71.750648
12361.074734	-1209.266667	1473.253906	174.639008
12361.074734	-1209.266667	1472.189453	62.242638
12361.074734	-1209.266667	1471.124023	273.125000
12361.074734	-1209.266667	1470.058594	335.931915
12361.074734	-1209.266667	1468.993164	347.194702
12361.074734	-1209.266667	1467.927734	325.108704
12361.074734	-1209.266667	1466.861328	377.022949
12361.074734	-1209.266667	1465.794922	433.828888
12361.074734	-1209.266667	1464.728516	336.049927
12361.074734	-1209.266667	1463.662109	357.223145
12361.074734	-1209.266667	1462.594727	500.823059
12361.074734	-1209.266667	1461.528320	493.193604
12361.074734	-1209.266667	1460.460938	557.367920
12361.074734	-1209.266667	1459.393555	811.068665
12361.074734	-1209.266667	1458.326172	498.936371
12361.074734	-1209.266667	1457.257813	670.885559
12361.074734	-1209.266667	1456.189453	668.007629
12361.074734	-1209.266667	1455.121094	551.230164
12361.074734	-1209.266667	1454.052734	593.004211
12361.074734	-1209.266667	1452.984375	658.171387
12361.074734	-1209.266667	1451.915039	714.221130
12361.074734	-1209.266667	1450.845703	715.417847
12361.074734	-1209.266667	1449.776367	961.222290
12361.074734	-1209.266667	1448.707031	578.886292
12361.074734	-1209.266667	1447.636719	798.575378
12361.074734	-1209.266667	1446.567383	659.748962
12361.074734	-1209.266667	1445.497070	751.779541
12361.074734	-1209.266667	1444.425781	610.372192
12361.074734	-1209.266667	1443.355469	580.782532
12361.074734	-1209.266667	1442.285156	561.938049
12361.074734	-1209.266667	1441.213867	481.858398
12361.074734	-1209.266667	1440.142578	672.832214
12361.074734	-1209.266667	1439.070313	606.393066
12361.074734	-1209.266667	1437.999023	610.734680
12361.074734	-1209.266667	1436.926758	707.440369
12361.074734	-1209.266667	1435.854492	581.415283
12361.074734	-1209.266667	1434.782227	391.260742
12361.074734	-1209.266667	1433.709961	591.812256
12361.074734	-1209.266667	1432.636719	389.022125
12361.074734	-1209.266667	1431.563477	329.925903
12361.074734	-1209.266667	1430.490234	446.404053
12361.074734	-1209.266667	1429.416992	512.454285
12361.074734	-1209.266667	1428.343750	453.304626
12361.074734	-1209.266667	1427.269531	480.911865
12361.074734	-1209.266667	1426.195313	182.324570
12361.074734	-1209.266667	1425.121094	143.026672
12361.074734	-1209.266667	1424.046875	120.304840
12361.074734	-1209.266667	1422.971680	-9.860352
12361.074734	-1209.266667	1421.896484	61.897522
12361.074734	-1209.266667	1420.821289	-0.877089
12361.074734	-1209.266667	1419.746094	-94.909264
12361.074734	-1209.266667	1418.669922	8.367920
12361.074734	-1209.266667	1417.594727	-53.321365
12361.074734	-1209.266667	1416.518555	187.266693
12361.074734	-1209.266667	1415.442383	49.898140
12361.074734	-1209.266667	1414.365234	305.386414
12361.074734	-1209.266667	1413.289063	226.804367
12361.074734	-1209.266667	1412.211914	291.730652
12361.074734	-1209.266667	1411.134766	201.366333
12361.074734	-1209.266667	1410.057617	197.933563
12361.074734	-1209.266667	1408.979492	155.679855
12361.074734	-1209.266667	1407.902344	114.723755
12361.074734	-1209.266667	1406.824219	208.978958
12361.074734	-1209.266667	1405.746094	89.196777
12361.074734	-1209.266667	1404.666992	127.884903
12361.074734	-1209.266667	1403.588867	153.989090
12361.074734	-1209.266667	1402.509766	139.179733
12361.074734	-1209.266667	1401.430664	318.479126
12361.074734	-1209.266667	1400.351563	360.242126
12361.074734	-1209.266667	1399.271484	235.213242
12361.074734	-1209.266667	1398.192383	429.081207
12361.074734	-1209.266667	1397.112305	272.695251
12361.074734	-1209.266667	1396.031250	260.515900
12361.074734	-1209.266667	1394.951172	240.190262
12361.074734	-1209.266667	1393.871094	486.498199
12361.074734	-1209.266667	1392.790039	425.548065
12361.074734	-1209.266667	1391.708984	240.665848
12361.074734	-1209.266667	1390.626953	175.114380
12361.074734	-1209.266667	1389.545898	95.631485
12361.074734	-1209.266667	1388.463867	232.308167
12361.074734	-1209.266667	1387.381836	240.157425
12361.074734	-1209.266667	1386.299805	345.672638
12361.074734	-1209.266667	1385.217773	415.431183
12361.074734	-1209.266667	1384.134766	523.466003
12361.074734	-1209.266667	1383.051758	593.473267
12361.074734	-1209.266667	1381.968750	599.774414
12361.074734	-1209.266667	1380.885742	850.091370
12361.074734	-1209.266667	1379.802734	611.544434
12361.074734	-1209.266667	1378.718750	361.245026
12361.074734	-1209.266667	1377.634766	695.515808
12361.074734	-1209.266667	1376.550781	522.277893
12361.074734	-1209.266667	1375.465820	459.978851
12361.074734	-1209.266667	1374.381836	686.726807
12361.074734	-1209.266667	1373.296875	628.275513
12361.074734	-1209.266667	1372.211914	717.575928
12361.074734	-1209.266667	1371.126953	589.469055
12361.074734	-1209.266667	1370.041016	581.375549
12361.074734	-1209.266667	1368.955078	835.461121
12361.074734	-1209.266667	1367.869141	812.050964
12361.074734	-1209.266667	1366.783203	790.739929
12361.074734	-1209.266667	1365.697266	903.818115
12361.074734	-1209.266667	1364.610352	639.984131
12361.074734	-1209.266667	1363.523438	833.151001
12361.074734	-1209.266667	1362.436523	662.167419
12361.074734	-1209.266667	1361.349609	414.124420
12361.074734	-1209.266667	1360.261719	571.160095
12361.074734	-1209.266667	1359.174805	445.971924
12361.074734	-1209.266667	1358.086914	579.464294
12361.074734	-1209.266667	1356.998047	510.185394
12361.074734	-1209.266667	1355.910156	484.921906
12361.074734	-1209.266667	1354.821289	449.268158
12361.074734	-1209.266667	1353.732422	507.441284
12361.074734	-1209.266667	1352.643555	412.629730
12361.074734	-1209.266667	1351.554688	409.660645
12361.074734	-1209.266667	1350.464844	449.758911
12361.074734	-1209.266667	1349.375000	607.539673
12361.074734	-1209.266667	1348.285156	182.840820
12361.074734	-1209.266667	1347.195313	339.912354
12361.074734	-1209.266667	1346.105469	487.758179
12361.074734	-1209.266667	1345.014648	291.271423
12361.074734	-1209.266667	1343.923828	503.362762
12361.074734	-1209.266667	1342.833008	614.979431
12361.074734	-1209.266667	1341.741211	606.910339
12361.074734	-1209.266667	1340.650391	681.344299
12361.074734	-1209.266667	1339.558594	516.838623
12361.074734	-1209.266667	1338.466797	598.138550
12361.074734	-1209.266667	1337.374023	772.231445
12361.074734	-1209.266667	1336.282227	611.004883
12361.074734	-1209.266667	1335.189453	826.163147
12361.074734	-1209.266667	1334.096680	1163.117188
12361.074734	-1209.266667	1333.003906	1204.977295
12361.074734	-1209.266667	1331.910156	1215.445923
12361.074734	-1209.266667	1330.817383	1403.671875
12361.074734	-1209.266667	1329.723633	1865.963379
12361.074734	-1209.266667	1328.629883	1855.893188
12361.074734	-1209.266667	1327.535156	1952.484375
12361.074734	-1209.266667	1326.441406	2161.191895
12361.074734	-1209.266667	1325.346680	2113.619141
12361.074734	-1209.266667	1324.251953	1987.612549
12361.074734	-1209.266667	1323.156250	2010.730103
12361.074734	-1209.266667	1322.061523	1656.742798
12361.074734	-1209.266667	1320.965820	1650.608276
12361.074734	-1209.266667	1319.870117	1636.586304
12361.074734	-1209.266667	1318.774414	1454.369141
12361.074734	-1209.266667	1317.678711	1406.817139
12361.074734	-1209.266667	1316.582031	1563.029907
12361.074734	-1209.266667	1315.485352	1297.808228
12361.074734	-1209.266667	1314.388672	1320.303101
12361.074734	-1209.266667	1313.291016	1151.223877
12361.074734	-1209.266667	1312.194336	1256.908813
12361.074734	-1209.266667	1311.096680	1208.216797
12361.074734	-1209.266667	1309.999023	1205.784180
12361.074734	-1209.266667	1308.901367	1147.727051
12361.074734	-1209.266667	1307.802734	1027.045654
12361.074734	-1209.266667	1306.705078	1009.357422
12361.074734	-1209.266667	1305.606445	845.932495
12361.074734	-1209.266667	1304.506836	779.586426
12361.074734	-1209.266667	1303.408203	833.212585
12361.074734	-1209.266667	1302.308594	771.923279
12361.074734	-1209.266667	1301.208984	696.012817
12361.074734	-1209.266667	1300.109375	764.478210
12361.074734	-1209.266667	1299.009766	794.183472
12361.074734	-1209.266667	1297.909180	749.294434
12361.074734	-1209.266667	1296.808594	796.961548
12361.074734	-1209.266667	1295.708008	868.734558
12361.074734	-1209.266667	1294.607422	742.535339
12361.074734	-1209.266667	1293.506836	516.374451
12361.074734	-1209.266667	1292.405273	372.076813
12361.074734	-1209.266667	1291.303711	400.508820
12361.074734	-1209.266667	1290.202148	352.339233
12361.074734	-1209.266667	1289.099609	395.672424
12361.074734	-1209.266667	1287.998047	305.735046
12361.074734	-1209.266667	1286.895508	216.577606
12361.074734	-1209.266667	1285.792969	195.163010
12361.074734	-1209.266667	1284.689453	67.705986
12361.074734	-1209.266667	1283.586914	330.188904
12361.074734	-1209.266667	1282.483398	244.778687
12361.074734	-1209.266667	1281.379883	233.463516
12361.074734	-1209.266667	1280.276367	73.048004
12361.074734	-1209.266667	1279.171875	110.135643
12361.074734	-1209.266667	1278.067383	97.275139
12361.074734	-1209.266667	1276.962891	-18.736708
12361.074734	-1209.266667	1275.858398	-73.411690
12361.074734	-1209.266667	1274.753906	18.044062
12361.074734	-1209.266667	1273.648438	68.162811
12361.074734	-1209.266667	1272.542969	7.275459
12361.074734	-1209.266667	1271.437500	119.888763
12361.074734	-1209.266667	1270.331055	-203.806763
12361.074734	-1209.266667	1269.225586	29.311590
12361.074734	-1209.266667	1268.119141	19.977442
12361.074734	-1209.266667	1267.012695	-135.495911
12361.074734	-1209.266667	1265.906250	-59.590961
12361.074734	-1209.266667	1264.798828	-52.685528
12361.074734	-1209.266667	1263.691406	-77.047379
12361.074734	-1209.266667	1262.583984	-32.379677
12361.074734	-1209.266667	1261.476563	10.773591
12361.074734	-1209.266667	1260.368164	-11.335519
12361.074734	-1209.266667	1259.260742	132.166718
12361.074734	-1209.266667	1258.152344	-70.300522
12361.074734	-1209.266667	1257.043945	-190.666092
12361.074734	-1209.266667	1255.934570	-53.804916
12361.074734	-1209.266667	1254.825195	-58.991535
12361.074734	-1209.266667	1253.716797	184.709488
12361.074734	-1209.266667	1252.606445	149.496674
12361.074734	-1209.266667	1251.497070	-49.183964
12361.074734	-1209.266667	1250.387695	11.687194
12361.074734	-1209.266667	1249.277344	-63.218887
12361.074734	-1209.266667	1248.166992	45.433670
12361.074734	-1209.266667	1247.055664	58.305065
12361.074734	-1209.266667	1245.945313	273.901093
12361.074734	-1209.266667	1244.833984	-27.876760
12361.074734	-1209.266667	1243.722656	123.935326
12361.074734	-1209.266667	1242.611328	-87.807121
12361.074734	-1209.266667	1241.499023	117.803123
12361.074734	-1209.266667	1240.387695	47.169498
12361.074734	-1209.266667	1239.275391	-106.241257
12361.074734	-1209.266667	1238.162109	-15.964294
12361.074734	-1209.266667	1237.049805	-149.351898
12361.074734	-1209.266667	1235.936523	195.081116
12361.074734	-1209.266667	1234.823242	184.331039
12361.074734	-1209.266667	1233.709961	134.406723
12361.074734	-1209.266667	1232.596680	79.386406
12361.074734	-1209.266667	1231.482422	-69.236923
12361.074734	-1209.266667	1230.369141	-8.959759
12361.074734	-1209.266667	1229.253906	-212.582596
12361.074734	-1209.266667	1228.139648	-279.732483
12361.074734	-1209.266667	1227.025391	-281.922211
12361.074734	-1209.266667	1225.910156	-140.239944
12361.074734	-1209.266667	1224.794922	-12.047545
12361.074734	-1209.266667	1223.679688	-110.151505
12361.074734	-1209.266667	1222.563477	-220.549225
12361.074734	-1209.266667	1221.447266	-96.721573
12361.074734	-1209.266667	1220.331055	-149.620544
12361.074734	-1209.266667	1219.214844	-76.062401
12361.074734	-1209.266667	1218.098633	-206.151443
12361.074734	-1209.266667	1216.981445	-167.355896
12361.074734	-1209.266667	1215.864258	-122.306854
12361.074734	-1209.266667	1214.747070	-162.908401
12361.074734	-1209.266667	1213.629883	-140.481659
12361.074734	-1209.266667	1212.511719	-136.185349
12361.074734	-1209.266667	1211.393555	-62.640667
12361.074734	-1209.266667	1210.275391	-81.739944
12361.074734	-1209.266667	1209.157227	-97.144089
12361.074734	-1209.266667	1208.038086	46.855190
12361.074734	-1209.266667	1206.918945	9.404501
12361.074734	-1209.266667	1205.799805	-41.933403
12361.074734	-1209.266667	1204.680664	122.746033
12361.074734	-1209.266667	1203.560547	-196.121490
12361.074734	-1209.266667	1202.441406	-89.867523
12361.074734	-1209.266667	1201.321289	117.731560
12361.074734	-1209.266667	1200.200195	26.428865
12361.074734	-1209.266667	1199.080078	34.826694
12361.074734	-1209.266667	1197.958984	-38.532204
12361.074734	-1209.266667	1196.837891	37.380074
12361.074734	-1209.266667	1195.716797	-7.452745
12361.074734	-1209.266667	1194.594727	-68.071815
12361.074734	-1209.266667	1193.473633	23.980152
12361.074734	-1209.266667	1192.351563	-124.270134
12361.074734	-1209.266667	1191.229492	-90.004456
12361.074734	-1209.266667	1190.106445	-53.754364
12361.074734	-1209.266667	1188.984375	-209.756485
12361.074734	-1209.266667	1187.861328	-206.376068
12361.074734	-1209.266667	1186.738281	-184.848373
12361.074734	-1209.266667	1185.614258	-192.343811
12361.074734	-1209.266667	1184.491211	-60.136635
12361.074734	-1209.266667	1183.367188	-199.811218
12361.074734	-1209.266667	1182.243164	-242.114319
12361.074734	-1209.266667	1181.119141	-101.535736
12361.074734	-1209.266667	1179.994141	-128.412094
12361.074734	-1209.266667	1178.869141	-45.420601
12361.074734	-1209.266667	1177.744141	-100.296165
12361.074734	-1209.266667	1176.619141	-307.797089
12361.074734	-1209.266667	1175.493164	-75.896919
12361.074734	-1209.266667	1174.368164	-54.690159
12361.074734	-1209.266667	1173.242188	-77.902695
12361.074734	-1209.266667	1172.115234	-126.648438
12361.074734	-1209.266667	1170.989258	-37.724682
12361.074734	-1209.266667	1169.862305	74.032028
12361.074734	-1209.266667	1168.735352	-30.881130
12361.074734	-1209.266667	1167.608398	155.338135
12361.074734	-1209.266667	1166.481445	78.069305
12361.074734	-1209.266667	1165.353516	46.210476
12361.074734	-1209.266667	1164.225586	132.904602
12361.074734	-1209.266667	1163.097656	29.533138
12361.074734	-1209.266667	1161.968750	152.176651
12361.074734	-1209.266667	1160.840820	44.474548
12361.074734	-1209.266667	1159.711914	89.719185
12361.074734	-1209.266667	1158.583008	-22.322124
12361.074734	-1209.266667	1157.453125	3.967137
12361.074734	-1209.266667	1156.324219	15.250317
12361.074734	-1209.266667	1155.194336	78.381836
12361.074734	-1209.266667	1154.064453	-94.239853
12361.074734	-1209.266667	1152.933594	-73.846100
12361.074734	-1209.266667	1151.803711	-56.053303
12361.074734	-1209.266667	1150.672852	-53.069019
12361.074734	-1209.266667	1149.541992	85.309204
12361.074734	-1209.266667	1148.411133	-87.230431
12361.074734	-1209.266667	1147.279297	-192.165634
12361.074734	-1209.266667	1146.147461	-71.163864
12361.074734	-1209.266667	1145.015625	-11.727309
12361.074734	-1209.266667	1143.883789	-34.212639
12361.074734	-1209.266667	1142.750977	81.427597
12361.074734	-1209.266667	1141.619141	-79.249878
12361.074734	-1209.266667	1140.486328	-67.197838
12361.074734	-1209.266667	1139.352539	-3.038725
12361.074734	-1209.266667	1138.219727	123.301186
12361.074734	-1209.266667	1137.085938	143.303345
12361.074734	-1209.266667	1135.952148	169.554855
12361.074734	-1209.266667	1134.818359	68.306572
12361.074734	-1209.266667	1133.683594	287.935577
12361.074734	-1209.266667	1132.549805	339.574890
12361.074734	-1209.266667	1131.415039	405.717072
12361.074734	-1209.266667	1130.279297	362.552246
12361.074734	-1209.266667	1129.144531	473.147461
12361.074734	-1209.266667	1128.008789	437.356201
12361.074734	-1209.266667	1126.873047	388.912750
12361.074734	-1209.266667	1125.737305	377.702698
12361.074734	-1209.266667	1124.601563	399.004364
12361.074734	-1209.266667	1123.464844	302.139587
12361.074734	-1209.266667	1122.328125	441.801880
12361.074734	-1209.266667	1121.191406	158.269547
12361.074734	-1209.266667	1120.054688	194.459518
12361.074734	-1209.266667	1118.916992	287.805786
12361.074734	-1209.266667	1117.779297	120.871300
12361.074734	-1209.266667	1116.641602	220.166779
12361.074734	-1209.266667	1115.503906	204.987167
12361.074734	-1209.266667	1114.365234	281.732025
12361.074734	-1209.266667	1113.226563	229.238037
12361.074734	-1209.266667	1112.087891	254.181992
12361.074734	-1209.266667	1110.949219	53.278770
12361.074734	-1209.266667	1109.809570	426.282227
12361.074734	-1209.266667	1108.669922	79.049820
12361.074734	-1209.266667	1107.530273	129.429306
12361.074734	-1209.266667	1106.390625	189.220566
12361.074734	-1209.266667	1105.250000	361.240662
12361.074734	-1209.266667	1104.109375	294.531982
12361.074734	-1209.266667	1102.968750	329.358307
12361.074734	-1209.266667	1101.828125	105.389641
12361.074734	-1209.266667	1100.686523	444.171387
12361.074734	-1209.266667	1099.544922	358.334076
12361.074734	-1209.266667	1098.403320	278.000916
12361.074734	-1209.266667	1097.261719	322.800964
12361.074734	-1209.266667	1096.120117	65.839874
12361.074734	-1209.266667	1094.977539	249.041595
12361.074734	-1209.266667	1093.834961	391.048798
12361.074734	-1209.266667	1092.691406	276.341003
12361.074734	-1209.266667	1091.548828	53.058277
12361.074734	-1209.266667	1090.405273	271.272766
12361.074734	-1209.266667	1089.261719	188.154739
12361.074734	-1209.266667	1088.118164	503.602875
12361.074734	-1209.266667	1086.973633	311.542694
12361.074734	-1209.266667	1085.829102	243.024582
12361.074734	-1209.266667	1084.684570	151.069321
12361.074734	-1209.266667	1083.540039	211.796295
12361.074734	-1209.266667	1082.395508	271.789764
12361.074734	-1209.266667	1081.250000	177.997437
12361.074734	-1209.266667	1080.104492	243.767944
12361.074734	-1209.266667	1078.958984	232.391586
12361.074734	-1209.266667	1077.812500	151.344254
12361.074734	-1209.266667	1076.666016	165.576340
12361.074734	-1209.266667	1075.519531	108.197525
12361.074734	-1209.266667	1074.373047	368.703247
12361.074734	-1209.266667	1073.226563	366.906311
12361.074734	-1209.266667	1072.079102	361.647614
12361.074734	-1209.266667	1070.931641	411.916931
12361.074734	-1209.266667	1069.784180	296.401093
12361.074734	-1209.266667	1068.635742	239.190842
12361.074734	-1209.266667	1067.487305	158.610123
12361.074734	-1209.266667	1066.338867	244.219879
12361.074734	-1209.266667	1065.190430	283.838837
12361.074734	-1209.266667	1064.041992	251.468369
12361.074734	-1209.266667	1062.892578	359.059265
12361.074734	-1209.266667	1061.743164	216.686783
12361.074734	-1209.266667	1060.593750	418.288879
12361.074734	-1209.266667	1059.443359	395.576874
12361.074734	-1209.266667	1058.292969	345.099915
12361.074734	-1209.266667	1057.142578	135.652344
12361.074734	-1209.266667	1055.992188	222.349884
12361.074734	-1209.266667	1054.841797	70.132385
12361.074734	-1209.266667	1053.690430	83.968811
12361.074734	-1209.266667	1052.539063	80.299194
12361.074734	-1209.266667	1051.387695	237.855469
12361.074734	-1209.266667	1050.235352	41.101509
12361.074734	-1209.266667	1049.083984	257.188019
12361.074734	-1209.266667	1047.931641	-60.293621
12361.074734	-1209.266667	1046.778320	-23.758150
12361.074734	-1209.266667	1045.625977	15.519689
12361.074734	-1209.266667	1044.472656	74.545021
12361.074734	-1209.266667	1043.319336	60.510334
12361.074734	-1209.266667	1042.166016	141.275528
12361.074734	-1209.266667	1041.012695	222.587189
12361.074734	-1209.266667	1039.858398	174.635376
12361.074734	-1209.266667	1038.704102	47.232922
12361.074734	-1209.266667	1037.549805	-4.872562
12361.074734	-1209.266667	1036.394531	-29.896448
12361.074734	-1209.266667	1035.239258	-38.946617
12361.074734	-1209.266667	1034.083984	139.298767
12361.074734	-1209.266667	1032.928711	70.520905
12361.074734	-1209.266667	1031.773438	263.678345
12361.074734	-1209.266667	1030.617188	192.532104
12361.074734	-1209.266667	1029.460938	138.672791
12361.074734	-1209.266667	1028.304688	292.037476
12361.074734	-1209.266667	1027.147461	187.451492
12361.074734	-1209.266667	1025.991211	180.123291
12361.074734	-1209.266667	1024.833984	149.734131
12361.074734	-1209.266667	1023.675781	285.486633
12361.074734	-1209.266667	1022.518555	271.511383
12361.074734	-1209.266667	1021.360352	262.898621
12361.074734	-1209.266667	1020.202148	341.972687
12361.074734	-1209.266667	1019.043945	352.612213
12361.074734	-1209.266667	1017.884766	179.943848
12361.074734	-1209.266667	1016.726563	23.476645
12361.074734	-1209.266667	1015.567383	58.808182
12361.074734	-1209.266667	1014.407227	-75.651886
12361.074734	-1209.266667	1013.248047	-17.404047
12361.074734	-1209.266667	1012.087891	68.028923
12361.074734	-1209.266667	1010.927734	-18.132690
12361.074734	-1209.266667	1009.767578	175.937912
12361.074734	-1209.266667	1008.606445	-123.286140
12361.074734	-1209.266667	1007.446289	5.493886
12361.074734	-1209.266667	1006.285156	-54.734421
12361.074734	-1209.266667	1005.123047	-9.282070
12361.074734	-1209.266667	1003.961914	19.142096
12361.074734	-1209.266667	1002.799805	54.227604
12361.074734	-1209.266667	1001.637695	155.792725
12361.074734	-1209.266667	1000.475586	156.277542
12361.074734	-1209.266667	999.312500	-143.402679
12361.074734	-1209.266667	998.149414	168.490326
12361.074734	-1209.266667	996.986328	122.639854
12361.074734	-1209.266667	995.823242	-59.002312
12361.074734	-1209.266667	994.659180	-43.269093
12361.074734	-1209.266667	993.496094	-184.891174
12361.074734	-1209.266667	992.332031	-95.178642
12361.074734	-1209.266667	991.166992	3.904197
12361.074734	-1209.266667	990.002930	-278.740326
12361.074734	-1209.266667	988.837891	-111.758430
12361.074734	-1209.266667	987.672852	122.180290
12361.074734	-1209.266667	986.506836	26.924339
12361.074734	-1209.266667	985.341797	-100.582710
12361.074734	-1209.266667	984.175781	-74.286140
12361.074734	-1209.266667	983.009766	64.554741
12361.074734	-1209.266667	981.843750	-115.012558
12361.074734	-1209.266667	980.676758	-175.250015
12361.074734	-1209.266667	979.509766	-208.367081
12361.074734	-1209.266667	978.342773	-192.555496
12361.074734	-1209.266667	977.175781	-158.891754
12361.074734	-1209.266667	976.007813	-126.767845
12361.074734	-1209.266667	974.839844	-35.109886
12361.074734	-1209.266667	973.671875	86.647202
12361.074734	-1209.266667	972.503906	-1.314307
12361.074734	-1209.266667	971.334961	-18.707758
12361.074734	-1209.266667	970.166016	-160.863495
12361.074734	-1209.266667	968.997070	-155.125641
12361.074734	-1209.266667	967.828125	-100.364624
12361.074734	-1209.266667	966.658203	-50.490192
12361.074734	-1209.266667	965.488281	15.292388
12361.074734	-1209.266667	964.318359	87.760101
12361.074734	-1209.266667	963.148438	70.905762
12361.074734	-1209.266667	961.977539	-43.521263
12361.074734	-1209.266667	960.806641	-15.323831
12361.074734	-1209.266667	959.635742	46.074837
12361.074734	-1209.266667	958.463867	116.860588
12361.074734	-1209.266667	957.292969	13.105921
12361.074734	-1209.266667	956.121094	52.255142
12361.074734	-1209.266667	954.948242	171.159393
12361.074734	-1209.266667	953.776367	63.869762
12361.074734	-1209.266667	952.603516	63.803127
12361.074734	-1209.266667	951.430664	-132.314972
12361.074734	-1209.266667	950.257813	-98.151901
12361.074734	-1209.266667	949.084961	-62.805725
12361.074734	-1209.266667	947.911133	-104.397385
12361.074734	-1209.266667	946.737305	79.268440
12361.074734	-1209.266667	945.563477	-245.237381
12361.074734	-1209.266667	944.388672	179.353836
12361.074734	-1209.266667	943.213867	-16.800669
12361.074734	-1209.266667	942.039063	-85.283348
12361.074734	-1209.266667	940.864258	141.685638
12361.074734	-1209.266667	939.688477	176.306564
12361.074734	-1209.266667	938.513672	36.411987
12361.074734	-1209.266667	937.337891	66.100090
12361.074734	-1209.266667	936.161133	260.338165
12361.074734	-1209.266667	934.985352	8.787954
12361.074734	-1209.266667	933.808594	106.704773
12361.074734	-1209.266667	932.631836	116.148262
12361.074734	-1209.266667	931.454102	44.360577
12361.074734	-1209.266667	930.277344	18.258329
12361.074734	-1209.266667	929.099609	113.562630
12361.074734	-1209.266667	927.921875	309.999115
12361.074734	-1209.266667	926.743164	119.424156
12361.074734	-1209.266667	925.565430	194.425278
12361.074734	-1209.266667	924.386719	294.718658
12361.074734	-1209.266667	923.208008	-37.368515
12361.074734	-1209.266667	922.028320	189.295486
12361.074734	-1209.266667	920.849609	94.910500
12361.074734	-1209.266667	919.669922	96.592049
12361.074734	-1209.266667	919.474609	243.410400
12361.074734	-1209.266667	918.309570	245.027191
12361.074734	-1209.266667	917.143555	148.141174
12361.074734	-1209.266667	915.977539	212.907608
12361.074734	-1209.266667	914.810547	133.741364
12361.074734	-1209.266667	913.644531	206.058044
12361.074734	-1209.266667	912.477539	157.211411
12361.074734	-1209.266667	911.310547	209.312759
12361.074734	-1209.266667	910.143555	261.393707
12361.074734	-1209.266667	908.975586	-107.739265
12361.074734	-1209.266667	907.807617	196.554398
12361.074734	-1209.266667	906.639648	-195.099960
12361.074734	-1209.266667	905.471680	-29.539850
12361.074734	-1209.266667	904.303711	57.834660
12361.074734	-1209.266667	903.134766	185.491150
12361.074734	-1209.266667	901.965820	25.927542
12361.074734	-1209.266667	900.796875	118.287727
12361.074734	-1209.266667	899.626953	-134.353317
12361.074734	-1209.266667	898.457031	18.433960
12361.074734	-1209.266667	897.287109	-27.678280
12361.074734	-1209.266667	896.117188	112.453812
12361.074734	-1209.266667	894.947266	247.503357
12361.074734	-1209.266667	893.776367	32.854897
12361.074734	-1209.266667	892.605469	14.468192
12361.074734	-1209.266667	891.434570	96.672592
12361.074734	-1209.266667	890.262695	264.325287
12361.074734	-1209.266667	889.091797	-43.119400
12361.074734	-1209.266667	887.919922	240.102463
12361.074734	-1209.266667	886.748047	-39.558243
12361.074734	-1209.266667	885.575195	-88.003113
12361.074734	-1209.266667	884.403320	56.952549
12361.074734	-1209.266667	883.230469	48.698669
12361.074734	-1209.266667	882.057617	-14.771927
12361.074734	-1209.266667	880.883789	-30.518087
12361.074734	-1209.266667	879.710938	-88.909882
12361.074734	-1209.266667	878.537109	-92.072990
12361.074734	-1209.266667	877.362305	17.648027
12361.074734	-1209.266667	876.188477	-238.801544
12361.074734	-1209.266667	875.013672	-104.003418
12361.074734	-1209.266667	873.839844	-250.007492
12361.074734	-1209.266667	872.664063	-47.572578
12361.074734	-1209.266667	871.489258	-40.657425
12361.074734	-1209.266667	870.313477	211.775436
12361.074734	-1209.266667	869.138672	-16.786898
12361.074734	-1209.266667	867.962891	197.995789
12361.074734	-1209.266667	866.786133	-62.993595
12361.074734	-1209.266667	865.610352	11.554239
12361.074734	-1209.266667	864.433594	18.512728
12361.074734	-1209.266667	863.256836	-184.699799
12361.074734	-1209.266667	862.079102	-162.671509
12361.074734	-1209.266667	860.902344	-80.616638
12361.074734	-1209.266667	859.724609	126.445694
12361.074734	-1209.266667	858.546875	25.923983
12361.074734	-1209.266667	857.368164	0.442952
12361.074734	-1209.266667	856.190430	-25.018389
12361.074734	-1209.266667	855.011719	-152.898071
12361.074734	-1209.266667	853.833008	-280.713470
12361.074734	-1209.266667	852.654297	48.577354
12361.074734	-1209.266667	851.474609	-106.672356
12361.074734	-1209.266667	850.294922	140.087357
12361.074734	-1209.266667	849.115234	-62.520535
12361.074734	-1209.266667	847.935547	-120.297897
12361.074734	-1209.266667	846.754883	-65.767464
12361.074734	-1209.266667	845.575195	-101.051064
12361.074734	-1209.266667	844.393555	-278.459869
12361.074734	-1209.266667	843.212891	-19.440775
12361.074734	-1209.266667	842.032227	-151.904251
12361.074734	-1209.266667	840.850586	-221.992188
12361.074734	-1209.266667	839.668945	-37.870621
12361.074734	-1209.266667	838.486328	-58.106243
12361.074734	-1209.266667	837.304688	53.688705
12361.074734	-1209.266667	836.122070	-46.229374
12361.074734	-1209.266667	834.939453	-292.998260
12361.074734	-1209.266667	833.756836	-24.370106
12361.074734	-1209.266667	832.573242	-91.829613
12361.074734	-1209.266667	831.389648	124.410194
12361.074734	-1209.266667	830.206055	-74.889206
12361.074734	-1209.266667	829.022461	-75.117714
12361.074734	-1209.266667	827.838867	31.590618
12361.074734	-1209.266667	826.654297	-40.745014
12361.074734	-1209.266667	825.469727	95.756035
12361.074734	-1209.266667	824.284180	1.084638
12361.074734	-1209.266667	823.099609	-138.267227
12361.074734	-1209.266667	821.914063	-61.430809
12361.074734	-1209.266667	820.728516	40.215672
12361.074734	-1209.266667	819.542969	-49.377914
12361.074734	-1209.266667	818.356445	-126.513695
12361.074734	-1209.266667	817.169922	-196.168549
12361.074734	-1209.266667	815.983398	-106.964905
12361.074734	-1209.266667	814.796875	19.421078
12361.074734	-1209.266667	813.609375	-127.105713
12361.074734	-1209.266667	812.422852	-28.042717
12361.074734	-1209.266667	811.235352	-119.943085
12361.074734	-1209.266667	810.046875	-125.033775
12361.074734	-1209.266667	808.859375	-187.129654
12361.074734	-1209.266667	807.670898	-36.085648
12361.074734	-1209.266667	806.482422	-279.030121
12361.074734	-1209.266667	805.293945	-68.579704
12361.074734	-1209.266667	804.104492	-162.824722
12361.074734	-1209.266667	802.915039	-91.139656
12361.074734	-1209.266667	801.725586	-64.044502
12361.074734	-1209.266667	800.536133	-128.534866
12361.074734	-1209.266667	799.345703	-61.852436
12361.074734	-1209.266667	798.155273	-84.262367
12361.074734	-1209.266667	796.964844	242.086395
12361.074734	-1209.266667	795.774414	73.714836
12361.074734	-1209.266667	794.583008	48.808918
12361.074734	-1209.266667	793.392578	-287.550781
12361.074734	-1209.266667	792.200195	-240.708633
12361.074734	-1209.266667	791.008789	-238.369202
12361.074734	-1209.266667	789.816406	-3.821199
12361.074734	-1209.266667	788.625000	-147.265305
12361.074734	-1209.266667	787.432617	161.232391
12361.074734	-1209.266667	786.239258	-122.921471
12361.074734	-1209.266667	785.046875	126.187660
12361.074734	-1209.266667	783.853516	-110.970215
12361.074734	-1209.266667	782.660156	-29.759907
12361.074734	-1209.266667	781.465820	118.011253
12361.074734	-1209.266667	780.272461	68.407272
12361.074734	-1209.266667	779.078125	-45.295311
12361.074734	-1209.266667	777.883789	11.138314
12361.074734	-1209.266667	776.688477	-16.263323
12361.074734	-1209.266667	775.494141	-16.562130
12361.074734	-1209.266667	774.298828	-115.421143
12361.074734	-1209.266667	773.103516	36.991154
12361.074734	-1209.266667	771.907227	-130.822189
12361.074734	-1209.266667	770.711914	-91.761856
12361.074734	-1209.266667	769.515625	-114.274223
12361.074734	-1209.266667	768.318359	-75.263321
12361.074734	-1209.266667	767.122070	-43.671795
12361.074734	-1209.266667	765.924805	-63.773251
12361.074734	-1209.266667	764.727539	-120.780075
12361.074734	-1209.266667	763.530273	-5.646091
12361.074734	-1209.266667	762.333008	33.202213
12361.074734	-1209.266667	761.134766	-28.767437
12361.074734	-1209.266667	759.936523	132.904480
12361.074734	-1209.266667	758.738281	255.173325
12361.074734	-1209.266667	757.540039	21.169199
12361.074734	-1209.266667	756.340820	226.867569
12361.074734	-1209.266667	755.141602	582.241699
12361.074734	-1209.266667	753.942383	394.884552
12361.074734	-1209.266667	752.742188	570.845764
12361.074734	-1209.266667	751.541992	471.859344
12361.074734	-1209.266667	750.341797	240.398209
12361.074734	-1209.266667	749.141602	305.812195
12361.074734	-1209.266667	747.941406	314.762665
12361.074734	-1209.266667	746.740234	240.313675
12361.074734	-1209.266667	745.539063	241.858582
12361.074734	-1209.266667	744.337891	282.584106
12361.074734	-1209.266667	743.135742	141.931244
12361.074734	-1209.266667	741.933594	52.751362
12361.074734	-1209.266667	740.731445	387.315186
12361.074734	-1209.266667	739.529297	253.970612
12361.074734	-1209.266667	738.326172	88.817612
12361.074734	-1209.266667	737.124023	80.356956
12361.074734	-1209.266667	735.919922	-248.736816
12361.074734	-1209.266667	734.716797	175.888535
12361.074734	-1209.266667	733.513672	252.919907
12361.074734	-1209.266667	732.309570	315.205170
12361.074734	-1209.266667	731.105469	286.947601
12361.074734	-1209.266667	729.900391	226.878754
12361.074734	-1209.266667	728.696289	276.782104
12361.074734	-1209.266667	727.491211	370.609894
12361.074734	-1209.266667	726.286133	102.753922
12361.074734	-1209.266667	725.080078	220.917389
12361.074734	-1209.266667	723.874023	397.597656
12361.074734	-1209.266667	722.668945	137.091064
12361.074734	-1209.266667	721.461914	289.209564
12361.074734	-1209.266667	720.255859	123.924843
12361.074734	-1209.266667	719.048828	7.464981
12361.074734	-1209.266667	717.841797	-72.401932
12361.074734	-1209.266667	716.634766	-10.815341
12361.074734	-1209.266667	715.427734	72.640991
12361.074734	-1209.266667	714.219727	82.866165
12361.074734	-1209.266667	713.011719	297.794434
12361.074734	-1209.266667	711.803711	261.555908
12361.074734	-1209.266667	710.594727	242.333771
12361.074734	-1209.266667	709.385742	405.770386
12361.074734	-1209.266667	708.176758	96.579872
12361.074734	-1209.266667	706.967773	332.916779
12361.074734	-1209.266667	705.758789	164.960022
12361.074734	-1209.266667	704.548828	177.133789
12361.074734	-1209.266667	703.338867	218.444992
12361.074734	-1209.266667	702.127930	172.090134
12361.074734	-1209.266667	700.917969	220.560699
12361.074734	-1209.266667	699.707031	142.485764
12361.074734	-1209.266667	698.496094	263.762115
12361.074734	-1209.266667	697.285156	49.448578
12361.074734	-1209.266667	696.073242	-11.719425
12361.074734	-1209.266667	694.861328	85.021233
12361.074734	-1209.266667	693.649414	142.783142
12361.074734	-1209.266667	692.436523	173.736130
12361.074734	-1209.266667	691.224609	177.895920
12361.074734	-1209.266667	690.011719	198.981659
12361.074734	-1209.266667	688.798828	207.852509
12361.074734	-1209.266667	687.584961	148.696640
12361.074734	-1209.266667	686.372070	65.232384
12361.074734	-1209.266667	685.158203	379.575958
12361.074734	-1209.266667	683.943359	254.723663
12361.074734	-1209.266667	682.729492	318.990845
12361.074734	-1209.266667	681.514648	305.578430
12361.074734	-1209.266667	680.299805	199.992416
12361.074734	-1209.266667	679.084961	322.169739
12361.074734	-1209.266667	677.869141	291.582397
12361.074734	-1209.266667	676.653320	304.533478
12361.074734	-1209.266667	675.437500	334.356445
12361.074734	-1209.266667	674.221680	381.038055
12361.074734	-1209.266667	673.004883	309.005127
12361.074734	-1209.266667	671.789063	295.011719
12361.074734	-1209.266667	670.571289	244.646881
12361.074734	-1209.266667	669.354492	36.974812
12361.074734	-1209.266667	668.136719	97.788940
12361.074734	-1209.266667	666.919922	366.465912
12361.074734	-1209.266667	665.701172	390.757141
12361.074734	-1209.266667	664.483398	298.932739
12361.074734	-1209.266667	663.264648	190.146988
12361.074734	-1209.266667	662.045898	180.388458
12361.074734	-1209.266667	660.827148	310.660645
12361.074734	-1209.266667	659.608398	153.389862
12361.074734	-1209.266667	658.388672	140.978928
12361.074734	-1209.266667	657.168945	333.692108
12361.074734	-1209.266667	655.949219	231.776123
12361.074734	-1209.266667	654.728516	202.209717
12361.074734	-1209.266667	653.507813	242.536758
12361.074734	-1209.266667	652.287109	130.797882
12361.074734	-1209.266667	651.066406	163.716446
12361.074734	-1209.266667	649.844727	162.776855
12361.074734	-1209.266667	648.623047	202.730301
12361.074734	-1209.266667	647.401367	117.256187
12361.074734	-1209.266667	646.179688	400.393311
12361.074734	-1209.266667	644.957031	524.322205
12361.074734	-1209.266667	643.734375	308.508240
12361.074734	-1209.266667	642.511719	422.595673
12361.074734	-1209.266667	641.289063	329.500397
12361.074734	-1209.266667	640.065430	231.538406
12361.074734	-1209.266667	638.841797	87.805298
12361.074734	-1209.266667	637.618164	194.266724
12361.074734	-1209.266667	636.393555	55.230782
12361.074734	-1209.266667	635.168945	219.190750
12361.074734	-1209.266667	633.944336	125.713890
12361.074734	-1209.266667	632.719727	183.636078
12361.074734	-1209.266667	631.494141	-109.463356
12361.074734	-1209.266667	630.269531	145.343552
12361.074734	-1209.266667	629.042969	78.019394
12361.074734	-1209.266667	627.817383	142.743118
12361.074734	-1209.266667	626.590820	368.238617
12361.074734	-1209.266667	625.365234	235.817322
12361.074734	-1209.266667	624.137695	172.965439
12361.074734	-1209.266667	622.911133	335.642120
12361.074734	-1209.266667	621.683594	445.369598
12361.074734	-1209.266667	620.456055	370.245728
12361.074734	-1209.266667	619.228516	467.745239
12361.074734	-1209.266667	618.000977	459.607422
12361.074734	-1209.266667	616.772461	331.510681
12361.074734	-1209.266667	615.543945	469.426178
12361.074734	-1209.266667	614.314453	461.012665
12361.074734	-1209.266667	613.085938	459.703156
12361.074734	-1209.266667	611.856445	458.300201
12361.074734	-1209.266667	610.626953	267.619110
12361.074734	-1209.266667	609.397461	280.442352
12361.074734	-1209.266667	608.166992	329.072906
12361.074734	-1209.266667	606.936523	150.232559
12361.074734	-1209.266667	605.706055	260.902100
12361.074734	-1209.266667	604.474609	117.852089
12361.074734	-1209.266667	603.244141	101.541260
12361.074734	-1209.266667	602.012695	176.010422
12361.074734	-1209.266667	600.780273	63.877872
12361.074734	-1209.266667	599.548828	76.001251
12361.074734	-1209.266667	598.316406	-9.952036
12361.074734	-1209.266667	597.083984	195.526657
12361.074734	-1209.266667	595.851563	109.409431
12361.074734	-1209.266667	594.618164	-74.678085
12361.074734	-1209.266667	593.384766	-8.067798
12361.074734	-1209.266667	592.151367	137.203644
12361.074734	-1209.266667	590.917969	-94.762711
12361.074734	-1209.266667	589.683594	14.496489
12361.074734	-1209.266667	588.449219	202.350815
12361.074734	-1209.266667	587.214844	-101.295891
12361.074734	-1209.266667	585.979492	141.174835
12361.074734	-1209.266667	584.745117	-176.800491
12361.074734	-1209.266667	583.509766	-130.038239
12361.074734	-1209.266667	582.273438	-69.086838
12361.074734	-1209.266667	581.038086	-91.626556
12361.074734	-1209.266667	579.801758	52.501488
12361.074734	-1209.266667	578.565430	-113.117668
12361.074734	-1209.266667	577.329102	-128.739243
12361.074734	-1209.266667	576.091797	303.105408
12361.074734	-1209.266667	574.854492	87.313110
12361.074734	-1209.266667	573.617188	23.824932
12361.074734	-1209.266667	572.378906	-37.341759
12361.074734	-1209.266667	571.141602	29.887745
12361.074734	-1209.266667	569.903320	116.029869
12361.074734	-1209.266667	568.664063	-47.586720
12361.074734	-1209.266667	567.425781	283.215607
12361.074734	-1209.266667	566.186523	-106.283386
12361.074734	-1209.266667	564.947266	91.179848
12361.074734	-1209.266667	563.708008	43.811150
12361.074734	-1209.266667	562.467773	100.881409
12361.074734	-1209.266667	561.227539	224.340866
12361.074734	-1209.266667	559.987305	281.205933
12361.074734	-1209.266667	558.747070	328.482269
12361.074734	-1209.266667	557.505859	-41.976406
12361.074734	-1209.266667	556.264648	237.702271
12361.074734	-1209.266667	555.023438	234.933151
12361.074734	-1209.266667	553.781250	234.462402
12361.074734	-1209.266667	552.539063	-48.214413
12361.074734	-1209.266667	551.296875	57.911331
12361.074734	-1209.266667	550.054688	-113.350975
12361.074734	-1209.266667	548.811523	30.516148
12361.074734	-1209.266667	547.569336	-200.017944
12361.074734	-1209.266667	546.325195	-98.958214
12361.074734	-1209.266667	545.082031	-106.918205
12361.074734	-1209.266667	543.837891	67.343033
12361.074734	-1209.266667	542.593750	-40.186375
12361.074734	-1209.266667	541.349609	-216.354279
12361.074734	-1209.266667	540.105469	-364.115936
12361.074734	-1209.266667	538.860352	-41.177872
12361.074734	-1209.266667	537.615234	-196.131912
12361.074734	-1209.266667	536.369141	-81.551849
12361.074734	-1209.266667	535.124023	-87.623764
12361.074734	-1209.266667	533.877930	-6.313485
12361.074734	-1209.266667	532.631836	-55.047649
12361.074734	-1209.266667	531.384766	-87.286987
12361.074734	-1209.266667	530.138672	78.832504
12361.074734	-1209.266667	528.891602	-130.624115
12361.074734	-1209.266667	527.643555	-4.821321
12361.074734	-1209.266667	526.396484	-280.361725
12361.074734	-1209.266667	525.148438	-260.872925
12361.074734	-1209.266667	523.900391	-33.827316
12361.074734	-1209.266667	522.652344	-134.796539
12361.074734	-1209.266667	521.403320	-389.065979
12361.074734	-1209.266667	520.154297	-275.467377
12361.074734	-1209.266667	518.905273	-362.330231
12361.074734	-1209.266667	517.656250	-406.782990
12361.074734	-1209.266667	516.406250	-206.225494
12361.074734	-1209.266667	515.156250	-222.526550
12361.074734	-1209.266667	513.906250	-328.365417
12361.074734	-1209.266667	512.655273	-142.230072
12361.074734	-1209.266667	511.404297	-153.973663
12361.074734	-1209.266667	510.153320	-309.333191
12361.074734	-1209.266667	508.902344	-165.816177
12361.074734	-1209.266667	507.650391	-241.214554
12361.074734	-1209.266667	506.398438	-137.860046
12361.074734	-1209.266667	505.146484	-394.399963
12361.074734	-1209.266667	503.893555	-194.758255
12361.074734	-1209.266667	502.641602	-173.887527
12361.074734	-1209.266667	501.388672	-416.297058
12361.074734	-1209.266667	500.134766	-287.411835
12361.074734	-1209.266667	498.881836	-97.539795
12361.074734	-1209.266667	497.627930	-95.695526
12361.074734	-1209.266667	496.374023	0.028369
12361.074734	-1209.266667	495.119141	126.175110
12361.074734	-1209.266667	493.865234	-55.242001
12361.074734	-1209.266667	492.610352	26.184862
12361.074734	-1209.266667	491.355469	100.490891
12361.074734	-1209.266667	490.099609	22.243330
12361.074734	-1209.266667	488.843750	82.342545
12361.074734	-1209.266667	487.587891	90.786896
12361.074734	-1209.266667	486.332031	150.747543
12361.074734	-1209.266667	485.075195	130.939774
12361.074734	-1209.266667	483.818359	328.997131
12361.074734	-1209.266667	482.561523	252.834686
12361.074734	-1209.266667	481.304688	19.733625
12361.074734	-1209.266667	480.046875	177.709518
12361.074734	-1209.266667	478.789063	61.658447
12361.074734	-1209.266667	477.531250	-96.530289
12361.074734	-1209.266667	476.272461	124.369423
12361.074734	-1209.266667	475.013672	235.154861
12361.074734	-1209.266667	473.754883	247.591003
12361.074734	-1209.266667	472.496094	110.291397
12361.074734	-1209.266667	471.236328	138.976669
12361.074734	-1209.266667	469.976563	32.005367
12361.074734	-1209.266667	468.716797	39.524864
12361.074734	-1209.266667	467.456055	-282.489807
12361.074734	-1209.266667	466.196289	241.207794
12361.074734	-1209.266667	464.935547	0.881097
12361.074734	-1209.266667	463.673828	99.144623
12361.074734	-1209.266667	462.413086	85.237900
12361.074734	-1209.266667	461.151367	101.584793
12361.074734	-1209.266667	459.889648	173.840118
12361.074734	-1209.266667	458.626953	133.980545
12361.074734	-1209.266667	457.364258	105.705620
12361.074734	-1209.266667	456.101563	217.264938
12361.074734	-1209.266667	454.838867	277.382538
12361.074734	-1209.266667	453.575195	141.556641
12361.074734	-1209.266667	452.312500	70.944649
12361.074734	-1209.266667	451.047852	167.986450
12361.074734	-1209.266667	449.784180	304.480133
12361.074734	-1209.266667	448.519531	-55.284283
12361.074734	-1209.266667	447.254883	-28.496563
12361.074734	-1209.266667	445.990234	109.891342
12361.074734	-1209.266667	444.725586	6.028892
12361.074734	-1209.266667	443.459961	116.137772
12361.074734	-1209.266667	442.194336	123.688942
12361.074734	-1209.266667	440.927734	75.251137
12361.074734	-1209.266667	439.662109	203.422256
12361.074734	-1209.266667	438.395508	105.843697
12361.074734	-1209.266667	437.127930	108.076408
12361.074734	-1209.266667	435.861328	103.171516
12361.074734	-1209.266667	434.593750	-99.415573
12361.074734	-1209.266667	433.326172	-65.167694
12361.074734	-1209.266667	432.058594	170.917984
12361.074734	-1209.266667	430.790039	51.433743
12361.074734	-1209.266667	429.521484	6.074168
12361.074734	-1209.266667	428.252930	-148.567810
12361.074734	-1209.266667	426.984375	228.001862
12361.074734	-1209.266667	425.714844	75.222420
12361.074734	-1209.266667	424.445313	200.591782
12361.074734	-1209.266667	423.174805	362.742615
12361.074734	-1209.266667	421.905273	160.586182
12361.074734	-1209.266667	420.634766	150.616440
12361.074734	-1209.266667	419.364258	358.203979
12361.074734	-1209.266667	418.092773	157.623047
12361.074734	-1209.266667	416.822266	239.439697
12361.074734	-1209.266667	415.550781	130.991699
12361.074734	-1209.266667	414.278320	325.565460
12361.074734	-1209.266667	413.006836	77.593697
12361.074734	-1209.266667	411.734375	116.349274
12361.074734	-1209.266667	410.461914	439.334991
12361.074734	-1209.266667	409.188477	410.161896
12361.074734	-1209.266667	407.916016	232.609253
12361.074734	-1209.266667	406.642578	362.264709
12361.074734	-1209.266667	405.368164	313.423859
12361.074734	-1209.266667	404.094727	116.268959
12361.074734	-1209.266667	402.820313	184.493195
12361.074734	-1209.266667	401.545898	208.337097
12361.074734	-1209.266667	400.270508	127.740921
12361.074734	-1209.266667	398.996094	196.823639
12361.074734	-1209.266667	397.720703	59.869820
12361.074734	-1209.266667	396.444336	201.751205
12361.074734	-1209.266667	395.168945	-21.581179
12361.074734	-1209.266667	393.892578	1.499378
12361.074734	-1209.266667	392.616211	240.848297
12361.074734	-1209.266667	391.339844	403.398315
12361.074734	-1209.266667	390.062500	117.919960
12361.074734	-1209.266667	388.785156	256.126984
12361.074734	-1209.266667	387.507813	377.498566
12361.074734	-1209.266667	386.229492	378.307281
12361.074734	-1209.266667	384.951172	138.835220
12361.074734	-1209.266667	383.672852	140.614777
12361.074734	-1209.266667	382.394531	97.916199
12361.074734	-1209.266667	381.115234	432.048950
12361.074734	-1209.266667	379.835938	344.031433
12361.074734	-1209.266667	378.556641	193.125504
12361.074734	-1209.266667	377.277344	89.788780
12361.074734	-1209.266667	375.997070	365.185547
12361.074734	-1209.266667	374.716797	-36.551411
12361.074734	-1209.266667	373.435547	-2.158678
12361.074734	-1209.266667	372.155273	-237.629440
12361.074734	-1209.266667	370.874023	56.947067
12361.074734	-1209.266667	369.591797	-111.469315
12361.074734	-1209.266667	368.310547	79.904137
12361.074734	-1209.266667	367.028320	38.158520
12361.074734	-1209.266667	365.746094	298.493622
12361.074734	-1209.266667	364.463867	144.382660
12361.074734	-1209.266667	363.180664	271.516479
12361.074734	-1209.266667	361.897461	209.274963
12361.074734	-1209.266667	360.614258	113.763115
12361.074734	-1209.266667	359.330078	241.842896
12361.074734	-1209.266667	358.045898	396.144623
12361.074734	-1209.266667	356.761719	184.543732
12361.074734	-1209.266667	355.477539	180.326996
12361.074734	-1209.266667	354.192383	177.017624
12361.074734	-1209.266667	352.907227	360.217499
12361.074734	-1209.266667	351.622070	189.130157
12361.074734	-1209.266667	350.336914	209.050171
12361.074734	-1209.266667	349.050781	147.277573
12361.074734	-1209.266667	347.764648	79.419197
12361.074734	-1209.266667	346.477539	-79.296280
12361.074734	-1209.266667	345.191406	-104.497444
12361.074734	-1209.266667	343.904297	-55.895103
12361.074734	-1209.266667	342.616211	-86.836090
12361.074734	-1209.266667	341.329102	-265.812286
12361.074734	-1209.266667	340.041016	-323.090546
12361.074734	-1209.266667	338.752930	-69.015671
12361.074734	-1209.266667	337.463867	-253.490417
12361.074734	-1209.266667	336.175781	-261.535522
12361.074734	-1209.266667	334.886719	-125.414917
12361.074734	-1209.266667	333.596680	-190.133804
12361.074734	-1209.266667	332.307617	-334.471558
12361.074734	-1209.266667	331.017578	-147.641571
12361.074734	-1209.266667	329.727539	-387.588776
12361.074734	-1209.266667	328.436523	-408.390717
12361.074734	-1209.266667	327.146484	-276.270111
12361.074734	-1209.266667	325.855469	-331.369537
12361.074734	-1209.266667	324.563477	-327.346497
12361.074734	-1209.266667	323.272461	-273.271820
12361.074734	-1209.266667	321.980469	-269.677032
12361.074734	-1209.266667	320.688477	-282.332672
12361.074734	-1209.266667	319.395508	-22.018291
12361.074734	-1209.266667	318.103516	-30.944399
12361.074734	-1209.266667	316.810547	-33.603802
12361.074734	-1209.266667	315.516602	-80.158798
12361.074734	-1209.266667	314.223633	61.716267
12361.074734	-1209.266667	312.929688	59.375729
12361.074734	-1209.266667	311.635742	60.832111
12361.074734	-1209.266667	310.340820	493.598846
12361.074734	-1209.266667	309.045898	315.741058
12361.074734	-1209.266667	307.750977	653.167603
12361.074734	-1209.266667	306.456055	657.487183
12361.074734	-1209.266667	305.160156	869.690552
12361.074734	-1209.266667	303.865234	873.923523
12361.074734	-1209.266667	302.568359	1062.959961
12361.074734	-1209.266667	301.272461	1495.984253
12361.074734	-1209.266667	299.975586	1677.468750
12361.074734	-1209.266667	298.678711	1732.481812
