#X		#Y		#Wave		#Intensity
13361.403989	-1179.244167	1999.980469	179.913742
13361.403989	-1179.244167	1999.016602	-122.634941
13361.403989	-1179.244167	1998.052734	-125.591888
13361.403989	-1179.244167	1997.087891	98.886833
13361.403989	-1179.244167	1996.123047	-31.572590
13361.403989	-1179.244167	1995.158203	-164.995224
13361.403989	-1179.244167	1994.193359	-46.256065
13361.403989	-1179.244167	1993.228516	-98.928642
13361.403989	-1179.244167	1992.262695	46.006561
13361.403989	-1179.244167	1991.297852	-250.210815
13361.403989	-1179.244167	1990.332031	-148.308762
13361.403989	-1179.244167	1989.366211	81.780983
13361.403989	-1179.244167	1988.399414	7.059382
13361.403989	-1179.244167	1987.433594	117.455154
13361.403989	-1179.244167	1986.466797	4.832308
13361.403989	-1179.244167	1985.500977	188.567947
13361.403989	-1179.244167	1984.534180	72.727989
13361.403989	-1179.244167	1983.567383	-40.963970
13361.403989	-1179.244167	1982.599609	89.686348
13361.403989	-1179.244167	1981.632813	-101.262276
13361.403989	-1179.244167	1980.665039	-166.483215
13361.403989	-1179.244167	1979.697266	-44.290489
13361.403989	-1179.244167	1978.729492	119.524429
13361.403989	-1179.244167	1977.761719	65.712814
13361.403989	-1179.244167	1976.792969	-92.043228
13361.403989	-1179.244167	1975.825195	26.397539
13361.403989	-1179.244167	1974.856445	18.682749
13361.403989	-1179.244167	1973.887695	89.657997
13361.403989	-1179.244167	1972.918945	-12.307487
13361.403989	-1179.244167	1971.949219	33.497238
13361.403989	-1179.244167	1970.980469	118.505890
13361.403989	-1179.244167	1970.010742	144.095871
13361.403989	-1179.244167	1969.041016	53.615864
13361.403989	-1179.244167	1968.071289	-49.356010
13361.403989	-1179.244167	1967.101563	121.008133
13361.403989	-1179.244167	1966.130859	121.143272
13361.403989	-1179.244167	1965.161133	194.989258
13361.403989	-1179.244167	1964.190430	170.133682
13361.403989	-1179.244167	1963.219727	312.545380
13361.403989	-1179.244167	1962.249023	105.196709
13361.403989	-1179.244167	1961.277344	-28.389278
13361.403989	-1179.244167	1960.306641	-95.629478
13361.403989	-1179.244167	1959.334961	-15.365597
13361.403989	-1179.244167	1958.363281	-31.191452
13361.403989	-1179.244167	1957.391602	53.697422
13361.403989	-1179.244167	1956.419922	349.903168
13361.403989	-1179.244167	1955.447266	58.324898
13361.403989	-1179.244167	1954.474609	152.651810
13361.403989	-1179.244167	1953.501953	50.245289
13361.403989	-1179.244167	1952.529297	41.152103
13361.403989	-1179.244167	1951.556641	157.261627
13361.403989	-1179.244167	1950.583984	54.650570
13361.403989	-1179.244167	1949.610352	-92.202415
13361.403989	-1179.244167	1948.636719	-50.019688
13361.403989	-1179.244167	1947.663086	-59.470116
13361.403989	-1179.244167	1946.689453	147.001877
13361.403989	-1179.244167	1945.715820	196.293488
13361.403989	-1179.244167	1944.741211	-4.734844
13361.403989	-1179.244167	1943.767578	46.919273
13361.403989	-1179.244167	1942.792969	24.932793
13361.403989	-1179.244167	1941.818359	42.147209
13361.403989	-1179.244167	1940.842773	51.961281
13361.403989	-1179.244167	1939.868164	0.465066
13361.403989	-1179.244167	1938.892578	22.476278
13361.403989	-1179.244167	1937.916992	-129.510651
13361.403989	-1179.244167	1936.941406	-136.926910
13361.403989	-1179.244167	1935.965820	51.583321
13361.403989	-1179.244167	1934.990234	120.015343
13361.403989	-1179.244167	1934.013672	-144.571976
13361.403989	-1179.244167	1933.037109	124.575020
13361.403989	-1179.244167	1932.060547	102.368294
13361.403989	-1179.244167	1931.083984	124.210899
13361.403989	-1179.244167	1930.107422	-79.037209
13361.403989	-1179.244167	1929.129883	-103.647850
13361.403989	-1179.244167	1928.153320	-101.341698
13361.403989	-1179.244167	1927.175781	11.000010
13361.403989	-1179.244167	1926.198242	194.204407
13361.403989	-1179.244167	1925.219727	203.803955
13361.403989	-1179.244167	1924.242188	-94.506493
13361.403989	-1179.244167	1923.263672	152.173737
13361.403989	-1179.244167	1922.285156	-77.589424
13361.403989	-1179.244167	1921.306641	-26.368593
13361.403989	-1179.244167	1920.328125	-221.790207
13361.403989	-1179.244167	1919.349609	-177.847961
13361.403989	-1179.244167	1918.370117	-4.527534
13361.403989	-1179.244167	1917.391602	83.330849
13361.403989	-1179.244167	1916.412109	32.087414
13361.403989	-1179.244167	1915.431641	24.799927
13361.403989	-1179.244167	1914.452148	-45.878120
13361.403989	-1179.244167	1913.472656	56.651226
13361.403989	-1179.244167	1912.492188	-21.270899
13361.403989	-1179.244167	1911.511719	56.889973
13361.403989	-1179.244167	1910.531250	-91.633095
13361.403989	-1179.244167	1909.550781	166.905594
13361.403989	-1179.244167	1908.569336	-44.875660
13361.403989	-1179.244167	1907.588867	-134.742294
13361.403989	-1179.244167	1906.607422	-27.262018
13361.403989	-1179.244167	1905.625977	-180.353134
13361.403989	-1179.244167	1904.644531	53.761902
13361.403989	-1179.244167	1903.662109	51.695362
13361.403989	-1179.244167	1902.680664	-74.459473
13361.403989	-1179.244167	1901.698242	-20.472477
13361.403989	-1179.244167	1900.715820	-175.701889
13361.403989	-1179.244167	1899.733398	-150.842163
13361.403989	-1179.244167	1898.750000	41.843842
13361.403989	-1179.244167	1897.767578	-40.271942
13361.403989	-1179.244167	1896.784180	-76.138069
13361.403989	-1179.244167	1895.800781	-36.612240
13361.403989	-1179.244167	1894.817383	-55.394062
13361.403989	-1179.244167	1893.833984	-47.413658
13361.403989	-1179.244167	1892.850586	-41.835564
13361.403989	-1179.244167	1891.866211	2.626966
13361.403989	-1179.244167	1890.881836	76.240814
13361.403989	-1179.244167	1889.897461	-143.919434
13361.403989	-1179.244167	1888.913086	-116.372055
13361.403989	-1179.244167	1887.927734	161.166733
13361.403989	-1179.244167	1886.943359	268.772736
13361.403989	-1179.244167	1885.958008	-162.226059
13361.403989	-1179.244167	1884.972656	-253.454849
13361.403989	-1179.244167	1883.987305	-155.463333
13361.403989	-1179.244167	1883.001953	-33.239716
13361.403989	-1179.244167	1882.015625	-22.557957
13361.403989	-1179.244167	1881.029297	80.243652
13361.403989	-1179.244167	1880.042969	66.706093
13361.403989	-1179.244167	1879.056641	111.340019
13361.403989	-1179.244167	1878.070313	-16.018723
13361.403989	-1179.244167	1877.083984	106.150230
13361.403989	-1179.244167	1876.096680	56.357986
13361.403989	-1179.244167	1875.109375	57.439789
13361.403989	-1179.244167	1874.122070	-4.402435
13361.403989	-1179.244167	1873.134766	33.016609
13361.403989	-1179.244167	1872.146484	9.937470
13361.403989	-1179.244167	1871.159180	13.488575
13361.403989	-1179.244167	1870.170898	92.027222
13361.403989	-1179.244167	1869.182617	-22.926023
13361.403989	-1179.244167	1868.194336	9.660692
13361.403989	-1179.244167	1867.205078	-6.112783
13361.403989	-1179.244167	1866.216797	28.879847
13361.403989	-1179.244167	1865.227539	-141.547134
13361.403989	-1179.244167	1864.238281	-65.469963
13361.403989	-1179.244167	1863.249023	-189.921326
13361.403989	-1179.244167	1862.259766	-171.834320
13361.403989	-1179.244167	1861.269531	-269.667786
13361.403989	-1179.244167	1860.279297	120.211906
13361.403989	-1179.244167	1859.290039	36.829048
13361.403989	-1179.244167	1858.298828	40.347012
13361.403989	-1179.244167	1857.308594	109.001762
13361.403989	-1179.244167	1856.318359	-148.063095
13361.403989	-1179.244167	1855.327148	140.065521
13361.403989	-1179.244167	1854.335938	-59.064705
13361.403989	-1179.244167	1853.344727	243.372818
13361.403989	-1179.244167	1852.353516	266.041565
13361.403989	-1179.244167	1851.362305	228.426315
13361.403989	-1179.244167	1850.370117	251.045486
13361.403989	-1179.244167	1849.377930	145.939987
13361.403989	-1179.244167	1848.385742	55.301590
13361.403989	-1179.244167	1847.393555	179.016418
13361.403989	-1179.244167	1846.401367	4.072154
13361.403989	-1179.244167	1845.408203	-33.611561
13361.403989	-1179.244167	1844.415039	89.958427
13361.403989	-1179.244167	1843.421875	-39.241932
13361.403989	-1179.244167	1842.428711	132.335587
13361.403989	-1179.244167	1841.435547	-230.245163
13361.403989	-1179.244167	1840.441406	95.160866
13361.403989	-1179.244167	1839.448242	172.716797
13361.403989	-1179.244167	1838.454102	194.900818
13361.403989	-1179.244167	1837.459961	142.513931
13361.403989	-1179.244167	1836.464844	-126.207138
13361.403989	-1179.244167	1835.470703	234.702789
13361.403989	-1179.244167	1834.475586	146.160065
13361.403989	-1179.244167	1833.480469	141.672928
13361.403989	-1179.244167	1832.485352	-69.401794
13361.403989	-1179.244167	1831.490234	-76.351761
13361.403989	-1179.244167	1830.495117	24.677944
13361.403989	-1179.244167	1829.499023	39.203014
13361.403989	-1179.244167	1828.502930	192.852066
13361.403989	-1179.244167	1827.506836	-51.903755
13361.403989	-1179.244167	1826.510742	-174.285675
13361.403989	-1179.244167	1825.513672	72.672012
13361.403989	-1179.244167	1824.517578	55.699398
13361.403989	-1179.244167	1823.520508	31.471529
13361.403989	-1179.244167	1822.523438	74.305885
13361.403989	-1179.244167	1821.526367	181.763519
13361.403989	-1179.244167	1820.529297	61.475819
13361.403989	-1179.244167	1819.531250	168.752884
13361.403989	-1179.244167	1818.533203	-164.811111
13361.403989	-1179.244167	1817.535156	83.615425
13361.403989	-1179.244167	1816.537109	-221.223770
13361.403989	-1179.244167	1815.539063	146.663116
13361.403989	-1179.244167	1814.540039	35.638622
13361.403989	-1179.244167	1813.541992	-63.454193
13361.403989	-1179.244167	1812.542969	-138.669205
13361.403989	-1179.244167	1811.543945	-192.408722
13361.403989	-1179.244167	1810.543945	62.306740
13361.403989	-1179.244167	1809.544922	264.238892
13361.403989	-1179.244167	1808.544922	78.704353
13361.403989	-1179.244167	1807.544922	53.302208
13361.403989	-1179.244167	1806.544922	23.040003
13361.403989	-1179.244167	1805.544922	-45.529755
13361.403989	-1179.244167	1804.544922	48.282173
13361.403989	-1179.244167	1803.543945	75.083710
13361.403989	-1179.244167	1802.542969	11.036905
13361.403989	-1179.244167	1801.541992	90.173820
13361.403989	-1179.244167	1800.541016	138.151550
13361.403989	-1179.244167	1799.539063	166.916595
13361.403989	-1179.244167	1798.538086	147.851883
13361.403989	-1179.244167	1797.536133	102.446198
13361.403989	-1179.244167	1796.534180	123.746017
13361.403989	-1179.244167	1795.532227	80.545250
13361.403989	-1179.244167	1794.529297	204.161102
13361.403989	-1179.244167	1793.527344	36.788132
13361.403989	-1179.244167	1792.524414	17.145668
13361.403989	-1179.244167	1791.521484	14.085481
13361.403989	-1179.244167	1790.518555	8.538294
13361.403989	-1179.244167	1789.514648	-94.790413
13361.403989	-1179.244167	1788.511719	-12.409073
13361.403989	-1179.244167	1787.507813	57.919292
13361.403989	-1179.244167	1786.503906	168.584167
13361.403989	-1179.244167	1785.500000	124.371864
13361.403989	-1179.244167	1784.496094	-55.591454
13361.403989	-1179.244167	1783.491211	2.339626
13361.403989	-1179.244167	1782.486328	-51.678307
13361.403989	-1179.244167	1781.481445	36.922390
13361.403989	-1179.244167	1780.476563	101.592201
13361.403989	-1179.244167	1779.471680	-93.042587
13361.403989	-1179.244167	1778.465820	220.994049
13361.403989	-1179.244167	1777.460938	266.226532
13361.403989	-1179.244167	1776.455078	-99.783096
13361.403989	-1179.244167	1775.449219	118.685150
13361.403989	-1179.244167	1774.442383	-12.239735
13361.403989	-1179.244167	1773.436523	56.267490
13361.403989	-1179.244167	1772.429688	34.389107
13361.403989	-1179.244167	1771.422852	-18.465843
13361.403989	-1179.244167	1770.416016	343.956085
13361.403989	-1179.244167	1769.409180	86.727692
13361.403989	-1179.244167	1768.402344	90.469666
13361.403989	-1179.244167	1767.394531	37.144333
13361.403989	-1179.244167	1766.386719	197.176071
13361.403989	-1179.244167	1765.378906	145.972733
13361.403989	-1179.244167	1764.371094	56.730305
13361.403989	-1179.244167	1763.362305	128.576736
13361.403989	-1179.244167	1762.354492	-15.390376
13361.403989	-1179.244167	1761.345703	4.060700
13361.403989	-1179.244167	1760.336914	108.664764
13361.403989	-1179.244167	1759.328125	-49.815693
13361.403989	-1179.244167	1758.318359	11.868899
13361.403989	-1179.244167	1757.308594	54.459618
13361.403989	-1179.244167	1756.299805	118.222450
13361.403989	-1179.244167	1755.290039	311.999207
13361.403989	-1179.244167	1754.279297	-0.840457
13361.403989	-1179.244167	1753.269531	-209.579407
13361.403989	-1179.244167	1752.258789	-125.057175
13361.403989	-1179.244167	1751.249023	30.265173
13361.403989	-1179.244167	1750.238281	55.338711
13361.403989	-1179.244167	1749.226563	-33.214813
13361.403989	-1179.244167	1748.215820	-188.035370
13361.403989	-1179.244167	1747.204102	-113.703804
13361.403989	-1179.244167	1746.193359	-20.615395
13361.403989	-1179.244167	1745.181641	-194.645370
13361.403989	-1179.244167	1744.168945	105.990273
13361.403989	-1179.244167	1743.157227	-141.458481
13361.403989	-1179.244167	1742.144531	-167.019821
13361.403989	-1179.244167	1741.132813	-143.118011
13361.403989	-1179.244167	1740.120117	26.960520
13361.403989	-1179.244167	1739.106445	114.248871
13361.403989	-1179.244167	1738.093750	-67.559250
13361.403989	-1179.244167	1737.080078	66.631882
13361.403989	-1179.244167	1736.067383	-9.229604
13361.403989	-1179.244167	1735.053711	-179.513245
13361.403989	-1179.244167	1734.040039	-26.899500
13361.403989	-1179.244167	1733.025391	-60.678295
13361.403989	-1179.244167	1732.011719	-56.855572
13361.403989	-1179.244167	1730.997070	-173.328064
13361.403989	-1179.244167	1729.982422	79.942085
13361.403989	-1179.244167	1728.967773	-34.407894
13361.403989	-1179.244167	1727.952148	-97.048294
13361.403989	-1179.244167	1726.937500	26.207617
13361.403989	-1179.244167	1725.921875	41.006004
13361.403989	-1179.244167	1724.906250	22.729176
13361.403989	-1179.244167	1723.890625	89.039833
13361.403989	-1179.244167	1722.875000	-155.315308
13361.403989	-1179.244167	1721.858398	-101.012932
13361.403989	-1179.244167	1720.841797	-60.960236
13361.403989	-1179.244167	1719.825195	-86.874313
13361.403989	-1179.244167	1718.808594	-18.872633
13361.403989	-1179.244167	1717.791992	135.940063
13361.403989	-1179.244167	1716.774414	74.386650
13361.403989	-1179.244167	1715.756836	-3.706020
13361.403989	-1179.244167	1714.739258	-121.814713
13361.403989	-1179.244167	1713.721680	-80.306778
13361.403989	-1179.244167	1712.704102	-207.980240
13361.403989	-1179.244167	1711.685547	63.335995
13361.403989	-1179.244167	1710.667969	-36.380424
13361.403989	-1179.244167	1709.649414	187.640472
13361.403989	-1179.244167	1708.630859	-217.298019
13361.403989	-1179.244167	1707.611328	27.543232
13361.403989	-1179.244167	1706.592773	-79.588684
13361.403989	-1179.244167	1705.573242	101.602814
13361.403989	-1179.244167	1704.553711	95.069946
13361.403989	-1179.244167	1703.534180	86.087143
13361.403989	-1179.244167	1702.513672	-5.033644
13361.403989	-1179.244167	1701.494141	58.424507
13361.403989	-1179.244167	1700.473633	-68.006378
13361.403989	-1179.244167	1699.453125	-171.071747
13361.403989	-1179.244167	1698.432617	208.172836
13361.403989	-1179.244167	1697.412109	-33.242241
13361.403989	-1179.244167	1696.390625	-35.926373
13361.403989	-1179.244167	1695.369141	-8.287644
13361.403989	-1179.244167	1694.347656	66.038361
13361.403989	-1179.244167	1693.326172	-35.215752
13361.403989	-1179.244167	1692.304688	66.959000
13361.403989	-1179.244167	1691.282227	56.735085
13361.403989	-1179.244167	1690.260742	139.957565
13361.403989	-1179.244167	1689.238281	-17.732965
13361.403989	-1179.244167	1688.214844	116.670334
13361.403989	-1179.244167	1687.192383	-59.832638
13361.403989	-1179.244167	1686.168945	-12.094901
13361.403989	-1179.244167	1685.146484	273.800781
13361.403989	-1179.244167	1684.123047	307.265747
13361.403989	-1179.244167	1683.099609	6.744669
13361.403989	-1179.244167	1682.075195	156.781525
13361.403989	-1179.244167	1681.051758	334.701447
13361.403989	-1179.244167	1680.027344	421.445496
13361.403989	-1179.244167	1679.002930	417.084656
13361.403989	-1179.244167	1677.978516	421.975800
13361.403989	-1179.244167	1676.953125	333.480988
13361.403989	-1179.244167	1675.928711	284.599884
13361.403989	-1179.244167	1674.903320	496.748535
13361.403989	-1179.244167	1673.877930	140.016937
13361.403989	-1179.244167	1672.852539	685.208252
13361.403989	-1179.244167	1671.826172	517.139404
13361.403989	-1179.244167	1670.800781	353.740387
13361.403989	-1179.244167	1669.774414	516.383789
13361.403989	-1179.244167	1668.748047	397.137451
13361.403989	-1179.244167	1667.721680	510.684509
13361.403989	-1179.244167	1666.694336	414.613068
13361.403989	-1179.244167	1665.667969	448.857788
13361.403989	-1179.244167	1664.640625	562.121704
13361.403989	-1179.244167	1663.613281	563.615540
13361.403989	-1179.244167	1662.585938	902.304810
13361.403989	-1179.244167	1661.557617	826.858398
13361.403989	-1179.244167	1660.530273	663.053345
13361.403989	-1179.244167	1659.501953	743.316833
13361.403989	-1179.244167	1658.473633	839.764221
13361.403989	-1179.244167	1657.444336	961.664978
13361.403989	-1179.244167	1656.416016	1043.992676
13361.403989	-1179.244167	1655.386719	977.565918
13361.403989	-1179.244167	1654.358398	925.069458
13361.403989	-1179.244167	1653.328125	1079.156616
13361.403989	-1179.244167	1652.298828	1161.194946
13361.403989	-1179.244167	1651.269531	1222.271973
13361.403989	-1179.244167	1650.239258	1188.124756
13361.403989	-1179.244167	1649.208984	1026.348633
13361.403989	-1179.244167	1648.178711	1416.663940
13361.403989	-1179.244167	1647.148438	1516.898560
13361.403989	-1179.244167	1646.117188	1630.953491
13361.403989	-1179.244167	1645.086914	1462.123291
13361.403989	-1179.244167	1644.055664	1768.459473
13361.403989	-1179.244167	1643.024414	1747.899170
13361.403989	-1179.244167	1641.992188	1910.337524
13361.403989	-1179.244167	1640.960938	2040.275635
13361.403989	-1179.244167	1639.928711	1871.353271
13361.403989	-1179.244167	1638.896484	2028.969849
13361.403989	-1179.244167	1637.864258	2230.490479
13361.403989	-1179.244167	1636.832031	2191.189941
13361.403989	-1179.244167	1635.798828	2228.235352
13361.403989	-1179.244167	1634.766602	2545.235596
13361.403989	-1179.244167	1633.733398	2424.864014
13361.403989	-1179.244167	1632.699219	2690.755127
13361.403989	-1179.244167	1631.666016	2512.567627
13361.403989	-1179.244167	1630.632813	2715.915039
13361.403989	-1179.244167	1629.598633	2620.971436
13361.403989	-1179.244167	1628.564453	3138.492188
13361.403989	-1179.244167	1627.530273	3064.289307
13361.403989	-1179.244167	1626.495117	3052.466797
13361.403989	-1179.244167	1625.460938	3299.358643
13361.403989	-1179.244167	1624.425781	3437.599609
13361.403989	-1179.244167	1623.390625	3342.598145
13361.403989	-1179.244167	1622.355469	3623.903076
13361.403989	-1179.244167	1621.319336	3695.065918
13361.403989	-1179.244167	1620.284180	3816.990967
13361.403989	-1179.244167	1619.248047	3770.447266
13361.403989	-1179.244167	1618.211914	4081.453125
13361.403989	-1179.244167	1617.174805	4157.104980
13361.403989	-1179.244167	1616.138672	4214.316895
13361.403989	-1179.244167	1615.101563	4193.125488
13361.403989	-1179.244167	1614.065430	4160.456543
13361.403989	-1179.244167	1613.027344	3816.695313
13361.403989	-1179.244167	1611.990234	4182.708008
13361.403989	-1179.244167	1610.953125	4189.262695
13361.403989	-1179.244167	1609.915039	3878.009033
13361.403989	-1179.244167	1608.876953	4004.388916
13361.403989	-1179.244167	1607.838867	3990.317627
13361.403989	-1179.244167	1606.800781	3614.924561
13361.403989	-1179.244167	1605.761719	3557.257080
13361.403989	-1179.244167	1604.723633	3584.791260
13361.403989	-1179.244167	1603.684570	3734.247803
13361.403989	-1179.244167	1602.644531	3692.777100
13361.403989	-1179.244167	1601.605469	3704.267090
13361.403989	-1179.244167	1600.566406	3628.431396
13361.403989	-1179.244167	1599.526367	3637.695068
13361.403989	-1179.244167	1598.486328	3895.189209
13361.403989	-1179.244167	1597.446289	3780.415527
13361.403989	-1179.244167	1596.405273	3539.371582
13361.403989	-1179.244167	1595.365234	3447.776367
13361.403989	-1179.244167	1594.324219	3542.246338
13361.403989	-1179.244167	1593.283203	3643.619141
13361.403989	-1179.244167	1592.242188	3676.146484
13361.403989	-1179.244167	1591.200195	3612.310547
13361.403989	-1179.244167	1590.159180	3436.145996
13361.403989	-1179.244167	1589.117188	3344.971436
13361.403989	-1179.244167	1588.075195	3462.608154
13361.403989	-1179.244167	1587.032227	3270.671631
13361.403989	-1179.244167	1585.990234	3028.452148
13361.403989	-1179.244167	1584.947266	3171.471191
13361.403989	-1179.244167	1583.904297	3303.042725
13361.403989	-1179.244167	1582.861328	2815.970947
13361.403989	-1179.244167	1581.818359	3236.351318
13361.403989	-1179.244167	1580.775391	3019.898193
13361.403989	-1179.244167	1579.731445	2934.115723
13361.403989	-1179.244167	1578.687500	2836.995361
13361.403989	-1179.244167	1577.643555	3090.219971
13361.403989	-1179.244167	1576.598633	2835.329590
13361.403989	-1179.244167	1575.554688	2528.006836
13361.403989	-1179.244167	1574.509766	2454.218750
13361.403989	-1179.244167	1573.464844	2794.545654
13361.403989	-1179.244167	1572.419922	2464.776123
13361.403989	-1179.244167	1571.374023	2176.360352
13361.403989	-1179.244167	1570.329102	2411.646729
13361.403989	-1179.244167	1569.283203	2278.946289
13361.403989	-1179.244167	1568.237305	2233.223633
13361.403989	-1179.244167	1567.191406	2240.154541
13361.403989	-1179.244167	1566.144531	2107.830078
13361.403989	-1179.244167	1565.098633	2048.745605
13361.403989	-1179.244167	1564.051758	2012.600220
13361.403989	-1179.244167	1563.004883	1791.656982
13361.403989	-1179.244167	1561.957031	1940.630615
13361.403989	-1179.244167	1560.910156	1644.687744
13361.403989	-1179.244167	1559.862305	1567.971191
13361.403989	-1179.244167	1558.814453	1555.257446
13361.403989	-1179.244167	1557.766602	1786.674683
13361.403989	-1179.244167	1556.718750	1267.949097
13361.403989	-1179.244167	1555.669922	1355.912842
13361.403989	-1179.244167	1554.621094	1530.564575
13361.403989	-1179.244167	1553.573242	1627.795044
13361.403989	-1179.244167	1552.523438	1324.083862
13361.403989	-1179.244167	1551.474609	1018.344543
13361.403989	-1179.244167	1550.424805	1302.682739
13361.403989	-1179.244167	1549.375000	1063.317139
13361.403989	-1179.244167	1548.325195	1031.331055
13361.403989	-1179.244167	1547.275391	1113.280273
13361.403989	-1179.244167	1546.225586	1008.716919
13361.403989	-1179.244167	1545.174805	1038.538818
13361.403989	-1179.244167	1544.124023	820.524719
13361.403989	-1179.244167	1543.073242	798.312256
13361.403989	-1179.244167	1542.022461	896.748474
13361.403989	-1179.244167	1540.970703	490.565674
13361.403989	-1179.244167	1539.919922	687.015625
13361.403989	-1179.244167	1538.868164	524.450623
13361.403989	-1179.244167	1537.815430	527.928833
13361.403989	-1179.244167	1536.763672	792.783264
13361.403989	-1179.244167	1535.710938	328.614929
13361.403989	-1179.244167	1534.659180	532.363831
13361.403989	-1179.244167	1533.606445	570.428345
13361.403989	-1179.244167	1532.552734	692.585327
13361.403989	-1179.244167	1531.500000	515.285522
13361.403989	-1179.244167	1530.446289	719.365662
13361.403989	-1179.244167	1529.393555	694.398987
13361.403989	-1179.244167	1528.338867	705.850037
13361.403989	-1179.244167	1527.285156	629.014099
13361.403989	-1179.244167	1526.231445	622.634460
13361.403989	-1179.244167	1525.176758	863.458984
13361.403989	-1179.244167	1524.122070	753.068176
13361.403989	-1179.244167	1523.067383	769.750061
13361.403989	-1179.244167	1522.012695	532.857056
13361.403989	-1179.244167	1520.957031	583.836792
13361.403989	-1179.244167	1519.901367	576.069946
13361.403989	-1179.244167	1518.845703	853.721375
13361.403989	-1179.244167	1517.790039	714.922852
13361.403989	-1179.244167	1516.734375	558.225891
13361.403989	-1179.244167	1515.677734	349.694031
13361.403989	-1179.244167	1514.621094	679.804749
13361.403989	-1179.244167	1513.564453	618.654541
13361.403989	-1179.244167	1512.507813	225.275452
13361.403989	-1179.244167	1511.450195	306.979462
13361.403989	-1179.244167	1510.393555	372.994568
13361.403989	-1179.244167	1509.335938	382.635559
13361.403989	-1179.244167	1508.278320	137.107498
13361.403989	-1179.244167	1507.219727	302.978821
13361.403989	-1179.244167	1506.162109	252.126633
13361.403989	-1179.244167	1505.103516	-37.916328
13361.403989	-1179.244167	1504.044922	-86.105827
13361.403989	-1179.244167	1502.986328	48.726746
13361.403989	-1179.244167	1501.926758	-163.888565
13361.403989	-1179.244167	1500.868164	-164.146591
13361.403989	-1179.244167	1499.808594	-175.524841
13361.403989	-1179.244167	1498.749023	-98.768974
13361.403989	-1179.244167	1497.688477	-35.414787
13361.403989	-1179.244167	1496.628906	-50.818592
13361.403989	-1179.244167	1495.568359	136.816742
13361.403989	-1179.244167	1494.507813	340.322998
13361.403989	-1179.244167	1493.447266	109.042419
13361.403989	-1179.244167	1492.386719	215.944260
13361.403989	-1179.244167	1491.325195	208.097092
13361.403989	-1179.244167	1490.263672	141.876907
13361.403989	-1179.244167	1489.202148	258.223572
13361.403989	-1179.244167	1488.140625	239.635529
13361.403989	-1179.244167	1487.079102	101.947166
13361.403989	-1179.244167	1486.016602	-125.520248
13361.403989	-1179.244167	1484.954102	135.454086
13361.403989	-1179.244167	1483.891602	-75.836533
13361.403989	-1179.244167	1482.829102	23.463690
13361.403989	-1179.244167	1481.765625	269.030151
13361.403989	-1179.244167	1480.702148	242.690308
13361.403989	-1179.244167	1479.638672	126.649551
13361.403989	-1179.244167	1478.575195	22.072193
13361.403989	-1179.244167	1477.511719	301.858856
13361.403989	-1179.244167	1476.447266	179.689590
13361.403989	-1179.244167	1475.382813	271.002289
13361.403989	-1179.244167	1474.318359	232.346008
13361.403989	-1179.244167	1473.253906	50.234570
13361.403989	-1179.244167	1472.189453	38.879082
13361.403989	-1179.244167	1471.124023	200.573608
13361.403989	-1179.244167	1470.058594	299.339142
13361.403989	-1179.244167	1468.993164	373.630859
13361.403989	-1179.244167	1467.927734	443.819977
13361.403989	-1179.244167	1466.861328	390.882782
13361.403989	-1179.244167	1465.794922	494.724335
13361.403989	-1179.244167	1464.728516	750.647339
13361.403989	-1179.244167	1463.662109	924.235901
13361.403989	-1179.244167	1462.594727	885.470825
13361.403989	-1179.244167	1461.528320	698.703125
13361.403989	-1179.244167	1460.460938	848.287170
13361.403989	-1179.244167	1459.393555	836.111206
13361.403989	-1179.244167	1458.326172	220.028809
13361.403989	-1179.244167	1457.257813	372.277344
13361.403989	-1179.244167	1456.189453	383.767975
13361.403989	-1179.244167	1455.121094	586.110046
13361.403989	-1179.244167	1454.052734	372.654968
13361.403989	-1179.244167	1452.984375	241.904572
13361.403989	-1179.244167	1451.915039	501.718140
13361.403989	-1179.244167	1450.845703	405.644653
13361.403989	-1179.244167	1449.776367	638.461243
13361.403989	-1179.244167	1448.707031	557.333740
13361.403989	-1179.244167	1447.636719	282.581024
13361.403989	-1179.244167	1446.567383	291.402771
13361.403989	-1179.244167	1445.497070	308.997589
13361.403989	-1179.244167	1444.425781	428.893158
13361.403989	-1179.244167	1443.355469	295.887604
13361.403989	-1179.244167	1442.285156	463.638000
13361.403989	-1179.244167	1441.213867	385.094971
13361.403989	-1179.244167	1440.142578	556.227539
13361.403989	-1179.244167	1439.070313	252.490570
13361.403989	-1179.244167	1437.999023	188.682449
13361.403989	-1179.244167	1436.926758	248.650894
13361.403989	-1179.244167	1435.854492	-152.073349
13361.403989	-1179.244167	1434.782227	-19.805113
13361.403989	-1179.244167	1433.709961	93.017693
13361.403989	-1179.244167	1432.636719	-33.969490
13361.403989	-1179.244167	1431.563477	-71.342079
13361.403989	-1179.244167	1430.490234	-55.545837
13361.403989	-1179.244167	1429.416992	-167.430832
13361.403989	-1179.244167	1428.343750	-75.128403
13361.403989	-1179.244167	1427.269531	99.140213
13361.403989	-1179.244167	1426.195313	-111.394661
13361.403989	-1179.244167	1425.121094	-48.721821
13361.403989	-1179.244167	1424.046875	69.306641
13361.403989	-1179.244167	1422.971680	-11.764318
13361.403989	-1179.244167	1421.896484	17.560568
13361.403989	-1179.244167	1420.821289	14.200644
13361.403989	-1179.244167	1419.746094	-33.096634
13361.403989	-1179.244167	1418.669922	-149.768143
13361.403989	-1179.244167	1417.594727	-98.680077
13361.403989	-1179.244167	1416.518555	-146.898819
13361.403989	-1179.244167	1415.442383	25.823769
13361.403989	-1179.244167	1414.365234	225.086517
13361.403989	-1179.244167	1413.289063	153.594223
13361.403989	-1179.244167	1412.211914	35.783627
13361.403989	-1179.244167	1411.134766	-107.246246
13361.403989	-1179.244167	1410.057617	65.648422
13361.403989	-1179.244167	1408.979492	16.305460
13361.403989	-1179.244167	1407.902344	-79.310234
13361.403989	-1179.244167	1406.824219	-76.965515
13361.403989	-1179.244167	1405.746094	139.199509
13361.403989	-1179.244167	1404.666992	-31.074421
13361.403989	-1179.244167	1403.588867	-62.409607
13361.403989	-1179.244167	1402.509766	63.775890
13361.403989	-1179.244167	1401.430664	-11.098116
13361.403989	-1179.244167	1400.351563	129.608170
13361.403989	-1179.244167	1399.271484	-59.639236
13361.403989	-1179.244167	1398.192383	26.035828
13361.403989	-1179.244167	1397.112305	152.044846
13361.403989	-1179.244167	1396.031250	229.205719
13361.403989	-1179.244167	1394.951172	310.452332
13361.403989	-1179.244167	1393.871094	169.495071
13361.403989	-1179.244167	1392.790039	141.144455
13361.403989	-1179.244167	1391.708984	315.410675
13361.403989	-1179.244167	1390.626953	228.836960
13361.403989	-1179.244167	1389.545898	172.535370
13361.403989	-1179.244167	1388.463867	346.019196
13361.403989	-1179.244167	1387.381836	223.903488
13361.403989	-1179.244167	1386.299805	277.745850
13361.403989	-1179.244167	1385.217773	117.369545
13361.403989	-1179.244167	1384.134766	285.537262
13361.403989	-1179.244167	1383.051758	278.511932
13361.403989	-1179.244167	1381.968750	198.323807
13361.403989	-1179.244167	1380.885742	398.876099
13361.403989	-1179.244167	1379.802734	568.148315
13361.403989	-1179.244167	1378.718750	451.155701
13361.403989	-1179.244167	1377.634766	555.865540
13361.403989	-1179.244167	1376.550781	428.720123
13361.403989	-1179.244167	1375.465820	674.483154
13361.403989	-1179.244167	1374.381836	643.788147
13361.403989	-1179.244167	1373.296875	603.429382
13361.403989	-1179.244167	1372.211914	406.396851
13361.403989	-1179.244167	1371.126953	710.314392
13361.403989	-1179.244167	1370.041016	610.575256
13361.403989	-1179.244167	1368.955078	635.397461
13361.403989	-1179.244167	1367.869141	770.510437
13361.403989	-1179.244167	1366.783203	916.598511
13361.403989	-1179.244167	1365.697266	859.582458
13361.403989	-1179.244167	1364.610352	924.869690
13361.403989	-1179.244167	1363.523438	1136.472534
13361.403989	-1179.244167	1362.436523	964.710266
13361.403989	-1179.244167	1361.349609	786.093323
13361.403989	-1179.244167	1360.261719	974.037292
13361.403989	-1179.244167	1359.174805	1259.057129
13361.403989	-1179.244167	1358.086914	1066.958130
13361.403989	-1179.244167	1356.998047	1049.895508
13361.403989	-1179.244167	1355.910156	1077.106079
13361.403989	-1179.244167	1354.821289	1208.819824
13361.403989	-1179.244167	1353.732422	1005.416809
13361.403989	-1179.244167	1352.643555	1249.310181
13361.403989	-1179.244167	1351.554688	948.545288
13361.403989	-1179.244167	1350.464844	1057.701050
13361.403989	-1179.244167	1349.375000	1109.969727
13361.403989	-1179.244167	1348.285156	1021.418579
13361.403989	-1179.244167	1347.195313	1027.497437
13361.403989	-1179.244167	1346.105469	901.492126
13361.403989	-1179.244167	1345.014648	1024.776733
13361.403989	-1179.244167	1343.923828	872.308777
13361.403989	-1179.244167	1342.833008	736.997253
13361.403989	-1179.244167	1341.741211	763.538574
13361.403989	-1179.244167	1340.650391	747.315186
13361.403989	-1179.244167	1339.558594	691.168884
13361.403989	-1179.244167	1338.466797	711.085999
13361.403989	-1179.244167	1337.374023	961.048645
13361.403989	-1179.244167	1336.282227	749.241150
13361.403989	-1179.244167	1335.189453	650.332153
13361.403989	-1179.244167	1334.096680	770.395508
13361.403989	-1179.244167	1333.003906	811.922119
13361.403989	-1179.244167	1331.910156	816.880859
13361.403989	-1179.244167	1330.817383	1001.533142
13361.403989	-1179.244167	1329.723633	787.093567
13361.403989	-1179.244167	1328.629883	988.518250
13361.403989	-1179.244167	1327.535156	1172.104492
13361.403989	-1179.244167	1326.441406	1148.859375
13361.403989	-1179.244167	1325.346680	1092.216553
13361.403989	-1179.244167	1324.251953	1133.094849
13361.403989	-1179.244167	1323.156250	1375.862183
13361.403989	-1179.244167	1322.061523	1186.583496
13361.403989	-1179.244167	1320.965820	1131.843506
13361.403989	-1179.244167	1319.870117	1124.478882
13361.403989	-1179.244167	1318.774414	1238.900024
13361.403989	-1179.244167	1317.678711	1200.070679
13361.403989	-1179.244167	1316.582031	1279.505615
13361.403989	-1179.244167	1315.485352	993.150146
13361.403989	-1179.244167	1314.388672	991.452209
13361.403989	-1179.244167	1313.291016	885.286194
13361.403989	-1179.244167	1312.194336	1063.104370
13361.403989	-1179.244167	1311.096680	882.453674
13361.403989	-1179.244167	1309.999023	995.457092
13361.403989	-1179.244167	1308.901367	1002.347595
13361.403989	-1179.244167	1307.802734	865.300598
13361.403989	-1179.244167	1306.705078	1122.092041
13361.403989	-1179.244167	1305.606445	937.831970
13361.403989	-1179.244167	1304.506836	1053.827759
13361.403989	-1179.244167	1303.408203	1131.138306
13361.403989	-1179.244167	1302.308594	1115.823120
13361.403989	-1179.244167	1301.208984	1127.739014
13361.403989	-1179.244167	1300.109375	1313.328003
13361.403989	-1179.244167	1299.009766	1370.893311
13361.403989	-1179.244167	1297.909180	1397.860962
13361.403989	-1179.244167	1296.808594	1475.800293
13361.403989	-1179.244167	1295.708008	1620.135864
13361.403989	-1179.244167	1294.607422	1472.553711
13361.403989	-1179.244167	1293.506836	1529.985962
13361.403989	-1179.244167	1292.405273	1510.942749
13361.403989	-1179.244167	1291.303711	1277.753174
13361.403989	-1179.244167	1290.202148	1395.245972
13361.403989	-1179.244167	1289.099609	1156.968262
13361.403989	-1179.244167	1287.998047	1045.809814
13361.403989	-1179.244167	1286.895508	1066.589233
13361.403989	-1179.244167	1285.792969	1119.307129
13361.403989	-1179.244167	1284.689453	1100.925293
13361.403989	-1179.244167	1283.586914	1091.705811
13361.403989	-1179.244167	1282.483398	1073.803711
13361.403989	-1179.244167	1281.379883	863.921753
13361.403989	-1179.244167	1280.276367	1060.569214
13361.403989	-1179.244167	1279.171875	1055.398315
13361.403989	-1179.244167	1278.067383	1012.351990
13361.403989	-1179.244167	1276.962891	1041.012695
13361.403989	-1179.244167	1275.858398	1040.960205
13361.403989	-1179.244167	1274.753906	1149.780273
13361.403989	-1179.244167	1273.648438	1161.593628
13361.403989	-1179.244167	1272.542969	1035.935913
13361.403989	-1179.244167	1271.437500	1196.266724
13361.403989	-1179.244167	1270.331055	1169.159302
13361.403989	-1179.244167	1269.225586	968.818787
13361.403989	-1179.244167	1268.119141	870.232727
13361.403989	-1179.244167	1267.012695	980.516602
13361.403989	-1179.244167	1265.906250	713.379211
13361.403989	-1179.244167	1264.798828	781.685730
13361.403989	-1179.244167	1263.691406	547.890625
13361.403989	-1179.244167	1262.583984	392.239594
13361.403989	-1179.244167	1261.476563	445.372986
13361.403989	-1179.244167	1260.368164	374.941284
13361.403989	-1179.244167	1259.260742	289.670929
13361.403989	-1179.244167	1258.152344	191.297760
13361.403989	-1179.244167	1257.043945	389.700958
13361.403989	-1179.244167	1255.934570	93.758614
13361.403989	-1179.244167	1254.825195	138.330353
13361.403989	-1179.244167	1253.716797	243.563919
13361.403989	-1179.244167	1252.606445	125.129227
13361.403989	-1179.244167	1251.497070	87.791382
13361.403989	-1179.244167	1250.387695	141.331772
13361.403989	-1179.244167	1249.277344	68.573799
13361.403989	-1179.244167	1248.166992	213.755066
13361.403989	-1179.244167	1247.055664	184.965576
13361.403989	-1179.244167	1245.945313	249.884003
13361.403989	-1179.244167	1244.833984	38.709122
13361.403989	-1179.244167	1243.722656	203.420776
13361.403989	-1179.244167	1242.611328	52.676975
13361.403989	-1179.244167	1241.499023	153.047165
13361.403989	-1179.244167	1240.387695	147.088074
13361.403989	-1179.244167	1239.275391	81.321671
13361.403989	-1179.244167	1238.162109	301.144196
13361.403989	-1179.244167	1237.049805	182.778473
13361.403989	-1179.244167	1235.936523	110.039398
13361.403989	-1179.244167	1234.823242	248.905975
13361.403989	-1179.244167	1233.709961	195.550903
13361.403989	-1179.244167	1232.596680	295.287506
13361.403989	-1179.244167	1231.482422	309.917603
13361.403989	-1179.244167	1230.369141	198.189667
13361.403989	-1179.244167	1229.253906	308.890198
13361.403989	-1179.244167	1228.139648	288.622101
13361.403989	-1179.244167	1227.025391	88.517281
13361.403989	-1179.244167	1225.910156	289.781738
13361.403989	-1179.244167	1224.794922	265.593994
13361.403989	-1179.244167	1223.679688	345.357269
13361.403989	-1179.244167	1222.563477	239.242340
13361.403989	-1179.244167	1221.447266	287.928833
13361.403989	-1179.244167	1220.331055	335.367859
13361.403989	-1179.244167	1219.214844	432.685303
13361.403989	-1179.244167	1218.098633	380.742493
13361.403989	-1179.244167	1216.981445	436.154419
13361.403989	-1179.244167	1215.864258	463.588165
13361.403989	-1179.244167	1214.747070	392.664856
13361.403989	-1179.244167	1213.629883	366.232086
13361.403989	-1179.244167	1212.511719	439.513214
13361.403989	-1179.244167	1211.393555	589.915710
13361.403989	-1179.244167	1210.275391	392.712036
13361.403989	-1179.244167	1209.157227	412.943268
13361.403989	-1179.244167	1208.038086	566.632385
13361.403989	-1179.244167	1206.918945	450.822815
13361.403989	-1179.244167	1205.799805	435.494141
13361.403989	-1179.244167	1204.680664	448.188385
13361.403989	-1179.244167	1203.560547	353.508514
13361.403989	-1179.244167	1202.441406	243.294739
13361.403989	-1179.244167	1201.321289	325.613190
13361.403989	-1179.244167	1200.200195	300.750977
13361.403989	-1179.244167	1199.080078	276.909912
13361.403989	-1179.244167	1197.958984	239.584625
13361.403989	-1179.244167	1196.837891	201.501602
13361.403989	-1179.244167	1195.716797	159.876846
13361.403989	-1179.244167	1194.594727	348.024902
13361.403989	-1179.244167	1193.473633	251.487991
13361.403989	-1179.244167	1192.351563	349.098175
13361.403989	-1179.244167	1191.229492	207.586166
13361.403989	-1179.244167	1190.106445	370.957794
13361.403989	-1179.244167	1188.984375	147.683411
13361.403989	-1179.244167	1187.861328	100.827171
13361.403989	-1179.244167	1186.738281	13.877833
13361.403989	-1179.244167	1185.614258	56.657440
13361.403989	-1179.244167	1184.491211	-65.728363
13361.403989	-1179.244167	1183.367188	142.057571
13361.403989	-1179.244167	1182.243164	-22.077753
13361.403989	-1179.244167	1181.119141	-97.026619
13361.403989	-1179.244167	1179.994141	-91.431084
13361.403989	-1179.244167	1178.869141	-34.413242
13361.403989	-1179.244167	1177.744141	-132.978638
13361.403989	-1179.244167	1176.619141	-178.460907
13361.403989	-1179.244167	1175.493164	-216.589218
13361.403989	-1179.244167	1174.368164	-181.767548
13361.403989	-1179.244167	1173.242188	-287.617676
13361.403989	-1179.244167	1172.115234	-193.655045
13361.403989	-1179.244167	1170.989258	-151.653336
13361.403989	-1179.244167	1169.862305	-354.956360
13361.403989	-1179.244167	1168.735352	-442.554718
13361.403989	-1179.244167	1167.608398	-329.064209
13361.403989	-1179.244167	1166.481445	-146.821274
13361.403989	-1179.244167	1165.353516	-198.371002
13361.403989	-1179.244167	1164.225586	-85.204651
13361.403989	-1179.244167	1163.097656	-228.594238
13361.403989	-1179.244167	1161.968750	-149.146484
13361.403989	-1179.244167	1160.840820	-35.764679
13361.403989	-1179.244167	1159.711914	-33.636475
13361.403989	-1179.244167	1158.583008	-180.259598
13361.403989	-1179.244167	1157.453125	-94.661919
13361.403989	-1179.244167	1156.324219	-172.600632
13361.403989	-1179.244167	1155.194336	-125.843941
13361.403989	-1179.244167	1154.064453	32.761108
13361.403989	-1179.244167	1152.933594	-16.942471
13361.403989	-1179.244167	1151.803711	-123.715195
13361.403989	-1179.244167	1150.672852	-185.733002
13361.403989	-1179.244167	1149.541992	-142.665848
13361.403989	-1179.244167	1148.411133	-134.673279
13361.403989	-1179.244167	1147.279297	94.160675
13361.403989	-1179.244167	1146.147461	41.969040
13361.403989	-1179.244167	1145.015625	-176.398911
13361.403989	-1179.244167	1143.883789	45.240128
13361.403989	-1179.244167	1142.750977	54.229580
13361.403989	-1179.244167	1141.619141	-2.736563
13361.403989	-1179.244167	1140.486328	102.770050
13361.403989	-1179.244167	1139.352539	130.650314
13361.403989	-1179.244167	1138.219727	99.262718
13361.403989	-1179.244167	1137.085938	254.469803
13361.403989	-1179.244167	1135.952148	-38.585869
13361.403989	-1179.244167	1134.818359	41.134548
13361.403989	-1179.244167	1133.683594	112.610725
13361.403989	-1179.244167	1132.549805	151.873825
13361.403989	-1179.244167	1131.415039	354.784760
13361.403989	-1179.244167	1130.279297	361.786438
13361.403989	-1179.244167	1129.144531	369.499390
13361.403989	-1179.244167	1128.008789	316.136658
13361.403989	-1179.244167	1126.873047	378.417603
13361.403989	-1179.244167	1125.737305	296.964203
13361.403989	-1179.244167	1124.601563	198.952103
13361.403989	-1179.244167	1123.464844	357.556702
13361.403989	-1179.244167	1122.328125	557.313171
13361.403989	-1179.244167	1121.191406	397.786896
13361.403989	-1179.244167	1120.054688	477.546112
13361.403989	-1179.244167	1118.916992	391.494507
13361.403989	-1179.244167	1117.779297	209.919571
13361.403989	-1179.244167	1116.641602	331.995056
13361.403989	-1179.244167	1115.503906	281.762939
13361.403989	-1179.244167	1114.365234	201.251633
13361.403989	-1179.244167	1113.226563	233.098541
13361.403989	-1179.244167	1112.087891	306.973633
13361.403989	-1179.244167	1110.949219	-25.292082
13361.403989	-1179.244167	1109.809570	144.702621
13361.403989	-1179.244167	1108.669922	131.857224
13361.403989	-1179.244167	1107.530273	-87.162193
13361.403989	-1179.244167	1106.390625	29.295773
13361.403989	-1179.244167	1105.250000	156.384979
13361.403989	-1179.244167	1104.109375	105.702538
13361.403989	-1179.244167	1102.968750	63.137203
13361.403989	-1179.244167	1101.828125	116.529892
13361.403989	-1179.244167	1100.686523	148.881866
13361.403989	-1179.244167	1099.544922	223.852081
13361.403989	-1179.244167	1098.403320	173.994385
13361.403989	-1179.244167	1097.261719	203.243469
13361.403989	-1179.244167	1096.120117	112.023338
13361.403989	-1179.244167	1094.977539	382.452087
13361.403989	-1179.244167	1093.834961	247.180313
13361.403989	-1179.244167	1092.691406	349.221527
13361.403989	-1179.244167	1091.548828	457.372437
13361.403989	-1179.244167	1090.405273	399.866852
13361.403989	-1179.244167	1089.261719	513.445557
13361.403989	-1179.244167	1088.118164	547.448547
13361.403989	-1179.244167	1086.973633	483.394928
13361.403989	-1179.244167	1085.829102	393.727875
13361.403989	-1179.244167	1084.684570	614.337280
13361.403989	-1179.244167	1083.540039	455.402039
13361.403989	-1179.244167	1082.395508	301.421539
13361.403989	-1179.244167	1081.250000	351.878265
13361.403989	-1179.244167	1080.104492	410.287170
13361.403989	-1179.244167	1078.958984	361.946381
13361.403989	-1179.244167	1077.812500	462.764038
13361.403989	-1179.244167	1076.666016	280.909607
13361.403989	-1179.244167	1075.519531	289.631439
13361.403989	-1179.244167	1074.373047	168.509903
13361.403989	-1179.244167	1073.226563	184.955521
13361.403989	-1179.244167	1072.079102	251.216934
13361.403989	-1179.244167	1070.931641	195.671051
13361.403989	-1179.244167	1069.784180	160.831848
13361.403989	-1179.244167	1068.635742	270.071869
13361.403989	-1179.244167	1067.487305	155.410797
13361.403989	-1179.244167	1066.338867	390.880249
13361.403989	-1179.244167	1065.190430	296.062622
13361.403989	-1179.244167	1064.041992	427.971039
13361.403989	-1179.244167	1062.892578	260.623169
13361.403989	-1179.244167	1061.743164	241.118225
13361.403989	-1179.244167	1060.593750	404.572815
13361.403989	-1179.244167	1059.443359	282.455627
13361.403989	-1179.244167	1058.292969	255.112183
13361.403989	-1179.244167	1057.142578	369.055573
13361.403989	-1179.244167	1055.992188	149.006012
13361.403989	-1179.244167	1054.841797	371.334015
13361.403989	-1179.244167	1053.690430	88.909416
13361.403989	-1179.244167	1052.539063	69.860252
13361.403989	-1179.244167	1051.387695	74.464348
13361.403989	-1179.244167	1050.235352	315.406738
13361.403989	-1179.244167	1049.083984	322.859741
13361.403989	-1179.244167	1047.931641	243.528839
13361.403989	-1179.244167	1046.778320	173.977814
13361.403989	-1179.244167	1045.625977	147.190887
13361.403989	-1179.244167	1044.472656	125.023598
13361.403989	-1179.244167	1043.319336	252.581116
13361.403989	-1179.244167	1042.166016	314.600311
13361.403989	-1179.244167	1041.012695	438.419617
13361.403989	-1179.244167	1039.858398	372.519409
13361.403989	-1179.244167	1038.704102	297.036407
13361.403989	-1179.244167	1037.549805	338.457550
13361.403989	-1179.244167	1036.394531	372.304077
13361.403989	-1179.244167	1035.239258	366.510742
13361.403989	-1179.244167	1034.083984	-64.767601
13361.403989	-1179.244167	1032.928711	85.985260
13361.403989	-1179.244167	1031.773438	80.586273
13361.403989	-1179.244167	1030.617188	6.728329
13361.403989	-1179.244167	1029.460938	139.244965
13361.403989	-1179.244167	1028.304688	235.352554
13361.403989	-1179.244167	1027.147461	230.441116
13361.403989	-1179.244167	1025.991211	162.523346
13361.403989	-1179.244167	1024.833984	178.566116
13361.403989	-1179.244167	1023.675781	421.028839
13361.403989	-1179.244167	1022.518555	311.447998
13361.403989	-1179.244167	1021.360352	499.611420
13361.403989	-1179.244167	1020.202148	308.759399
13361.403989	-1179.244167	1019.043945	503.923767
13361.403989	-1179.244167	1017.884766	177.578094
13361.403989	-1179.244167	1016.726563	385.746704
13361.403989	-1179.244167	1015.567383	340.424011
13361.403989	-1179.244167	1014.407227	349.159302
13361.403989	-1179.244167	1013.248047	440.610931
13361.403989	-1179.244167	1012.087891	359.981079
13361.403989	-1179.244167	1010.927734	360.788696
13361.403989	-1179.244167	1009.767578	323.448517
13361.403989	-1179.244167	1008.606445	222.630966
13361.403989	-1179.244167	1007.446289	321.818237
13361.403989	-1179.244167	1006.285156	317.891632
13361.403989	-1179.244167	1005.123047	330.249115
13361.403989	-1179.244167	1003.961914	346.851624
13361.403989	-1179.244167	1002.799805	198.030426
13361.403989	-1179.244167	1001.637695	335.855682
13361.403989	-1179.244167	1000.475586	218.595596
13361.403989	-1179.244167	999.312500	205.737701
13361.403989	-1179.244167	998.149414	342.238037
13361.403989	-1179.244167	996.986328	89.667603
13361.403989	-1179.244167	995.823242	20.522112
13361.403989	-1179.244167	994.659180	110.165886
13361.403989	-1179.244167	993.496094	30.254025
13361.403989	-1179.244167	992.332031	117.283020
13361.403989	-1179.244167	991.166992	-39.083515
13361.403989	-1179.244167	990.002930	-80.707817
13361.403989	-1179.244167	988.837891	101.673935
13361.403989	-1179.244167	987.672852	54.984009
13361.403989	-1179.244167	986.506836	-70.782715
13361.403989	-1179.244167	985.341797	-73.059441
13361.403989	-1179.244167	984.175781	-28.505505
13361.403989	-1179.244167	983.009766	-147.302017
13361.403989	-1179.244167	981.843750	-262.816498
13361.403989	-1179.244167	980.676758	-13.980039
13361.403989	-1179.244167	979.509766	-49.868156
13361.403989	-1179.244167	978.342773	54.708252
13361.403989	-1179.244167	977.175781	51.730289
13361.403989	-1179.244167	976.007813	211.340958
13361.403989	-1179.244167	974.839844	-0.786111
13361.403989	-1179.244167	973.671875	66.534264
13361.403989	-1179.244167	972.503906	-74.160172
13361.403989	-1179.244167	971.334961	147.231461
13361.403989	-1179.244167	970.166016	117.566498
13361.403989	-1179.244167	968.997070	-22.418121
13361.403989	-1179.244167	967.828125	317.919830
13361.403989	-1179.244167	966.658203	-6.969299
13361.403989	-1179.244167	965.488281	-171.302261
13361.403989	-1179.244167	964.318359	-113.509140
13361.403989	-1179.244167	963.148438	95.431198
13361.403989	-1179.244167	961.977539	-99.308350
13361.403989	-1179.244167	960.806641	-89.035278
13361.403989	-1179.244167	959.635742	-253.132797
13361.403989	-1179.244167	958.463867	-70.676117
13361.403989	-1179.244167	957.292969	-202.160507
13361.403989	-1179.244167	956.121094	-96.374741
13361.403989	-1179.244167	954.948242	-255.776306
13361.403989	-1179.244167	953.776367	-173.318359
13361.403989	-1179.244167	952.603516	-21.617935
13361.403989	-1179.244167	951.430664	-57.142525
13361.403989	-1179.244167	950.257813	-26.207973
13361.403989	-1179.244167	949.084961	-16.677002
13361.403989	-1179.244167	947.911133	87.310471
13361.403989	-1179.244167	946.737305	59.501862
13361.403989	-1179.244167	945.563477	259.882111
13361.403989	-1179.244167	944.388672	126.209641
13361.403989	-1179.244167	943.213867	-33.506348
13361.403989	-1179.244167	942.039063	-26.915710
13361.403989	-1179.244167	940.864258	-85.451523
13361.403989	-1179.244167	939.688477	184.688522
13361.403989	-1179.244167	938.513672	53.227516
13361.403989	-1179.244167	937.337891	142.557602
13361.403989	-1179.244167	936.161133	20.397987
13361.403989	-1179.244167	934.985352	83.800964
13361.403989	-1179.244167	933.808594	18.080420
13361.403989	-1179.244167	932.631836	142.545471
13361.403989	-1179.244167	931.454102	316.222839
13361.403989	-1179.244167	930.277344	351.365173
13361.403989	-1179.244167	929.099609	306.639709
13361.403989	-1179.244167	927.921875	268.953217
13361.403989	-1179.244167	926.743164	235.981812
13361.403989	-1179.244167	925.565430	240.539703
13361.403989	-1179.244167	924.386719	324.889709
13361.403989	-1179.244167	923.208008	289.543121
13361.403989	-1179.244167	922.028320	172.093002
13361.403989	-1179.244167	920.849609	155.514709
13361.403989	-1179.244167	919.669922	159.970383
13361.403989	-1179.244167	919.474609	306.152252
13361.403989	-1179.244167	918.309570	80.837212
13361.403989	-1179.244167	917.143555	153.270142
13361.403989	-1179.244167	915.977539	145.988754
13361.403989	-1179.244167	914.810547	216.018555
13361.403989	-1179.244167	913.644531	396.096741
13361.403989	-1179.244167	912.477539	206.073700
13361.403989	-1179.244167	911.310547	79.336769
13361.403989	-1179.244167	910.143555	149.281799
13361.403989	-1179.244167	908.975586	404.091431
13361.403989	-1179.244167	907.807617	399.047516
13361.403989	-1179.244167	906.639648	160.043930
13361.403989	-1179.244167	905.471680	129.305588
13361.403989	-1179.244167	904.303711	234.209747
13361.403989	-1179.244167	903.134766	423.237793
13361.403989	-1179.244167	901.965820	343.354187
13361.403989	-1179.244167	900.796875	258.821930
13361.403989	-1179.244167	899.626953	90.200462
13361.403989	-1179.244167	898.457031	395.889832
13361.403989	-1179.244167	897.287109	129.195969
13361.403989	-1179.244167	896.117188	191.873962
13361.403989	-1179.244167	894.947266	287.207275
13361.403989	-1179.244167	893.776367	55.698635
13361.403989	-1179.244167	892.605469	225.695358
13361.403989	-1179.244167	891.434570	220.616577
13361.403989	-1179.244167	890.262695	241.200363
13361.403989	-1179.244167	889.091797	184.797348
13361.403989	-1179.244167	887.919922	158.732056
13361.403989	-1179.244167	886.748047	81.381081
13361.403989	-1179.244167	885.575195	-28.573248
13361.403989	-1179.244167	884.403320	180.786102
13361.403989	-1179.244167	883.230469	131.429123
13361.403989	-1179.244167	882.057617	319.699158
13361.403989	-1179.244167	880.883789	172.508942
13361.403989	-1179.244167	879.710938	148.786285
13361.403989	-1179.244167	878.537109	150.681763
13361.403989	-1179.244167	877.362305	457.496216
13361.403989	-1179.244167	876.188477	152.136948
13361.403989	-1179.244167	875.013672	165.656815
13361.403989	-1179.244167	873.839844	209.405426
13361.403989	-1179.244167	872.664063	194.997681
13361.403989	-1179.244167	871.489258	-124.020050
13361.403989	-1179.244167	870.313477	17.399200
13361.403989	-1179.244167	869.138672	-89.945740
13361.403989	-1179.244167	867.962891	-76.408325
13361.403989	-1179.244167	866.786133	-253.389923
13361.403989	-1179.244167	865.610352	-67.938377
13361.403989	-1179.244167	864.433594	-216.986298
13361.403989	-1179.244167	863.256836	79.831047
13361.403989	-1179.244167	862.079102	-166.689011
13361.403989	-1179.244167	860.902344	-97.464439
13361.403989	-1179.244167	859.724609	6.539852
13361.403989	-1179.244167	858.546875	-68.142479
13361.403989	-1179.244167	857.368164	-147.432892
13361.403989	-1179.244167	856.190430	-124.658554
13361.403989	-1179.244167	855.011719	-92.620377
13361.403989	-1179.244167	853.833008	-160.276901
13361.403989	-1179.244167	852.654297	-102.757149
13361.403989	-1179.244167	851.474609	-186.607620
13361.403989	-1179.244167	850.294922	-217.143356
13361.403989	-1179.244167	849.115234	-76.271675
13361.403989	-1179.244167	847.935547	-9.564992
13361.403989	-1179.244167	846.754883	71.004341
13361.403989	-1179.244167	845.575195	21.906012
13361.403989	-1179.244167	844.393555	134.830597
13361.403989	-1179.244167	843.212891	247.701462
13361.403989	-1179.244167	842.032227	15.831364
13361.403989	-1179.244167	840.850586	193.434387
13361.403989	-1179.244167	839.668945	169.780426
13361.403989	-1179.244167	838.486328	-27.261162
13361.403989	-1179.244167	837.304688	87.815437
13361.403989	-1179.244167	836.122070	-199.266556
13361.403989	-1179.244167	834.939453	-315.259705
13361.403989	-1179.244167	833.756836	-324.951355
13361.403989	-1179.244167	832.573242	-253.807205
13361.403989	-1179.244167	831.389648	-34.919701
13361.403989	-1179.244167	830.206055	-157.799820
13361.403989	-1179.244167	829.022461	-285.254486
13361.403989	-1179.244167	827.838867	-119.592590
13361.403989	-1179.244167	826.654297	-101.662689
13361.403989	-1179.244167	825.469727	-113.734970
13361.403989	-1179.244167	824.284180	-22.028164
13361.403989	-1179.244167	823.099609	152.634506
13361.403989	-1179.244167	821.914063	82.862709
13361.403989	-1179.244167	820.728516	-346.437927
13361.403989	-1179.244167	819.542969	-19.756046
13361.403989	-1179.244167	818.356445	-193.149323
13361.403989	-1179.244167	817.169922	-225.976791
13361.403989	-1179.244167	815.983398	-125.232979
13361.403989	-1179.244167	814.796875	-102.824478
13361.403989	-1179.244167	813.609375	-299.118622
13361.403989	-1179.244167	812.422852	-147.825287
13361.403989	-1179.244167	811.235352	31.007774
13361.403989	-1179.244167	810.046875	-52.501713
13361.403989	-1179.244167	808.859375	110.111244
13361.403989	-1179.244167	807.670898	157.668900
13361.403989	-1179.244167	806.482422	154.612015
13361.403989	-1179.244167	805.293945	9.028087
13361.403989	-1179.244167	804.104492	5.977343
13361.403989	-1179.244167	802.915039	90.222855
13361.403989	-1179.244167	801.725586	254.818863
13361.403989	-1179.244167	800.536133	-33.121819
13361.403989	-1179.244167	799.345703	179.622131
13361.403989	-1179.244167	798.155273	116.769844
13361.403989	-1179.244167	796.964844	35.563042
13361.403989	-1179.244167	795.774414	-114.472389
13361.403989	-1179.244167	794.583008	196.699203
13361.403989	-1179.244167	793.392578	239.338043
13361.403989	-1179.244167	792.200195	-112.517326
13361.403989	-1179.244167	791.008789	10.382590
13361.403989	-1179.244167	789.816406	32.345840
13361.403989	-1179.244167	788.625000	155.121979
13361.403989	-1179.244167	787.432617	353.446716
13361.403989	-1179.244167	786.239258	329.442474
13361.403989	-1179.244167	785.046875	779.561096
13361.403989	-1179.244167	783.853516	739.401428
13361.403989	-1179.244167	782.660156	742.735535
13361.403989	-1179.244167	781.465820	494.244232
13361.403989	-1179.244167	780.272461	728.729126
13361.403989	-1179.244167	779.078125	583.259583
13361.403989	-1179.244167	777.883789	529.330322
13361.403989	-1179.244167	776.688477	507.421051
13361.403989	-1179.244167	775.494141	380.300201
13361.403989	-1179.244167	774.298828	303.503784
13361.403989	-1179.244167	773.103516	425.574463
13361.403989	-1179.244167	771.907227	526.998596
13361.403989	-1179.244167	770.711914	594.076111
13361.403989	-1179.244167	769.515625	640.537109
13361.403989	-1179.244167	768.318359	376.343811
13361.403989	-1179.244167	767.122070	358.832458
13361.403989	-1179.244167	765.924805	304.772034
13361.403989	-1179.244167	764.727539	271.242462
13361.403989	-1179.244167	763.530273	520.659119
13361.403989	-1179.244167	762.333008	304.509796
13361.403989	-1179.244167	761.134766	129.476791
13361.403989	-1179.244167	759.936523	333.053253
13361.403989	-1179.244167	758.738281	438.465118
13361.403989	-1179.244167	757.540039	233.769409
13361.403989	-1179.244167	756.340820	168.150330
13361.403989	-1179.244167	755.141602	164.044479
13361.403989	-1179.244167	753.942383	121.171951
13361.403989	-1179.244167	752.742188	226.331100
13361.403989	-1179.244167	751.541992	-7.901731
13361.403989	-1179.244167	750.341797	117.650574
13361.403989	-1179.244167	749.141602	309.122162
13361.403989	-1179.244167	747.941406	505.022217
13361.403989	-1179.244167	746.740234	213.878403
13361.403989	-1179.244167	745.539063	266.316040
13361.403989	-1179.244167	744.337891	127.640213
13361.403989	-1179.244167	743.135742	-4.199651
13361.403989	-1179.244167	741.933594	127.689468
13361.403989	-1179.244167	740.731445	425.404633
13361.403989	-1179.244167	739.529297	345.714722
13361.403989	-1179.244167	738.326172	222.844513
13361.403989	-1179.244167	737.124023	104.518494
13361.403989	-1179.244167	735.919922	170.154053
13361.403989	-1179.244167	734.716797	149.428329
13361.403989	-1179.244167	733.513672	319.352142
13361.403989	-1179.244167	732.309570	271.269104
13361.403989	-1179.244167	731.105469	386.536499
13361.403989	-1179.244167	729.900391	342.896301
13361.403989	-1179.244167	728.696289	294.684021
13361.403989	-1179.244167	727.491211	248.708405
13361.403989	-1179.244167	726.286133	-87.512924
13361.403989	-1179.244167	725.080078	170.255020
13361.403989	-1179.244167	723.874023	62.982079
13361.403989	-1179.244167	722.668945	173.219284
13361.403989	-1179.244167	721.461914	321.867889
13361.403989	-1179.244167	720.255859	366.212097
13361.403989	-1179.244167	719.048828	229.326645
13361.403989	-1179.244167	717.841797	169.415054
13361.403989	-1179.244167	716.634766	263.386902
13361.403989	-1179.244167	715.427734	336.893097
13361.403989	-1179.244167	714.219727	125.231689
13361.403989	-1179.244167	713.011719	-41.159241
13361.403989	-1179.244167	711.803711	206.327225
13361.403989	-1179.244167	710.594727	62.478333
13361.403989	-1179.244167	709.385742	-13.552859
13361.403989	-1179.244167	708.176758	206.466553
13361.403989	-1179.244167	706.967773	-106.955109
13361.403989	-1179.244167	705.758789	318.454132
13361.403989	-1179.244167	704.548828	321.237183
13361.403989	-1179.244167	703.338867	314.921417
13361.403989	-1179.244167	702.127930	392.082825
13361.403989	-1179.244167	700.917969	232.127548
13361.403989	-1179.244167	699.707031	311.399475
13361.403989	-1179.244167	698.496094	331.906677
13361.403989	-1179.244167	697.285156	381.664337
13361.403989	-1179.244167	696.073242	244.134979
13361.403989	-1179.244167	694.861328	305.029999
13361.403989	-1179.244167	693.649414	431.212280
13361.403989	-1179.244167	692.436523	358.919586
13361.403989	-1179.244167	691.224609	448.843201
13361.403989	-1179.244167	690.011719	367.427765
13361.403989	-1179.244167	688.798828	653.146667
13361.403989	-1179.244167	687.584961	501.766785
13361.403989	-1179.244167	686.372070	368.393005
13361.403989	-1179.244167	685.158203	514.148254
13361.403989	-1179.244167	683.943359	405.443146
13361.403989	-1179.244167	682.729492	393.470825
13361.403989	-1179.244167	681.514648	518.666382
13361.403989	-1179.244167	680.299805	335.586792
13361.403989	-1179.244167	679.084961	408.874329
13361.403989	-1179.244167	677.869141	778.834595
13361.403989	-1179.244167	676.653320	782.168274
13361.403989	-1179.244167	675.437500	574.173950
13361.403989	-1179.244167	674.221680	494.266510
13361.403989	-1179.244167	673.004883	594.031616
13361.403989	-1179.244167	671.789063	606.089233
13361.403989	-1179.244167	670.571289	597.856934
13361.403989	-1179.244167	669.354492	360.563293
13361.403989	-1179.244167	668.136719	587.911987
13361.403989	-1179.244167	666.919922	720.840881
13361.403989	-1179.244167	665.701172	683.123230
13361.403989	-1179.244167	664.483398	643.104736
13361.403989	-1179.244167	663.264648	881.112610
13361.403989	-1179.244167	662.045898	831.947876
13361.403989	-1179.244167	660.827148	937.404602
13361.403989	-1179.244167	659.608398	769.313660
13361.403989	-1179.244167	658.388672	451.085510
13361.403989	-1179.244167	657.168945	670.581116
13361.403989	-1179.244167	655.949219	650.249695
13361.403989	-1179.244167	654.728516	560.430237
13361.403989	-1179.244167	653.507813	495.199768
13361.403989	-1179.244167	652.287109	548.555420
13361.403989	-1179.244167	651.066406	684.614502
13361.403989	-1179.244167	649.844727	574.420776
13361.403989	-1179.244167	648.623047	495.515564
13361.403989	-1179.244167	647.401367	573.121582
13361.403989	-1179.244167	646.179688	798.196106
13361.403989	-1179.244167	644.957031	741.420349
13361.403989	-1179.244167	643.734375	552.723694
13361.403989	-1179.244167	642.511719	556.205872
13361.403989	-1179.244167	641.289063	537.271423
13361.403989	-1179.244167	640.065430	498.164063
13361.403989	-1179.244167	638.841797	206.650192
13361.403989	-1179.244167	637.618164	366.190094
13361.403989	-1179.244167	636.393555	447.458984
13361.403989	-1179.244167	635.168945	421.494019
13361.403989	-1179.244167	633.944336	471.329742
13361.403989	-1179.244167	632.719727	500.993805
13361.403989	-1179.244167	631.494141	378.906433
13361.403989	-1179.244167	630.269531	488.706818
13361.403989	-1179.244167	629.042969	455.701508
13361.403989	-1179.244167	627.817383	547.459778
13361.403989	-1179.244167	626.590820	614.591919
13361.403989	-1179.244167	625.365234	474.425201
13361.403989	-1179.244167	624.137695	588.176697
13361.403989	-1179.244167	622.911133	868.839233
13361.403989	-1179.244167	621.683594	670.598938
13361.403989	-1179.244167	620.456055	474.600342
13361.403989	-1179.244167	619.228516	169.559814
13361.403989	-1179.244167	618.000977	316.283600
13361.403989	-1179.244167	616.772461	327.169952
13361.403989	-1179.244167	615.543945	371.346130
13361.403989	-1179.244167	614.314453	370.958344
13361.403989	-1179.244167	613.085938	270.462036
13361.403989	-1179.244167	611.856445	165.493820
13361.403989	-1179.244167	610.626953	211.621613
13361.403989	-1179.244167	609.397461	97.692818
13361.403989	-1179.244167	608.166992	134.798828
13361.403989	-1179.244167	606.936523	-70.252945
13361.403989	-1179.244167	605.706055	2.273599
13361.403989	-1179.244167	604.474609	-120.652290
13361.403989	-1179.244167	603.244141	-221.387726
13361.403989	-1179.244167	602.012695	117.217896
13361.403989	-1179.244167	600.780273	-143.387466
13361.403989	-1179.244167	599.548828	-31.302794
13361.403989	-1179.244167	598.316406	-92.299561
13361.403989	-1179.244167	597.083984	63.950657
13361.403989	-1179.244167	595.851563	240.027847
13361.403989	-1179.244167	594.618164	243.109085
13361.403989	-1179.244167	593.384766	263.858887
13361.403989	-1179.244167	592.151367	235.812393
13361.403989	-1179.244167	590.917969	21.685389
13361.403989	-1179.244167	589.683594	113.165596
13361.403989	-1179.244167	588.449219	-196.145691
13361.403989	-1179.244167	587.214844	322.416565
13361.403989	-1179.244167	585.979492	-152.875946
13361.403989	-1179.244167	584.745117	-24.023460
13361.403989	-1179.244167	583.509766	-50.111645
13361.403989	-1179.244167	582.273438	-82.873917
13361.403989	-1179.244167	581.038086	41.317730
13361.403989	-1179.244167	579.801758	-22.485844
13361.403989	-1179.244167	578.565430	-64.204422
13361.403989	-1179.244167	577.329102	-77.221657
13361.403989	-1179.244167	576.091797	-136.670349
13361.403989	-1179.244167	574.854492	-224.844177
13361.403989	-1179.244167	573.617188	-43.623829
13361.403989	-1179.244167	572.378906	106.569771
13361.403989	-1179.244167	571.141602	0.630814
13361.403989	-1179.244167	569.903320	-45.719292
13361.403989	-1179.244167	568.664063	-114.152267
13361.403989	-1179.244167	567.425781	4.910842
13361.403989	-1179.244167	566.186523	159.172775
13361.403989	-1179.244167	564.947266	97.261032
13361.403989	-1179.244167	563.708008	4.486443
13361.403989	-1179.244167	562.467773	129.907455
13361.403989	-1179.244167	561.227539	92.192703
13361.403989	-1179.244167	559.987305	100.732109
13361.403989	-1179.244167	558.747070	173.115814
13361.403989	-1179.244167	557.505859	201.401260
13361.403989	-1179.244167	556.264648	-23.527010
13361.403989	-1179.244167	555.023438	202.845963
13361.403989	-1179.244167	553.781250	140.815872
13361.403989	-1179.244167	552.539063	146.999741
13361.403989	-1179.244167	551.296875	159.763123
13361.403989	-1179.244167	550.054688	104.331932
13361.403989	-1179.244167	548.811523	125.861214
13361.403989	-1179.244167	547.569336	-206.547043
13361.403989	-1179.244167	546.325195	47.977917
13361.403989	-1179.244167	545.082031	67.274971
13361.403989	-1179.244167	543.837891	-21.096123
13361.403989	-1179.244167	542.593750	50.900669
13361.403989	-1179.244167	541.349609	15.260777
13361.403989	-1179.244167	540.105469	8.172014
13361.403989	-1179.244167	538.860352	-29.651030
13361.403989	-1179.244167	537.615234	-106.961395
13361.403989	-1179.244167	536.369141	-125.005440
13361.403989	-1179.244167	535.124023	-118.906754
13361.403989	-1179.244167	533.877930	91.143387
13361.403989	-1179.244167	532.631836	79.652664
13361.403989	-1179.244167	531.384766	-1.984672
13361.403989	-1179.244167	530.138672	47.926056
13361.403989	-1179.244167	528.891602	113.155510
13361.403989	-1179.244167	527.643555	322.949066
13361.403989	-1179.244167	526.396484	55.186825
13361.403989	-1179.244167	525.148438	-67.928856
13361.403989	-1179.244167	523.900391	117.716942
13361.403989	-1179.244167	522.652344	49.387070
13361.403989	-1179.244167	521.403320	171.485519
13361.403989	-1179.244167	520.154297	39.747265
13361.403989	-1179.244167	518.905273	225.263214
13361.403989	-1179.244167	517.656250	187.642807
13361.403989	-1179.244167	516.406250	152.239243
13361.403989	-1179.244167	515.156250	473.195526
13361.403989	-1179.244167	513.906250	267.309479
13361.403989	-1179.244167	512.655273	48.416752
13361.403989	-1179.244167	511.404297	-264.298828
13361.403989	-1179.244167	510.153320	-35.183006
13361.403989	-1179.244167	508.902344	-153.350204
13361.403989	-1179.244167	507.650391	-103.337898
13361.403989	-1179.244167	506.398438	-96.977066
13361.403989	-1179.244167	505.146484	-341.556030
13361.403989	-1179.244167	503.893555	-197.643585
13361.403989	-1179.244167	502.641602	40.037674
13361.403989	-1179.244167	501.388672	-261.038300
13361.403989	-1179.244167	500.134766	-43.021267
13361.403989	-1179.244167	498.881836	-200.014954
13361.403989	-1179.244167	497.627930	-167.301239
13361.403989	-1179.244167	496.374023	-95.348358
13361.403989	-1179.244167	495.119141	-119.257454
13361.403989	-1179.244167	493.865234	-195.392456
13361.403989	-1179.244167	492.610352	-92.905342
13361.403989	-1179.244167	491.355469	-5.669941
13361.403989	-1179.244167	490.099609	57.611912
13361.403989	-1179.244167	488.843750	62.141430
13361.403989	-1179.244167	487.587891	182.015350
13361.403989	-1179.244167	486.332031	143.075455
13361.403989	-1179.244167	485.075195	-6.733747
13361.403989	-1179.244167	483.818359	147.958511
13361.403989	-1179.244167	482.561523	48.275063
13361.403989	-1179.244167	481.304688	224.686325
13361.403989	-1179.244167	480.046875	96.840744
13361.403989	-1179.244167	478.789063	258.015900
13361.403989	-1179.244167	477.531250	308.382172
13361.403989	-1179.244167	476.272461	465.155243
13361.403989	-1179.244167	475.013672	678.337952
13361.403989	-1179.244167	473.754883	839.363159
13361.403989	-1179.244167	472.496094	616.237793
13361.403989	-1179.244167	471.236328	742.543457
13361.403989	-1179.244167	469.976563	562.966248
13361.403989	-1179.244167	468.716797	1064.464844
13361.403989	-1179.244167	467.456055	659.444092
13361.403989	-1179.244167	466.196289	770.552734
13361.403989	-1179.244167	464.935547	818.778809
13361.403989	-1179.244167	463.673828	645.982239
13361.403989	-1179.244167	462.413086	676.920898
13361.403989	-1179.244167	461.151367	703.524902
13361.403989	-1179.244167	459.889648	461.619904
13361.403989	-1179.244167	458.626953	453.642181
13361.403989	-1179.244167	457.364258	692.429688
13361.403989	-1179.244167	456.101563	407.429504
13361.403989	-1179.244167	454.838867	470.889252
13361.403989	-1179.244167	453.575195	573.257385
13361.403989	-1179.244167	452.312500	731.813049
13361.403989	-1179.244167	451.047852	978.937561
13361.403989	-1179.244167	449.784180	1137.326050
13361.403989	-1179.244167	448.519531	1131.381104
13361.403989	-1179.244167	447.254883	984.977966
13361.403989	-1179.244167	445.990234	1035.209839
13361.403989	-1179.244167	444.725586	1007.648560
13361.403989	-1179.244167	443.459961	820.281372
13361.403989	-1179.244167	442.194336	693.418335
13361.403989	-1179.244167	440.927734	488.873413
13361.403989	-1179.244167	439.662109	465.654968
13361.403989	-1179.244167	438.395508	539.491455
13361.403989	-1179.244167	437.127930	298.325531
13361.403989	-1179.244167	435.861328	495.000153
13361.403989	-1179.244167	434.593750	210.727402
13361.403989	-1179.244167	433.326172	377.044708
13361.403989	-1179.244167	432.058594	579.864929
13361.403989	-1179.244167	430.790039	394.683929
13361.403989	-1179.244167	429.521484	450.780975
13361.403989	-1179.244167	428.252930	360.320221
13361.403989	-1179.244167	426.984375	470.069153
13361.403989	-1179.244167	425.714844	467.728760
13361.403989	-1179.244167	424.445313	282.342224
13361.403989	-1179.244167	423.174805	396.037720
13361.403989	-1179.244167	421.905273	266.468597
13361.403989	-1179.244167	420.634766	323.965546
13361.403989	-1179.244167	419.364258	465.179596
13361.403989	-1179.244167	418.092773	558.894775
13361.403989	-1179.244167	416.822266	291.308289
13361.403989	-1179.244167	415.550781	451.352570
13361.403989	-1179.244167	414.278320	349.031769
13361.403989	-1179.244167	413.006836	577.411133
13361.403989	-1179.244167	411.734375	590.742004
13361.403989	-1179.244167	410.461914	305.419464
13361.403989	-1179.244167	409.188477	539.536499
13361.403989	-1179.244167	407.916016	468.581207
13361.403989	-1179.244167	406.642578	515.458008
13361.403989	-1179.244167	405.368164	369.002930
13361.403989	-1179.244167	404.094727	509.800049
13361.403989	-1179.244167	402.820313	545.206848
13361.403989	-1179.244167	401.545898	398.106903
13361.403989	-1179.244167	400.270508	332.247986
13361.403989	-1179.244167	398.996094	309.007385
13361.403989	-1179.244167	397.720703	379.750671
13361.403989	-1179.244167	396.444336	195.242279
13361.403989	-1179.244167	395.168945	351.024902
13361.403989	-1179.244167	393.892578	352.239014
13361.403989	-1179.244167	392.616211	139.038834
13361.403989	-1179.244167	391.339844	274.434296
13361.403989	-1179.244167	390.062500	154.757523
13361.403989	-1179.244167	388.785156	75.393875
13361.403989	-1179.244167	387.507813	254.464523
13361.403989	-1179.244167	386.229492	232.024216
13361.403989	-1179.244167	384.951172	138.611374
13361.403989	-1179.244167	383.672852	145.252304
13361.403989	-1179.244167	382.394531	226.221008
13361.403989	-1179.244167	381.115234	306.662079
13361.403989	-1179.244167	379.835938	29.851025
13361.403989	-1179.244167	378.556641	40.948303
13361.403989	-1179.244167	377.277344	241.532959
13361.403989	-1179.244167	375.997070	-6.811225
13361.403989	-1179.244167	374.716797	30.361975
13361.403989	-1179.244167	373.435547	118.124817
13361.403989	-1179.244167	372.155273	222.319077
13361.403989	-1179.244167	370.874023	99.746506
13361.403989	-1179.244167	369.591797	149.279922
13361.403989	-1179.244167	368.310547	161.892487
13361.403989	-1179.244167	367.028320	97.057388
13361.403989	-1179.244167	365.746094	157.259933
13361.403989	-1179.244167	364.463867	406.309998
13361.403989	-1179.244167	363.180664	362.658752
13361.403989	-1179.244167	361.897461	243.705612
13361.403989	-1179.244167	360.614258	224.060806
13361.403989	-1179.244167	359.330078	35.407406
13361.403989	-1179.244167	358.045898	28.996662
13361.403989	-1179.244167	356.761719	81.278008
13361.403989	-1179.244167	355.477539	26.260895
13361.403989	-1179.244167	354.192383	31.981010
13361.403989	-1179.244167	352.907227	-14.300205
13361.403989	-1179.244167	351.622070	17.098877
13361.403989	-1179.244167	350.336914	-50.307655
13361.403989	-1179.244167	349.050781	-99.640800
13361.403989	-1179.244167	347.764648	36.915211
13361.403989	-1179.244167	346.477539	-142.080872
13361.403989	-1179.244167	345.191406	-71.541069
13361.403989	-1179.244167	343.904297	-301.589874
13361.403989	-1179.244167	342.616211	-146.466522
13361.403989	-1179.244167	341.329102	-194.227112
13361.403989	-1179.244167	340.041016	-118.097168
13361.403989	-1179.244167	338.752930	-5.131413
13361.403989	-1179.244167	337.463867	30.057755
13361.403989	-1179.244167	336.175781	4.514126
13361.403989	-1179.244167	334.886719	-11.874396
13361.403989	-1179.244167	333.596680	-42.465492
13361.403989	-1179.244167	332.307617	-131.712051
13361.403989	-1179.244167	331.017578	-25.477947
13361.403989	-1179.244167	329.727539	-83.947380
13361.403989	-1179.244167	328.436523	-156.752380
13361.403989	-1179.244167	327.146484	-150.689987
13361.403989	-1179.244167	325.855469	139.368347
13361.403989	-1179.244167	324.563477	69.890343
13361.403989	-1179.244167	323.272461	32.556892
13361.403989	-1179.244167	321.980469	52.590012
13361.403989	-1179.244167	320.688477	13.644687
13361.403989	-1179.244167	319.395508	-46.282318
13361.403989	-1179.244167	318.103516	-17.201450
13361.403989	-1179.244167	316.810547	-17.671783
13361.403989	-1179.244167	315.516602	-100.548325
13361.403989	-1179.244167	314.223633	25.798746
13361.403989	-1179.244167	312.929688	-179.593964
13361.403989	-1179.244167	311.635742	-97.832764
13361.403989	-1179.244167	310.340820	196.893127
13361.403989	-1179.244167	309.045898	-34.252647
13361.403989	-1179.244167	307.750977	-35.556480
13361.403989	-1179.244167	306.456055	95.733437
13361.403989	-1179.244167	305.160156	40.915146
13361.403989	-1179.244167	303.865234	240.918869
13361.403989	-1179.244167	302.568359	598.322632
13361.403989	-1179.244167	301.272461	322.751465
13361.403989	-1179.244167	299.975586	567.133728
13361.403989	-1179.244167	298.678711	471.528564
