#X		#Y		#Wave		#Intensity
20469.348298	-758.881167	1999.980469	-41.251846
20469.348298	-758.881167	1999.016602	-69.893700
20469.348298	-758.881167	1998.052734	15.343615
20469.348298	-758.881167	1997.087891	-75.623947
20469.348298	-758.881167	1996.123047	-25.559208
20469.348298	-758.881167	1995.158203	-107.029045
20469.348298	-758.881167	1994.193359	14.406414
20469.348298	-758.881167	1993.228516	118.249443
20469.348298	-758.881167	1992.262695	-169.328705
20469.348298	-758.881167	1991.297852	-115.409370
20469.348298	-758.881167	1990.332031	-106.250275
20469.348298	-758.881167	1989.366211	-79.967735
20469.348298	-758.881167	1988.399414	-11.819377
20469.348298	-758.881167	1987.433594	-62.617672
20469.348298	-758.881167	1986.466797	49.651207
20469.348298	-758.881167	1985.500977	-58.365665
20469.348298	-758.881167	1984.534180	-3.345769
20469.348298	-758.881167	1983.567383	133.052261
20469.348298	-758.881167	1982.599609	-2.594768
20469.348298	-758.881167	1981.632813	-39.524452
20469.348298	-758.881167	1980.665039	37.045010
20469.348298	-758.881167	1979.697266	130.722946
20469.348298	-758.881167	1978.729492	58.770191
20469.348298	-758.881167	1977.761719	16.327414
20469.348298	-758.881167	1976.792969	131.748383
20469.348298	-758.881167	1975.825195	66.820297
20469.348298	-758.881167	1974.856445	125.167488
20469.348298	-758.881167	1973.887695	3.263988
20469.348298	-758.881167	1972.918945	115.613380
20469.348298	-758.881167	1971.949219	72.432686
20469.348298	-758.881167	1970.980469	-74.415695
20469.348298	-758.881167	1970.010742	99.165535
20469.348298	-758.881167	1969.041016	58.131191
20469.348298	-758.881167	1968.071289	7.145638
20469.348298	-758.881167	1967.101563	44.773571
20469.348298	-758.881167	1966.130859	180.825668
20469.348298	-758.881167	1965.161133	13.776622
20469.348298	-758.881167	1964.190430	-40.027016
20469.348298	-758.881167	1963.219727	80.902069
20469.348298	-758.881167	1962.249023	130.308929
20469.348298	-758.881167	1961.277344	14.712436
20469.348298	-758.881167	1960.306641	-4.961898
20469.348298	-758.881167	1959.334961	17.115643
20469.348298	-758.881167	1958.363281	103.057533
20469.348298	-758.881167	1957.391602	56.086052
20469.348298	-758.881167	1956.419922	6.597235
20469.348298	-758.881167	1955.447266	124.227310
20469.348298	-758.881167	1954.474609	197.499985
20469.348298	-758.881167	1953.501953	15.095305
20469.348298	-758.881167	1952.529297	196.335846
20469.348298	-758.881167	1951.556641	148.980667
20469.348298	-758.881167	1950.583984	35.266273
20469.348298	-758.881167	1949.610352	-112.844673
20469.348298	-758.881167	1948.636719	-143.108658
20469.348298	-758.881167	1947.663086	-6.493420
20469.348298	-758.881167	1946.689453	56.386780
20469.348298	-758.881167	1945.715820	173.176407
20469.348298	-758.881167	1944.741211	10.186219
20469.348298	-758.881167	1943.767578	178.352844
20469.348298	-758.881167	1942.792969	15.325115
20469.348298	-758.881167	1941.818359	-61.865334
20469.348298	-758.881167	1940.842773	39.892666
20469.348298	-758.881167	1939.868164	-101.089081
20469.348298	-758.881167	1938.892578	-144.033386
20469.348298	-758.881167	1937.916992	-189.450607
20469.348298	-758.881167	1936.941406	63.978104
20469.348298	-758.881167	1935.965820	-32.970463
20469.348298	-758.881167	1934.990234	73.333000
20469.348298	-758.881167	1934.013672	157.529343
20469.348298	-758.881167	1933.037109	-69.223862
20469.348298	-758.881167	1932.060547	39.377377
20469.348298	-758.881167	1931.083984	-57.640366
20469.348298	-758.881167	1930.107422	-42.110893
20469.348298	-758.881167	1929.129883	95.691254
20469.348298	-758.881167	1928.153320	-1.368092
20469.348298	-758.881167	1927.175781	209.676392
20469.348298	-758.881167	1926.198242	-43.880089
20469.348298	-758.881167	1925.219727	-104.269363
20469.348298	-758.881167	1924.242188	-22.918518
20469.348298	-758.881167	1923.263672	19.286835
20469.348298	-758.881167	1922.285156	161.612549
20469.348298	-758.881167	1921.306641	-28.307743
20469.348298	-758.881167	1920.328125	52.884144
20469.348298	-758.881167	1919.349609	87.637192
20469.348298	-758.881167	1918.370117	-124.190979
20469.348298	-758.881167	1917.391602	37.457924
20469.348298	-758.881167	1916.412109	33.097191
20469.348298	-758.881167	1915.431641	31.161942
20469.348298	-758.881167	1914.452148	-0.060032
20469.348298	-758.881167	1913.472656	122.358032
20469.348298	-758.881167	1912.492188	-79.584946
20469.348298	-758.881167	1911.511719	-169.324432
20469.348298	-758.881167	1910.531250	13.948606
20469.348298	-758.881167	1909.550781	16.801964
20469.348298	-758.881167	1908.569336	382.684601
20469.348298	-758.881167	1907.588867	-184.599121
20469.348298	-758.881167	1906.607422	-1.514033
20469.348298	-758.881167	1905.625977	69.473030
20469.348298	-758.881167	1904.644531	21.121136
20469.348298	-758.881167	1903.662109	-90.515495
20469.348298	-758.881167	1902.680664	12.051086
20469.348298	-758.881167	1901.698242	-184.733078
20469.348298	-758.881167	1900.715820	61.330139
20469.348298	-758.881167	1899.733398	-23.520826
20469.348298	-758.881167	1898.750000	64.319824
20469.348298	-758.881167	1897.767578	91.327324
20469.348298	-758.881167	1896.784180	-56.723412
20469.348298	-758.881167	1895.800781	-49.169468
20469.348298	-758.881167	1894.817383	16.693275
20469.348298	-758.881167	1893.833984	-36.534588
20469.348298	-758.881167	1892.850586	301.354919
20469.348298	-758.881167	1891.866211	214.067993
20469.348298	-758.881167	1890.881836	61.237167
20469.348298	-758.881167	1889.897461	29.845789
20469.348298	-758.881167	1888.913086	-113.205856
20469.348298	-758.881167	1887.927734	-178.553543
20469.348298	-758.881167	1886.943359	-289.991547
20469.348298	-758.881167	1885.958008	-27.785480
20469.348298	-758.881167	1884.972656	122.732353
20469.348298	-758.881167	1883.987305	18.538317
20469.348298	-758.881167	1883.001953	-170.492798
20469.348298	-758.881167	1882.015625	55.081196
20469.348298	-758.881167	1881.029297	-87.860130
20469.348298	-758.881167	1880.042969	-145.943985
20469.348298	-758.881167	1879.056641	4.348894
20469.348298	-758.881167	1878.070313	-148.232773
20469.348298	-758.881167	1877.083984	-230.534027
20469.348298	-758.881167	1876.096680	23.772884
20469.348298	-758.881167	1875.109375	-126.349457
20469.348298	-758.881167	1874.122070	55.194309
20469.348298	-758.881167	1873.134766	-24.724127
20469.348298	-758.881167	1872.146484	55.073467
20469.348298	-758.881167	1871.159180	-36.944347
20469.348298	-758.881167	1870.170898	42.792103
20469.348298	-758.881167	1869.182617	-3.274128
20469.348298	-758.881167	1868.194336	-17.908112
20469.348298	-758.881167	1867.205078	73.813347
20469.348298	-758.881167	1866.216797	13.211459
20469.348298	-758.881167	1865.227539	0.942588
20469.348298	-758.881167	1864.238281	-236.036514
20469.348298	-758.881167	1863.249023	-21.223389
20469.348298	-758.881167	1862.259766	-224.337280
20469.348298	-758.881167	1861.269531	-16.893642
20469.348298	-758.881167	1860.279297	19.037952
20469.348298	-758.881167	1859.290039	-44.032890
20469.348298	-758.881167	1858.298828	114.926422
20469.348298	-758.881167	1857.308594	141.092209
20469.348298	-758.881167	1856.318359	0.765330
20469.348298	-758.881167	1855.327148	-52.701683
20469.348298	-758.881167	1854.335938	195.271088
20469.348298	-758.881167	1853.344727	16.359858
20469.348298	-758.881167	1852.353516	114.714439
20469.348298	-758.881167	1851.362305	29.830353
20469.348298	-758.881167	1850.370117	-23.723221
20469.348298	-758.881167	1849.377930	-24.279360
20469.348298	-758.881167	1848.385742	18.494358
20469.348298	-758.881167	1847.393555	188.867859
20469.348298	-758.881167	1846.401367	183.367874
20469.348298	-758.881167	1845.408203	204.321228
20469.348298	-758.881167	1844.415039	1.383260
20469.348298	-758.881167	1843.421875	-28.237671
20469.348298	-758.881167	1842.428711	-24.193535
20469.348298	-758.881167	1841.435547	85.665443
20469.348298	-758.881167	1840.441406	130.507721
20469.348298	-758.881167	1839.448242	-21.891228
20469.348298	-758.881167	1838.454102	66.163498
20469.348298	-758.881167	1837.459961	65.206314
20469.348298	-758.881167	1836.464844	83.439705
20469.348298	-758.881167	1835.470703	-153.082260
20469.348298	-758.881167	1834.475586	57.311592
20469.348298	-758.881167	1833.480469	121.063042
20469.348298	-758.881167	1832.485352	-16.982834
20469.348298	-758.881167	1831.490234	-143.009277
20469.348298	-758.881167	1830.495117	69.468430
20469.348298	-758.881167	1829.499023	8.196459
20469.348298	-758.881167	1828.502930	-24.295340
20469.348298	-758.881167	1827.506836	168.719940
20469.348298	-758.881167	1826.510742	37.770992
20469.348298	-758.881167	1825.513672	209.028610
20469.348298	-758.881167	1824.517578	51.656094
20469.348298	-758.881167	1823.520508	90.894104
20469.348298	-758.881167	1822.523438	65.351830
20469.348298	-758.881167	1821.526367	-130.388336
20469.348298	-758.881167	1820.529297	-96.068222
20469.348298	-758.881167	1819.531250	139.430984
20469.348298	-758.881167	1818.533203	152.033112
20469.348298	-758.881167	1817.535156	56.814701
20469.348298	-758.881167	1816.537109	62.147221
20469.348298	-758.881167	1815.539063	141.638474
20469.348298	-758.881167	1814.540039	3.243954
20469.348298	-758.881167	1813.541992	161.584045
20469.348298	-758.881167	1812.542969	80.555634
20469.348298	-758.881167	1811.543945	152.600494
20469.348298	-758.881167	1810.543945	35.622177
20469.348298	-758.881167	1809.544922	152.974869
20469.348298	-758.881167	1808.544922	-31.008375
20469.348298	-758.881167	1807.544922	258.301910
20469.348298	-758.881167	1806.544922	198.531128
20469.348298	-758.881167	1805.544922	463.683624
20469.348298	-758.881167	1804.544922	279.558655
20469.348298	-758.881167	1803.543945	262.638519
20469.348298	-758.881167	1802.542969	243.278595
20469.348298	-758.881167	1801.541992	202.379715
20469.348298	-758.881167	1800.541016	409.698181
20469.348298	-758.881167	1799.539063	235.008087
20469.348298	-758.881167	1798.538086	344.287933
20469.348298	-758.881167	1797.536133	338.945801
20469.348298	-758.881167	1796.534180	254.828629
20469.348298	-758.881167	1795.532227	199.300156
20469.348298	-758.881167	1794.529297	143.727997
20469.348298	-758.881167	1793.527344	207.314880
20469.348298	-758.881167	1792.524414	270.812073
20469.348298	-758.881167	1791.521484	119.745583
20469.348298	-758.881167	1790.518555	335.594391
20469.348298	-758.881167	1789.514648	101.064751
20469.348298	-758.881167	1788.511719	35.662724
20469.348298	-758.881167	1787.507813	70.230835
20469.348298	-758.881167	1786.503906	268.994598
20469.348298	-758.881167	1785.500000	184.354004
20469.348298	-758.881167	1784.496094	259.131866
20469.348298	-758.881167	1783.491211	183.904175
20469.348298	-758.881167	1782.486328	80.089149
20469.348298	-758.881167	1781.481445	102.308449
20469.348298	-758.881167	1780.476563	136.340988
20469.348298	-758.881167	1779.471680	113.227432
20469.348298	-758.881167	1778.465820	-88.240700
20469.348298	-758.881167	1777.460938	88.203949
20469.348298	-758.881167	1776.455078	43.511944
20469.348298	-758.881167	1775.449219	20.147894
20469.348298	-758.881167	1774.442383	151.118927
20469.348298	-758.881167	1773.436523	227.348221
20469.348298	-758.881167	1772.429688	80.269257
20469.348298	-758.881167	1771.422852	161.083267
20469.348298	-758.881167	1770.416016	149.222595
20469.348298	-758.881167	1769.409180	-57.304276
20469.348298	-758.881167	1768.402344	77.842247
20469.348298	-758.881167	1767.394531	260.303650
20469.348298	-758.881167	1766.386719	20.442659
20469.348298	-758.881167	1765.378906	283.322540
20469.348298	-758.881167	1764.371094	268.634460
20469.348298	-758.881167	1763.362305	-80.360237
20469.348298	-758.881167	1762.354492	77.885345
20469.348298	-758.881167	1761.345703	53.535683
20469.348298	-758.881167	1760.336914	62.286045
20469.348298	-758.881167	1759.328125	236.762222
20469.348298	-758.881167	1758.318359	247.686218
20469.348298	-758.881167	1757.308594	230.116806
20469.348298	-758.881167	1756.299805	44.405071
20469.348298	-758.881167	1755.290039	10.160015
20469.348298	-758.881167	1754.279297	20.806108
20469.348298	-758.881167	1753.269531	142.576157
20469.348298	-758.881167	1752.258789	89.170586
20469.348298	-758.881167	1751.249023	23.888908
20469.348298	-758.881167	1750.238281	-74.555046
20469.348298	-758.881167	1749.226563	226.491745
20469.348298	-758.881167	1748.215820	85.344902
20469.348298	-758.881167	1747.204102	7.973704
20469.348298	-758.881167	1746.193359	-74.164322
20469.348298	-758.881167	1745.181641	77.515060
20469.348298	-758.881167	1744.168945	-80.354584
20469.348298	-758.881167	1743.157227	-94.188316
20469.348298	-758.881167	1742.144531	-89.213814
20469.348298	-758.881167	1741.132813	-110.278442
20469.348298	-758.881167	1740.120117	-51.178497
20469.348298	-758.881167	1739.106445	10.174696
20469.348298	-758.881167	1738.093750	61.994797
20469.348298	-758.881167	1737.080078	-178.771744
20469.348298	-758.881167	1736.067383	-44.551579
20469.348298	-758.881167	1735.053711	-271.215912
20469.348298	-758.881167	1734.040039	72.612366
20469.348298	-758.881167	1733.025391	-177.720322
20469.348298	-758.881167	1732.011719	-36.853882
20469.348298	-758.881167	1730.997070	-16.285032
20469.348298	-758.881167	1729.982422	-106.513306
20469.348298	-758.881167	1728.967773	-163.812973
20469.348298	-758.881167	1727.952148	-131.700195
20469.348298	-758.881167	1726.937500	-10.208665
20469.348298	-758.881167	1725.921875	-131.286911
20469.348298	-758.881167	1724.906250	-66.484856
20469.348298	-758.881167	1723.890625	-150.016144
20469.348298	-758.881167	1722.875000	-104.209694
20469.348298	-758.881167	1721.858398	14.405289
20469.348298	-758.881167	1720.841797	135.249924
20469.348298	-758.881167	1719.825195	23.214111
20469.348298	-758.881167	1718.808594	-58.296635
20469.348298	-758.881167	1717.791992	-468.875793
20469.348298	-758.881167	1716.774414	-9.986488
20469.348298	-758.881167	1715.756836	-70.538231
20469.348298	-758.881167	1714.739258	-100.606895
20469.348298	-758.881167	1713.721680	61.826374
20469.348298	-758.881167	1712.704102	-130.413895
20469.348298	-758.881167	1711.685547	-45.662178
20469.348298	-758.881167	1710.667969	-237.958557
20469.348298	-758.881167	1709.649414	226.776657
20469.348298	-758.881167	1708.630859	-155.690704
20469.348298	-758.881167	1707.611328	-85.378952
20469.348298	-758.881167	1706.592773	-5.778742
20469.348298	-758.881167	1705.573242	43.227192
20469.348298	-758.881167	1704.553711	-34.452427
20469.348298	-758.881167	1703.534180	-126.237106
20469.348298	-758.881167	1702.513672	166.253006
20469.348298	-758.881167	1701.494141	132.895142
20469.348298	-758.881167	1700.473633	61.988583
20469.348298	-758.881167	1699.453125	-74.539001
20469.348298	-758.881167	1698.432617	-145.520172
20469.348298	-758.881167	1697.412109	127.609032
20469.348298	-758.881167	1696.390625	61.149029
20469.348298	-758.881167	1695.369141	22.727968
20469.348298	-758.881167	1694.347656	138.682297
20469.348298	-758.881167	1693.326172	139.893372
20469.348298	-758.881167	1692.304688	-55.433216
20469.348298	-758.881167	1691.282227	74.285927
20469.348298	-758.881167	1690.260742	-11.200361
20469.348298	-758.881167	1689.238281	90.276054
20469.348298	-758.881167	1688.214844	-30.389906
20469.348298	-758.881167	1687.192383	115.317574
20469.348298	-758.881167	1686.168945	179.124908
20469.348298	-758.881167	1685.146484	72.342117
20469.348298	-758.881167	1684.123047	367.202240
20469.348298	-758.881167	1683.099609	360.686798
20469.348298	-758.881167	1682.075195	43.620918
20469.348298	-758.881167	1681.051758	48.715504
20469.348298	-758.881167	1680.027344	466.770569
20469.348298	-758.881167	1679.002930	112.353828
20469.348298	-758.881167	1677.978516	301.516693
20469.348298	-758.881167	1676.953125	73.075340
20469.348298	-758.881167	1675.928711	329.674774
20469.348298	-758.881167	1674.903320	441.565735
20469.348298	-758.881167	1673.877930	324.933411
20469.348298	-758.881167	1672.852539	331.799988
20469.348298	-758.881167	1671.826172	396.844666
20469.348298	-758.881167	1670.800781	601.589050
20469.348298	-758.881167	1669.774414	449.844849
20469.348298	-758.881167	1668.748047	563.563232
20469.348298	-758.881167	1667.721680	353.573090
20469.348298	-758.881167	1666.694336	711.556335
20469.348298	-758.881167	1665.667969	615.547668
20469.348298	-758.881167	1664.640625	845.263855
20469.348298	-758.881167	1663.613281	893.385681
20469.348298	-758.881167	1662.585938	1139.139526
20469.348298	-758.881167	1661.557617	1105.684692
20469.348298	-758.881167	1660.530273	1246.578979
20469.348298	-758.881167	1659.501953	1273.457397
20469.348298	-758.881167	1658.473633	1230.553955
20469.348298	-758.881167	1657.444336	1424.622559
20469.348298	-758.881167	1656.416016	1620.903809
20469.348298	-758.881167	1655.386719	1529.032715
20469.348298	-758.881167	1654.358398	1413.940308
20469.348298	-758.881167	1653.328125	1391.701050
20469.348298	-758.881167	1652.298828	1394.973877
20469.348298	-758.881167	1651.269531	1442.301392
20469.348298	-758.881167	1650.239258	1387.457031
20469.348298	-758.881167	1649.208984	1374.353882
20469.348298	-758.881167	1648.178711	1310.184937
20469.348298	-758.881167	1647.148438	1213.534058
20469.348298	-758.881167	1646.117188	1316.280151
20469.348298	-758.881167	1645.086914	1298.412476
20469.348298	-758.881167	1644.055664	1305.999023
20469.348298	-758.881167	1643.024414	1155.967529
20469.348298	-758.881167	1641.992188	1070.821655
20469.348298	-758.881167	1640.960938	1275.244385
20469.348298	-758.881167	1639.928711	1275.735107
20469.348298	-758.881167	1638.896484	1102.526489
20469.348298	-758.881167	1637.864258	1376.171143
20469.348298	-758.881167	1636.832031	1452.933594
20469.348298	-758.881167	1635.798828	1446.313599
20469.348298	-758.881167	1634.766602	1212.931885
20469.348298	-758.881167	1633.733398	1340.478027
20469.348298	-758.881167	1632.699219	1449.434326
20469.348298	-758.881167	1631.666016	1549.084961
20469.348298	-758.881167	1630.632813	1530.762451
20469.348298	-758.881167	1629.598633	1047.795288
20469.348298	-758.881167	1628.564453	1325.336304
20469.348298	-758.881167	1627.530273	1371.686279
20469.348298	-758.881167	1626.495117	1482.669800
20469.348298	-758.881167	1625.460938	1434.232300
20469.348298	-758.881167	1624.425781	1711.391357
20469.348298	-758.881167	1623.390625	1448.158203
20469.348298	-758.881167	1622.355469	1360.447754
20469.348298	-758.881167	1621.319336	1512.769287
20469.348298	-758.881167	1620.284180	1503.504883
20469.348298	-758.881167	1619.248047	1623.411011
20469.348298	-758.881167	1618.211914	1630.236572
20469.348298	-758.881167	1617.174805	1537.870483
20469.348298	-758.881167	1616.138672	1766.033813
20469.348298	-758.881167	1615.101563	1618.330688
20469.348298	-758.881167	1614.065430	1880.943115
20469.348298	-758.881167	1613.027344	1811.593872
20469.348298	-758.881167	1611.990234	1864.384521
20469.348298	-758.881167	1610.953125	2009.286987
20469.348298	-758.881167	1609.915039	2239.327148
20469.348298	-758.881167	1608.876953	2024.881714
20469.348298	-758.881167	1607.838867	2252.519775
20469.348298	-758.881167	1606.800781	2238.393311
20469.348298	-758.881167	1605.761719	2555.635010
20469.348298	-758.881167	1604.723633	2442.522705
20469.348298	-758.881167	1603.684570	2591.679199
20469.348298	-758.881167	1602.644531	2699.369141
20469.348298	-758.881167	1601.605469	2790.938965
20469.348298	-758.881167	1600.566406	2735.341553
20469.348298	-758.881167	1599.526367	2718.835693
20469.348298	-758.881167	1598.486328	2550.670898
20469.348298	-758.881167	1597.446289	2403.256104
20469.348298	-758.881167	1596.405273	2561.420410
20469.348298	-758.881167	1595.365234	2510.540771
20469.348298	-758.881167	1594.324219	2337.980225
20469.348298	-758.881167	1593.283203	2884.088379
20469.348298	-758.881167	1592.242188	2594.481201
20469.348298	-758.881167	1591.200195	2337.118408
20469.348298	-758.881167	1590.159180	2290.974609
20469.348298	-758.881167	1589.117188	2235.676758
20469.348298	-758.881167	1588.075195	2198.767578
20469.348298	-758.881167	1587.032227	2180.221924
20469.348298	-758.881167	1585.990234	2251.130127
20469.348298	-758.881167	1584.947266	2273.880615
20469.348298	-758.881167	1583.904297	2081.215332
20469.348298	-758.881167	1582.861328	2108.617676
20469.348298	-758.881167	1581.818359	2081.051514
20469.348298	-758.881167	1580.775391	2229.883057
20469.348298	-758.881167	1579.731445	2126.771484
20469.348298	-758.881167	1578.687500	2032.884033
20469.348298	-758.881167	1577.643555	2145.079102
20469.348298	-758.881167	1576.598633	2058.136963
20469.348298	-758.881167	1575.554688	1866.012085
20469.348298	-758.881167	1574.509766	2085.775391
20469.348298	-758.881167	1573.464844	2145.373535
20469.348298	-758.881167	1572.419922	2305.602295
20469.348298	-758.881167	1571.374023	2312.601563
20469.348298	-758.881167	1570.329102	2054.475830
20469.348298	-758.881167	1569.283203	2520.977783
20469.348298	-758.881167	1568.237305	2521.183105
20469.348298	-758.881167	1567.191406	1918.289917
20469.348298	-758.881167	1566.144531	1962.078735
20469.348298	-758.881167	1565.098633	1962.510986
20469.348298	-758.881167	1564.051758	1924.156616
20469.348298	-758.881167	1563.004883	1844.768311
20469.348298	-758.881167	1561.957031	1849.890503
20469.348298	-758.881167	1560.910156	1540.163940
20469.348298	-758.881167	1559.862305	1492.959717
20469.348298	-758.881167	1558.814453	1498.284180
20469.348298	-758.881167	1557.766602	1549.265137
20469.348298	-758.881167	1556.718750	1780.403931
20469.348298	-758.881167	1555.669922	1377.739014
20469.348298	-758.881167	1554.621094	1346.798218
20469.348298	-758.881167	1553.573242	1224.780884
20469.348298	-758.881167	1552.523438	1305.612305
20469.348298	-758.881167	1551.474609	1208.802734
20469.348298	-758.881167	1550.424805	1102.964233
20469.348298	-758.881167	1549.375000	785.463135
20469.348298	-758.881167	1548.325195	1107.850220
20469.348298	-758.881167	1547.275391	1065.992554
20469.348298	-758.881167	1546.225586	1060.620483
20469.348298	-758.881167	1545.174805	1080.326294
20469.348298	-758.881167	1544.124023	1084.161377
20469.348298	-758.881167	1543.073242	1060.764404
20469.348298	-758.881167	1542.022461	889.639099
20469.348298	-758.881167	1540.970703	934.606384
20469.348298	-758.881167	1539.919922	1270.569336
20469.348298	-758.881167	1538.868164	1222.400269
20469.348298	-758.881167	1537.815430	1228.835449
20469.348298	-758.881167	1536.763672	1033.171387
20469.348298	-758.881167	1535.710938	1275.976807
20469.348298	-758.881167	1534.659180	1110.036011
20469.348298	-758.881167	1533.606445	1252.976929
20469.348298	-758.881167	1532.552734	1538.921509
20469.348298	-758.881167	1531.500000	1434.503418
20469.348298	-758.881167	1530.446289	1268.926758
20469.348298	-758.881167	1529.393555	1250.949829
20469.348298	-758.881167	1528.338867	1416.744507
20469.348298	-758.881167	1527.285156	1509.995972
20469.348298	-758.881167	1526.231445	945.819763
20469.348298	-758.881167	1525.176758	1290.872559
20469.348298	-758.881167	1524.122070	1422.841309
20469.348298	-758.881167	1523.067383	902.290161
20469.348298	-758.881167	1522.012695	934.766846
20469.348298	-758.881167	1520.957031	1085.075928
20469.348298	-758.881167	1519.901367	1147.094238
20469.348298	-758.881167	1518.845703	1193.320679
20469.348298	-758.881167	1517.790039	1167.179810
20469.348298	-758.881167	1516.734375	964.609924
20469.348298	-758.881167	1515.677734	916.057434
20469.348298	-758.881167	1514.621094	1089.304199
20469.348298	-758.881167	1513.564453	1131.388916
20469.348298	-758.881167	1512.507813	886.356445
20469.348298	-758.881167	1511.450195	1000.976746
20469.348298	-758.881167	1510.393555	900.911133
20469.348298	-758.881167	1509.335938	1106.058472
20469.348298	-758.881167	1508.278320	1046.853394
20469.348298	-758.881167	1507.219727	951.611023
20469.348298	-758.881167	1506.162109	669.039001
20469.348298	-758.881167	1505.103516	653.127563
20469.348298	-758.881167	1504.044922	817.933899
20469.348298	-758.881167	1502.986328	919.566162
20469.348298	-758.881167	1501.926758	822.642761
20469.348298	-758.881167	1500.868164	545.351685
20469.348298	-758.881167	1499.808594	737.492737
20469.348298	-758.881167	1498.749023	778.536682
20469.348298	-758.881167	1497.688477	806.125732
20469.348298	-758.881167	1496.628906	633.149292
20469.348298	-758.881167	1495.568359	606.853088
20469.348298	-758.881167	1494.507813	627.994690
20469.348298	-758.881167	1493.447266	655.988708
20469.348298	-758.881167	1492.386719	413.736084
20469.348298	-758.881167	1491.325195	800.080750
20469.348298	-758.881167	1490.263672	621.146912
20469.348298	-758.881167	1489.202148	399.609009
20469.348298	-758.881167	1488.140625	281.809326
20469.348298	-758.881167	1487.079102	519.749390
20469.348298	-758.881167	1486.016602	867.948425
20469.348298	-758.881167	1484.954102	770.681396
20469.348298	-758.881167	1483.891602	664.561218
20469.348298	-758.881167	1482.829102	859.924255
20469.348298	-758.881167	1481.765625	724.814453
20469.348298	-758.881167	1480.702148	884.337524
20469.348298	-758.881167	1479.638672	967.493958
20469.348298	-758.881167	1478.575195	1234.971680
20469.348298	-758.881167	1477.511719	1140.753540
20469.348298	-758.881167	1476.447266	1246.600830
20469.348298	-758.881167	1475.382813	1083.079590
20469.348298	-758.881167	1474.318359	1242.883545
20469.348298	-758.881167	1473.253906	1248.079468
20469.348298	-758.881167	1472.189453	1336.218750
20469.348298	-758.881167	1471.124023	1157.664551
20469.348298	-758.881167	1470.058594	1461.410034
20469.348298	-758.881167	1468.993164	1215.758301
20469.348298	-758.881167	1467.927734	1131.791870
20469.348298	-758.881167	1466.861328	1115.311768
20469.348298	-758.881167	1465.794922	1099.054932
20469.348298	-758.881167	1464.728516	1199.197510
20469.348298	-758.881167	1463.662109	859.017090
20469.348298	-758.881167	1462.594727	1006.369995
20469.348298	-758.881167	1461.528320	1133.378784
20469.348298	-758.881167	1460.460938	1213.634521
20469.348298	-758.881167	1459.393555	1287.426270
20469.348298	-758.881167	1458.326172	916.152527
20469.348298	-758.881167	1457.257813	1001.496399
20469.348298	-758.881167	1456.189453	827.668274
20469.348298	-758.881167	1455.121094	762.201477
20469.348298	-758.881167	1454.052734	1110.881592
20469.348298	-758.881167	1452.984375	890.230164
20469.348298	-758.881167	1451.915039	982.524414
20469.348298	-758.881167	1450.845703	909.722290
20469.348298	-758.881167	1449.776367	953.468384
20469.348298	-758.881167	1448.707031	848.085205
20469.348298	-758.881167	1447.636719	822.600342
20469.348298	-758.881167	1446.567383	691.637024
20469.348298	-758.881167	1445.497070	760.769836
20469.348298	-758.881167	1444.425781	797.401611
20469.348298	-758.881167	1443.355469	850.504395
20469.348298	-758.881167	1442.285156	861.649048
20469.348298	-758.881167	1441.213867	764.344116
20469.348298	-758.881167	1440.142578	851.487671
20469.348298	-758.881167	1439.070313	814.529968
20469.348298	-758.881167	1437.999023	646.207581
20469.348298	-758.881167	1436.926758	590.333191
20469.348298	-758.881167	1435.854492	498.948853
20469.348298	-758.881167	1434.782227	728.718689
20469.348298	-758.881167	1433.709961	721.347778
20469.348298	-758.881167	1432.636719	523.582947
20469.348298	-758.881167	1431.563477	444.495087
20469.348298	-758.881167	1430.490234	303.622253
20469.348298	-758.881167	1429.416992	584.422485
20469.348298	-758.881167	1428.343750	350.184814
20469.348298	-758.881167	1427.269531	520.159485
20469.348298	-758.881167	1426.195313	62.928459
20469.348298	-758.881167	1425.121094	256.573761
20469.348298	-758.881167	1424.046875	105.587494
20469.348298	-758.881167	1422.971680	-54.787506
20469.348298	-758.881167	1421.896484	380.026337
20469.348298	-758.881167	1420.821289	403.084625
20469.348298	-758.881167	1419.746094	149.278870
20469.348298	-758.881167	1418.669922	110.106178
20469.348298	-758.881167	1417.594727	118.841614
20469.348298	-758.881167	1416.518555	419.908356
20469.348298	-758.881167	1415.442383	195.579559
20469.348298	-758.881167	1414.365234	350.364471
20469.348298	-758.881167	1413.289063	588.889709
20469.348298	-758.881167	1412.211914	637.286377
20469.348298	-758.881167	1411.134766	517.557617
20469.348298	-758.881167	1410.057617	497.369202
20469.348298	-758.881167	1408.979492	699.488770
20469.348298	-758.881167	1407.902344	470.956757
20469.348298	-758.881167	1406.824219	555.213928
20469.348298	-758.881167	1405.746094	811.204285
20469.348298	-758.881167	1404.666992	959.432983
20469.348298	-758.881167	1403.588867	621.788330
20469.348298	-758.881167	1402.509766	790.654236
20469.348298	-758.881167	1401.430664	1019.818848
20469.348298	-758.881167	1400.351563	1123.940186
20469.348298	-758.881167	1399.271484	1355.952637
20469.348298	-758.881167	1398.192383	1098.078247
20469.348298	-758.881167	1397.112305	983.434509
20469.348298	-758.881167	1396.031250	1178.372925
20469.348298	-758.881167	1394.951172	976.980164
20469.348298	-758.881167	1393.871094	899.993530
20469.348298	-758.881167	1392.790039	830.320862
20469.348298	-758.881167	1391.708984	616.995300
20469.348298	-758.881167	1390.626953	419.758789
20469.348298	-758.881167	1389.545898	611.678162
20469.348298	-758.881167	1388.463867	783.660645
20469.348298	-758.881167	1387.381836	585.603149
20469.348298	-758.881167	1386.299805	704.342224
20469.348298	-758.881167	1385.217773	503.562988
20469.348298	-758.881167	1384.134766	716.672058
20469.348298	-758.881167	1383.051758	552.545349
20469.348298	-758.881167	1381.968750	843.950012
20469.348298	-758.881167	1380.885742	747.522339
20469.348298	-758.881167	1379.802734	797.988464
20469.348298	-758.881167	1378.718750	718.780762
20469.348298	-758.881167	1377.634766	618.157471
20469.348298	-758.881167	1376.550781	466.808533
20469.348298	-758.881167	1375.465820	410.852295
20469.348298	-758.881167	1374.381836	460.509644
20469.348298	-758.881167	1373.296875	312.797150
20469.348298	-758.881167	1372.211914	291.481201
20469.348298	-758.881167	1371.126953	385.179413
20469.348298	-758.881167	1370.041016	493.315247
20469.348298	-758.881167	1368.955078	645.977051
20469.348298	-758.881167	1367.869141	604.820496
20469.348298	-758.881167	1366.783203	537.656616
20469.348298	-758.881167	1365.697266	545.587280
20469.348298	-758.881167	1364.610352	586.811829
20469.348298	-758.881167	1363.523438	482.507874
20469.348298	-758.881167	1362.436523	495.464905
20469.348298	-758.881167	1361.349609	670.509460
20469.348298	-758.881167	1360.261719	660.906555
20469.348298	-758.881167	1359.174805	598.725891
20469.348298	-758.881167	1358.086914	680.562744
20469.348298	-758.881167	1356.998047	380.488037
20469.348298	-758.881167	1355.910156	377.076691
20469.348298	-758.881167	1354.821289	345.101318
20469.348298	-758.881167	1353.732422	313.281586
20469.348298	-758.881167	1352.643555	336.905853
20469.348298	-758.881167	1351.554688	229.717636
20469.348298	-758.881167	1350.464844	282.779602
20469.348298	-758.881167	1349.375000	352.561066
20469.348298	-758.881167	1348.285156	313.662872
20469.348298	-758.881167	1347.195313	468.443665
20469.348298	-758.881167	1346.105469	426.187897
20469.348298	-758.881167	1345.014648	220.813171
20469.348298	-758.881167	1343.923828	415.931854
20469.348298	-758.881167	1342.833008	524.107605
20469.348298	-758.881167	1341.741211	578.419556
20469.348298	-758.881167	1340.650391	391.069641
20469.348298	-758.881167	1339.558594	506.534241
20469.348298	-758.881167	1338.466797	581.781555
20469.348298	-758.881167	1337.374023	621.348938
20469.348298	-758.881167	1336.282227	624.618469
20469.348298	-758.881167	1335.189453	672.372742
20469.348298	-758.881167	1334.096680	735.082520
20469.348298	-758.881167	1333.003906	599.125916
20469.348298	-758.881167	1331.910156	715.391296
20469.348298	-758.881167	1330.817383	700.025452
20469.348298	-758.881167	1329.723633	716.235535
20469.348298	-758.881167	1328.629883	576.982178
20469.348298	-758.881167	1327.535156	608.390320
20469.348298	-758.881167	1326.441406	514.220398
20469.348298	-758.881167	1325.346680	457.130371
20469.348298	-758.881167	1324.251953	584.555115
20469.348298	-758.881167	1323.156250	720.435303
20469.348298	-758.881167	1322.061523	694.609863
20469.348298	-758.881167	1320.965820	774.815369
20469.348298	-758.881167	1319.870117	740.049011
20469.348298	-758.881167	1318.774414	777.696533
20469.348298	-758.881167	1317.678711	886.013000
20469.348298	-758.881167	1316.582031	894.000854
20469.348298	-758.881167	1315.485352	1060.906982
20469.348298	-758.881167	1314.388672	1339.753906
20469.348298	-758.881167	1313.291016	1202.582397
20469.348298	-758.881167	1312.194336	1255.330566
20469.348298	-758.881167	1311.096680	1470.004028
20469.348298	-758.881167	1309.999023	1233.082520
20469.348298	-758.881167	1308.901367	1593.471436
20469.348298	-758.881167	1307.802734	1582.321045
20469.348298	-758.881167	1306.705078	1698.148193
20469.348298	-758.881167	1305.606445	1718.911011
20469.348298	-758.881167	1304.506836	1802.702515
20469.348298	-758.881167	1303.408203	1582.982178
20469.348298	-758.881167	1302.308594	1670.583740
20469.348298	-758.881167	1301.208984	1787.204102
20469.348298	-758.881167	1300.109375	1712.928345
20469.348298	-758.881167	1299.009766	1751.478149
20469.348298	-758.881167	1297.909180	1740.059082
20469.348298	-758.881167	1296.808594	1683.338867
20469.348298	-758.881167	1295.708008	1842.245972
20469.348298	-758.881167	1294.607422	1799.269897
20469.348298	-758.881167	1293.506836	1822.354858
20469.348298	-758.881167	1292.405273	1382.409790
20469.348298	-758.881167	1291.303711	1487.594238
20469.348298	-758.881167	1290.202148	1355.774536
20469.348298	-758.881167	1289.099609	1257.161255
20469.348298	-758.881167	1287.998047	1115.414917
20469.348298	-758.881167	1286.895508	1118.007202
20469.348298	-758.881167	1285.792969	860.675171
20469.348298	-758.881167	1284.689453	930.031433
20469.348298	-758.881167	1283.586914	665.146973
20469.348298	-758.881167	1282.483398	870.728210
20469.348298	-758.881167	1281.379883	844.506287
20469.348298	-758.881167	1280.276367	737.185425
20469.348298	-758.881167	1279.171875	855.716064
20469.348298	-758.881167	1278.067383	756.114502
20469.348298	-758.881167	1276.962891	758.770386
20469.348298	-758.881167	1275.858398	588.569336
20469.348298	-758.881167	1274.753906	795.851257
20469.348298	-758.881167	1273.648438	505.685028
20469.348298	-758.881167	1272.542969	513.302490
20469.348298	-758.881167	1271.437500	642.059082
20469.348298	-758.881167	1270.331055	596.313904
20469.348298	-758.881167	1269.225586	419.715881
20469.348298	-758.881167	1268.119141	432.605255
20469.348298	-758.881167	1267.012695	411.588776
20469.348298	-758.881167	1265.906250	217.923218
20469.348298	-758.881167	1264.798828	228.818329
20469.348298	-758.881167	1263.691406	60.923706
20469.348298	-758.881167	1262.583984	207.462921
20469.348298	-758.881167	1261.476563	231.454498
20469.348298	-758.881167	1260.368164	244.453033
20469.348298	-758.881167	1259.260742	118.222252
20469.348298	-758.881167	1258.152344	74.765984
20469.348298	-758.881167	1257.043945	151.175034
20469.348298	-758.881167	1255.934570	-38.463676
20469.348298	-758.881167	1254.825195	92.112503
20469.348298	-758.881167	1253.716797	93.295021
20469.348298	-758.881167	1252.606445	21.680830
20469.348298	-758.881167	1251.497070	-34.966759
20469.348298	-758.881167	1250.387695	-71.237518
20469.348298	-758.881167	1249.277344	22.956591
20469.348298	-758.881167	1248.166992	39.352684
20469.348298	-758.881167	1247.055664	-187.353760
20469.348298	-758.881167	1245.945313	-143.793045
20469.348298	-758.881167	1244.833984	-138.263596
20469.348298	-758.881167	1243.722656	55.780212
20469.348298	-758.881167	1242.611328	-100.528809
20469.348298	-758.881167	1241.499023	40.416023
20469.348298	-758.881167	1240.387695	-121.570427
20469.348298	-758.881167	1239.275391	5.572930
20469.348298	-758.881167	1238.162109	215.055069
20469.348298	-758.881167	1237.049805	34.229889
20469.348298	-758.881167	1235.936523	72.560852
20469.348298	-758.881167	1234.823242	-37.157425
20469.348298	-758.881167	1233.709961	-206.314606
20469.348298	-758.881167	1232.596680	-15.604063
20469.348298	-758.881167	1231.482422	-70.207108
20469.348298	-758.881167	1230.369141	-7.792369
20469.348298	-758.881167	1229.253906	20.868679
20469.348298	-758.881167	1228.139648	69.094391
20469.348298	-758.881167	1227.025391	72.038414
20469.348298	-758.881167	1225.910156	14.279220
20469.348298	-758.881167	1224.794922	-198.468674
20469.348298	-758.881167	1223.679688	-122.968918
20469.348298	-758.881167	1222.563477	-245.163559
20469.348298	-758.881167	1221.447266	-5.656419
20469.348298	-758.881167	1220.331055	-25.540245
20469.348298	-758.881167	1219.214844	-91.651924
20469.348298	-758.881167	1218.098633	-0.300983
20469.348298	-758.881167	1216.981445	13.383010
20469.348298	-758.881167	1215.864258	73.324608
20469.348298	-758.881167	1214.747070	94.450607
20469.348298	-758.881167	1213.629883	-51.979176
20469.348298	-758.881167	1212.511719	-2.483965
20469.348298	-758.881167	1211.393555	63.130363
20469.348298	-758.881167	1210.275391	87.905869
20469.348298	-758.881167	1209.157227	140.267426
20469.348298	-758.881167	1208.038086	198.969193
20469.348298	-758.881167	1206.918945	201.311829
20469.348298	-758.881167	1205.799805	185.671387
20469.348298	-758.881167	1204.680664	337.245209
20469.348298	-758.881167	1203.560547	425.037445
20469.348298	-758.881167	1202.441406	480.201202
20469.348298	-758.881167	1201.321289	749.736877
20469.348298	-758.881167	1200.200195	810.029236
20469.348298	-758.881167	1199.080078	859.549011
20469.348298	-758.881167	1197.958984	582.096130
20469.348298	-758.881167	1196.837891	669.226379
20469.348298	-758.881167	1195.716797	446.634277
20469.348298	-758.881167	1194.594727	373.339386
20469.348298	-758.881167	1193.473633	105.977661
20469.348298	-758.881167	1192.351563	208.823563
20469.348298	-758.881167	1191.229492	2.371443
20469.348298	-758.881167	1190.106445	195.295120
20469.348298	-758.881167	1188.984375	238.806976
20469.348298	-758.881167	1187.861328	-38.536510
20469.348298	-758.881167	1186.738281	36.938812
20469.348298	-758.881167	1185.614258	-95.625526
20469.348298	-758.881167	1184.491211	-21.279604
20469.348298	-758.881167	1183.367188	-34.242538
20469.348298	-758.881167	1182.243164	-38.903503
20469.348298	-758.881167	1181.119141	-64.918533
20469.348298	-758.881167	1179.994141	111.774681
20469.348298	-758.881167	1178.869141	28.895458
20469.348298	-758.881167	1177.744141	-46.659470
20469.348298	-758.881167	1176.619141	41.954865
20469.348298	-758.881167	1175.493164	-34.160282
20469.348298	-758.881167	1174.368164	-83.743813
20469.348298	-758.881167	1173.242188	-27.902069
20469.348298	-758.881167	1172.115234	85.444199
20469.348298	-758.881167	1170.989258	-22.830378
20469.348298	-758.881167	1169.862305	-54.168289
20469.348298	-758.881167	1168.735352	-31.279514
20469.348298	-758.881167	1167.608398	-4.444996
20469.348298	-758.881167	1166.481445	-91.738640
20469.348298	-758.881167	1165.353516	-14.666904
20469.348298	-758.881167	1164.225586	-73.533310
20469.348298	-758.881167	1163.097656	-105.633430
20469.348298	-758.881167	1161.968750	-178.368347
20469.348298	-758.881167	1160.840820	-31.399744
20469.348298	-758.881167	1159.711914	17.776487
20469.348298	-758.881167	1158.583008	38.464481
20469.348298	-758.881167	1157.453125	-106.553398
20469.348298	-758.881167	1156.324219	8.499056
20469.348298	-758.881167	1155.194336	-113.159538
20469.348298	-758.881167	1154.064453	187.522247
20469.348298	-758.881167	1152.933594	22.452589
20469.348298	-758.881167	1151.803711	87.190323
20469.348298	-758.881167	1150.672852	19.496706
20469.348298	-758.881167	1149.541992	46.788609
20469.348298	-758.881167	1148.411133	358.809631
20469.348298	-758.881167	1147.279297	238.095718
20469.348298	-758.881167	1146.147461	236.992599
20469.348298	-758.881167	1145.015625	417.545685
20469.348298	-758.881167	1143.883789	413.294495
20469.348298	-758.881167	1142.750977	410.313843
20469.348298	-758.881167	1141.619141	665.341309
20469.348298	-758.881167	1140.486328	799.549377
20469.348298	-758.881167	1139.352539	746.346619
20469.348298	-758.881167	1138.219727	658.345947
20469.348298	-758.881167	1137.085938	919.666870
20469.348298	-758.881167	1135.952148	658.899780
20469.348298	-758.881167	1134.818359	563.455444
20469.348298	-758.881167	1133.683594	634.831177
20469.348298	-758.881167	1132.549805	850.503662
20469.348298	-758.881167	1131.415039	990.632935
20469.348298	-758.881167	1130.279297	839.587708
20469.348298	-758.881167	1129.144531	1151.425903
20469.348298	-758.881167	1128.008789	1111.794800
20469.348298	-758.881167	1126.873047	1271.058716
20469.348298	-758.881167	1125.737305	1297.475098
20469.348298	-758.881167	1124.601563	1339.077637
20469.348298	-758.881167	1123.464844	1621.984497
20469.348298	-758.881167	1122.328125	1643.475342
20469.348298	-758.881167	1121.191406	1827.956055
20469.348298	-758.881167	1120.054688	2083.012451
20469.348298	-758.881167	1118.916992	2376.027588
20469.348298	-758.881167	1117.779297	2614.423340
20469.348298	-758.881167	1116.641602	2891.563477
20469.348298	-758.881167	1115.503906	2765.152832
20469.348298	-758.881167	1114.365234	2782.650146
20469.348298	-758.881167	1113.226563	2744.236572
20469.348298	-758.881167	1112.087891	2692.657471
20469.348298	-758.881167	1110.949219	2498.181641
20469.348298	-758.881167	1109.809570	2117.705811
20469.348298	-758.881167	1108.669922	1794.777588
20469.348298	-758.881167	1107.530273	1504.630615
20469.348298	-758.881167	1106.390625	1434.361694
20469.348298	-758.881167	1105.250000	1089.666992
20469.348298	-758.881167	1104.109375	918.292236
20469.348298	-758.881167	1102.968750	709.209778
20469.348298	-758.881167	1101.828125	673.075745
20469.348298	-758.881167	1100.686523	560.505310
20469.348298	-758.881167	1099.544922	653.147522
20469.348298	-758.881167	1098.403320	712.952576
20469.348298	-758.881167	1097.261719	771.045349
20469.348298	-758.881167	1096.120117	674.404175
20469.348298	-758.881167	1094.977539	577.914429
20469.348298	-758.881167	1093.834961	468.941498
20469.348298	-758.881167	1092.691406	338.287506
20469.348298	-758.881167	1091.548828	309.553925
20469.348298	-758.881167	1090.405273	361.356842
20469.348298	-758.881167	1089.261719	346.283630
20469.348298	-758.881167	1088.118164	329.439728
20469.348298	-758.881167	1086.973633	391.728607
20469.348298	-758.881167	1085.829102	285.380402
20469.348298	-758.881167	1084.684570	358.802338
20469.348298	-758.881167	1083.540039	459.885071
20469.348298	-758.881167	1082.395508	430.272156
20469.348298	-758.881167	1081.250000	332.658813
20469.348298	-758.881167	1080.104492	167.882950
20469.348298	-758.881167	1078.958984	322.758118
20469.348298	-758.881167	1077.812500	354.114105
20469.348298	-758.881167	1076.666016	381.512695
20469.348298	-758.881167	1075.519531	215.104355
20469.348298	-758.881167	1074.373047	363.716309
20469.348298	-758.881167	1073.226563	374.053711
20469.348298	-758.881167	1072.079102	529.294800
20469.348298	-758.881167	1070.931641	493.713562
20469.348298	-758.881167	1069.784180	435.330658
20469.348298	-758.881167	1068.635742	327.772369
20469.348298	-758.881167	1067.487305	336.040497
20469.348298	-758.881167	1066.338867	531.577515
20469.348298	-758.881167	1065.190430	473.378723
20469.348298	-758.881167	1064.041992	522.499939
20469.348298	-758.881167	1062.892578	580.216675
20469.348298	-758.881167	1061.743164	485.049500
20469.348298	-758.881167	1060.593750	360.591461
20469.348298	-758.881167	1059.443359	631.104126
20469.348298	-758.881167	1058.292969	313.942444
20469.348298	-758.881167	1057.142578	302.880981
20469.348298	-758.881167	1055.992188	268.014709
20469.348298	-758.881167	1054.841797	175.229614
20469.348298	-758.881167	1053.690430	6.779216
20469.348298	-758.881167	1052.539063	199.172089
20469.348298	-758.881167	1051.387695	-68.107162
20469.348298	-758.881167	1050.235352	282.342346
20469.348298	-758.881167	1049.083984	108.602440
20469.348298	-758.881167	1047.931641	100.266533
20469.348298	-758.881167	1046.778320	287.127716
20469.348298	-758.881167	1045.625977	298.199829
20469.348298	-758.881167	1044.472656	453.779083
20469.348298	-758.881167	1043.319336	189.788605
20469.348298	-758.881167	1042.166016	233.154526
20469.348298	-758.881167	1041.012695	231.621292
20469.348298	-758.881167	1039.858398	211.347153
20469.348298	-758.881167	1038.704102	244.403931
20469.348298	-758.881167	1037.549805	328.500000
20469.348298	-758.881167	1036.394531	534.271912
20469.348298	-758.881167	1035.239258	207.031052
20469.348298	-758.881167	1034.083984	406.753265
20469.348298	-758.881167	1032.928711	204.472229
20469.348298	-758.881167	1031.773438	2.470506
20469.348298	-758.881167	1030.617188	265.536835
20469.348298	-758.881167	1029.460938	50.181988
20469.348298	-758.881167	1028.304688	229.842941
20469.348298	-758.881167	1027.147461	229.167618
20469.348298	-758.881167	1025.991211	295.152374
20469.348298	-758.881167	1024.833984	293.605316
20469.348298	-758.881167	1023.675781	269.009125
20469.348298	-758.881167	1022.518555	25.438654
20469.348298	-758.881167	1021.360352	73.810097
20469.348298	-758.881167	1020.202148	109.517555
20469.348298	-758.881167	1019.043945	10.127917
20469.348298	-758.881167	1017.884766	185.013367
20469.348298	-758.881167	1016.726563	225.849823
20469.348298	-758.881167	1015.567383	128.829407
20469.348298	-758.881167	1014.407227	89.531555
20469.348298	-758.881167	1013.248047	255.150101
20469.348298	-758.881167	1012.087891	151.578049
20469.348298	-758.881167	1010.927734	162.858383
20469.348298	-758.881167	1009.767578	368.809998
20469.348298	-758.881167	1008.606445	12.609384
20469.348298	-758.881167	1007.446289	121.275124
20469.348298	-758.881167	1006.285156	311.737854
20469.348298	-758.881167	1005.123047	456.878845
20469.348298	-758.881167	1003.961914	278.581146
20469.348298	-758.881167	1002.799805	448.447083
20469.348298	-758.881167	1001.637695	415.218231
20469.348298	-758.881167	1000.475586	436.616882
20469.348298	-758.881167	999.312500	574.047729
20469.348298	-758.881167	998.149414	421.421570
20469.348298	-758.881167	996.986328	716.984009
20469.348298	-758.881167	995.823242	566.914368
20469.348298	-758.881167	994.659180	149.692429
20469.348298	-758.881167	993.496094	330.361237
20469.348298	-758.881167	992.332031	182.307541
20469.348298	-758.881167	991.166992	77.622574
20469.348298	-758.881167	990.002930	17.600674
20469.348298	-758.881167	988.837891	211.662476
20469.348298	-758.881167	987.672852	82.855850
20469.348298	-758.881167	986.506836	38.217941
20469.348298	-758.881167	985.341797	198.240662
20469.348298	-758.881167	984.175781	6.327744
20469.348298	-758.881167	983.009766	86.931526
20469.348298	-758.881167	981.843750	140.116089
20469.348298	-758.881167	980.676758	92.541458
20469.348298	-758.881167	979.509766	91.510658
20469.348298	-758.881167	978.342773	61.957905
20469.348298	-758.881167	977.175781	-12.305643
20469.348298	-758.881167	976.007813	61.697289
20469.348298	-758.881167	974.839844	215.680038
20469.348298	-758.881167	973.671875	-73.533524
20469.348298	-758.881167	972.503906	-105.741608
20469.348298	-758.881167	971.334961	-40.566681
20469.348298	-758.881167	970.166016	67.246742
20469.348298	-758.881167	968.997070	-19.976500
20469.348298	-758.881167	967.828125	-39.824646
20469.348298	-758.881167	966.658203	-286.744476
20469.348298	-758.881167	965.488281	-67.590782
20469.348298	-758.881167	964.318359	98.767967
20469.348298	-758.881167	963.148438	131.699570
20469.348298	-758.881167	961.977539	-27.660841
20469.348298	-758.881167	960.806641	-18.363211
20469.348298	-758.881167	959.635742	-49.849293
20469.348298	-758.881167	958.463867	136.712250
20469.348298	-758.881167	957.292969	-125.185104
20469.348298	-758.881167	956.121094	-96.288506
20469.348298	-758.881167	954.948242	223.839127
20469.348298	-758.881167	953.776367	149.568344
20469.348298	-758.881167	952.603516	-44.660618
20469.348298	-758.881167	951.430664	142.964783
20469.348298	-758.881167	950.257813	44.425644
20469.348298	-758.881167	949.084961	-8.161200
20469.348298	-758.881167	947.911133	-84.160912
20469.348298	-758.881167	946.737305	-1.582129
20469.348298	-758.881167	945.563477	-77.793373
20469.348298	-758.881167	944.388672	-32.829800
20469.348298	-758.881167	943.213867	81.794159
20469.348298	-758.881167	942.039063	49.888687
20469.348298	-758.881167	940.864258	286.646790
20469.348298	-758.881167	939.688477	-39.473644
20469.348298	-758.881167	938.513672	114.550865
20469.348298	-758.881167	937.337891	162.392380
20469.348298	-758.881167	936.161133	242.471375
20469.348298	-758.881167	934.985352	239.802597
20469.348298	-758.881167	933.808594	176.347046
20469.348298	-758.881167	932.631836	489.843384
20469.348298	-758.881167	931.454102	248.336319
20469.348298	-758.881167	930.277344	545.673706
20469.348298	-758.881167	929.099609	622.623047
20469.348298	-758.881167	927.921875	519.176025
20469.348298	-758.881167	926.743164	458.125305
20469.348298	-758.881167	925.565430	532.398926
20469.348298	-758.881167	924.386719	481.996643
20469.348298	-758.881167	923.208008	474.026428
20469.348298	-758.881167	922.028320	359.994690
20469.348298	-758.881167	920.849609	471.311066
20469.348298	-758.881167	919.669922	473.758423
20469.348298	-758.881167	919.474609	233.161697
20469.348298	-758.881167	918.309570	262.274963
20469.348298	-758.881167	917.143555	354.948334
20469.348298	-758.881167	915.977539	39.694984
20469.348298	-758.881167	914.810547	44.973446
20469.348298	-758.881167	913.644531	148.195282
20469.348298	-758.881167	912.477539	201.077850
20469.348298	-758.881167	911.310547	-66.284645
20469.348298	-758.881167	910.143555	224.733276
20469.348298	-758.881167	908.975586	-100.734085
20469.348298	-758.881167	907.807617	-63.739033
20469.348298	-758.881167	906.639648	-39.986164
20469.348298	-758.881167	905.471680	-69.122475
20469.348298	-758.881167	904.303711	-11.027391
20469.348298	-758.881167	903.134766	144.820023
20469.348298	-758.881167	901.965820	-0.600281
20469.348298	-758.881167	900.796875	70.643776
20469.348298	-758.881167	899.626953	170.908066
20469.348298	-758.881167	898.457031	123.262367
20469.348298	-758.881167	897.287109	-77.484306
20469.348298	-758.881167	896.117188	149.434082
20469.348298	-758.881167	894.947266	120.287468
20469.348298	-758.881167	893.776367	304.859406
20469.348298	-758.881167	892.605469	267.779266
20469.348298	-758.881167	891.434570	135.773926
20469.348298	-758.881167	890.262695	111.928741
20469.348298	-758.881167	889.091797	30.096655
20469.348298	-758.881167	887.919922	111.709610
20469.348298	-758.881167	886.748047	8.833421
20469.348298	-758.881167	885.575195	-88.727890
20469.348298	-758.881167	884.403320	153.539734
20469.348298	-758.881167	883.230469	-62.514782
20469.348298	-758.881167	882.057617	-41.512203
20469.348298	-758.881167	880.883789	-78.427818
20469.348298	-758.881167	879.710938	192.602966
20469.348298	-758.881167	878.537109	34.620453
20469.348298	-758.881167	877.362305	-18.060619
20469.348298	-758.881167	876.188477	155.483887
20469.348298	-758.881167	875.013672	-44.455750
20469.348298	-758.881167	873.839844	-20.831406
20469.348298	-758.881167	872.664063	92.165756
20469.348298	-758.881167	871.489258	-55.062653
20469.348298	-758.881167	870.313477	-31.431435
20469.348298	-758.881167	869.138672	-31.450150
20469.348298	-758.881167	867.962891	-78.737701
20469.348298	-758.881167	866.786133	-102.365173
20469.348298	-758.881167	865.610352	-47.215221
20469.348298	-758.881167	864.433594	-20.954609
20469.348298	-758.881167	863.256836	-104.920097
20469.348298	-758.881167	862.079102	-76.019684
20469.348298	-758.881167	860.902344	78.791618
20469.348298	-758.881167	859.724609	-44.462513
20469.348298	-758.881167	858.546875	309.581299
20469.348298	-758.881167	857.368164	-88.926407
20469.348298	-758.881167	856.190430	5.503659
20469.348298	-758.881167	855.011719	10.806285
20469.348298	-758.881167	853.833008	120.914116
20469.348298	-758.881167	852.654297	123.586014
20469.348298	-758.881167	851.474609	68.648331
20469.348298	-758.881167	850.294922	81.820755
20469.348298	-758.881167	849.115234	89.758606
20469.348298	-758.881167	847.935547	-17.461897
20469.348298	-758.881167	846.754883	-229.300568
20469.348298	-758.881167	845.575195	-82.617012
20469.348298	-758.881167	844.393555	234.041321
20469.348298	-758.881167	843.212891	-50.921684
20469.348298	-758.881167	842.032227	-50.760780
20469.348298	-758.881167	840.850586	-270.176056
20469.348298	-758.881167	839.668945	33.222973
20469.348298	-758.881167	838.486328	-47.610493
20469.348298	-758.881167	837.304688	-83.992256
20469.348298	-758.881167	836.122070	-277.068542
20469.348298	-758.881167	834.939453	96.624268
20469.348298	-758.881167	833.756836	-224.327988
20469.348298	-758.881167	832.573242	-140.532623
20469.348298	-758.881167	831.389648	-82.863007
20469.348298	-758.881167	830.206055	-25.210865
20469.348298	-758.881167	829.022461	-51.054855
20469.348298	-758.881167	827.838867	-285.537720
20469.348298	-758.881167	826.654297	-144.410339
20469.348298	-758.881167	825.469727	85.307335
20469.348298	-758.881167	824.284180	-83.869995
20469.348298	-758.881167	823.099609	-80.974243
20469.348298	-758.881167	821.914063	-96.309830
20469.348298	-758.881167	820.728516	-103.818619
20469.348298	-758.881167	819.542969	8.485487
20469.348298	-758.881167	818.356445	-40.691444
20469.348298	-758.881167	817.169922	-201.788406
20469.348298	-758.881167	815.983398	9.391623
20469.348298	-758.881167	814.796875	-57.957321
20469.348298	-758.881167	813.609375	-62.829391
20469.348298	-758.881167	812.422852	137.798981
20469.348298	-758.881167	811.235352	-38.749695
20469.348298	-758.881167	810.046875	-80.011879
20469.348298	-758.881167	808.859375	39.918762
20469.348298	-758.881167	807.670898	32.450649
20469.348298	-758.881167	806.482422	-234.866074
20469.348298	-758.881167	805.293945	48.705513
20469.348298	-758.881167	804.104492	165.926071
20469.348298	-758.881167	802.915039	150.656250
20469.348298	-758.881167	801.725586	2.976687
20469.348298	-758.881167	800.536133	-40.807358
20469.348298	-758.881167	799.345703	-310.363007
20469.348298	-758.881167	798.155273	-34.904888
20469.348298	-758.881167	796.964844	-99.407059
20469.348298	-758.881167	795.774414	-67.917824
20469.348298	-758.881167	794.583008	-23.474501
20469.348298	-758.881167	793.392578	-124.242188
20469.348298	-758.881167	792.200195	-144.612152
20469.348298	-758.881167	791.008789	-206.443146
20469.348298	-758.881167	789.816406	-143.882599
20469.348298	-758.881167	788.625000	11.903380
20469.348298	-758.881167	787.432617	-91.373299
20469.348298	-758.881167	786.239258	20.311222
20469.348298	-758.881167	785.046875	-212.380066
20469.348298	-758.881167	783.853516	-23.080044
20469.348298	-758.881167	782.660156	129.904800
20469.348298	-758.881167	781.465820	143.108276
20469.348298	-758.881167	780.272461	76.107452
20469.348298	-758.881167	779.078125	112.574043
20469.348298	-758.881167	777.883789	156.773804
20469.348298	-758.881167	776.688477	1.891866
20469.348298	-758.881167	775.494141	216.656662
20469.348298	-758.881167	774.298828	-46.726013
20469.348298	-758.881167	773.103516	198.939285
20469.348298	-758.881167	771.907227	-30.774729
20469.348298	-758.881167	770.711914	36.571392
20469.348298	-758.881167	769.515625	181.332733
20469.348298	-758.881167	768.318359	3.351330
20469.348298	-758.881167	767.122070	166.094986
20469.348298	-758.881167	765.924805	225.544647
20469.348298	-758.881167	764.727539	166.283463
20469.348298	-758.881167	763.530273	45.128105
20469.348298	-758.881167	762.333008	65.831726
20469.348298	-758.881167	761.134766	-34.664009
20469.348298	-758.881167	759.936523	53.026817
20469.348298	-758.881167	758.738281	32.423939
20469.348298	-758.881167	757.540039	161.245346
20469.348298	-758.881167	756.340820	289.993164
20469.348298	-758.881167	755.141602	32.345276
20469.348298	-758.881167	753.942383	217.666168
20469.348298	-758.881167	752.742188	-73.374161
20469.348298	-758.881167	751.541992	-37.440536
20469.348298	-758.881167	750.341797	57.637135
20469.348298	-758.881167	749.141602	237.548462
20469.348298	-758.881167	747.941406	-12.206400
20469.348298	-758.881167	746.740234	108.439857
20469.348298	-758.881167	745.539063	100.447502
20469.348298	-758.881167	744.337891	-36.103249
20469.348298	-758.881167	743.135742	202.604813
20469.348298	-758.881167	741.933594	-70.160355
20469.348298	-758.881167	740.731445	52.782982
20469.348298	-758.881167	739.529297	-104.323837
20469.348298	-758.881167	738.326172	95.545242
20469.348298	-758.881167	737.124023	0.041508
20469.348298	-758.881167	735.919922	81.656906
20469.348298	-758.881167	734.716797	140.100861
20469.348298	-758.881167	733.513672	165.126907
20469.348298	-758.881167	732.309570	46.448444
20469.348298	-758.881167	731.105469	-100.432961
20469.348298	-758.881167	729.900391	52.716503
20469.348298	-758.881167	728.696289	0.665722
20469.348298	-758.881167	727.491211	74.186905
20469.348298	-758.881167	726.286133	32.315914
20469.348298	-758.881167	725.080078	33.972931
20469.348298	-758.881167	723.874023	-25.894011
20469.348298	-758.881167	722.668945	185.678894
20469.348298	-758.881167	721.461914	94.985046
20469.348298	-758.881167	720.255859	239.789764
20469.348298	-758.881167	719.048828	195.091263
20469.348298	-758.881167	717.841797	224.566299
20469.348298	-758.881167	716.634766	251.418030
20469.348298	-758.881167	715.427734	-138.709930
20469.348298	-758.881167	714.219727	391.872742
20469.348298	-758.881167	713.011719	188.408386
20469.348298	-758.881167	711.803711	-222.074661
20469.348298	-758.881167	710.594727	-29.317820
20469.348298	-758.881167	709.385742	101.977982
20469.348298	-758.881167	708.176758	54.342106
20469.348298	-758.881167	706.967773	180.338089
20469.348298	-758.881167	705.758789	158.119308
20469.348298	-758.881167	704.548828	97.554436
20469.348298	-758.881167	703.338867	3.769943
20469.348298	-758.881167	702.127930	35.002563
20469.348298	-758.881167	700.917969	61.054390
20469.348298	-758.881167	699.707031	79.377274
20469.348298	-758.881167	698.496094	140.980728
20469.348298	-758.881167	697.285156	72.453705
20469.348298	-758.881167	696.073242	156.838333
20469.348298	-758.881167	694.861328	44.870872
20469.348298	-758.881167	693.649414	-39.090199
20469.348298	-758.881167	692.436523	83.266640
20469.348298	-758.881167	691.224609	-79.770271
20469.348298	-758.881167	690.011719	286.862396
20469.348298	-758.881167	688.798828	116.065224
20469.348298	-758.881167	687.584961	105.628052
20469.348298	-758.881167	686.372070	56.945190
20469.348298	-758.881167	685.158203	-4.516209
20469.348298	-758.881167	683.943359	119.668617
20469.348298	-758.881167	682.729492	111.472481
20469.348298	-758.881167	681.514648	148.968643
20469.348298	-758.881167	680.299805	303.310150
20469.348298	-758.881167	679.084961	353.296967
20469.348298	-758.881167	677.869141	215.133499
20469.348298	-758.881167	676.653320	374.196625
20469.348298	-758.881167	675.437500	520.409424
20469.348298	-758.881167	674.221680	310.938080
20469.348298	-758.881167	673.004883	350.291504
20469.348298	-758.881167	671.789063	376.849976
20469.348298	-758.881167	670.571289	235.803543
20469.348298	-758.881167	669.354492	-9.303931
20469.348298	-758.881167	668.136719	468.611176
20469.348298	-758.881167	666.919922	558.175842
20469.348298	-758.881167	665.701172	320.490479
20469.348298	-758.881167	664.483398	425.076385
20469.348298	-758.881167	663.264648	177.197296
20469.348298	-758.881167	662.045898	241.035736
20469.348298	-758.881167	660.827148	246.479752
20469.348298	-758.881167	659.608398	411.414429
20469.348298	-758.881167	658.388672	262.140930
20469.348298	-758.881167	657.168945	621.779541
20469.348298	-758.881167	655.949219	168.549500
20469.348298	-758.881167	654.728516	378.531952
20469.348298	-758.881167	653.507813	537.718628
20469.348298	-758.881167	652.287109	598.072876
20469.348298	-758.881167	651.066406	453.422241
20469.348298	-758.881167	649.844727	321.375092
20469.348298	-758.881167	648.623047	545.776978
20469.348298	-758.881167	647.401367	314.981964
20469.348298	-758.881167	646.179688	354.598938
20469.348298	-758.881167	644.957031	346.087494
20469.348298	-758.881167	643.734375	453.682343
20469.348298	-758.881167	642.511719	336.345917
20469.348298	-758.881167	641.289063	375.513397
20469.348298	-758.881167	640.065430	432.229126
20469.348298	-758.881167	638.841797	574.634338
20469.348298	-758.881167	637.618164	381.248291
20469.348298	-758.881167	636.393555	334.168823
20469.348298	-758.881167	635.168945	519.067810
20469.348298	-758.881167	633.944336	413.764282
20469.348298	-758.881167	632.719727	368.912262
20469.348298	-758.881167	631.494141	316.406281
20469.348298	-758.881167	630.269531	278.941956
20469.348298	-758.881167	629.042969	145.626740
20469.348298	-758.881167	627.817383	349.843018
20469.348298	-758.881167	626.590820	314.584747
20469.348298	-758.881167	625.365234	118.075584
20469.348298	-758.881167	624.137695	221.131149
20469.348298	-758.881167	622.911133	261.112396
20469.348298	-758.881167	621.683594	207.851532
20469.348298	-758.881167	620.456055	144.439667
20469.348298	-758.881167	619.228516	214.268372
20469.348298	-758.881167	618.000977	467.552490
20469.348298	-758.881167	616.772461	323.334137
20469.348298	-758.881167	615.543945	244.430496
20469.348298	-758.881167	614.314453	12.130633
20469.348298	-758.881167	613.085938	169.315445
20469.348298	-758.881167	611.856445	260.999573
20469.348298	-758.881167	610.626953	322.395111
20469.348298	-758.881167	609.397461	353.521729
20469.348298	-758.881167	608.166992	284.093048
20469.348298	-758.881167	606.936523	234.667160
20469.348298	-758.881167	605.706055	303.106598
20469.348298	-758.881167	604.474609	208.311325
20469.348298	-758.881167	603.244141	191.220398
20469.348298	-758.881167	602.012695	151.451843
20469.348298	-758.881167	600.780273	-83.999161
20469.348298	-758.881167	599.548828	144.338272
20469.348298	-758.881167	598.316406	119.315125
20469.348298	-758.881167	597.083984	31.549911
20469.348298	-758.881167	595.851563	43.929787
20469.348298	-758.881167	594.618164	284.132568
20469.348298	-758.881167	593.384766	110.917763
20469.348298	-758.881167	592.151367	125.454773
20469.348298	-758.881167	590.917969	265.042969
20469.348298	-758.881167	589.683594	204.244766
20469.348298	-758.881167	588.449219	185.904968
20469.348298	-758.881167	587.214844	102.428490
20469.348298	-758.881167	585.979492	281.493774
20469.348298	-758.881167	584.745117	12.785814
20469.348298	-758.881167	583.509766	126.589546
20469.348298	-758.881167	582.273438	55.274590
20469.348298	-758.881167	581.038086	271.277466
20469.348298	-758.881167	579.801758	252.229355
20469.348298	-758.881167	578.565430	75.722069
20469.348298	-758.881167	577.329102	83.998566
20469.348298	-758.881167	576.091797	189.542557
20469.348298	-758.881167	574.854492	82.759575
20469.348298	-758.881167	573.617188	70.765717
20469.348298	-758.881167	572.378906	-16.182016
20469.348298	-758.881167	571.141602	4.092530
20469.348298	-758.881167	569.903320	89.107307
20469.348298	-758.881167	568.664063	256.275208
20469.348298	-758.881167	567.425781	69.265984
20469.348298	-758.881167	566.186523	208.767212
20469.348298	-758.881167	564.947266	136.294540
20469.348298	-758.881167	563.708008	33.867565
20469.348298	-758.881167	562.467773	143.120865
20469.348298	-758.881167	561.227539	87.872101
20469.348298	-758.881167	559.987305	231.755219
20469.348298	-758.881167	558.747070	-7.873188
20469.348298	-758.881167	557.505859	8.861526
20469.348298	-758.881167	556.264648	-86.467751
20469.348298	-758.881167	555.023438	270.939972
20469.348298	-758.881167	553.781250	-68.324944
20469.348298	-758.881167	552.539063	144.529358
20469.348298	-758.881167	551.296875	-3.282978
20469.348298	-758.881167	550.054688	164.570374
20469.348298	-758.881167	548.811523	-47.956161
20469.348298	-758.881167	547.569336	241.431580
20469.348298	-758.881167	546.325195	-25.824741
20469.348298	-758.881167	545.082031	39.763584
20469.348298	-758.881167	543.837891	15.857845
20469.348298	-758.881167	542.593750	-20.519045
20469.348298	-758.881167	541.349609	-49.502441
20469.348298	-758.881167	540.105469	-219.979645
20469.348298	-758.881167	538.860352	-13.364670
20469.348298	-758.881167	537.615234	-12.770115
20469.348298	-758.881167	536.369141	-106.479210
20469.348298	-758.881167	535.124023	-110.946709
20469.348298	-758.881167	533.877930	-152.661407
20469.348298	-758.881167	532.631836	-129.982758
20469.348298	-758.881167	531.384766	-72.692184
20469.348298	-758.881167	530.138672	-124.466736
20469.348298	-758.881167	528.891602	-230.767197
20469.348298	-758.881167	527.643555	-188.519974
20469.348298	-758.881167	526.396484	-81.967339
20469.348298	-758.881167	525.148438	-29.969696
20469.348298	-758.881167	523.900391	-94.344215
20469.348298	-758.881167	522.652344	-173.581665
20469.348298	-758.881167	521.403320	-3.023313
20469.348298	-758.881167	520.154297	-188.680573
20469.348298	-758.881167	518.905273	-13.334270
20469.348298	-758.881167	517.656250	-186.634369
20469.348298	-758.881167	516.406250	-50.996490
20469.348298	-758.881167	515.156250	-93.350929
20469.348298	-758.881167	513.906250	-180.189484
20469.348298	-758.881167	512.655273	-76.867340
20469.348298	-758.881167	511.404297	-77.331352
20469.348298	-758.881167	510.153320	-119.795052
20469.348298	-758.881167	508.902344	99.349304
20469.348298	-758.881167	507.650391	-24.638391
20469.348298	-758.881167	506.398438	-121.463776
20469.348298	-758.881167	505.146484	-87.549454
20469.348298	-758.881167	503.893555	-275.627838
20469.348298	-758.881167	502.641602	-118.474686
20469.348298	-758.881167	501.388672	-210.384216
20469.348298	-758.881167	500.134766	-206.174713
20469.348298	-758.881167	498.881836	-120.672691
20469.348298	-758.881167	497.627930	-252.014389
20469.348298	-758.881167	496.374023	-208.459274
20469.348298	-758.881167	495.119141	-68.923691
20469.348298	-758.881167	493.865234	-67.315292
20469.348298	-758.881167	492.610352	-166.646530
20469.348298	-758.881167	491.355469	53.939190
20469.348298	-758.881167	490.099609	-3.596764
20469.348298	-758.881167	488.843750	74.156815
20469.348298	-758.881167	487.587891	-52.244724
20469.348298	-758.881167	486.332031	57.417973
20469.348298	-758.881167	485.075195	-32.093197
20469.348298	-758.881167	483.818359	-205.135788
20469.348298	-758.881167	482.561523	-83.276772
20469.348298	-758.881167	481.304688	43.429504
20469.348298	-758.881167	480.046875	0.599150
20469.348298	-758.881167	478.789063	-29.947924
20469.348298	-758.881167	477.531250	10.696607
20469.348298	-758.881167	476.272461	26.757971
20469.348298	-758.881167	475.013672	106.599800
20469.348298	-758.881167	473.754883	-36.854206
20469.348298	-758.881167	472.496094	312.745331
20469.348298	-758.881167	471.236328	267.361572
20469.348298	-758.881167	469.976563	-10.927376
20469.348298	-758.881167	468.716797	-110.174759
20469.348298	-758.881167	467.456055	-20.703892
20469.348298	-758.881167	466.196289	125.075218
20469.348298	-758.881167	464.935547	25.807333
20469.348298	-758.881167	463.673828	51.456333
20469.348298	-758.881167	462.413086	150.542557
20469.348298	-758.881167	461.151367	127.156677
20469.348298	-758.881167	459.889648	89.075165
20469.348298	-758.881167	458.626953	68.106621
20469.348298	-758.881167	457.364258	181.675720
20469.348298	-758.881167	456.101563	329.412567
20469.348298	-758.881167	454.838867	137.154160
20469.348298	-758.881167	453.575195	118.520973
20469.348298	-758.881167	452.312500	146.317612
20469.348298	-758.881167	451.047852	296.235321
20469.348298	-758.881167	449.784180	99.121979
20469.348298	-758.881167	448.519531	14.409255
20469.348298	-758.881167	447.254883	81.106644
20469.348298	-758.881167	445.990234	206.329315
20469.348298	-758.881167	444.725586	175.218613
20469.348298	-758.881167	443.459961	95.245979
20469.348298	-758.881167	442.194336	215.339218
20469.348298	-758.881167	440.927734	103.554276
20469.348298	-758.881167	439.662109	72.253136
20469.348298	-758.881167	438.395508	143.303864
20469.348298	-758.881167	437.127930	75.277145
20469.348298	-758.881167	435.861328	143.711365
20469.348298	-758.881167	434.593750	204.712891
20469.348298	-758.881167	433.326172	146.218124
20469.348298	-758.881167	432.058594	34.069416
20469.348298	-758.881167	430.790039	309.077301
20469.348298	-758.881167	429.521484	386.644409
20469.348298	-758.881167	428.252930	-25.220648
20469.348298	-758.881167	426.984375	173.847900
20469.348298	-758.881167	425.714844	131.807648
20469.348298	-758.881167	424.445313	65.329041
20469.348298	-758.881167	423.174805	108.178459
20469.348298	-758.881167	421.905273	413.492737
20469.348298	-758.881167	420.634766	348.984009
20469.348298	-758.881167	419.364258	162.814056
20469.348298	-758.881167	418.092773	-23.456453
20469.348298	-758.881167	416.822266	101.168365
20469.348298	-758.881167	415.550781	337.274384
20469.348298	-758.881167	414.278320	-136.043625
20469.348298	-758.881167	413.006836	99.610466
20469.348298	-758.881167	411.734375	133.458313
20469.348298	-758.881167	410.461914	242.298004
20469.348298	-758.881167	409.188477	178.568542
20469.348298	-758.881167	407.916016	12.746992
20469.348298	-758.881167	406.642578	101.381264
20469.348298	-758.881167	405.368164	41.779251
20469.348298	-758.881167	404.094727	270.419952
20469.348298	-758.881167	402.820313	9.054911
20469.348298	-758.881167	401.545898	299.983704
20469.348298	-758.881167	400.270508	314.262146
20469.348298	-758.881167	398.996094	153.814667
20469.348298	-758.881167	397.720703	257.025940
20469.348298	-758.881167	396.444336	122.540543
20469.348298	-758.881167	395.168945	370.196198
20469.348298	-758.881167	393.892578	128.478104
20469.348298	-758.881167	392.616211	435.680450
20469.348298	-758.881167	391.339844	302.058014
20469.348298	-758.881167	390.062500	629.953491
20469.348298	-758.881167	388.785156	389.019836
20469.348298	-758.881167	387.507813	130.780807
20469.348298	-758.881167	386.229492	386.927002
20469.348298	-758.881167	384.951172	584.442810
20469.348298	-758.881167	383.672852	322.313293
20469.348298	-758.881167	382.394531	306.093201
20469.348298	-758.881167	381.115234	513.846069
20469.348298	-758.881167	379.835938	228.385788
20469.348298	-758.881167	378.556641	381.717438
20469.348298	-758.881167	377.277344	406.422760
20469.348298	-758.881167	375.997070	536.573608
20469.348298	-758.881167	374.716797	444.040802
20469.348298	-758.881167	373.435547	382.145752
20469.348298	-758.881167	372.155273	341.241547
20469.348298	-758.881167	370.874023	277.853180
20469.348298	-758.881167	369.591797	298.006836
20469.348298	-758.881167	368.310547	228.182968
20469.348298	-758.881167	367.028320	121.359856
20469.348298	-758.881167	365.746094	150.968918
20469.348298	-758.881167	364.463867	244.650467
20469.348298	-758.881167	363.180664	142.300995
20469.348298	-758.881167	361.897461	279.695404
20469.348298	-758.881167	360.614258	420.817383
20469.348298	-758.881167	359.330078	216.749161
20469.348298	-758.881167	358.045898	290.696075
20469.348298	-758.881167	356.761719	356.268311
20469.348298	-758.881167	355.477539	197.046799
20469.348298	-758.881167	354.192383	305.882416
20469.348298	-758.881167	352.907227	526.383667
20469.348298	-758.881167	351.622070	296.200226
20469.348298	-758.881167	350.336914	86.417374
20469.348298	-758.881167	349.050781	173.139175
20469.348298	-758.881167	347.764648	195.991806
20469.348298	-758.881167	346.477539	-8.308563
20469.348298	-758.881167	345.191406	261.253204
20469.348298	-758.881167	343.904297	-22.779797
20469.348298	-758.881167	342.616211	44.351021
20469.348298	-758.881167	341.329102	-101.201553
20469.348298	-758.881167	340.041016	-118.915359
20469.348298	-758.881167	338.752930	-145.536652
20469.348298	-758.881167	337.463867	-75.691216
20469.348298	-758.881167	336.175781	-62.770218
20469.348298	-758.881167	334.886719	-94.907875
20469.348298	-758.881167	333.596680	-179.317749
20469.348298	-758.881167	332.307617	-131.510040
20469.348298	-758.881167	331.017578	14.743912
20469.348298	-758.881167	329.727539	-276.842682
20469.348298	-758.881167	328.436523	-113.395668
20469.348298	-758.881167	327.146484	83.714142
20469.348298	-758.881167	325.855469	-221.585373
20469.348298	-758.881167	324.563477	63.996502
20469.348298	-758.881167	323.272461	-135.915466
20469.348298	-758.881167	321.980469	1.204535
20469.348298	-758.881167	320.688477	-253.872131
20469.348298	-758.881167	319.395508	-57.479645
20469.348298	-758.881167	318.103516	-200.642868
20469.348298	-758.881167	316.810547	-16.934914
20469.348298	-758.881167	315.516602	228.276871
20469.348298	-758.881167	314.223633	-171.690460
20469.348298	-758.881167	312.929688	284.806427
20469.348298	-758.881167	311.635742	-121.090195
20469.348298	-758.881167	310.340820	221.571579
20469.348298	-758.881167	309.045898	176.816162
20469.348298	-758.881167	307.750977	102.556450
20469.348298	-758.881167	306.456055	179.947937
20469.348298	-758.881167	305.160156	337.193817
20469.348298	-758.881167	303.865234	507.608917
20469.348298	-758.881167	302.568359	419.151489
20469.348298	-758.881167	301.272461	567.731079
20469.348298	-758.881167	299.975586	933.835510
20469.348298	-758.881167	298.678711	957.722412
