#X		#Y		#Wave		#Intensity
12360.592713	-1210.490833	1999.980469	21.912281
12360.592713	-1210.490833	1999.016602	56.724194
12360.592713	-1210.490833	1998.052734	212.911819
12360.592713	-1210.490833	1997.087891	140.887375
12360.592713	-1210.490833	1996.123047	-52.677063
12360.592713	-1210.490833	1995.158203	-105.124603
12360.592713	-1210.490833	1994.193359	-46.250610
12360.592713	-1210.490833	1993.228516	213.035202
12360.592713	-1210.490833	1992.262695	51.194534
12360.592713	-1210.490833	1991.297852	119.486328
12360.592713	-1210.490833	1990.332031	-7.895169
12360.592713	-1210.490833	1989.366211	-58.646679
12360.592713	-1210.490833	1988.399414	172.535370
12360.592713	-1210.490833	1987.433594	133.898819
12360.592713	-1210.490833	1986.466797	-45.799999
12360.592713	-1210.490833	1985.500977	-131.581528
12360.592713	-1210.490833	1984.534180	-39.438122
12360.592713	-1210.490833	1983.567383	27.854532
12360.592713	-1210.490833	1982.599609	99.970871
12360.592713	-1210.490833	1981.632813	85.490486
12360.592713	-1210.490833	1980.665039	251.262650
12360.592713	-1210.490833	1979.697266	157.554657
12360.592713	-1210.490833	1978.729492	44.047146
12360.592713	-1210.490833	1977.761719	167.524124
12360.592713	-1210.490833	1976.792969	318.036926
12360.592713	-1210.490833	1975.825195	140.177322
12360.592713	-1210.490833	1974.856445	9.202299
12360.592713	-1210.490833	1973.887695	122.458206
12360.592713	-1210.490833	1972.918945	99.947395
12360.592713	-1210.490833	1971.949219	106.984169
12360.592713	-1210.490833	1970.980469	-46.307304
12360.592713	-1210.490833	1970.010742	-31.951311
12360.592713	-1210.490833	1969.041016	149.960907
12360.592713	-1210.490833	1968.071289	-77.322609
12360.592713	-1210.490833	1967.101563	10.818168
12360.592713	-1210.490833	1966.130859	281.184113
12360.592713	-1210.490833	1965.161133	113.000999
12360.592713	-1210.490833	1964.190430	282.215302
12360.592713	-1210.490833	1963.219727	99.259933
12360.592713	-1210.490833	1962.249023	49.272175
12360.592713	-1210.490833	1961.277344	174.019150
12360.592713	-1210.490833	1960.306641	308.541077
12360.592713	-1210.490833	1959.334961	115.778824
12360.592713	-1210.490833	1958.363281	50.978653
12360.592713	-1210.490833	1957.391602	-6.435443
12360.592713	-1210.490833	1956.419922	83.690926
12360.592713	-1210.490833	1955.447266	100.016991
12360.592713	-1210.490833	1954.474609	40.129593
12360.592713	-1210.490833	1953.501953	169.484695
12360.592713	-1210.490833	1952.529297	92.392693
12360.592713	-1210.490833	1951.556641	214.307449
12360.592713	-1210.490833	1950.583984	186.350769
12360.592713	-1210.490833	1949.610352	271.362122
12360.592713	-1210.490833	1948.636719	-29.128622
12360.592713	-1210.490833	1947.663086	-37.388504
12360.592713	-1210.490833	1946.689453	-170.811615
12360.592713	-1210.490833	1945.715820	164.503815
12360.592713	-1210.490833	1944.741211	1.659683
12360.592713	-1210.490833	1943.767578	17.949240
12360.592713	-1210.490833	1942.792969	-161.959290
12360.592713	-1210.490833	1941.818359	50.531902
12360.592713	-1210.490833	1940.842773	-97.427589
12360.592713	-1210.490833	1939.868164	19.400501
12360.592713	-1210.490833	1938.892578	23.466494
12360.592713	-1210.490833	1937.916992	76.548622
12360.592713	-1210.490833	1936.941406	-2.661781
12360.592713	-1210.490833	1935.965820	-18.145325
12360.592713	-1210.490833	1934.990234	22.714996
12360.592713	-1210.490833	1934.013672	173.752121
12360.592713	-1210.490833	1933.037109	1.625805
12360.592713	-1210.490833	1932.060547	64.537880
12360.592713	-1210.490833	1931.083984	46.693047
12360.592713	-1210.490833	1930.107422	60.679768
12360.592713	-1210.490833	1929.129883	106.479286
12360.592713	-1210.490833	1928.153320	22.663858
12360.592713	-1210.490833	1927.175781	19.590895
12360.592713	-1210.490833	1926.198242	-56.801968
12360.592713	-1210.490833	1925.219727	231.050415
12360.592713	-1210.490833	1924.242188	100.925056
12360.592713	-1210.490833	1923.263672	146.791672
12360.592713	-1210.490833	1922.285156	92.504646
12360.592713	-1210.490833	1921.306641	-37.455349
12360.592713	-1210.490833	1920.328125	8.479230
12360.592713	-1210.490833	1919.349609	137.430573
12360.592713	-1210.490833	1918.370117	-92.481583
12360.592713	-1210.490833	1917.391602	7.199837
12360.592713	-1210.490833	1916.412109	209.352829
12360.592713	-1210.490833	1915.431641	50.375912
12360.592713	-1210.490833	1914.452148	6.126278
12360.592713	-1210.490833	1913.472656	39.958904
12360.592713	-1210.490833	1912.492188	132.320618
12360.592713	-1210.490833	1911.511719	-102.007111
12360.592713	-1210.490833	1910.531250	146.387665
12360.592713	-1210.490833	1909.550781	99.837753
12360.592713	-1210.490833	1908.569336	-17.333105
12360.592713	-1210.490833	1907.588867	19.035480
12360.592713	-1210.490833	1906.607422	-46.884373
12360.592713	-1210.490833	1905.625977	1.693386
12360.592713	-1210.490833	1904.644531	-32.505024
12360.592713	-1210.490833	1903.662109	38.002327
12360.592713	-1210.490833	1902.680664	-78.898941
12360.592713	-1210.490833	1901.698242	-59.470222
12360.592713	-1210.490833	1900.715820	64.586021
12360.592713	-1210.490833	1899.733398	-18.142794
12360.592713	-1210.490833	1898.750000	-10.838815
12360.592713	-1210.490833	1897.767578	-66.738815
12360.592713	-1210.490833	1896.784180	-139.618744
12360.592713	-1210.490833	1895.800781	222.625351
12360.592713	-1210.490833	1894.817383	-39.800083
12360.592713	-1210.490833	1893.833984	33.187389
12360.592713	-1210.490833	1892.850586	33.285381
12360.592713	-1210.490833	1891.866211	-216.768372
12360.592713	-1210.490833	1890.881836	69.948280
12360.592713	-1210.490833	1889.897461	19.095789
12360.592713	-1210.490833	1888.913086	177.032852
12360.592713	-1210.490833	1887.927734	46.113384
12360.592713	-1210.490833	1886.943359	-55.628437
12360.592713	-1210.490833	1885.958008	-200.990921
12360.592713	-1210.490833	1884.972656	-118.281578
12360.592713	-1210.490833	1883.987305	25.035915
12360.592713	-1210.490833	1883.001953	-79.013824
12360.592713	-1210.490833	1882.015625	54.560787
12360.592713	-1210.490833	1881.029297	37.815407
12360.592713	-1210.490833	1880.042969	-29.807432
12360.592713	-1210.490833	1879.056641	234.536163
12360.592713	-1210.490833	1878.070313	-177.076523
12360.592713	-1210.490833	1877.083984	-38.740093
12360.592713	-1210.490833	1876.096680	0.263551
12360.592713	-1210.490833	1875.109375	39.253628
12360.592713	-1210.490833	1874.122070	90.333748
12360.592713	-1210.490833	1873.134766	-86.102463
12360.592713	-1210.490833	1872.146484	219.049789
12360.592713	-1210.490833	1871.159180	66.845764
12360.592713	-1210.490833	1870.170898	132.387558
12360.592713	-1210.490833	1869.182617	28.616360
12360.592713	-1210.490833	1868.194336	57.864265
12360.592713	-1210.490833	1867.205078	135.444000
12360.592713	-1210.490833	1866.216797	96.971390
12360.592713	-1210.490833	1865.227539	2.925370
12360.592713	-1210.490833	1864.238281	-112.838783
12360.592713	-1210.490833	1863.249023	5.746321
12360.592713	-1210.490833	1862.259766	-59.276344
12360.592713	-1210.490833	1861.269531	112.356064
12360.592713	-1210.490833	1860.279297	47.313297
12360.592713	-1210.490833	1859.290039	-56.340336
12360.592713	-1210.490833	1858.298828	91.020531
12360.592713	-1210.490833	1857.308594	233.484375
12360.592713	-1210.490833	1856.318359	11.596227
12360.592713	-1210.490833	1855.327148	40.622730
12360.592713	-1210.490833	1854.335938	129.908493
12360.592713	-1210.490833	1853.344727	113.052132
12360.592713	-1210.490833	1852.353516	4.577056
12360.592713	-1210.490833	1851.362305	-38.803871
12360.592713	-1210.490833	1850.370117	168.421005
12360.592713	-1210.490833	1849.377930	-38.852829
12360.592713	-1210.490833	1848.385742	93.572838
12360.592713	-1210.490833	1847.393555	33.250713
12360.592713	-1210.490833	1846.401367	-12.626840
12360.592713	-1210.490833	1845.408203	76.303276
12360.592713	-1210.490833	1844.415039	218.125137
12360.592713	-1210.490833	1843.421875	244.348480
12360.592713	-1210.490833	1842.428711	123.757469
12360.592713	-1210.490833	1841.435547	277.425354
12360.592713	-1210.490833	1840.441406	204.912323
12360.592713	-1210.490833	1839.448242	-14.297614
12360.592713	-1210.490833	1838.454102	134.399368
12360.592713	-1210.490833	1837.459961	270.985016
12360.592713	-1210.490833	1836.464844	-37.148510
12360.592713	-1210.490833	1835.470703	84.924446
12360.592713	-1210.490833	1834.475586	197.302551
12360.592713	-1210.490833	1833.480469	42.970684
12360.592713	-1210.490833	1832.485352	392.991333
12360.592713	-1210.490833	1831.490234	154.557907
12360.592713	-1210.490833	1830.495117	276.274933
12360.592713	-1210.490833	1829.499023	169.879013
12360.592713	-1210.490833	1828.502930	161.869858
12360.592713	-1210.490833	1827.506836	225.796356
12360.592713	-1210.490833	1826.510742	212.889038
12360.592713	-1210.490833	1825.513672	310.265198
12360.592713	-1210.490833	1824.517578	126.994110
12360.592713	-1210.490833	1823.520508	78.002655
12360.592713	-1210.490833	1822.523438	120.067245
12360.592713	-1210.490833	1821.526367	186.030731
12360.592713	-1210.490833	1820.529297	96.166672
12360.592713	-1210.490833	1819.531250	32.635094
12360.592713	-1210.490833	1818.533203	237.342499
12360.592713	-1210.490833	1817.535156	51.562435
12360.592713	-1210.490833	1816.537109	-14.484241
12360.592713	-1210.490833	1815.539063	34.344215
12360.592713	-1210.490833	1814.540039	-67.692780
12360.592713	-1210.490833	1813.541992	143.734985
12360.592713	-1210.490833	1812.542969	-34.964176
12360.592713	-1210.490833	1811.543945	49.476021
12360.592713	-1210.490833	1810.543945	119.471062
12360.592713	-1210.490833	1809.544922	253.941498
12360.592713	-1210.490833	1808.544922	-42.036816
12360.592713	-1210.490833	1807.544922	101.846634
12360.592713	-1210.490833	1806.544922	-153.491913
12360.592713	-1210.490833	1805.544922	310.406799
12360.592713	-1210.490833	1804.544922	105.162140
12360.592713	-1210.490833	1803.543945	-78.577354
12360.592713	-1210.490833	1802.542969	2.757012
12360.592713	-1210.490833	1801.541992	189.046387
12360.592713	-1210.490833	1800.541016	-28.228456
12360.592713	-1210.490833	1799.539063	126.827850
12360.592713	-1210.490833	1798.538086	78.929359
12360.592713	-1210.490833	1797.536133	7.117435
12360.592713	-1210.490833	1796.534180	75.995415
12360.592713	-1210.490833	1795.532227	18.377129
12360.592713	-1210.490833	1794.529297	110.923302
12360.592713	-1210.490833	1793.527344	-39.801666
12360.592713	-1210.490833	1792.524414	64.490028
12360.592713	-1210.490833	1791.521484	140.071075
12360.592713	-1210.490833	1790.518555	227.460449
12360.592713	-1210.490833	1789.514648	198.011948
12360.592713	-1210.490833	1788.511719	-10.128213
12360.592713	-1210.490833	1787.507813	53.195290
12360.592713	-1210.490833	1786.503906	66.418648
12360.592713	-1210.490833	1785.500000	117.645874
12360.592713	-1210.490833	1784.496094	-64.457497
12360.592713	-1210.490833	1783.491211	8.028364
12360.592713	-1210.490833	1782.486328	16.172813
12360.592713	-1210.490833	1781.481445	300.146301
12360.592713	-1210.490833	1780.476563	-91.449989
12360.592713	-1210.490833	1779.471680	-183.394821
12360.592713	-1210.490833	1778.465820	-49.555790
12360.592713	-1210.490833	1777.460938	-41.814156
12360.592713	-1210.490833	1776.455078	-15.151846
12360.592713	-1210.490833	1775.449219	206.237442
12360.592713	-1210.490833	1774.442383	144.782745
12360.592713	-1210.490833	1773.436523	-59.225651
12360.592713	-1210.490833	1772.429688	66.810822
12360.592713	-1210.490833	1771.422852	121.492790
12360.592713	-1210.490833	1770.416016	147.586578
12360.592713	-1210.490833	1769.409180	85.778442
12360.592713	-1210.490833	1768.402344	318.121857
12360.592713	-1210.490833	1767.394531	85.327576
12360.592713	-1210.490833	1766.386719	65.996727
12360.592713	-1210.490833	1765.378906	67.928902
12360.592713	-1210.490833	1764.371094	-129.379990
12360.592713	-1210.490833	1763.362305	102.342087
12360.592713	-1210.490833	1762.354492	75.566071
12360.592713	-1210.490833	1761.345703	86.620361
12360.592713	-1210.490833	1760.336914	80.999207
12360.592713	-1210.490833	1759.328125	39.763027
12360.592713	-1210.490833	1758.318359	131.067322
12360.592713	-1210.490833	1757.308594	99.126373
12360.592713	-1210.490833	1756.299805	93.155746
12360.592713	-1210.490833	1755.290039	236.203644
12360.592713	-1210.490833	1754.279297	166.128174
12360.592713	-1210.490833	1753.269531	133.852081
12360.592713	-1210.490833	1752.258789	84.935822
12360.592713	-1210.490833	1751.249023	140.016357
12360.592713	-1210.490833	1750.238281	67.293472
12360.592713	-1210.490833	1749.226563	-12.588516
12360.592713	-1210.490833	1748.215820	-83.067284
12360.592713	-1210.490833	1747.204102	37.806507
12360.592713	-1210.490833	1746.193359	144.374832
12360.592713	-1210.490833	1745.181641	61.822067
12360.592713	-1210.490833	1744.168945	33.527966
12360.592713	-1210.490833	1743.157227	111.426834
12360.592713	-1210.490833	1742.144531	-84.672386
12360.592713	-1210.490833	1741.132813	-146.228592
12360.592713	-1210.490833	1740.120117	-118.173363
12360.592713	-1210.490833	1739.106445	-73.707947
12360.592713	-1210.490833	1738.093750	1.329418
12360.592713	-1210.490833	1737.080078	90.395363
12360.592713	-1210.490833	1736.067383	160.481125
12360.592713	-1210.490833	1735.053711	18.240274
12360.592713	-1210.490833	1734.040039	17.408857
12360.592713	-1210.490833	1733.025391	-249.849548
12360.592713	-1210.490833	1732.011719	-48.147522
12360.592713	-1210.490833	1730.997070	14.376942
12360.592713	-1210.490833	1729.982422	93.280556
12360.592713	-1210.490833	1728.967773	157.937668
12360.592713	-1210.490833	1727.952148	-22.411324
12360.592713	-1210.490833	1726.937500	-30.910351
12360.592713	-1210.490833	1725.921875	-140.711807
12360.592713	-1210.490833	1724.906250	-24.637421
12360.592713	-1210.490833	1723.890625	-87.511017
12360.592713	-1210.490833	1722.875000	-18.710119
12360.592713	-1210.490833	1721.858398	-91.145111
12360.592713	-1210.490833	1720.841797	137.357773
12360.592713	-1210.490833	1719.825195	163.497223
12360.592713	-1210.490833	1718.808594	-214.763428
12360.592713	-1210.490833	1717.791992	-26.570168
12360.592713	-1210.490833	1716.774414	-54.713589
12360.592713	-1210.490833	1715.756836	161.394592
12360.592713	-1210.490833	1714.739258	-106.517578
12360.592713	-1210.490833	1713.721680	24.814098
12360.592713	-1210.490833	1712.704102	148.972183
12360.592713	-1210.490833	1711.685547	57.026173
12360.592713	-1210.490833	1710.667969	91.783981
12360.592713	-1210.490833	1709.649414	84.202354
12360.592713	-1210.490833	1708.630859	78.890671
12360.592713	-1210.490833	1707.611328	17.198463
12360.592713	-1210.490833	1706.592773	-21.086231
12360.592713	-1210.490833	1705.573242	-31.305044
12360.592713	-1210.490833	1704.553711	19.355848
12360.592713	-1210.490833	1703.534180	67.577759
12360.592713	-1210.490833	1702.513672	3.212862
12360.592713	-1210.490833	1701.494141	11.439596
12360.592713	-1210.490833	1700.473633	-36.640930
12360.592713	-1210.490833	1699.453125	48.722031
12360.592713	-1210.490833	1698.432617	-29.933702
12360.592713	-1210.490833	1697.412109	83.345711
12360.592713	-1210.490833	1696.390625	226.928741
12360.592713	-1210.490833	1695.369141	7.644558
12360.592713	-1210.490833	1694.347656	38.736107
12360.592713	-1210.490833	1693.326172	121.211967
12360.592713	-1210.490833	1692.304688	9.457683
12360.592713	-1210.490833	1691.282227	21.608067
12360.592713	-1210.490833	1690.260742	195.020798
12360.592713	-1210.490833	1689.238281	328.551605
12360.592713	-1210.490833	1688.214844	31.923807
12360.592713	-1210.490833	1687.192383	116.234703
12360.592713	-1210.490833	1686.168945	-28.511858
12360.592713	-1210.490833	1685.146484	15.943813
12360.592713	-1210.490833	1684.123047	195.758667
12360.592713	-1210.490833	1683.099609	162.968796
12360.592713	-1210.490833	1682.075195	347.222290
12360.592713	-1210.490833	1681.051758	232.606415
12360.592713	-1210.490833	1680.027344	271.977966
12360.592713	-1210.490833	1679.002930	308.943573
12360.592713	-1210.490833	1677.978516	436.810822
12360.592713	-1210.490833	1676.953125	384.982452
12360.592713	-1210.490833	1675.928711	286.496521
12360.592713	-1210.490833	1674.903320	388.473022
12360.592713	-1210.490833	1673.877930	411.108734
12360.592713	-1210.490833	1672.852539	461.647797
12360.592713	-1210.490833	1671.826172	463.175415
12360.592713	-1210.490833	1670.800781	555.513306
12360.592713	-1210.490833	1669.774414	484.722504
12360.592713	-1210.490833	1668.748047	493.082092
12360.592713	-1210.490833	1667.721680	466.469025
12360.592713	-1210.490833	1666.694336	556.192017
12360.592713	-1210.490833	1665.667969	576.029297
12360.592713	-1210.490833	1664.640625	442.233856
12360.592713	-1210.490833	1663.613281	678.335083
12360.592713	-1210.490833	1662.585938	563.092712
12360.592713	-1210.490833	1661.557617	471.095703
12360.592713	-1210.490833	1660.530273	890.604065
12360.592713	-1210.490833	1659.501953	779.902710
12360.592713	-1210.490833	1658.473633	975.986023
12360.592713	-1210.490833	1657.444336	983.728882
12360.592713	-1210.490833	1656.416016	1028.615356
12360.592713	-1210.490833	1655.386719	999.109680
12360.592713	-1210.490833	1654.358398	760.585815
12360.592713	-1210.490833	1653.328125	940.029114
12360.592713	-1210.490833	1652.298828	824.565735
12360.592713	-1210.490833	1651.269531	915.680847
12360.592713	-1210.490833	1650.239258	981.193481
12360.592713	-1210.490833	1649.208984	1030.410889
12360.592713	-1210.490833	1648.178711	1000.714905
12360.592713	-1210.490833	1647.148438	1172.770996
12360.592713	-1210.490833	1646.117188	1152.270020
12360.592713	-1210.490833	1645.086914	1451.684814
12360.592713	-1210.490833	1644.055664	1247.982544
12360.592713	-1210.490833	1643.024414	1213.505371
12360.592713	-1210.490833	1641.992188	1234.613525
12360.592713	-1210.490833	1640.960938	1383.112061
12360.592713	-1210.490833	1639.928711	1545.418701
12360.592713	-1210.490833	1638.896484	1575.656616
12360.592713	-1210.490833	1637.864258	1585.031860
12360.592713	-1210.490833	1636.832031	1457.822021
12360.592713	-1210.490833	1635.798828	1680.082275
12360.592713	-1210.490833	1634.766602	1680.134644
12360.592713	-1210.490833	1633.733398	1726.429077
12360.592713	-1210.490833	1632.699219	1631.598755
12360.592713	-1210.490833	1631.666016	1800.423340
12360.592713	-1210.490833	1630.632813	1779.593872
12360.592713	-1210.490833	1629.598633	1749.506348
12360.592713	-1210.490833	1628.564453	1580.760498
12360.592713	-1210.490833	1627.530273	1747.117310
12360.592713	-1210.490833	1626.495117	1615.380859
12360.592713	-1210.490833	1625.460938	1606.122070
12360.592713	-1210.490833	1624.425781	1735.410278
12360.592713	-1210.490833	1623.390625	1910.826538
12360.592713	-1210.490833	1622.355469	1746.843628
12360.592713	-1210.490833	1621.319336	1892.178101
12360.592713	-1210.490833	1620.284180	1975.171143
12360.592713	-1210.490833	1619.248047	1827.420532
12360.592713	-1210.490833	1618.211914	1642.829468
12360.592713	-1210.490833	1617.174805	1711.981689
12360.592713	-1210.490833	1616.138672	2023.224243
12360.592713	-1210.490833	1615.101563	2140.706543
12360.592713	-1210.490833	1614.065430	2064.562988
12360.592713	-1210.490833	1613.027344	1993.045166
12360.592713	-1210.490833	1611.990234	1988.395996
12360.592713	-1210.490833	1610.953125	2313.157227
12360.592713	-1210.490833	1609.915039	1997.564209
12360.592713	-1210.490833	1608.876953	1914.667358
12360.592713	-1210.490833	1607.838867	1884.772461
12360.592713	-1210.490833	1606.800781	2009.119385
12360.592713	-1210.490833	1605.761719	2213.970459
12360.592713	-1210.490833	1604.723633	1986.234009
12360.592713	-1210.490833	1603.684570	2041.537476
12360.592713	-1210.490833	1602.644531	2145.128418
12360.592713	-1210.490833	1601.605469	2253.317139
12360.592713	-1210.490833	1600.566406	2028.143677
12360.592713	-1210.490833	1599.526367	2062.806152
12360.592713	-1210.490833	1598.486328	1989.476440
12360.592713	-1210.490833	1597.446289	2015.006836
12360.592713	-1210.490833	1596.405273	2052.031738
12360.592713	-1210.490833	1595.365234	1696.352905
12360.592713	-1210.490833	1594.324219	1958.530273
12360.592713	-1210.490833	1593.283203	2027.795654
12360.592713	-1210.490833	1592.242188	1709.152222
12360.592713	-1210.490833	1591.200195	1936.853149
12360.592713	-1210.490833	1590.159180	1955.721802
12360.592713	-1210.490833	1589.117188	1832.382813
12360.592713	-1210.490833	1588.075195	2232.071533
12360.592713	-1210.490833	1587.032227	2046.889038
12360.592713	-1210.490833	1585.990234	2379.980469
12360.592713	-1210.490833	1584.947266	2052.814697
12360.592713	-1210.490833	1583.904297	1955.003906
12360.592713	-1210.490833	1582.861328	2022.258179
12360.592713	-1210.490833	1581.818359	1991.027832
12360.592713	-1210.490833	1580.775391	2388.171631
12360.592713	-1210.490833	1579.731445	1912.718872
12360.592713	-1210.490833	1578.687500	1845.043091
12360.592713	-1210.490833	1577.643555	1724.799683
12360.592713	-1210.490833	1576.598633	1751.123535
12360.592713	-1210.490833	1575.554688	1777.506348
12360.592713	-1210.490833	1574.509766	1826.804688
12360.592713	-1210.490833	1573.464844	2029.391846
12360.592713	-1210.490833	1572.419922	2028.432983
12360.592713	-1210.490833	1571.374023	2043.530029
12360.592713	-1210.490833	1570.329102	1894.107666
12360.592713	-1210.490833	1569.283203	1966.493652
12360.592713	-1210.490833	1568.237305	2002.353882
12360.592713	-1210.490833	1567.191406	2109.092041
12360.592713	-1210.490833	1566.144531	1873.224243
12360.592713	-1210.490833	1565.098633	1927.559204
12360.592713	-1210.490833	1564.051758	1733.058350
12360.592713	-1210.490833	1563.004883	1481.635132
12360.592713	-1210.490833	1561.957031	1385.575684
12360.592713	-1210.490833	1560.910156	1513.264282
12360.592713	-1210.490833	1559.862305	1335.254639
12360.592713	-1210.490833	1558.814453	1447.079224
12360.592713	-1210.490833	1557.766602	1073.177368
12360.592713	-1210.490833	1556.718750	1128.164673
12360.592713	-1210.490833	1555.669922	1509.193604
12360.592713	-1210.490833	1554.621094	1292.998779
12360.592713	-1210.490833	1553.573242	1320.808960
12360.592713	-1210.490833	1552.523438	1421.579956
12360.592713	-1210.490833	1551.474609	1141.997925
12360.592713	-1210.490833	1550.424805	1097.178101
12360.592713	-1210.490833	1549.375000	1029.693481
12360.592713	-1210.490833	1548.325195	821.178772
12360.592713	-1210.490833	1547.275391	992.941589
12360.592713	-1210.490833	1546.225586	1139.694824
12360.592713	-1210.490833	1545.174805	1113.557983
12360.592713	-1210.490833	1544.124023	1069.325684
12360.592713	-1210.490833	1543.073242	922.860474
12360.592713	-1210.490833	1542.022461	1065.326294
12360.592713	-1210.490833	1540.970703	1028.224731
12360.592713	-1210.490833	1539.919922	1191.260620
12360.592713	-1210.490833	1538.868164	1079.350342
12360.592713	-1210.490833	1537.815430	844.881775
12360.592713	-1210.490833	1536.763672	1094.466553
12360.592713	-1210.490833	1535.710938	1069.235229
12360.592713	-1210.490833	1534.659180	1019.144775
12360.592713	-1210.490833	1533.606445	985.060669
12360.592713	-1210.490833	1532.552734	1055.496704
12360.592713	-1210.490833	1531.500000	821.921753
12360.592713	-1210.490833	1530.446289	795.008667
12360.592713	-1210.490833	1529.393555	872.568542
12360.592713	-1210.490833	1528.338867	589.575134
12360.592713	-1210.490833	1527.285156	510.890411
12360.592713	-1210.490833	1526.231445	563.839172
12360.592713	-1210.490833	1525.176758	560.202637
12360.592713	-1210.490833	1524.122070	445.633026
12360.592713	-1210.490833	1523.067383	437.712250
12360.592713	-1210.490833	1522.012695	275.864868
12360.592713	-1210.490833	1520.957031	200.253372
12360.592713	-1210.490833	1519.901367	382.931915
12360.592713	-1210.490833	1518.845703	536.222473
12360.592713	-1210.490833	1517.790039	350.036072
12360.592713	-1210.490833	1516.734375	170.828400
12360.592713	-1210.490833	1515.677734	385.505676
12360.592713	-1210.490833	1514.621094	98.007156
12360.592713	-1210.490833	1513.564453	84.413612
12360.592713	-1210.490833	1512.507813	258.633942
12360.592713	-1210.490833	1511.450195	168.379395
12360.592713	-1210.490833	1510.393555	227.475723
12360.592713	-1210.490833	1509.335938	8.689563
12360.592713	-1210.490833	1508.278320	158.414520
12360.592713	-1210.490833	1507.219727	256.240173
12360.592713	-1210.490833	1506.162109	28.915161
12360.592713	-1210.490833	1505.103516	203.754837
12360.592713	-1210.490833	1504.044922	64.828079
12360.592713	-1210.490833	1502.986328	196.955795
12360.592713	-1210.490833	1501.926758	-124.468155
12360.592713	-1210.490833	1500.868164	-116.200340
12360.592713	-1210.490833	1499.808594	138.084564
12360.592713	-1210.490833	1498.749023	193.914734
12360.592713	-1210.490833	1497.688477	376.131714
12360.592713	-1210.490833	1496.628906	64.655693
12360.592713	-1210.490833	1495.568359	-30.171473
12360.592713	-1210.490833	1494.507813	-21.160034
12360.592713	-1210.490833	1493.447266	-7.512628
12360.592713	-1210.490833	1492.386719	233.794662
12360.592713	-1210.490833	1491.325195	60.703705
12360.592713	-1210.490833	1490.263672	286.402710
12360.592713	-1210.490833	1489.202148	257.732941
12360.592713	-1210.490833	1488.140625	-90.434067
12360.592713	-1210.490833	1487.079102	113.060303
12360.592713	-1210.490833	1486.016602	-209.918671
12360.592713	-1210.490833	1484.954102	5.037265
12360.592713	-1210.490833	1483.891602	265.029053
12360.592713	-1210.490833	1482.829102	358.644989
12360.592713	-1210.490833	1481.765625	465.844543
12360.592713	-1210.490833	1480.702148	465.234619
12360.592713	-1210.490833	1479.638672	210.822388
12360.592713	-1210.490833	1478.575195	282.452881
12360.592713	-1210.490833	1477.511719	358.689941
12360.592713	-1210.490833	1476.447266	421.512146
12360.592713	-1210.490833	1475.382813	401.479797
12360.592713	-1210.490833	1474.318359	738.284607
12360.592713	-1210.490833	1473.253906	455.816437
12360.592713	-1210.490833	1472.189453	629.182983
12360.592713	-1210.490833	1471.124023	470.518799
12360.592713	-1210.490833	1470.058594	859.251526
12360.592713	-1210.490833	1468.993164	714.169495
12360.592713	-1210.490833	1467.927734	659.249512
12360.592713	-1210.490833	1466.861328	528.388245
12360.592713	-1210.490833	1465.794922	386.382996
12360.592713	-1210.490833	1464.728516	473.011230
12360.592713	-1210.490833	1463.662109	505.758453
12360.592713	-1210.490833	1462.594727	668.926208
12360.592713	-1210.490833	1461.528320	740.401184
12360.592713	-1210.490833	1460.460938	948.230774
12360.592713	-1210.490833	1459.393555	854.182068
12360.592713	-1210.490833	1458.326172	644.059814
12360.592713	-1210.490833	1457.257813	679.473694
12360.592713	-1210.490833	1456.189453	910.509705
12360.592713	-1210.490833	1455.121094	958.331055
12360.592713	-1210.490833	1454.052734	1321.824463
12360.592713	-1210.490833	1452.984375	1252.612915
12360.592713	-1210.490833	1451.915039	1119.120361
12360.592713	-1210.490833	1450.845703	1238.677124
12360.592713	-1210.490833	1449.776367	1199.447144
12360.592713	-1210.490833	1448.707031	1114.327026
12360.592713	-1210.490833	1447.636719	1171.901001
12360.592713	-1210.490833	1446.567383	1086.195801
12360.592713	-1210.490833	1445.497070	978.807922
12360.592713	-1210.490833	1444.425781	977.429199
12360.592713	-1210.490833	1443.355469	867.858643
12360.592713	-1210.490833	1442.285156	1143.774658
12360.592713	-1210.490833	1441.213867	852.643311
12360.592713	-1210.490833	1440.142578	957.941895
12360.592713	-1210.490833	1439.070313	966.203064
12360.592713	-1210.490833	1437.999023	899.910034
12360.592713	-1210.490833	1436.926758	858.710388
12360.592713	-1210.490833	1435.854492	941.672791
12360.592713	-1210.490833	1434.782227	848.591858
12360.592713	-1210.490833	1433.709961	579.680359
12360.592713	-1210.490833	1432.636719	532.712830
12360.592713	-1210.490833	1431.563477	622.525818
12360.592713	-1210.490833	1430.490234	380.483398
12360.592713	-1210.490833	1429.416992	503.957336
12360.592713	-1210.490833	1428.343750	322.658325
12360.592713	-1210.490833	1427.269531	468.724823
12360.592713	-1210.490833	1426.195313	319.692871
12360.592713	-1210.490833	1425.121094	280.776001
12360.592713	-1210.490833	1424.046875	329.004181
12360.592713	-1210.490833	1422.971680	157.093506
12360.592713	-1210.490833	1421.896484	290.451508
12360.592713	-1210.490833	1420.821289	130.511429
12360.592713	-1210.490833	1419.746094	302.167419
12360.592713	-1210.490833	1418.669922	237.465149
12360.592713	-1210.490833	1417.594727	27.173599
12360.592713	-1210.490833	1416.518555	276.032043
12360.592713	-1210.490833	1415.442383	115.581940
12360.592713	-1210.490833	1414.365234	169.039322
12360.592713	-1210.490833	1413.289063	158.611526
12360.592713	-1210.490833	1412.211914	155.435333
12360.592713	-1210.490833	1411.134766	280.870941
12360.592713	-1210.490833	1410.057617	23.283081
12360.592713	-1210.490833	1408.979492	9.337644
12360.592713	-1210.490833	1407.902344	218.412506
12360.592713	-1210.490833	1406.824219	422.945435
12360.592713	-1210.490833	1405.746094	246.837921
12360.592713	-1210.490833	1404.666992	92.408646
12360.592713	-1210.490833	1403.588867	125.804939
12360.592713	-1210.490833	1402.509766	335.174500
12360.592713	-1210.490833	1401.430664	256.731781
12360.592713	-1210.490833	1400.351563	390.541626
12360.592713	-1210.490833	1399.271484	507.442810
12360.592713	-1210.490833	1398.192383	616.250305
12360.592713	-1210.490833	1397.112305	411.261383
12360.592713	-1210.490833	1396.031250	287.910461
12360.592713	-1210.490833	1394.951172	306.196289
12360.592713	-1210.490833	1393.871094	378.970520
12360.592713	-1210.490833	1392.790039	275.873322
12360.592713	-1210.490833	1391.708984	230.294678
12360.592713	-1210.490833	1390.626953	353.936554
12360.592713	-1210.490833	1389.545898	339.473236
12360.592713	-1210.490833	1388.463867	353.908966
12360.592713	-1210.490833	1387.381836	338.142975
12360.592713	-1210.490833	1386.299805	565.662842
12360.592713	-1210.490833	1385.217773	308.907318
12360.592713	-1210.490833	1384.134766	402.530060
12360.592713	-1210.490833	1383.051758	480.812714
12360.592713	-1210.490833	1381.968750	273.944855
12360.592713	-1210.490833	1380.885742	507.246124
12360.592713	-1210.490833	1379.802734	380.870972
12360.592713	-1210.490833	1378.718750	535.921875
12360.592713	-1210.490833	1377.634766	539.295044
12360.592713	-1210.490833	1376.550781	291.917358
12360.592713	-1210.490833	1375.465820	205.052765
12360.592713	-1210.490833	1374.381836	442.451385
12360.592713	-1210.490833	1373.296875	375.053040
12360.592713	-1210.490833	1372.211914	326.666412
12360.592713	-1210.490833	1371.126953	365.384430
12360.592713	-1210.490833	1370.041016	481.154053
12360.592713	-1210.490833	1368.955078	185.057083
12360.592713	-1210.490833	1367.869141	478.775238
12360.592713	-1210.490833	1366.783203	421.666992
12360.592713	-1210.490833	1365.697266	488.236359
12360.592713	-1210.490833	1364.610352	362.496246
12360.592713	-1210.490833	1363.523438	353.810089
12360.592713	-1210.490833	1362.436523	238.247253
12360.592713	-1210.490833	1361.349609	339.196472
12360.592713	-1210.490833	1360.261719	453.732544
12360.592713	-1210.490833	1359.174805	379.701202
12360.592713	-1210.490833	1358.086914	381.115387
12360.592713	-1210.490833	1356.998047	536.251709
12360.592713	-1210.490833	1355.910156	394.442719
12360.592713	-1210.490833	1354.821289	329.684235
12360.592713	-1210.490833	1353.732422	275.518402
12360.592713	-1210.490833	1352.643555	304.415955
12360.592713	-1210.490833	1351.554688	336.295746
12360.592713	-1210.490833	1350.464844	289.933594
12360.592713	-1210.490833	1349.375000	237.749161
12360.592713	-1210.490833	1348.285156	242.693588
12360.592713	-1210.490833	1347.195313	302.096893
12360.592713	-1210.490833	1346.105469	590.500061
12360.592713	-1210.490833	1345.014648	474.296417
12360.592713	-1210.490833	1343.923828	236.055542
12360.592713	-1210.490833	1342.833008	372.902405
12360.592713	-1210.490833	1341.741211	430.042084
12360.592713	-1210.490833	1340.650391	360.505615
12360.592713	-1210.490833	1339.558594	472.112549
12360.592713	-1210.490833	1338.466797	501.121460
12360.592713	-1210.490833	1337.374023	437.242615
12360.592713	-1210.490833	1336.282227	654.567017
12360.592713	-1210.490833	1335.189453	340.156891
12360.592713	-1210.490833	1334.096680	453.725586
12360.592713	-1210.490833	1333.003906	773.725220
12360.592713	-1210.490833	1331.910156	586.552795
12360.592713	-1210.490833	1330.817383	772.317139
12360.592713	-1210.490833	1329.723633	484.487488
12360.592713	-1210.490833	1328.629883	543.360718
12360.592713	-1210.490833	1327.535156	591.989624
12360.592713	-1210.490833	1326.441406	681.600403
12360.592713	-1210.490833	1325.346680	597.327942
12360.592713	-1210.490833	1324.251953	561.256897
12360.592713	-1210.490833	1323.156250	444.159027
12360.592713	-1210.490833	1322.061523	480.468048
12360.592713	-1210.490833	1320.965820	452.344696
12360.592713	-1210.490833	1319.870117	407.729828
12360.592713	-1210.490833	1318.774414	397.982697
12360.592713	-1210.490833	1317.678711	319.333527
12360.592713	-1210.490833	1316.582031	339.155945
12360.592713	-1210.490833	1315.485352	165.983276
12360.592713	-1210.490833	1314.388672	388.434509
12360.592713	-1210.490833	1313.291016	366.746643
12360.592713	-1210.490833	1312.194336	425.159912
12360.592713	-1210.490833	1311.096680	256.242371
12360.592713	-1210.490833	1309.999023	267.089630
12360.592713	-1210.490833	1308.901367	255.937729
12360.592713	-1210.490833	1307.802734	447.186127
12360.592713	-1210.490833	1306.705078	431.109619
12360.592713	-1210.490833	1305.606445	413.291443
12360.592713	-1210.490833	1304.506836	427.254974
12360.592713	-1210.490833	1303.408203	402.819611
12360.592713	-1210.490833	1302.308594	407.642181
12360.592713	-1210.490833	1301.208984	525.587280
12360.592713	-1210.490833	1300.109375	358.586365
12360.592713	-1210.490833	1299.009766	291.090332
12360.592713	-1210.490833	1297.909180	436.508759
12360.592713	-1210.490833	1296.808594	489.044952
12360.592713	-1210.490833	1295.708008	634.072754
12360.592713	-1210.490833	1294.607422	586.365356
12360.592713	-1210.490833	1293.506836	337.254456
12360.592713	-1210.490833	1292.405273	206.261246
12360.592713	-1210.490833	1291.303711	329.607361
12360.592713	-1210.490833	1290.202148	285.221252
12360.592713	-1210.490833	1289.099609	272.863373
12360.592713	-1210.490833	1287.998047	391.063904
12360.592713	-1210.490833	1286.895508	298.513947
12360.592713	-1210.490833	1285.792969	395.582397
12360.592713	-1210.490833	1284.689453	274.796478
12360.592713	-1210.490833	1283.586914	129.855042
12360.592713	-1210.490833	1282.483398	78.291214
12360.592713	-1210.490833	1281.379883	141.884933
12360.592713	-1210.490833	1280.276367	58.385014
12360.592713	-1210.490833	1279.171875	113.837280
12360.592713	-1210.490833	1278.067383	169.670074
12360.592713	-1210.490833	1276.962891	91.452477
12360.592713	-1210.490833	1275.858398	90.376640
12360.592713	-1210.490833	1274.753906	76.563416
12360.592713	-1210.490833	1273.648438	55.463058
12360.592713	-1210.490833	1272.542969	89.044807
12360.592713	-1210.490833	1271.437500	111.359200
12360.592713	-1210.490833	1270.331055	-76.035057
12360.592713	-1210.490833	1269.225586	55.422665
12360.592713	-1210.490833	1268.119141	5.976970
12360.592713	-1210.490833	1267.012695	158.861664
12360.592713	-1210.490833	1265.906250	189.584351
12360.592713	-1210.490833	1264.798828	78.340492
12360.592713	-1210.490833	1263.691406	-202.462296
12360.592713	-1210.490833	1262.583984	94.205086
12360.592713	-1210.490833	1261.476563	98.343369
12360.592713	-1210.490833	1260.368164	12.961573
12360.592713	-1210.490833	1259.260742	24.139690
12360.592713	-1210.490833	1258.152344	-21.181194
12360.592713	-1210.490833	1257.043945	163.784424
12360.592713	-1210.490833	1255.934570	153.358063
12360.592713	-1210.490833	1254.825195	-11.575146
12360.592713	-1210.490833	1253.716797	197.643326
12360.592713	-1210.490833	1252.606445	-38.649460
12360.592713	-1210.490833	1251.497070	-148.766525
12360.592713	-1210.490833	1250.387695	15.489666
12360.592713	-1210.490833	1249.277344	10.683805
12360.592713	-1210.490833	1248.166992	164.086761
12360.592713	-1210.490833	1247.055664	-10.124438
12360.592713	-1210.490833	1245.945313	-41.228161
12360.592713	-1210.490833	1244.833984	-19.540148
12360.592713	-1210.490833	1243.722656	102.423409
12360.592713	-1210.490833	1242.611328	95.374268
12360.592713	-1210.490833	1241.499023	-44.943207
12360.592713	-1210.490833	1240.387695	-41.195919
12360.592713	-1210.490833	1239.275391	93.939957
12360.592713	-1210.490833	1238.162109	71.266983
12360.592713	-1210.490833	1237.049805	56.542183
12360.592713	-1210.490833	1235.936523	-68.613815
12360.592713	-1210.490833	1234.823242	-24.188763
12360.592713	-1210.490833	1233.709961	-99.476707
12360.592713	-1210.490833	1232.596680	16.760523
12360.592713	-1210.490833	1231.482422	-11.964256
12360.592713	-1210.490833	1230.369141	30.488060
12360.592713	-1210.490833	1229.253906	-18.702341
12360.592713	-1210.490833	1228.139648	72.499023
12360.592713	-1210.490833	1227.025391	100.368660
12360.592713	-1210.490833	1225.910156	-73.235023
12360.592713	-1210.490833	1224.794922	-49.912804
12360.592713	-1210.490833	1223.679688	44.873344
12360.592713	-1210.490833	1222.563477	33.440773
12360.592713	-1210.490833	1221.447266	-95.493835
12360.592713	-1210.490833	1220.331055	-236.369965
12360.592713	-1210.490833	1219.214844	46.431480
12360.592713	-1210.490833	1218.098633	-22.440084
12360.592713	-1210.490833	1216.981445	-9.661569
12360.592713	-1210.490833	1215.864258	-36.807129
12360.592713	-1210.490833	1214.747070	-59.371883
12360.592713	-1210.490833	1213.629883	75.610001
12360.592713	-1210.490833	1212.511719	-68.300209
12360.592713	-1210.490833	1211.393555	16.509045
12360.592713	-1210.490833	1210.275391	61.975288
12360.592713	-1210.490833	1209.157227	-141.564514
12360.592713	-1210.490833	1208.038086	-17.656652
12360.592713	-1210.490833	1206.918945	18.826242
12360.592713	-1210.490833	1205.799805	115.810013
12360.592713	-1210.490833	1204.680664	2.794725
12360.592713	-1210.490833	1203.560547	-94.591209
12360.592713	-1210.490833	1202.441406	-9.652248
12360.592713	-1210.490833	1201.321289	-7.121919
12360.592713	-1210.490833	1200.200195	79.885490
12360.592713	-1210.490833	1199.080078	7.217194
12360.592713	-1210.490833	1197.958984	-7.446531
12360.592713	-1210.490833	1196.837891	-45.202488
12360.592713	-1210.490833	1195.716797	-38.835693
12360.592713	-1210.490833	1194.594727	-16.964134
12360.592713	-1210.490833	1193.473633	25.385883
12360.592713	-1210.490833	1192.351563	37.037773
12360.592713	-1210.490833	1191.229492	-43.124527
12360.592713	-1210.490833	1190.106445	26.977129
12360.592713	-1210.490833	1188.984375	-128.207550
12360.592713	-1210.490833	1187.861328	-2.237357
12360.592713	-1210.490833	1186.738281	-23.469316
12360.592713	-1210.490833	1185.614258	47.690163
12360.592713	-1210.490833	1184.491211	-37.536297
12360.592713	-1210.490833	1183.367188	26.003078
12360.592713	-1210.490833	1182.243164	-27.028967
12360.592713	-1210.490833	1181.119141	-51.580410
12360.592713	-1210.490833	1179.994141	-41.056911
12360.592713	-1210.490833	1178.869141	-43.615837
12360.592713	-1210.490833	1177.744141	49.497005
12360.592713	-1210.490833	1176.619141	-24.930965
12360.592713	-1210.490833	1175.493164	11.739320
12360.592713	-1210.490833	1174.368164	-100.801605
12360.592713	-1210.490833	1173.242188	-101.265221
12360.592713	-1210.490833	1172.115234	-91.967758
12360.592713	-1210.490833	1170.989258	96.638145
12360.592713	-1210.490833	1169.862305	8.681505
12360.592713	-1210.490833	1168.735352	53.558304
12360.592713	-1210.490833	1167.608398	-42.894157
12360.592713	-1210.490833	1166.481445	-12.445985
12360.592713	-1210.490833	1165.353516	-96.387283
12360.592713	-1210.490833	1164.225586	-5.171387
12360.592713	-1210.490833	1163.097656	-2.289075
12360.592713	-1210.490833	1161.968750	51.453758
12360.592713	-1210.490833	1160.840820	-27.683342
12360.592713	-1210.490833	1159.711914	261.152191
12360.592713	-1210.490833	1158.583008	144.420502
12360.592713	-1210.490833	1157.453125	79.084984
12360.592713	-1210.490833	1156.324219	174.788574
12360.592713	-1210.490833	1155.194336	32.402901
12360.592713	-1210.490833	1154.064453	-1.564736
12360.592713	-1210.490833	1152.933594	97.049049
12360.592713	-1210.490833	1151.803711	-25.703043
12360.592713	-1210.490833	1150.672852	123.009079
12360.592713	-1210.490833	1149.541992	45.018246
12360.592713	-1210.490833	1148.411133	-99.259926
12360.592713	-1210.490833	1147.279297	133.822021
12360.592713	-1210.490833	1146.147461	23.161617
12360.592713	-1210.490833	1145.015625	129.852249
12360.592713	-1210.490833	1143.883789	97.569328
12360.592713	-1210.490833	1142.750977	-56.724476
12360.592713	-1210.490833	1141.619141	38.485832
12360.592713	-1210.490833	1140.486328	278.183472
12360.592713	-1210.490833	1139.352539	236.428482
12360.592713	-1210.490833	1138.219727	143.332016
12360.592713	-1210.490833	1137.085938	231.226501
12360.592713	-1210.490833	1135.952148	301.465302
12360.592713	-1210.490833	1134.818359	258.884094
12360.592713	-1210.490833	1133.683594	173.456726
12360.592713	-1210.490833	1132.549805	313.472931
12360.592713	-1210.490833	1131.415039	421.903137
12360.592713	-1210.490833	1130.279297	533.950989
12360.592713	-1210.490833	1129.144531	630.177185
12360.592713	-1210.490833	1128.008789	596.094666
12360.592713	-1210.490833	1126.873047	542.715698
12360.592713	-1210.490833	1125.737305	434.069458
12360.592713	-1210.490833	1124.601563	492.261169
12360.592713	-1210.490833	1123.464844	515.689941
12360.592713	-1210.490833	1122.328125	670.182861
12360.592713	-1210.490833	1121.191406	611.749512
12360.592713	-1210.490833	1120.054688	443.012848
12360.592713	-1210.490833	1118.916992	479.522125
12360.592713	-1210.490833	1117.779297	575.991394
12360.592713	-1210.490833	1116.641602	504.823883
12360.592713	-1210.490833	1115.503906	496.316467
12360.592713	-1210.490833	1114.365234	511.130371
12360.592713	-1210.490833	1113.226563	396.622650
12360.592713	-1210.490833	1112.087891	343.641876
12360.592713	-1210.490833	1110.949219	407.015198
12360.592713	-1210.490833	1109.809570	354.982727
12360.592713	-1210.490833	1108.669922	288.071747
12360.592713	-1210.490833	1107.530273	322.524475
12360.592713	-1210.490833	1106.390625	428.785248
12360.592713	-1210.490833	1105.250000	482.611511
12360.592713	-1210.490833	1104.109375	353.491882
12360.592713	-1210.490833	1102.968750	443.541595
12360.592713	-1210.490833	1101.828125	461.104523
12360.592713	-1210.490833	1100.686523	407.464172
12360.592713	-1210.490833	1099.544922	419.251099
12360.592713	-1210.490833	1098.403320	373.018097
12360.592713	-1210.490833	1097.261719	424.264374
12360.592713	-1210.490833	1096.120117	586.866943
12360.592713	-1210.490833	1094.977539	623.035828
12360.592713	-1210.490833	1093.834961	386.145142
12360.592713	-1210.490833	1092.691406	481.378326
12360.592713	-1210.490833	1091.548828	378.457764
12360.592713	-1210.490833	1090.405273	404.491364
12360.592713	-1210.490833	1089.261719	340.663208
12360.592713	-1210.490833	1088.118164	282.922699
12360.592713	-1210.490833	1086.973633	533.164917
12360.592713	-1210.490833	1085.829102	363.407135
12360.592713	-1210.490833	1084.684570	456.323486
12360.592713	-1210.490833	1083.540039	410.154388
12360.592713	-1210.490833	1082.395508	581.953857
12360.592713	-1210.490833	1081.250000	403.592163
12360.592713	-1210.490833	1080.104492	284.931793
12360.592713	-1210.490833	1078.958984	348.800232
12360.592713	-1210.490833	1077.812500	367.831238
12360.592713	-1210.490833	1076.666016	421.450043
12360.592713	-1210.490833	1075.519531	465.645264
12360.592713	-1210.490833	1074.373047	365.153534
12360.592713	-1210.490833	1073.226563	437.954681
12360.592713	-1210.490833	1072.079102	461.013245
12360.592713	-1210.490833	1070.931641	316.175781
12360.592713	-1210.490833	1069.784180	408.598907
12360.592713	-1210.490833	1068.635742	507.975494
12360.592713	-1210.490833	1067.487305	491.215820
12360.592713	-1210.490833	1066.338867	386.827087
12360.592713	-1210.490833	1065.190430	525.425903
12360.592713	-1210.490833	1064.041992	456.598633
12360.592713	-1210.490833	1062.892578	416.332764
12360.592713	-1210.490833	1061.743164	606.175659
12360.592713	-1210.490833	1060.593750	666.580933
12360.592713	-1210.490833	1059.443359	464.650085
12360.592713	-1210.490833	1058.292969	668.534302
12360.592713	-1210.490833	1057.142578	531.485962
12360.592713	-1210.490833	1055.992188	476.459717
12360.592713	-1210.490833	1054.841797	454.333862
12360.592713	-1210.490833	1053.690430	345.035919
12360.592713	-1210.490833	1052.539063	392.274017
12360.592713	-1210.490833	1051.387695	361.864075
12360.592713	-1210.490833	1050.235352	290.119171
12360.592713	-1210.490833	1049.083984	377.855103
12360.592713	-1210.490833	1047.931641	191.070419
12360.592713	-1210.490833	1046.778320	492.576019
12360.592713	-1210.490833	1045.625977	362.917664
12360.592713	-1210.490833	1044.472656	345.512421
12360.592713	-1210.490833	1043.319336	478.518311
12360.592713	-1210.490833	1042.166016	287.505219
12360.592713	-1210.490833	1041.012695	344.044006
12360.592713	-1210.490833	1039.858398	277.641541
12360.592713	-1210.490833	1038.704102	370.436523
12360.592713	-1210.490833	1037.549805	508.478394
12360.592713	-1210.490833	1036.394531	360.131226
12360.592713	-1210.490833	1035.239258	464.629700
12360.592713	-1210.490833	1034.083984	462.104248
12360.592713	-1210.490833	1032.928711	409.591675
12360.592713	-1210.490833	1031.773438	429.165802
12360.592713	-1210.490833	1030.617188	232.979568
12360.592713	-1210.490833	1029.460938	374.271820
12360.592713	-1210.490833	1028.304688	392.732635
12360.592713	-1210.490833	1027.147461	310.139801
12360.592713	-1210.490833	1025.991211	490.064667
12360.592713	-1210.490833	1024.833984	283.175354
12360.592713	-1210.490833	1023.675781	372.079773
12360.592713	-1210.490833	1022.518555	226.439484
12360.592713	-1210.490833	1021.360352	278.058990
12360.592713	-1210.490833	1020.202148	123.274345
12360.592713	-1210.490833	1019.043945	162.146774
12360.592713	-1210.490833	1017.884766	124.162613
12360.592713	-1210.490833	1016.726563	225.092392
12360.592713	-1210.490833	1015.567383	245.135620
12360.592713	-1210.490833	1014.407227	225.185440
12360.592713	-1210.490833	1013.248047	276.131805
12360.592713	-1210.490833	1012.087891	108.194443
12360.592713	-1210.490833	1010.927734	178.762589
12360.592713	-1210.490833	1009.767578	137.745163
12360.592713	-1210.490833	1008.606445	168.270737
12360.592713	-1210.490833	1007.446289	186.823517
12360.592713	-1210.490833	1006.285156	267.396240
12360.592713	-1210.490833	1005.123047	183.585175
12360.592713	-1210.490833	1003.961914	284.678558
12360.592713	-1210.490833	1002.799805	315.367065
12360.592713	-1210.490833	1001.637695	248.056946
12360.592713	-1210.490833	1000.475586	389.216675
12360.592713	-1210.490833	999.312500	272.976501
12360.592713	-1210.490833	998.149414	324.927277
12360.592713	-1210.490833	996.986328	280.251465
12360.592713	-1210.490833	995.823242	123.207558
12360.592713	-1210.490833	994.659180	234.820175
12360.592713	-1210.490833	993.496094	233.508163
12360.592713	-1210.490833	992.332031	57.382408
12360.592713	-1210.490833	991.166992	81.899605
12360.592713	-1210.490833	990.002930	189.463211
12360.592713	-1210.490833	988.837891	-20.156929
12360.592713	-1210.490833	987.672852	149.053329
12360.592713	-1210.490833	986.506836	145.681793
12360.592713	-1210.490833	985.341797	90.349991
12360.592713	-1210.490833	984.175781	167.867523
12360.592713	-1210.490833	983.009766	143.863922
12360.592713	-1210.490833	981.843750	130.451248
12360.592713	-1210.490833	980.676758	98.345100
12360.592713	-1210.490833	979.509766	129.931915
12360.592713	-1210.490833	978.342773	20.963438
12360.592713	-1210.490833	977.175781	137.121078
12360.592713	-1210.490833	976.007813	-21.910955
12360.592713	-1210.490833	974.839844	-16.085930
12360.592713	-1210.490833	973.671875	60.210186
12360.592713	-1210.490833	972.503906	131.999619
12360.592713	-1210.490833	971.334961	-102.773758
12360.592713	-1210.490833	970.166016	-10.010381
12360.592713	-1210.490833	968.997070	65.918427
12360.592713	-1210.490833	967.828125	36.655010
12360.592713	-1210.490833	966.658203	-62.891064
12360.592713	-1210.490833	965.488281	71.239258
12360.592713	-1210.490833	964.318359	211.351395
12360.592713	-1210.490833	963.148438	46.585732
12360.592713	-1210.490833	961.977539	-6.867993
12360.592713	-1210.490833	960.806641	88.419083
12360.592713	-1210.490833	959.635742	67.145927
12360.592713	-1210.490833	958.463867	148.751236
12360.592713	-1210.490833	957.292969	50.081425
12360.592713	-1210.490833	956.121094	84.658669
12360.592713	-1210.490833	954.948242	60.821491
12360.592713	-1210.490833	953.776367	-27.953674
12360.592713	-1210.490833	952.603516	22.955776
12360.592713	-1210.490833	951.430664	-25.798504
12360.592713	-1210.490833	950.257813	6.058595
12360.592713	-1210.490833	949.084961	-7.857007
12360.592713	-1210.490833	947.911133	-78.552116
12360.592713	-1210.490833	946.737305	86.547821
12360.592713	-1210.490833	945.563477	-86.441284
12360.592713	-1210.490833	944.388672	9.709047
12360.592713	-1210.490833	943.213867	224.629074
12360.592713	-1210.490833	942.039063	57.274509
12360.592713	-1210.490833	940.864258	202.263214
12360.592713	-1210.490833	939.688477	173.811905
12360.592713	-1210.490833	938.513672	60.852352
12360.592713	-1210.490833	937.337891	-150.797928
12360.592713	-1210.490833	936.161133	-10.126607
12360.592713	-1210.490833	934.985352	188.816711
12360.592713	-1210.490833	933.808594	-20.766769
12360.592713	-1210.490833	932.631836	71.506187
12360.592713	-1210.490833	931.454102	214.075790
12360.592713	-1210.490833	930.277344	179.501877
12360.592713	-1210.490833	929.099609	130.855682
12360.592713	-1210.490833	927.921875	162.691330
12360.592713	-1210.490833	926.743164	166.322998
12360.592713	-1210.490833	925.565430	202.157242
12360.592713	-1210.490833	924.386719	159.548401
12360.592713	-1210.490833	923.208008	145.110184
12360.592713	-1210.490833	922.028320	140.718246
12360.592713	-1210.490833	920.849609	94.130684
12360.592713	-1210.490833	919.669922	97.818008
12360.592713	-1210.490833	919.474609	222.947876
12360.592713	-1210.490833	918.309570	134.134796
12360.592713	-1210.490833	917.143555	-101.231339
12360.592713	-1210.490833	915.977539	-161.833755
12360.592713	-1210.490833	914.810547	-81.899406
12360.592713	-1210.490833	913.644531	104.362961
12360.592713	-1210.490833	912.477539	146.087830
12360.592713	-1210.490833	911.310547	25.304834
12360.592713	-1210.490833	910.143555	-11.189691
12360.592713	-1210.490833	908.975586	0.460276
12360.592713	-1210.490833	907.807617	-50.041832
12360.592713	-1210.490833	906.639648	121.970421
12360.592713	-1210.490833	905.471680	1.327511
12360.592713	-1210.490833	904.303711	67.073784
12360.592713	-1210.490833	903.134766	-3.418173
12360.592713	-1210.490833	901.965820	-25.810219
12360.592713	-1210.490833	900.796875	-16.150810
12360.592713	-1210.490833	899.626953	125.642578
12360.592713	-1210.490833	898.457031	-12.836087
12360.592713	-1210.490833	897.287109	-33.184120
12360.592713	-1210.490833	896.117188	54.521656
12360.592713	-1210.490833	894.947266	102.191719
12360.592713	-1210.490833	893.776367	-22.143192
12360.592713	-1210.490833	892.605469	25.538551
12360.592713	-1210.490833	891.434570	193.155212
12360.592713	-1210.490833	890.262695	90.886925
12360.592713	-1210.490833	889.091797	136.540253
12360.592713	-1210.490833	887.919922	70.303307
12360.592713	-1210.490833	886.748047	24.075573
12360.592713	-1210.490833	885.575195	249.481506
12360.592713	-1210.490833	884.403320	-14.383360
12360.592713	-1210.490833	883.230469	109.145653
12360.592713	-1210.490833	882.057617	60.990429
12360.592713	-1210.490833	880.883789	-33.029293
12360.592713	-1210.490833	879.710938	-43.212593
12360.592713	-1210.490833	878.537109	-3.511981
12360.592713	-1210.490833	877.362305	239.595184
12360.592713	-1210.490833	876.188477	32.007004
12360.592713	-1210.490833	875.013672	163.395981
12360.592713	-1210.490833	873.839844	-97.882805
12360.592713	-1210.490833	872.664063	-38.230789
12360.592713	-1210.490833	871.489258	39.333752
12360.592713	-1210.490833	870.313477	-50.429749
12360.592713	-1210.490833	869.138672	-2.743470
12360.592713	-1210.490833	867.962891	-70.540352
12360.592713	-1210.490833	866.786133	-20.851572
12360.592713	-1210.490833	865.610352	-44.811501
12360.592713	-1210.490833	864.433594	-9.056189
12360.592713	-1210.490833	863.256836	118.205078
12360.592713	-1210.490833	862.079102	-31.032227
12360.592713	-1210.490833	860.902344	-76.799080
12360.592713	-1210.490833	859.724609	-60.900455
12360.592713	-1210.490833	858.546875	-88.728333
12360.592713	-1210.490833	857.368164	-194.034348
12360.592713	-1210.490833	856.190430	123.916077
12360.592713	-1210.490833	855.011719	-66.787529
12360.592713	-1210.490833	853.833008	44.479401
12360.592713	-1210.490833	852.654297	114.012657
12360.592713	-1210.490833	851.474609	159.708069
12360.592713	-1210.490833	850.294922	46.606136
12360.592713	-1210.490833	849.115234	-50.562817
12360.592713	-1210.490833	847.935547	-117.921967
12360.592713	-1210.490833	846.754883	13.121758
12360.592713	-1210.490833	845.575195	-36.353607
12360.592713	-1210.490833	844.393555	49.037907
12360.592713	-1210.490833	843.212891	21.403128
12360.592713	-1210.490833	842.032227	37.392708
12360.592713	-1210.490833	840.850586	-17.949141
12360.592713	-1210.490833	839.668945	-11.842837
12360.592713	-1210.490833	838.486328	16.061485
12360.592713	-1210.490833	837.304688	-72.882919
12360.592713	-1210.490833	836.122070	267.871552
12360.592713	-1210.490833	834.939453	169.033142
12360.592713	-1210.490833	833.756836	-1.005876
12360.592713	-1210.490833	832.573242	131.781082
12360.592713	-1210.490833	831.389648	135.930328
12360.592713	-1210.490833	830.206055	102.503044
12360.592713	-1210.490833	829.022461	247.071167
12360.592713	-1210.490833	827.838867	93.043541
12360.592713	-1210.490833	826.654297	28.039486
12360.592713	-1210.490833	825.469727	200.222168
12360.592713	-1210.490833	824.284180	125.356407
12360.592713	-1210.490833	823.099609	105.836220
12360.592713	-1210.490833	821.914063	226.560745
12360.592713	-1210.490833	820.728516	17.471413
12360.592713	-1210.490833	819.542969	-3.975178
12360.592713	-1210.490833	818.356445	-135.941986
12360.592713	-1210.490833	817.169922	-80.375320
12360.592713	-1210.490833	815.983398	-26.802994
12360.592713	-1210.490833	814.796875	5.048952
12360.592713	-1210.490833	813.609375	161.142517
12360.592713	-1210.490833	812.422852	82.522949
12360.592713	-1210.490833	811.235352	-27.603050
12360.592713	-1210.490833	810.046875	-50.956711
12360.592713	-1210.490833	808.859375	71.517952
12360.592713	-1210.490833	807.670898	-38.537853
12360.592713	-1210.490833	806.482422	-16.575417
12360.592713	-1210.490833	805.293945	80.211357
12360.592713	-1210.490833	804.104492	74.571465
12360.592713	-1210.490833	802.915039	64.993057
12360.592713	-1210.490833	801.725586	-7.565464
12360.592713	-1210.490833	800.536133	112.738091
12360.592713	-1210.490833	799.345703	0.845051
12360.592713	-1210.490833	798.155273	38.477913
12360.592713	-1210.490833	796.964844	95.754227
12360.592713	-1210.490833	795.774414	-80.968231
12360.592713	-1210.490833	794.583008	-84.640770
12360.592713	-1210.490833	793.392578	27.628529
12360.592713	-1210.490833	792.200195	165.392242
12360.592713	-1210.490833	791.008789	-26.947466
12360.592713	-1210.490833	789.816406	0.761070
12360.592713	-1210.490833	788.625000	57.898083
12360.592713	-1210.490833	787.432617	10.950131
12360.592713	-1210.490833	786.239258	-22.247568
12360.592713	-1210.490833	785.046875	-20.124306
12360.592713	-1210.490833	783.853516	-120.039314
12360.592713	-1210.490833	782.660156	74.316811
12360.592713	-1210.490833	781.465820	-5.991802
12360.592713	-1210.490833	780.272461	41.166168
12360.592713	-1210.490833	779.078125	-150.879196
12360.592713	-1210.490833	777.883789	-66.502029
12360.592713	-1210.490833	776.688477	170.672226
12360.592713	-1210.490833	775.494141	-85.988663
12360.592713	-1210.490833	774.298828	-46.785629
12360.592713	-1210.490833	773.103516	113.799805
12360.592713	-1210.490833	771.907227	56.966335
12360.592713	-1210.490833	770.711914	-31.191597
12360.592713	-1210.490833	769.515625	-50.831520
12360.592713	-1210.490833	768.318359	95.838699
12360.592713	-1210.490833	767.122070	9.615762
12360.592713	-1210.490833	765.924805	248.090042
12360.592713	-1210.490833	764.727539	247.865082
12360.592713	-1210.490833	763.530273	116.619766
12360.592713	-1210.490833	762.333008	155.460754
12360.592713	-1210.490833	761.134766	10.554261
12360.592713	-1210.490833	759.936523	154.856461
12360.592713	-1210.490833	758.738281	172.090179
12360.592713	-1210.490833	757.540039	44.757557
12360.592713	-1210.490833	756.340820	65.851868
12360.592713	-1210.490833	755.141602	270.417267
12360.592713	-1210.490833	753.942383	199.651154
12360.592713	-1210.490833	752.742188	126.931534
12360.592713	-1210.490833	751.541992	272.723480
12360.592713	-1210.490833	750.341797	108.266457
12360.592713	-1210.490833	749.141602	-13.254805
12360.592713	-1210.490833	747.941406	204.508514
12360.592713	-1210.490833	746.740234	396.801392
12360.592713	-1210.490833	745.539063	238.150620
12360.592713	-1210.490833	744.337891	116.549561
12360.592713	-1210.490833	743.135742	90.422775
12360.592713	-1210.490833	741.933594	70.107712
12360.592713	-1210.490833	740.731445	164.654358
12360.592713	-1210.490833	739.529297	-5.672442
12360.592713	-1210.490833	738.326172	20.634766
12360.592713	-1210.490833	737.124023	6.012787
12360.592713	-1210.490833	735.919922	63.348736
12360.592713	-1210.490833	734.716797	5.835007
12360.592713	-1210.490833	733.513672	-154.784637
12360.592713	-1210.490833	732.309570	301.037140
12360.592713	-1210.490833	731.105469	95.611748
12360.592713	-1210.490833	729.900391	168.177856
12360.592713	-1210.490833	728.696289	143.494141
12360.592713	-1210.490833	727.491211	-166.838303
12360.592713	-1210.490833	726.286133	92.062431
12360.592713	-1210.490833	725.080078	-2.659859
12360.592713	-1210.490833	723.874023	178.325104
12360.592713	-1210.490833	722.668945	-126.146393
12360.592713	-1210.490833	721.461914	54.679531
12360.592713	-1210.490833	720.255859	-32.414303
12360.592713	-1210.490833	719.048828	-10.883033
12360.592713	-1210.490833	717.841797	33.856804
12360.592713	-1210.490833	716.634766	76.580902
12360.592713	-1210.490833	715.427734	-49.453571
12360.592713	-1210.490833	714.219727	10.597994
12360.592713	-1210.490833	713.011719	101.572220
12360.592713	-1210.490833	711.803711	99.440163
12360.592713	-1210.490833	710.594727	238.667404
12360.592713	-1210.490833	709.385742	67.880814
12360.592713	-1210.490833	708.176758	30.714539
12360.592713	-1210.490833	706.967773	20.605515
12360.592713	-1210.490833	705.758789	113.022903
12360.592713	-1210.490833	704.548828	122.123505
12360.592713	-1210.490833	703.338867	-23.628597
12360.592713	-1210.490833	702.127930	-105.550323
12360.592713	-1210.490833	700.917969	189.621399
12360.592713	-1210.490833	699.707031	-31.662752
12360.592713	-1210.490833	698.496094	69.917992
12360.592713	-1210.490833	697.285156	125.001854
12360.592713	-1210.490833	696.073242	149.075439
12360.592713	-1210.490833	694.861328	-43.308815
12360.592713	-1210.490833	693.649414	73.365288
12360.592713	-1210.490833	692.436523	276.822510
12360.592713	-1210.490833	691.224609	115.212677
12360.592713	-1210.490833	690.011719	239.289413
12360.592713	-1210.490833	688.798828	388.331116
12360.592713	-1210.490833	687.584961	278.683472
12360.592713	-1210.490833	686.372070	307.905060
12360.592713	-1210.490833	685.158203	267.608490
12360.592713	-1210.490833	683.943359	379.591156
12360.592713	-1210.490833	682.729492	337.222626
12360.592713	-1210.490833	681.514648	260.102448
12360.592713	-1210.490833	680.299805	312.055511
12360.592713	-1210.490833	679.084961	348.499603
12360.592713	-1210.490833	677.869141	363.664856
12360.592713	-1210.490833	676.653320	369.119537
12360.592713	-1210.490833	675.437500	316.732697
12360.592713	-1210.490833	674.221680	250.817688
12360.592713	-1210.490833	673.004883	385.019562
12360.592713	-1210.490833	671.789063	274.710083
12360.592713	-1210.490833	670.571289	341.364471
12360.592713	-1210.490833	669.354492	296.357086
12360.592713	-1210.490833	668.136719	220.523834
12360.592713	-1210.490833	666.919922	275.386444
12360.592713	-1210.490833	665.701172	330.148987
12360.592713	-1210.490833	664.483398	204.163208
12360.592713	-1210.490833	663.264648	297.195313
12360.592713	-1210.490833	662.045898	393.954224
12360.592713	-1210.490833	660.827148	225.556259
12360.592713	-1210.490833	659.608398	231.891342
12360.592713	-1210.490833	658.388672	364.853119
12360.592713	-1210.490833	657.168945	288.472107
12360.592713	-1210.490833	655.949219	263.861938
12360.592713	-1210.490833	654.728516	149.013794
12360.592713	-1210.490833	653.507813	153.066910
12360.592713	-1210.490833	652.287109	191.563629
12360.592713	-1210.490833	651.066406	285.575684
12360.592713	-1210.490833	649.844727	222.282623
12360.592713	-1210.490833	648.623047	333.350403
12360.592713	-1210.490833	647.401367	225.858627
12360.592713	-1210.490833	646.179688	302.252136
12360.592713	-1210.490833	644.957031	401.524872
12360.592713	-1210.490833	643.734375	226.850937
12360.592713	-1210.490833	642.511719	86.642075
12360.592713	-1210.490833	641.289063	401.981934
12360.592713	-1210.490833	640.065430	232.950333
12360.592713	-1210.490833	638.841797	352.831055
12360.592713	-1210.490833	637.618164	415.206879
12360.592713	-1210.490833	636.393555	420.112610
12360.592713	-1210.490833	635.168945	306.401642
12360.592713	-1210.490833	633.944336	345.608032
12360.592713	-1210.490833	632.719727	417.225800
12360.592713	-1210.490833	631.494141	370.273102
12360.592713	-1210.490833	630.269531	292.712463
12360.592713	-1210.490833	629.042969	217.029022
12360.592713	-1210.490833	627.817383	292.182007
12360.592713	-1210.490833	626.590820	225.956650
12360.592713	-1210.490833	625.365234	274.233978
12360.592713	-1210.490833	624.137695	198.380585
12360.592713	-1210.490833	622.911133	219.814331
12360.592713	-1210.490833	621.683594	149.615219
12360.592713	-1210.490833	620.456055	115.628807
12360.592713	-1210.490833	619.228516	129.275299
12360.592713	-1210.490833	618.000977	144.769806
12360.592713	-1210.490833	616.772461	339.370636
12360.592713	-1210.490833	615.543945	70.776169
12360.592713	-1210.490833	614.314453	105.173393
12360.592713	-1210.490833	613.085938	229.038193
12360.592713	-1210.490833	611.856445	-26.172852
12360.592713	-1210.490833	610.626953	57.591499
12360.592713	-1210.490833	609.397461	221.229233
12360.592713	-1210.490833	608.166992	91.663681
12360.592713	-1210.490833	606.936523	205.669876
12360.592713	-1210.490833	605.706055	58.964306
12360.592713	-1210.490833	604.474609	134.813049
12360.592713	-1210.490833	603.244141	10.934949
12360.592713	-1210.490833	602.012695	-73.002686
12360.592713	-1210.490833	600.780273	-48.594852
12360.592713	-1210.490833	599.548828	44.189041
12360.592713	-1210.490833	598.316406	-41.691738
12360.592713	-1210.490833	597.083984	49.095974
12360.592713	-1210.490833	595.851563	-55.789707
12360.592713	-1210.490833	594.618164	-23.945866
12360.592713	-1210.490833	593.384766	-87.052864
12360.592713	-1210.490833	592.151367	-127.375336
12360.592713	-1210.490833	590.917969	63.800613
12360.592713	-1210.490833	589.683594	27.224669
12360.592713	-1210.490833	588.449219	-111.769691
12360.592713	-1210.490833	587.214844	-47.810272
12360.592713	-1210.490833	585.979492	72.988419
12360.592713	-1210.490833	584.745117	-9.084538
12360.592713	-1210.490833	583.509766	-28.591274
12360.592713	-1210.490833	582.273438	-48.095028
12360.592713	-1210.490833	581.038086	-41.064445
12360.592713	-1210.490833	579.801758	119.367142
12360.592713	-1210.490833	578.565430	133.937744
12360.592713	-1210.490833	577.329102	398.397736
12360.592713	-1210.490833	576.091797	231.219727
12360.592713	-1210.490833	574.854492	349.860565
12360.592713	-1210.490833	573.617188	247.115570
12360.592713	-1210.490833	572.378906	367.622559
12360.592713	-1210.490833	571.141602	217.679504
12360.592713	-1210.490833	569.903320	209.617294
12360.592713	-1210.490833	568.664063	124.081039
12360.592713	-1210.490833	567.425781	61.289532
12360.592713	-1210.490833	566.186523	9.887345
12360.592713	-1210.490833	564.947266	-20.680387
12360.592713	-1210.490833	563.708008	54.563454
12360.592713	-1210.490833	562.467773	54.279465
12360.592713	-1210.490833	561.227539	-49.795258
12360.592713	-1210.490833	559.987305	144.430710
12360.592713	-1210.490833	558.747070	-21.802792
12360.592713	-1210.490833	557.505859	-18.124987
12360.592713	-1210.490833	556.264648	13.895452
12360.592713	-1210.490833	555.023438	-55.879513
12360.592713	-1210.490833	553.781250	25.260870
12360.592713	-1210.490833	552.539063	8.404090
12360.592713	-1210.490833	551.296875	-125.229485
12360.592713	-1210.490833	550.054688	42.729927
12360.592713	-1210.490833	548.811523	-94.494980
12360.592713	-1210.490833	547.569336	1.952198
12360.592713	-1210.490833	546.325195	28.753063
12360.592713	-1210.490833	545.082031	-42.275642
12360.592713	-1210.490833	543.837891	58.079655
12360.592713	-1210.490833	542.593750	-136.968994
12360.592713	-1210.490833	541.349609	-13.898511
12360.592713	-1210.490833	540.105469	26.440138
12360.592713	-1210.490833	538.860352	68.728104
12360.592713	-1210.490833	537.615234	81.004288
12360.592713	-1210.490833	536.369141	8.777102
12360.592713	-1210.490833	535.124023	-85.875786
12360.592713	-1210.490833	533.877930	30.052164
12360.592713	-1210.490833	532.631836	161.059448
12360.592713	-1210.490833	531.384766	46.071724
12360.592713	-1210.490833	530.138672	77.705940
12360.592713	-1210.490833	528.891602	92.535606
12360.592713	-1210.490833	527.643555	-37.057785
12360.592713	-1210.490833	526.396484	73.716942
12360.592713	-1210.490833	525.148438	225.833115
12360.592713	-1210.490833	523.900391	222.313828
12360.592713	-1210.490833	522.652344	233.918076
12360.592713	-1210.490833	521.403320	219.388367
12360.592713	-1210.490833	520.154297	139.380173
12360.592713	-1210.490833	518.905273	38.917023
12360.592713	-1210.490833	517.656250	223.432541
12360.592713	-1210.490833	516.406250	-17.248537
12360.592713	-1210.490833	515.156250	120.638023
12360.592713	-1210.490833	513.906250	123.777634
12360.592713	-1210.490833	512.655273	170.109406
12360.592713	-1210.490833	511.404297	29.387337
12360.592713	-1210.490833	510.153320	-58.737560
12360.592713	-1210.490833	508.902344	16.085871
12360.592713	-1210.490833	507.650391	-47.398422
12360.592713	-1210.490833	506.398438	-198.606125
12360.592713	-1210.490833	505.146484	-1.837703
12360.592713	-1210.490833	503.893555	-135.873520
12360.592713	-1210.490833	502.641602	70.435768
12360.592713	-1210.490833	501.388672	213.278152
12360.592713	-1210.490833	500.134766	38.632454
12360.592713	-1210.490833	498.881836	151.838425
12360.592713	-1210.490833	497.627930	-9.344254
12360.592713	-1210.490833	496.374023	46.255898
12360.592713	-1210.490833	495.119141	-2.536883
12360.592713	-1210.490833	493.865234	155.979050
12360.592713	-1210.490833	492.610352	90.701546
12360.592713	-1210.490833	491.355469	389.336304
12360.592713	-1210.490833	490.099609	380.294434
12360.592713	-1210.490833	488.843750	253.947144
12360.592713	-1210.490833	487.587891	336.587128
12360.592713	-1210.490833	486.332031	55.927792
12360.592713	-1210.490833	485.075195	181.740570
12360.592713	-1210.490833	483.818359	452.957092
12360.592713	-1210.490833	482.561523	437.387970
12360.592713	-1210.490833	481.304688	323.287048
12360.592713	-1210.490833	480.046875	190.771255
12360.592713	-1210.490833	478.789063	410.243744
12360.592713	-1210.490833	477.531250	276.201935
12360.592713	-1210.490833	476.272461	352.601440
12360.592713	-1210.490833	475.013672	520.256592
12360.592713	-1210.490833	473.754883	425.766846
12360.592713	-1210.490833	472.496094	377.940338
12360.592713	-1210.490833	471.236328	452.960846
12360.592713	-1210.490833	469.976563	308.785950
12360.592713	-1210.490833	468.716797	280.003510
12360.592713	-1210.490833	467.456055	448.280243
12360.592713	-1210.490833	466.196289	297.155670
12360.592713	-1210.490833	464.935547	474.888031
12360.592713	-1210.490833	463.673828	351.918976
12360.592713	-1210.490833	462.413086	448.127472
12360.592713	-1210.490833	461.151367	442.346771
12360.592713	-1210.490833	459.889648	386.582550
12360.592713	-1210.490833	458.626953	536.836304
12360.592713	-1210.490833	457.364258	679.701904
12360.592713	-1210.490833	456.101563	715.060486
12360.592713	-1210.490833	454.838867	720.829041
12360.592713	-1210.490833	453.575195	565.444702
12360.592713	-1210.490833	452.312500	675.151184
12360.592713	-1210.490833	451.047852	582.968018
12360.592713	-1210.490833	449.784180	539.029785
12360.592713	-1210.490833	448.519531	765.507813
12360.592713	-1210.490833	447.254883	849.382507
12360.592713	-1210.490833	445.990234	646.374329
12360.592713	-1210.490833	444.725586	754.354675
12360.592713	-1210.490833	443.459961	727.257141
12360.592713	-1210.490833	442.194336	794.510925
12360.592713	-1210.490833	440.927734	745.235474
12360.592713	-1210.490833	439.662109	623.859802
12360.592713	-1210.490833	438.395508	942.450073
12360.592713	-1210.490833	437.127930	939.313660
12360.592713	-1210.490833	435.861328	956.453796
12360.592713	-1210.490833	434.593750	831.296448
12360.592713	-1210.490833	433.326172	986.845947
12360.592713	-1210.490833	432.058594	1022.227417
12360.592713	-1210.490833	430.790039	959.664001
12360.592713	-1210.490833	429.521484	1142.490845
12360.592713	-1210.490833	428.252930	930.234070
12360.592713	-1210.490833	426.984375	946.693604
12360.592713	-1210.490833	425.714844	1044.154541
12360.592713	-1210.490833	424.445313	979.130310
12360.592713	-1210.490833	423.174805	1188.658447
12360.592713	-1210.490833	421.905273	1235.686157
12360.592713	-1210.490833	420.634766	1151.636719
12360.592713	-1210.490833	419.364258	1352.968872
12360.592713	-1210.490833	418.092773	1115.555420
12360.592713	-1210.490833	416.822266	1139.483154
12360.592713	-1210.490833	415.550781	1201.778931
12360.592713	-1210.490833	414.278320	1088.855835
12360.592713	-1210.490833	413.006836	1334.534302
12360.592713	-1210.490833	411.734375	1342.386963
12360.592713	-1210.490833	410.461914	1153.015259
12360.592713	-1210.490833	409.188477	1290.715454
12360.592713	-1210.490833	407.916016	1102.452515
12360.592713	-1210.490833	406.642578	1255.778076
12360.592713	-1210.490833	405.368164	1290.929199
12360.592713	-1210.490833	404.094727	1263.085571
12360.592713	-1210.490833	402.820313	1335.778198
12360.592713	-1210.490833	401.545898	1303.184814
12360.592713	-1210.490833	400.270508	1292.062866
12360.592713	-1210.490833	398.996094	1467.615723
12360.592713	-1210.490833	397.720703	1379.951660
12360.592713	-1210.490833	396.444336	1539.415405
12360.592713	-1210.490833	395.168945	1433.890503
12360.592713	-1210.490833	393.892578	1450.585327
12360.592713	-1210.490833	392.616211	1327.116821
12360.592713	-1210.490833	391.339844	1289.086548
12360.592713	-1210.490833	390.062500	1433.559937
12360.592713	-1210.490833	388.785156	1390.146362
12360.592713	-1210.490833	387.507813	1420.976685
12360.592713	-1210.490833	386.229492	1403.208496
12360.592713	-1210.490833	384.951172	1457.731201
12360.592713	-1210.490833	383.672852	1359.210327
12360.592713	-1210.490833	382.394531	1492.191895
12360.592713	-1210.490833	381.115234	1338.444458
12360.592713	-1210.490833	379.835938	1518.522705
12360.592713	-1210.490833	378.556641	1443.003784
12360.592713	-1210.490833	377.277344	1452.259155
12360.592713	-1210.490833	375.997070	1436.437988
12360.592713	-1210.490833	374.716797	1331.526733
12360.592713	-1210.490833	373.435547	1506.795288
12360.592713	-1210.490833	372.155273	1333.313477
12360.592713	-1210.490833	370.874023	1414.233887
12360.592713	-1210.490833	369.591797	1367.513428
12360.592713	-1210.490833	368.310547	1269.935059
12360.592713	-1210.490833	367.028320	1459.266846
12360.592713	-1210.490833	365.746094	1387.571899
12360.592713	-1210.490833	364.463867	1288.604126
12360.592713	-1210.490833	363.180664	1328.366089
12360.592713	-1210.490833	361.897461	1276.841431
12360.592713	-1210.490833	360.614258	1247.124268
12360.592713	-1210.490833	359.330078	1135.155640
12360.592713	-1210.490833	358.045898	1398.609985
12360.592713	-1210.490833	356.761719	1262.429688
12360.592713	-1210.490833	355.477539	1100.431763
12360.592713	-1210.490833	354.192383	1280.597046
12360.592713	-1210.490833	352.907227	1203.315186
12360.592713	-1210.490833	351.622070	1222.025757
12360.592713	-1210.490833	350.336914	1303.815308
12360.592713	-1210.490833	349.050781	1240.980469
12360.592713	-1210.490833	347.764648	1128.231079
12360.592713	-1210.490833	346.477539	1043.722656
12360.592713	-1210.490833	345.191406	916.498474
12360.592713	-1210.490833	343.904297	837.355591
12360.592713	-1210.490833	342.616211	935.289124
12360.592713	-1210.490833	341.329102	995.666687
12360.592713	-1210.490833	340.041016	952.873352
12360.592713	-1210.490833	338.752930	794.223389
12360.592713	-1210.490833	337.463867	861.229980
12360.592713	-1210.490833	336.175781	628.789368
12360.592713	-1210.490833	334.886719	756.147644
12360.592713	-1210.490833	333.596680	710.939636
12360.592713	-1210.490833	332.307617	818.280334
12360.592713	-1210.490833	331.017578	660.373779
12360.592713	-1210.490833	329.727539	740.008423
12360.592713	-1210.490833	328.436523	668.602295
12360.592713	-1210.490833	327.146484	404.598114
12360.592713	-1210.490833	325.855469	571.655701
12360.592713	-1210.490833	324.563477	280.996826
12360.592713	-1210.490833	323.272461	432.055267
12360.592713	-1210.490833	321.980469	279.409515
12360.592713	-1210.490833	320.688477	214.593948
12360.592713	-1210.490833	319.395508	235.511948
12360.592713	-1210.490833	318.103516	398.343414
12360.592713	-1210.490833	316.810547	45.388756
12360.592713	-1210.490833	315.516602	38.525448
12360.592713	-1210.490833	314.223633	-36.820728
12360.592713	-1210.490833	312.929688	86.821823
12360.592713	-1210.490833	311.635742	-41.147079
12360.592713	-1210.490833	310.340820	49.419876
12360.592713	-1210.490833	309.045898	-15.943676
12360.592713	-1210.490833	307.750977	-43.833351
12360.592713	-1210.490833	306.456055	137.295334
12360.592713	-1210.490833	305.160156	-119.932655
12360.592713	-1210.490833	303.865234	-130.338074
12360.592713	-1210.490833	302.568359	0.523925
12360.592713	-1210.490833	301.272461	139.246719
12360.592713	-1210.490833	299.975586	191.449081
12360.592713	-1210.490833	298.678711	166.217834
