#X		#Y		#Wave		#Intensity
-6897.362766	6784.423333	1999.946289	-41.516178
-6897.362766	6784.423333	1998.981445	-85.498215
-6897.362766	6784.423333	1998.017578	107.282822
-6897.362766	6784.423333	1997.052734	7.583970
-6897.362766	6784.423333	1996.088867	-30.122854
-6897.362766	6784.423333	1995.124023	-35.603508
-6897.362766	6784.423333	1994.159180	35.708286
-6897.362766	6784.423333	1993.193359	20.333208
-6897.362766	6784.423333	1992.228516	56.969166
-6897.362766	6784.423333	1991.262695	103.502266
-6897.362766	6784.423333	1990.296875	-119.734657
-6897.362766	6784.423333	1989.331055	28.288668
-6897.362766	6784.423333	1988.365234	-24.124029
-6897.362766	6784.423333	1987.398438	37.274082
-6897.362766	6784.423333	1986.432617	123.393173
-6897.362766	6784.423333	1985.465820	108.113159
-6897.362766	6784.423333	1984.499023	31.046595
-6897.362766	6784.423333	1983.532227	-36.093620
-6897.362766	6784.423333	1982.565430	-53.772316
-6897.362766	6784.423333	1981.597656	-108.496483
-6897.362766	6784.423333	1980.629883	239.470901
-6897.362766	6784.423333	1979.662109	24.195271
-6897.362766	6784.423333	1978.694336	-28.008894
-6897.362766	6784.423333	1977.726563	-104.872055
-6897.362766	6784.423333	1976.758789	77.494957
-6897.362766	6784.423333	1975.790039	54.958771
-6897.362766	6784.423333	1974.821289	69.456039
-6897.362766	6784.423333	1973.852539	22.281687
-6897.362766	6784.423333	1972.883789	14.603214
-6897.362766	6784.423333	1971.915039	-91.708275
-6897.362766	6784.423333	1970.945313	9.150424
-6897.362766	6784.423333	1969.975586	-13.279610
-6897.362766	6784.423333	1969.005859	97.409836
-6897.362766	6784.423333	1968.036133	-6.328592
-6897.362766	6784.423333	1967.066406	69.847397
-6897.362766	6784.423333	1966.096680	20.371403
-6897.362766	6784.423333	1965.125977	74.369453
-6897.362766	6784.423333	1964.155273	184.996811
-6897.362766	6784.423333	1963.184570	106.016159
-6897.362766	6784.423333	1962.213867	172.311783
-6897.362766	6784.423333	1961.242188	-44.439453
-6897.362766	6784.423333	1960.271484	24.343311
-6897.362766	6784.423333	1959.299805	-39.741573
-6897.362766	6784.423333	1958.328125	-113.629761
-6897.362766	6784.423333	1957.356445	48.615276
-6897.362766	6784.423333	1956.384766	-10.484997
-6897.362766	6784.423333	1955.412109	45.991463
-6897.362766	6784.423333	1954.439453	16.431210
-6897.362766	6784.423333	1953.467773	-84.372513
-6897.362766	6784.423333	1952.495117	38.462021
-6897.362766	6784.423333	1951.521484	-42.635006
-6897.362766	6784.423333	1950.548828	-140.881332
-6897.362766	6784.423333	1949.575195	13.852882
-6897.362766	6784.423333	1948.601563	-59.792973
-6897.362766	6784.423333	1947.627930	4.065845
-6897.362766	6784.423333	1946.654297	-47.438858
-6897.362766	6784.423333	1945.680664	239.716324
-6897.362766	6784.423333	1944.706055	-35.048416
-6897.362766	6784.423333	1943.732422	-25.159010
-6897.362766	6784.423333	1942.757813	-20.168087
-6897.362766	6784.423333	1941.783203	-15.167312
-6897.362766	6784.423333	1940.807617	60.936897
-6897.362766	6784.423333	1939.833008	-88.475357
-6897.362766	6784.423333	1938.857422	21.945728
-6897.362766	6784.423333	1937.881836	-149.433563
-6897.362766	6784.423333	1936.906250	-134.558090
-6897.362766	6784.423333	1935.930664	-24.155966
-6897.362766	6784.423333	1934.955078	7.854309
-6897.362766	6784.423333	1933.978516	164.728973
-6897.362766	6784.423333	1933.001953	15.569103
-6897.362766	6784.423333	1932.025391	30.454220
-6897.362766	6784.423333	1931.048828	-10.935571
-6897.362766	6784.423333	1930.072266	8.864013
-6897.362766	6784.423333	1929.094727	58.018925
-6897.362766	6784.423333	1928.118164	36.244888
-6897.362766	6784.423333	1927.140625	60.946159
-6897.362766	6784.423333	1926.163086	-34.141521
-6897.362766	6784.423333	1925.184570	12.582404
-6897.362766	6784.423333	1924.207031	142.389709
-6897.362766	6784.423333	1923.228516	120.670570
-6897.362766	6784.423333	1922.250000	33.012234
-6897.362766	6784.423333	1921.271484	-30.179152
-6897.362766	6784.423333	1920.292969	43.414185
-6897.362766	6784.423333	1919.314453	-7.527687
-6897.362766	6784.423333	1918.334961	-21.825537
-6897.362766	6784.423333	1917.355469	73.719139
-6897.362766	6784.423333	1916.375977	193.639435
-6897.362766	6784.423333	1915.396484	-74.387527
-6897.362766	6784.423333	1914.416992	-8.128456
-6897.362766	6784.423333	1913.436523	97.134476
-6897.362766	6784.423333	1912.457031	2.425693
-6897.362766	6784.423333	1911.476563	-38.606606
-6897.362766	6784.423333	1910.496094	5.695468
-6897.362766	6784.423333	1909.515625	-47.488529
-6897.362766	6784.423333	1908.534180	18.743843
-6897.362766	6784.423333	1907.552734	-0.301615
-6897.362766	6784.423333	1906.572266	-124.061333
-6897.362766	6784.423333	1905.590820	78.542191
-6897.362766	6784.423333	1904.608398	103.344780
-6897.362766	6784.423333	1903.626953	35.646523
-6897.362766	6784.423333	1902.644531	-143.973557
-6897.362766	6784.423333	1901.663086	-12.052330
-6897.362766	6784.423333	1900.680664	-9.115232
-6897.362766	6784.423333	1899.698242	25.449102
-6897.362766	6784.423333	1898.714844	-61.590618
-6897.362766	6784.423333	1897.732422	-19.720049
-6897.362766	6784.423333	1896.749023	46.451912
-6897.362766	6784.423333	1895.765625	-52.674835
-6897.362766	6784.423333	1894.782227	25.642704
-6897.362766	6784.423333	1893.798828	-136.601990
-6897.362766	6784.423333	1892.814453	-19.418018
-6897.362766	6784.423333	1891.831055	-28.567991
-6897.362766	6784.423333	1890.846680	-10.997648
-6897.362766	6784.423333	1889.862305	-24.990252
-6897.362766	6784.423333	1888.877930	70.262115
-6897.362766	6784.423333	1887.892578	34.427147
-6897.362766	6784.423333	1886.908203	200.011673
-6897.362766	6784.423333	1885.922852	-76.002754
-6897.362766	6784.423333	1884.937500	9.504873
-6897.362766	6784.423333	1883.952148	-9.295732
-6897.362766	6784.423333	1882.965820	51.929150
-6897.362766	6784.423333	1881.980469	113.136490
-6897.362766	6784.423333	1880.994141	-36.545635
-6897.362766	6784.423333	1880.007813	73.129219
-6897.362766	6784.423333	1879.021484	93.119835
-6897.362766	6784.423333	1878.035156	-3.169701
-6897.362766	6784.423333	1877.047852	-4.963770
-6897.362766	6784.423333	1876.061523	94.949905
-6897.362766	6784.423333	1875.074219	-15.803484
-6897.362766	6784.423333	1874.086914	-3.062491
-6897.362766	6784.423333	1873.098633	-108.911346
-6897.362766	6784.423333	1872.111328	92.583862
-6897.362766	6784.423333	1871.123047	61.757336
-6897.362766	6784.423333	1870.135742	76.901375
-6897.362766	6784.423333	1869.147461	77.531342
-6897.362766	6784.423333	1868.158203	-81.419403
-6897.362766	6784.423333	1867.169922	20.774057
-6897.362766	6784.423333	1866.180664	74.589958
-6897.362766	6784.423333	1865.192383	-33.520714
-6897.362766	6784.423333	1864.203125	-110.181770
-6897.362766	6784.423333	1863.213867	-66.033081
-6897.362766	6784.423333	1862.223633	11.910468
-6897.362766	6784.423333	1861.234375	-35.740017
-6897.362766	6784.423333	1860.244141	143.566956
-6897.362766	6784.423333	1859.253906	76.597282
-6897.362766	6784.423333	1858.263672	94.118767
-6897.362766	6784.423333	1857.273438	80.264977
-6897.362766	6784.423333	1856.282227	107.425774
-6897.362766	6784.423333	1855.291992	6.739133
-6897.362766	6784.423333	1854.300781	-38.446594
-6897.362766	6784.423333	1853.309570	-81.206345
-6897.362766	6784.423333	1852.317383	141.215942
-6897.362766	6784.423333	1851.326172	105.663353
-6897.362766	6784.423333	1850.333984	-2.171561
-6897.362766	6784.423333	1849.342773	65.908760
-6897.362766	6784.423333	1848.350586	66.511917
-6897.362766	6784.423333	1847.357422	-65.349663
-6897.362766	6784.423333	1846.365234	91.784790
-6897.362766	6784.423333	1845.372070	73.110245
-6897.362766	6784.423333	1844.379883	138.684143
-6897.362766	6784.423333	1843.386719	132.031067
-6897.362766	6784.423333	1842.393555	89.283585
-6897.362766	6784.423333	1841.399414	20.084459
-6897.362766	6784.423333	1840.406250	-32.257359
-6897.362766	6784.423333	1839.412109	189.555099
-6897.362766	6784.423333	1838.417969	98.719398
-6897.362766	6784.423333	1837.423828	-30.549881
-6897.362766	6784.423333	1836.429688	-27.590883
-6897.362766	6784.423333	1835.434570	126.744476
-6897.362766	6784.423333	1834.440430	122.451241
-6897.362766	6784.423333	1833.445313	29.276022
-6897.362766	6784.423333	1832.450195	-30.249111
-6897.362766	6784.423333	1831.454102	47.102993
-6897.362766	6784.423333	1830.458984	-53.231152
-6897.362766	6784.423333	1829.462891	-83.930283
-6897.362766	6784.423333	1828.466797	-13.836339
-6897.362766	6784.423333	1827.470703	17.832657
-6897.362766	6784.423333	1826.474609	121.446564
-6897.362766	6784.423333	1825.478516	-50.805428
-6897.362766	6784.423333	1824.481445	67.149979
-6897.362766	6784.423333	1823.484375	2.840036
-6897.362766	6784.423333	1822.487305	34.426105
-6897.362766	6784.423333	1821.490234	94.749245
-6897.362766	6784.423333	1820.493164	87.945915
-6897.362766	6784.423333	1819.495117	59.572273
-6897.362766	6784.423333	1818.498047	153.356552
-6897.362766	6784.423333	1817.500000	144.116364
-6897.362766	6784.423333	1816.500977	-32.737427
-6897.362766	6784.423333	1815.502930	15.490272
-6897.362766	6784.423333	1814.504883	-63.164917
-6897.362766	6784.423333	1813.505859	-148.983337
-6897.362766	6784.423333	1812.506836	-19.453707
-6897.362766	6784.423333	1811.507813	-78.961060
-6897.362766	6784.423333	1810.508789	-59.535908
-6897.362766	6784.423333	1809.508789	187.029648
-6897.362766	6784.423333	1808.508789	17.501299
-6897.362766	6784.423333	1807.508789	94.221107
-6897.362766	6784.423333	1806.508789	151.778656
-6897.362766	6784.423333	1805.508789	-118.044052
-6897.362766	6784.423333	1804.508789	49.392372
-6897.362766	6784.423333	1803.507813	44.779652
-6897.362766	6784.423333	1802.506836	18.660919
-6897.362766	6784.423333	1801.505859	-169.818558
-6897.362766	6784.423333	1800.504883	23.695972
-6897.362766	6784.423333	1799.502930	-16.773272
-6897.362766	6784.423333	1798.501953	-71.559532
-6897.362766	6784.423333	1797.500000	76.446304
-6897.362766	6784.423333	1796.498047	86.031120
-6897.362766	6784.423333	1795.496094	112.289429
-6897.362766	6784.423333	1794.493164	140.903519
-6897.362766	6784.423333	1793.491211	-16.458696
-6897.362766	6784.423333	1792.488281	-14.085232
-6897.362766	6784.423333	1791.485352	-45.093899
-6897.362766	6784.423333	1790.482422	143.089798
-6897.362766	6784.423333	1789.478516	2.445922
-6897.362766	6784.423333	1788.475586	61.900379
-6897.362766	6784.423333	1787.471680	-47.756393
-6897.362766	6784.423333	1786.467773	33.072247
-6897.362766	6784.423333	1785.463867	23.397804
-6897.362766	6784.423333	1784.459961	127.942238
-6897.362766	6784.423333	1783.455078	13.516596
-6897.362766	6784.423333	1782.450195	113.223938
-6897.362766	6784.423333	1781.445313	46.374603
-6897.362766	6784.423333	1780.440430	-22.848003
-6897.362766	6784.423333	1779.435547	33.949471
-6897.362766	6784.423333	1778.429688	-106.603172
-6897.362766	6784.423333	1777.424805	211.587387
-6897.362766	6784.423333	1776.418945	-35.921726
-6897.362766	6784.423333	1775.413086	54.009834
-6897.362766	6784.423333	1774.406250	160.511780
-6897.362766	6784.423333	1773.400391	202.829468
-6897.362766	6784.423333	1772.393555	-1.839013
-6897.362766	6784.423333	1771.386719	-71.132050
-6897.362766	6784.423333	1770.379883	44.717270
-6897.362766	6784.423333	1769.373047	-91.051971
-6897.362766	6784.423333	1768.365234	-44.098232
-6897.362766	6784.423333	1767.358398	-35.139297
-6897.362766	6784.423333	1766.350586	-52.298584
-6897.362766	6784.423333	1765.342773	77.547371
-6897.362766	6784.423333	1764.334961	34.246071
-6897.362766	6784.423333	1763.326172	-84.917694
-6897.362766	6784.423333	1762.318359	-4.980804
-6897.362766	6784.423333	1761.309570	-171.530746
-6897.362766	6784.423333	1760.300781	62.330467
-6897.362766	6784.423333	1759.291016	68.689323
-6897.362766	6784.423333	1758.282227	75.022804
-6897.362766	6784.423333	1757.272461	-67.839279
-6897.362766	6784.423333	1756.262695	52.094448
-6897.362766	6784.423333	1755.252930	-36.322639
-6897.362766	6784.423333	1754.243164	81.142731
-6897.362766	6784.423333	1753.233398	-49.883602
-6897.362766	6784.423333	1752.222656	50.927860
-6897.362766	6784.423333	1751.211914	0.313739
-6897.362766	6784.423333	1750.201172	-21.932146
-6897.362766	6784.423333	1749.190430	-4.005708
-6897.362766	6784.423333	1748.179688	106.070473
-6897.362766	6784.423333	1747.167969	-41.513851
-6897.362766	6784.423333	1746.156250	7.041046
-6897.362766	6784.423333	1745.144531	1.217002
-6897.362766	6784.423333	1744.132813	40.243896
-6897.362766	6784.423333	1743.121094	22.555220
-6897.362766	6784.423333	1742.108398	-16.404507
-6897.362766	6784.423333	1741.095703	74.451706
-6897.362766	6784.423333	1740.083008	-120.321548
-6897.362766	6784.423333	1739.070313	55.410904
-6897.362766	6784.423333	1738.057617	-33.176704
-6897.362766	6784.423333	1737.043945	71.653488
-6897.362766	6784.423333	1736.030273	-144.306793
-6897.362766	6784.423333	1735.016602	2.889649
-6897.362766	6784.423333	1734.002930	3.846252
-6897.362766	6784.423333	1732.989258	139.117645
-6897.362766	6784.423333	1731.974609	-171.062820
-6897.362766	6784.423333	1730.959961	-80.631783
-6897.362766	6784.423333	1729.945313	5.025432
-6897.362766	6784.423333	1728.930664	-3.582915
-6897.362766	6784.423333	1727.916016	-92.274254
-6897.362766	6784.423333	1726.900391	-58.543858
-6897.362766	6784.423333	1725.885742	-46.036106
-6897.362766	6784.423333	1724.870117	-50.037411
-6897.362766	6784.423333	1723.853516	-16.422392
-6897.362766	6784.423333	1722.837891	38.325375
-6897.362766	6784.423333	1721.822266	-208.026718
-6897.362766	6784.423333	1720.805664	-118.050720
-6897.362766	6784.423333	1719.789063	117.627563
-6897.362766	6784.423333	1718.772461	-25.260427
-6897.362766	6784.423333	1717.754883	5.785928
-6897.362766	6784.423333	1716.738281	55.592476
-6897.362766	6784.423333	1715.720703	-56.750675
-6897.362766	6784.423333	1714.703125	77.544891
-6897.362766	6784.423333	1713.685547	157.747742
-6897.362766	6784.423333	1712.667969	80.581520
-6897.362766	6784.423333	1711.649414	50.362129
-6897.362766	6784.423333	1710.630859	-26.814751
-6897.362766	6784.423333	1709.612305	-73.485725
-6897.362766	6784.423333	1708.593750	-35.707893
-6897.362766	6784.423333	1707.575195	13.755087
-6897.362766	6784.423333	1706.555664	4.536405
-6897.362766	6784.423333	1705.536133	65.635208
-6897.362766	6784.423333	1704.516602	-70.239975
-6897.362766	6784.423333	1703.497070	16.574465
-6897.362766	6784.423333	1702.477539	157.225067
-6897.362766	6784.423333	1701.457031	-93.484215
-6897.362766	6784.423333	1700.437500	7.253357
-6897.362766	6784.423333	1699.416992	58.737064
-6897.362766	6784.423333	1698.395508	2.454676
-6897.362766	6784.423333	1697.375000	149.849808
-6897.362766	6784.423333	1696.354492	65.429024
-6897.362766	6784.423333	1695.333008	105.042549
-6897.362766	6784.423333	1694.311523	76.758232
-6897.362766	6784.423333	1693.290039	135.012161
-6897.362766	6784.423333	1692.267578	123.044167
-6897.362766	6784.423333	1691.246094	-26.912769
-6897.362766	6784.423333	1690.223633	49.943150
-6897.362766	6784.423333	1689.201172	-43.901161
-6897.362766	6784.423333	1688.178711	-67.623825
-6897.362766	6784.423333	1687.155273	27.800499
-6897.362766	6784.423333	1686.132813	18.034283
-6897.362766	6784.423333	1685.109375	73.641769
-6897.362766	6784.423333	1684.085938	14.769217
-6897.362766	6784.423333	1683.062500	114.662331
-6897.362766	6784.423333	1682.039063	55.749454
-6897.362766	6784.423333	1681.014648	-17.176132
-6897.362766	6784.423333	1679.990234	119.915726
-6897.362766	6784.423333	1678.965820	128.608643
-6897.362766	6784.423333	1677.941406	29.970142
-6897.362766	6784.423333	1676.916992	-33.674946
-6897.362766	6784.423333	1675.891602	89.211189
-6897.362766	6784.423333	1674.866211	130.428864
-6897.362766	6784.423333	1673.840820	55.062687
-6897.362766	6784.423333	1672.815430	156.807144
-6897.362766	6784.423333	1671.790039	83.741486
-6897.362766	6784.423333	1670.763672	169.078232
-6897.362766	6784.423333	1669.737305	-67.049660
-6897.362766	6784.423333	1668.710938	-53.955505
-6897.362766	6784.423333	1667.684570	-145.657684
-6897.362766	6784.423333	1666.658203	67.574905
-6897.362766	6784.423333	1665.630859	155.025513
-6897.362766	6784.423333	1664.603516	44.640682
-6897.362766	6784.423333	1663.576172	132.010941
-6897.362766	6784.423333	1662.548828	58.836666
-6897.362766	6784.423333	1661.520508	104.258415
-6897.362766	6784.423333	1660.493164	305.415527
-6897.362766	6784.423333	1659.464844	174.058151
-6897.362766	6784.423333	1658.436523	93.856659
-6897.362766	6784.423333	1657.408203	236.730682
-6897.362766	6784.423333	1656.378906	249.422745
-6897.362766	6784.423333	1655.350586	262.089996
-6897.362766	6784.423333	1654.321289	295.624969
-6897.362766	6784.423333	1653.291992	417.352905
-6897.362766	6784.423333	1652.261719	316.153046
-6897.362766	6784.423333	1651.232422	463.313538
-6897.362766	6784.423333	1650.202148	424.751160
-6897.362766	6784.423333	1649.171875	300.339172
-6897.362766	6784.423333	1648.141602	347.602203
-6897.362766	6784.423333	1647.111328	457.441345
-6897.362766	6784.423333	1646.080078	293.605804
-6897.362766	6784.423333	1645.049805	484.507538
-6897.362766	6784.423333	1644.018555	341.546539
-6897.362766	6784.423333	1642.987305	488.287567
-6897.362766	6784.423333	1641.955078	498.248840
-6897.362766	6784.423333	1640.923828	496.608032
-6897.362766	6784.423333	1639.891602	650.113708
-6897.362766	6784.423333	1638.859375	539.566956
-6897.362766	6784.423333	1637.827148	581.839172
-6897.362766	6784.423333	1636.794922	526.859863
-6897.362766	6784.423333	1635.761719	485.762787
-6897.362766	6784.423333	1634.729492	564.981262
-6897.362766	6784.423333	1633.696289	521.540039
-6897.362766	6784.423333	1632.662109	404.080872
-6897.362766	6784.423333	1631.628906	462.395630
-6897.362766	6784.423333	1630.594727	527.600220
-6897.362766	6784.423333	1629.561523	590.454834
-6897.362766	6784.423333	1628.527344	620.906799
-6897.362766	6784.423333	1627.493164	600.496277
-6897.362766	6784.423333	1626.458008	508.456177
-6897.362766	6784.423333	1625.423828	460.323547
-6897.362766	6784.423333	1624.388672	631.568726
-6897.362766	6784.423333	1623.353516	514.128296
-6897.362766	6784.423333	1622.318359	736.047058
-6897.362766	6784.423333	1621.282227	731.682251
-6897.362766	6784.423333	1620.247070	669.622009
-6897.362766	6784.423333	1619.210938	538.354492
-6897.362766	6784.423333	1618.174805	584.729065
-6897.362766	6784.423333	1617.137695	725.616638
-6897.362766	6784.423333	1616.101563	730.405273
-6897.362766	6784.423333	1615.064453	638.352966
-6897.362766	6784.423333	1614.027344	557.846375
-6897.362766	6784.423333	1612.990234	696.268494
-6897.362766	6784.423333	1611.953125	597.323425
-6897.362766	6784.423333	1610.916016	431.604614
-6897.362766	6784.423333	1609.877930	576.835022
-6897.362766	6784.423333	1608.839844	844.031189
-6897.362766	6784.423333	1607.801758	749.683044
-6897.362766	6784.423333	1606.763672	853.300354
-6897.362766	6784.423333	1605.724609	740.549744
-6897.362766	6784.423333	1604.685547	669.245178
-6897.362766	6784.423333	1603.646484	666.966064
-6897.362766	6784.423333	1602.607422	754.370911
-6897.362766	6784.423333	1601.568359	685.373169
-6897.362766	6784.423333	1600.528320	887.662048
-6897.362766	6784.423333	1599.489258	866.913879
-6897.362766	6784.423333	1598.449219	788.708801
-6897.362766	6784.423333	1597.408203	717.412903
-6897.362766	6784.423333	1596.368164	740.324158
-6897.362766	6784.423333	1595.327148	687.422180
-6897.362766	6784.423333	1594.287109	811.349121
-6897.362766	6784.423333	1593.246094	847.975708
-6897.362766	6784.423333	1592.204102	891.460876
-6897.362766	6784.423333	1591.163086	815.591553
-6897.362766	6784.423333	1590.121094	767.274963
-6897.362766	6784.423333	1589.079102	1154.832886
-6897.362766	6784.423333	1588.037109	1021.594727
-6897.362766	6784.423333	1586.995117	1007.644958
-6897.362766	6784.423333	1585.953125	1092.280762
-6897.362766	6784.423333	1584.910156	982.034424
-6897.362766	6784.423333	1583.867188	1094.129395
-6897.362766	6784.423333	1582.824219	974.752319
-6897.362766	6784.423333	1581.781250	953.927124
-6897.362766	6784.423333	1580.737305	942.262390
-6897.362766	6784.423333	1579.693359	1019.908081
-6897.362766	6784.423333	1578.649414	1152.469971
-6897.362766	6784.423333	1577.605469	1246.063721
-6897.362766	6784.423333	1576.561523	1039.807861
-6897.362766	6784.423333	1575.516602	993.800293
-6897.362766	6784.423333	1574.472656	1007.294617
-6897.362766	6784.423333	1573.427734	984.181396
-6897.362766	6784.423333	1572.381836	924.483643
-6897.362766	6784.423333	1571.336914	1045.437256
-6897.362766	6784.423333	1570.291016	869.168457
-6897.362766	6784.423333	1569.246094	839.245178
-6897.362766	6784.423333	1568.200195	861.886230
-6897.362766	6784.423333	1567.153320	717.739502
-6897.362766	6784.423333	1566.107422	662.738342
-6897.362766	6784.423333	1565.060547	811.004822
-6897.362766	6784.423333	1564.013672	614.445740
-6897.362766	6784.423333	1562.966797	589.176270
-6897.362766	6784.423333	1561.919922	461.214813
-6897.362766	6784.423333	1560.872070	490.754028
-6897.362766	6784.423333	1559.825195	568.201294
-6897.362766	6784.423333	1558.777344	645.618286
-6897.362766	6784.423333	1557.729492	520.039612
-6897.362766	6784.423333	1556.680664	499.396332
-6897.362766	6784.423333	1555.632813	396.704102
-6897.362766	6784.423333	1554.583984	576.676514
-6897.362766	6784.423333	1553.535156	460.344299
-6897.362766	6784.423333	1552.486328	453.424652
-6897.362766	6784.423333	1551.436523	564.958923
-6897.362766	6784.423333	1550.387695	211.869034
-6897.362766	6784.423333	1549.337891	359.854919
-6897.362766	6784.423333	1548.288086	318.839874
-6897.362766	6784.423333	1547.238281	475.868256
-6897.362766	6784.423333	1546.187500	514.507324
-6897.362766	6784.423333	1545.136719	266.467438
-6897.362766	6784.423333	1544.086914	291.508240
-6897.362766	6784.423333	1543.035156	346.106262
-6897.362766	6784.423333	1541.984375	243.803314
-6897.362766	6784.423333	1540.933594	507.568085
-6897.362766	6784.423333	1539.881836	309.828217
-6897.362766	6784.423333	1538.830078	234.893661
-6897.362766	6784.423333	1537.778320	237.250137
-6897.362766	6784.423333	1536.725586	378.181335
-6897.362766	6784.423333	1535.673828	375.993103
-6897.362766	6784.423333	1534.621094	332.941895
-6897.362766	6784.423333	1533.568359	351.218414
-6897.362766	6784.423333	1532.515625	265.091095
-6897.362766	6784.423333	1531.461914	335.593750
-6897.362766	6784.423333	1530.409180	260.878174
-6897.362766	6784.423333	1529.355469	351.800659
-6897.362766	6784.423333	1528.301758	426.826721
-6897.362766	6784.423333	1527.247070	399.795319
-6897.362766	6784.423333	1526.193359	411.336273
-6897.362766	6784.423333	1525.138672	280.085693
-6897.362766	6784.423333	1524.083984	407.253204
-6897.362766	6784.423333	1523.029297	341.798126
-6897.362766	6784.423333	1521.974609	299.040161
-6897.362766	6784.423333	1520.918945	623.223267
-6897.362766	6784.423333	1519.863281	562.344482
-6897.362766	6784.423333	1518.807617	533.205444
-6897.362766	6784.423333	1517.751953	454.299683
-6897.362766	6784.423333	1516.696289	757.905945
-6897.362766	6784.423333	1515.639648	751.427307
-6897.362766	6784.423333	1514.583008	901.062988
-6897.362766	6784.423333	1513.526367	942.098450
-6897.362766	6784.423333	1512.469727	983.137634
-6897.362766	6784.423333	1511.412109	1193.742920
-6897.362766	6784.423333	1510.355469	1130.782715
-6897.362766	6784.423333	1509.297852	1054.306396
-6897.362766	6784.423333	1508.240234	941.731750
-6897.362766	6784.423333	1507.181641	1265.217896
-6897.362766	6784.423333	1506.124023	897.470886
-6897.362766	6784.423333	1505.065430	873.130249
-6897.362766	6784.423333	1504.006836	607.248291
-6897.362766	6784.423333	1502.948242	625.911316
-6897.362766	6784.423333	1501.888672	382.799194
-6897.362766	6784.423333	1500.830078	191.708557
-6897.362766	6784.423333	1499.770508	235.331757
-6897.362766	6784.423333	1498.710938	170.701065
-6897.362766	6784.423333	1497.650391	167.005188
-6897.362766	6784.423333	1496.590820	260.288116
-6897.362766	6784.423333	1495.530273	186.752197
-6897.362766	6784.423333	1494.469727	165.107803
-6897.362766	6784.423333	1493.409180	166.032974
-6897.362766	6784.423333	1492.348633	25.060760
-6897.362766	6784.423333	1491.287109	80.122719
-6897.362766	6784.423333	1490.225586	101.413963
-6897.362766	6784.423333	1489.164063	-16.863043
-6897.362766	6784.423333	1488.102539	-110.302223
-6897.362766	6784.423333	1487.041016	133.907761
-6897.362766	6784.423333	1485.978516	-4.468857
-6897.362766	6784.423333	1484.916016	-142.753250
-6897.362766	6784.423333	1483.853516	-137.014450
-6897.362766	6784.423333	1482.791016	-66.023132
-6897.362766	6784.423333	1481.727539	-4.030125
-6897.362766	6784.423333	1480.664063	-47.665302
-6897.362766	6784.423333	1479.600586	-30.570454
-6897.362766	6784.423333	1478.537109	-2.268730
-6897.362766	6784.423333	1477.473633	-83.951736
-6897.362766	6784.423333	1476.409180	63.469719
-6897.362766	6784.423333	1475.344727	-49.521633
-6897.362766	6784.423333	1474.280273	30.517857
-6897.362766	6784.423333	1473.215820	88.269127
-6897.362766	6784.423333	1472.151367	150.352585
-6897.362766	6784.423333	1471.085938	145.160278
-6897.362766	6784.423333	1470.020508	63.912579
-6897.362766	6784.423333	1468.955078	193.290909
-6897.362766	6784.423333	1467.888672	168.176208
-6897.362766	6784.423333	1466.823242	116.096481
-6897.362766	6784.423333	1465.756836	135.859268
-6897.362766	6784.423333	1464.690430	202.489441
-6897.362766	6784.423333	1463.624023	191.136658
-6897.362766	6784.423333	1462.556641	235.405167
-6897.362766	6784.423333	1461.490234	262.097992
-6897.362766	6784.423333	1460.422852	250.878510
-6897.362766	6784.423333	1459.355469	273.001831
-6897.362766	6784.423333	1458.287109	96.275467
-6897.362766	6784.423333	1457.219727	216.297562
-6897.362766	6784.423333	1456.151367	256.362122
-6897.362766	6784.423333	1455.083008	423.933594
-6897.362766	6784.423333	1454.014648	272.621582
-6897.362766	6784.423333	1452.945313	307.549683
-6897.362766	6784.423333	1451.876953	294.962585
-6897.362766	6784.423333	1450.807617	29.306578
-6897.362766	6784.423333	1449.738281	294.976990
-6897.362766	6784.423333	1448.668945	167.459442
-6897.362766	6784.423333	1447.598633	160.194077
-6897.362766	6784.423333	1446.528320	89.427727
-6897.362766	6784.423333	1445.458008	136.936966
-6897.362766	6784.423333	1444.387695	-51.663242
-6897.362766	6784.423333	1443.317383	256.468567
-6897.362766	6784.423333	1442.246094	68.709328
-6897.362766	6784.423333	1441.174805	197.636673
-6897.362766	6784.423333	1440.103516	140.193680
-6897.362766	6784.423333	1439.032227	236.489410
-6897.362766	6784.423333	1437.960938	-65.822639
-6897.362766	6784.423333	1436.888672	92.858719
-6897.362766	6784.423333	1435.816406	129.849716
-6897.362766	6784.423333	1434.744141	156.971329
-6897.362766	6784.423333	1433.670898	230.836563
-6897.362766	6784.423333	1432.598633	-80.977364
-6897.362766	6784.423333	1431.525391	88.875595
-6897.362766	6784.423333	1430.452148	43.773449
-6897.362766	6784.423333	1429.378906	-31.053671
-6897.362766	6784.423333	1428.304688	-66.926636
-6897.362766	6784.423333	1427.231445	-5.768173
-6897.362766	6784.423333	1426.157227	51.800377
-6897.362766	6784.423333	1425.083008	78.283264
-6897.362766	6784.423333	1424.007813	69.655197
-6897.362766	6784.423333	1422.933594	-146.445404
-6897.362766	6784.423333	1421.858398	-160.592163
-6897.362766	6784.423333	1420.783203	36.121799
-6897.362766	6784.423333	1419.708008	2.097976
-6897.362766	6784.423333	1418.631836	-57.861107
-6897.362766	6784.423333	1417.555664	-46.968800
-6897.362766	6784.423333	1416.479492	180.205170
-6897.362766	6784.423333	1415.403320	-21.829811
-6897.362766	6784.423333	1414.327148	170.145096
-6897.362766	6784.423333	1413.250000	96.506363
-6897.362766	6784.423333	1412.173828	72.762611
-6897.362766	6784.423333	1411.096680	199.040726
-6897.362766	6784.423333	1410.018555	12.105087
-6897.362766	6784.423333	1408.941406	-41.271305
-6897.362766	6784.423333	1407.863281	101.570435
-6897.362766	6784.423333	1406.785156	241.177689
-6897.362766	6784.423333	1405.707031	213.607193
-6897.362766	6784.423333	1404.628906	120.077728
-6897.362766	6784.423333	1403.549805	189.642410
-6897.362766	6784.423333	1402.470703	266.732697
-6897.362766	6784.423333	1401.391602	98.410210
-6897.362766	6784.423333	1400.312500	127.836090
-6897.362766	6784.423333	1399.233398	260.202789
-6897.362766	6784.423333	1398.153320	118.683678
-6897.362766	6784.423333	1397.073242	348.670990
-6897.362766	6784.423333	1395.993164	268.846375
-6897.362766	6784.423333	1394.913086	305.609253
-6897.362766	6784.423333	1393.832031	323.269958
-6897.362766	6784.423333	1392.750977	206.749741
-6897.362766	6784.423333	1391.669922	332.523254
-6897.362766	6784.423333	1390.588867	332.484039
-6897.362766	6784.423333	1389.506836	386.823456
-6897.362766	6784.423333	1388.425781	456.025085
-6897.362766	6784.423333	1387.343750	413.075165
-6897.362766	6784.423333	1386.261719	449.933685
-6897.362766	6784.423333	1385.178711	348.439667
-6897.362766	6784.423333	1384.096680	366.968903
-6897.362766	6784.423333	1383.013672	234.290146
-6897.362766	6784.423333	1381.930664	156.345688
-6897.362766	6784.423333	1380.846680	251.228546
-6897.362766	6784.423333	1379.763672	394.647186
-6897.362766	6784.423333	1378.679688	247.030853
-6897.362766	6784.423333	1377.595703	314.004272
-6897.362766	6784.423333	1376.511719	274.641602
-6897.362766	6784.423333	1375.427734	357.506287
-6897.362766	6784.423333	1374.342773	223.008987
-6897.362766	6784.423333	1373.257813	274.187256
-6897.362766	6784.423333	1372.172852	274.256866
-6897.362766	6784.423333	1371.087891	296.152374
-6897.362766	6784.423333	1370.001953	347.142944
-6897.362766	6784.423333	1368.916992	203.652893
-6897.362766	6784.423333	1367.831055	344.648499
-6897.362766	6784.423333	1366.744141	328.103455
-6897.362766	6784.423333	1365.658203	196.026779
-6897.362766	6784.423333	1364.571289	260.843933
-6897.362766	6784.423333	1363.484375	348.859680
-6897.362766	6784.423333	1362.397461	279.953766
-6897.362766	6784.423333	1361.310547	195.084152
-6897.362766	6784.423333	1360.222656	179.372910
-6897.362766	6784.423333	1359.135742	181.145920
-6897.362766	6784.423333	1358.047852	397.924866
-6897.362766	6784.423333	1356.958984	408.274200
-6897.362766	6784.423333	1355.871094	378.025391
-6897.362766	6784.423333	1354.782227	376.724762
-6897.362766	6784.423333	1353.693359	396.661987
-6897.362766	6784.423333	1352.604492	389.869171
-6897.362766	6784.423333	1351.515625	360.807098
-6897.362766	6784.423333	1350.425781	356.230133
-6897.362766	6784.423333	1349.335938	466.886627
-6897.362766	6784.423333	1348.246094	227.532394
-6897.362766	6784.423333	1347.156250	299.903564
-6897.362766	6784.423333	1346.066406	209.499069
-6897.362766	6784.423333	1344.975586	404.220795
-6897.362766	6784.423333	1343.884766	267.070923
-6897.362766	6784.423333	1342.793945	265.728943
-6897.362766	6784.423333	1341.702148	381.820587
-6897.362766	6784.423333	1340.611328	396.968048
-6897.362766	6784.423333	1339.519531	365.126007
-6897.362766	6784.423333	1338.427734	167.156723
-6897.362766	6784.423333	1337.334961	214.329620
-6897.362766	6784.423333	1336.243164	164.916916
-6897.362766	6784.423333	1335.150391	410.683228
-6897.362766	6784.423333	1334.057617	294.218140
-6897.362766	6784.423333	1332.964844	370.286133
-6897.362766	6784.423333	1331.871094	290.510315
-6897.362766	6784.423333	1330.778320	112.782600
-6897.362766	6784.423333	1329.684570	299.314270
-6897.362766	6784.423333	1328.590820	165.612701
-6897.362766	6784.423333	1327.496094	229.244476
-6897.362766	6784.423333	1326.402344	383.026978
-6897.362766	6784.423333	1325.307617	232.266541
-6897.362766	6784.423333	1324.212891	296.021118
-6897.362766	6784.423333	1323.117188	190.932632
-6897.362766	6784.423333	1322.022461	179.616989
-6897.362766	6784.423333	1320.926758	185.277283
-6897.362766	6784.423333	1319.831055	255.517197
-6897.362766	6784.423333	1318.735352	191.296463
-6897.362766	6784.423333	1317.638672	201.127350
-6897.362766	6784.423333	1316.542969	267.420197
-6897.362766	6784.423333	1315.446289	230.779892
-6897.362766	6784.423333	1314.349609	312.665375
-6897.362766	6784.423333	1313.251953	270.494263
-6897.362766	6784.423333	1312.155273	293.286072
-6897.362766	6784.423333	1311.057617	309.392944
-6897.362766	6784.423333	1309.959961	458.240479
-6897.362766	6784.423333	1308.862305	399.984680
-6897.362766	6784.423333	1307.763672	435.660583
-6897.362766	6784.423333	1306.665039	275.419189
-6897.362766	6784.423333	1305.566406	366.219269
-6897.362766	6784.423333	1304.467773	328.870056
-6897.362766	6784.423333	1303.369141	401.162354
-6897.362766	6784.423333	1302.269531	404.774902
-6897.362766	6784.423333	1301.169922	543.889771
-6897.362766	6784.423333	1300.070313	589.033020
-6897.362766	6784.423333	1298.970703	574.887085
-6897.362766	6784.423333	1297.870117	534.819214
-6897.362766	6784.423333	1296.769531	684.984009
-6897.362766	6784.423333	1295.668945	675.805115
-6897.362766	6784.423333	1294.568359	751.444214
-6897.362766	6784.423333	1293.466797	747.328491
-6897.362766	6784.423333	1292.366211	769.888000
-6897.362766	6784.423333	1291.264648	839.050476
-6897.362766	6784.423333	1290.162109	772.586243
-6897.362766	6784.423333	1289.060547	902.939941
-6897.362766	6784.423333	1287.958008	817.656555
-6897.362766	6784.423333	1286.855469	721.525146
-6897.362766	6784.423333	1285.752930	701.825684
-6897.362766	6784.423333	1284.650391	557.970947
-6897.362766	6784.423333	1283.546875	395.568878
-6897.362766	6784.423333	1282.444336	581.537415
-6897.362766	6784.423333	1281.339844	368.388702
-6897.362766	6784.423333	1280.236328	376.229034
-6897.362766	6784.423333	1279.132813	321.445709
-6897.362766	6784.423333	1278.028320	322.838318
-6897.362766	6784.423333	1276.923828	252.943558
-6897.362766	6784.423333	1275.819336	197.319748
-6897.362766	6784.423333	1274.713867	120.009636
-6897.362766	6784.423333	1273.608398	-1.303591
-6897.362766	6784.423333	1272.503906	40.846828
-6897.362766	6784.423333	1271.397461	6.719878
-6897.362766	6784.423333	1270.291992	19.186752
-6897.362766	6784.423333	1269.185547	82.625473
-6897.362766	6784.423333	1268.080078	-66.649864
-6897.362766	6784.423333	1266.972656	-40.300846
-6897.362766	6784.423333	1265.866211	18.828049
-6897.362766	6784.423333	1264.759766	-71.128967
-6897.362766	6784.423333	1263.652344	-79.466789
-6897.362766	6784.423333	1262.544922	-76.916077
-6897.362766	6784.423333	1261.436523	48.367489
-6897.362766	6784.423333	1260.329102	22.710808
-6897.362766	6784.423333	1259.220703	23.523613
-6897.362766	6784.423333	1258.112305	-39.007889
-6897.362766	6784.423333	1257.003906	-10.976837
-6897.362766	6784.423333	1255.895508	53.624222
-6897.362766	6784.423333	1254.786133	161.984955
-6897.362766	6784.423333	1253.676758	87.765099
-6897.362766	6784.423333	1252.567383	-2.625062
-6897.362766	6784.423333	1251.458008	53.106091
-6897.362766	6784.423333	1250.347656	-55.032845
-6897.362766	6784.423333	1249.237305	23.021101
-6897.362766	6784.423333	1248.126953	61.365208
-6897.362766	6784.423333	1247.016602	11.416097
-6897.362766	6784.423333	1245.905273	37.644360
-6897.362766	6784.423333	1244.793945	25.594316
-6897.362766	6784.423333	1243.682617	66.324181
-6897.362766	6784.423333	1242.571289	166.627045
-6897.362766	6784.423333	1241.459961	71.002510
-6897.362766	6784.423333	1240.347656	174.934464
-6897.362766	6784.423333	1239.235352	169.332336
-6897.362766	6784.423333	1238.123047	227.101044
-6897.362766	6784.423333	1237.009766	229.487183
-6897.362766	6784.423333	1235.897461	177.808899
-6897.362766	6784.423333	1234.784180	84.505623
-6897.362766	6784.423333	1233.670898	331.906647
-6897.362766	6784.423333	1232.556641	31.768871
-6897.362766	6784.423333	1231.443359	83.048996
-6897.362766	6784.423333	1230.329102	171.739807
-6897.362766	6784.423333	1229.214844	148.746170
-6897.362766	6784.423333	1228.099609	-27.706135
-6897.362766	6784.423333	1226.985352	105.348694
-6897.362766	6784.423333	1225.870117	54.328362
-6897.362766	6784.423333	1224.754883	-13.769516
-6897.362766	6784.423333	1223.639648	98.363747
-6897.362766	6784.423333	1222.523438	127.828972
-6897.362766	6784.423333	1221.408203	108.921906
-6897.362766	6784.423333	1220.291992	214.297226
-6897.362766	6784.423333	1219.174805	126.902328
-6897.362766	6784.423333	1218.058594	139.611984
-6897.362766	6784.423333	1216.941406	-24.910742
-6897.362766	6784.423333	1215.824219	-130.246994
-6897.362766	6784.423333	1214.707031	-98.730148
-6897.362766	6784.423333	1213.589844	-76.593033
-6897.362766	6784.423333	1212.471680	-154.763519
-6897.362766	6784.423333	1211.353516	-34.377968
-6897.362766	6784.423333	1210.235352	-31.378159
-6897.362766	6784.423333	1209.117188	-104.227371
-6897.362766	6784.423333	1207.998047	-70.283150
-6897.362766	6784.423333	1206.878906	35.193615
-6897.362766	6784.423333	1205.759766	-72.165627
-6897.362766	6784.423333	1204.640625	5.756908
-6897.362766	6784.423333	1203.520508	-116.341599
-6897.362766	6784.423333	1202.401367	131.307388
-6897.362766	6784.423333	1201.281250	-76.576637
-6897.362766	6784.423333	1200.160156	-31.667397
-6897.362766	6784.423333	1199.040039	-25.559658
-6897.362766	6784.423333	1197.918945	-65.438698
-6897.362766	6784.423333	1196.797852	-98.523972
-6897.362766	6784.423333	1195.676758	-35.900826
-6897.362766	6784.423333	1194.555664	25.499220
-6897.362766	6784.423333	1193.433594	109.766953
-6897.362766	6784.423333	1192.311523	35.841110
-6897.362766	6784.423333	1191.189453	-69.381721
-6897.362766	6784.423333	1190.066406	1.452461
-6897.362766	6784.423333	1188.944336	185.340591
-6897.362766	6784.423333	1187.821289	98.676598
-6897.362766	6784.423333	1186.698242	29.469007
-6897.362766	6784.423333	1185.574219	-37.074158
-6897.362766	6784.423333	1184.451172	-154.152756
-6897.362766	6784.423333	1183.327148	-118.986130
-6897.362766	6784.423333	1182.203125	-44.525703
-6897.362766	6784.423333	1181.078125	82.074738
-6897.362766	6784.423333	1179.954102	-54.101971
-6897.362766	6784.423333	1178.829102	-114.120842
-6897.362766	6784.423333	1177.704102	-43.953323
-6897.362766	6784.423333	1176.579102	-56.038265
-6897.362766	6784.423333	1175.453125	21.703472
-6897.362766	6784.423333	1174.327148	-5.255231
-6897.362766	6784.423333	1173.201172	48.995426
-6897.362766	6784.423333	1172.075195	-50.717274
-6897.362766	6784.423333	1170.949219	61.027214
-6897.362766	6784.423333	1169.822266	-37.063564
-6897.362766	6784.423333	1168.695313	-121.476181
-6897.362766	6784.423333	1167.568359	-92.758354
-6897.362766	6784.423333	1166.440430	-40.222057
-6897.362766	6784.423333	1165.313477	-118.176498
-6897.362766	6784.423333	1164.185547	-82.407410
-6897.362766	6784.423333	1163.057617	-37.199680
-6897.362766	6784.423333	1161.928711	-136.666092
-6897.362766	6784.423333	1160.800781	-68.966881
-6897.362766	6784.423333	1159.671875	-75.296486
-6897.362766	6784.423333	1158.541992	-76.118645
-6897.362766	6784.423333	1157.413086	-25.916311
-6897.362766	6784.423333	1156.283203	166.655594
-6897.362766	6784.423333	1155.154297	-17.926386
-6897.362766	6784.423333	1154.023438	0.497092
-6897.362766	6784.423333	1152.893555	0.520430
-6897.362766	6784.423333	1151.763672	-36.472092
-6897.362766	6784.423333	1150.632813	-32.373550
-6897.362766	6784.423333	1149.501953	-35.023449
-6897.362766	6784.423333	1148.370117	-81.508728
-6897.362766	6784.423333	1147.239258	35.142860
-6897.362766	6784.423333	1146.107422	-73.370667
-6897.362766	6784.423333	1144.975586	-49.161232
-6897.362766	6784.423333	1143.843750	35.349957
-6897.362766	6784.423333	1142.710938	-64.071533
-6897.362766	6784.423333	1141.578125	-39.802715
-6897.362766	6784.423333	1140.445313	-68.003571
-6897.362766	6784.423333	1139.312500	39.381275
-6897.362766	6784.423333	1138.178711	101.949394
-6897.362766	6784.423333	1137.045898	6.604866
-6897.362766	6784.423333	1135.912109	-55.409527
-6897.362766	6784.423333	1134.777344	65.995255
-6897.362766	6784.423333	1133.643555	20.186743
-6897.362766	6784.423333	1132.508789	121.607857
-6897.362766	6784.423333	1131.374023	140.483261
-6897.362766	6784.423333	1130.239258	294.789703
-6897.362766	6784.423333	1129.104492	252.145111
-6897.362766	6784.423333	1127.968750	277.286591
-6897.362766	6784.423333	1126.833008	295.776794
-6897.362766	6784.423333	1125.697266	105.311684
-6897.362766	6784.423333	1124.560547	41.812489
-6897.362766	6784.423333	1123.424805	62.337879
-6897.362766	6784.423333	1122.288086	57.426304
-6897.362766	6784.423333	1121.151367	96.184860
-6897.362766	6784.423333	1120.013672	-36.190872
-6897.362766	6784.423333	1118.876953	49.460915
-6897.362766	6784.423333	1117.739258	161.988632
-6897.362766	6784.423333	1116.601563	33.500919
-6897.362766	6784.423333	1115.462891	19.604919
-6897.362766	6784.423333	1114.324219	-82.816780
-6897.362766	6784.423333	1113.186523	3.311355
-6897.362766	6784.423333	1112.046875	28.486927
-6897.362766	6784.423333	1110.908203	91.491669
-6897.362766	6784.423333	1109.769531	50.840416
-6897.362766	6784.423333	1108.629883	87.532829
-6897.362766	6784.423333	1107.490234	-4.962449
-6897.362766	6784.423333	1106.349609	107.972366
-6897.362766	6784.423333	1105.209961	50.137180
-6897.362766	6784.423333	1104.069336	132.530960
-6897.362766	6784.423333	1102.928711	-52.768684
-6897.362766	6784.423333	1101.787109	68.130882
-6897.362766	6784.423333	1100.646484	49.683510
-6897.362766	6784.423333	1099.504883	94.042839
-6897.362766	6784.423333	1098.363281	106.692314
-6897.362766	6784.423333	1097.221680	66.104889
-6897.362766	6784.423333	1096.079102	51.487106
-6897.362766	6784.423333	1094.936523	72.475784
-6897.362766	6784.423333	1093.793945	108.451607
-6897.362766	6784.423333	1092.651367	172.457855
-6897.362766	6784.423333	1091.507813	55.269390
-6897.362766	6784.423333	1090.364258	114.143707
-6897.362766	6784.423333	1089.220703	120.924873
-6897.362766	6784.423333	1088.077148	-31.233438
-6897.362766	6784.423333	1086.933594	56.776516
-6897.362766	6784.423333	1085.789063	101.551773
-6897.362766	6784.423333	1084.644531	44.011078
-6897.362766	6784.423333	1083.499023	-8.647492
-6897.362766	6784.423333	1082.354492	142.622345
-6897.362766	6784.423333	1081.208984	134.439026
-6897.362766	6784.423333	1080.063477	126.278534
-6897.362766	6784.423333	1078.917969	-12.724509
-6897.362766	6784.423333	1077.771484	30.990694
-6897.362766	6784.423333	1076.625977	78.956467
-6897.362766	6784.423333	1075.479492	128.054276
-6897.362766	6784.423333	1074.332031	13.101797
-6897.362766	6784.423333	1073.185547	121.056801
-6897.362766	6784.423333	1072.038086	25.530602
-6897.362766	6784.423333	1070.890625	-95.100250
-6897.362766	6784.423333	1069.743164	-75.118088
-6897.362766	6784.423333	1068.594727	253.469879
-6897.362766	6784.423333	1067.447266	28.356968
-6897.362766	6784.423333	1066.298828	72.746605
-6897.362766	6784.423333	1065.149414	88.208961
-6897.362766	6784.423333	1064.000977	188.178207
-6897.362766	6784.423333	1062.851563	291.500732
-6897.362766	6784.423333	1061.702148	184.445343
-6897.362766	6784.423333	1060.552734	157.099380
-6897.362766	6784.423333	1059.402344	48.383720
-6897.362766	6784.423333	1058.252930	373.963226
-6897.362766	6784.423333	1057.102539	337.488281
-6897.362766	6784.423333	1055.951172	151.398239
-6897.362766	6784.423333	1054.800781	222.748215
-6897.362766	6784.423333	1053.649414	322.425812
-6897.362766	6784.423333	1052.498047	92.073578
-6897.362766	6784.423333	1051.346680	105.453178
-6897.362766	6784.423333	1050.194336	210.626938
-6897.362766	6784.423333	1049.042969	71.129257
-6897.362766	6784.423333	1047.890625	61.661472
-6897.362766	6784.423333	1046.738281	3.790570
-6897.362766	6784.423333	1045.584961	169.237991
-6897.362766	6784.423333	1044.431641	62.308586
-6897.362766	6784.423333	1043.278320	-35.039677
-6897.362766	6784.423333	1042.125000	31.568682
-6897.362766	6784.423333	1040.971680	62.160992
-6897.362766	6784.423333	1039.817383	60.068462
-6897.362766	6784.423333	1038.663086	136.465195
-6897.362766	6784.423333	1037.508789	119.562622
-6897.362766	6784.423333	1036.353516	288.474121
-6897.362766	6784.423333	1035.198242	243.594543
-6897.362766	6784.423333	1034.042969	305.071899
-6897.362766	6784.423333	1032.887695	408.527222
-6897.362766	6784.423333	1031.732422	286.694000
-6897.362766	6784.423333	1030.576172	238.776779
-6897.362766	6784.423333	1029.419922	194.948898
-6897.362766	6784.423333	1028.263672	315.006775
-6897.362766	6784.423333	1027.106445	206.267731
-6897.362766	6784.423333	1025.949219	34.688385
-6897.362766	6784.423333	1024.792969	221.221497
-6897.362766	6784.423333	1023.634766	-17.507717
-6897.362766	6784.423333	1022.477539	102.513298
-6897.362766	6784.423333	1021.319336	93.436172
-6897.362766	6784.423333	1020.161133	56.254715
-6897.362766	6784.423333	1019.002930	28.177486
-6897.362766	6784.423333	1017.843750	243.701859
-6897.362766	6784.423333	1016.684570	186.220642
-6897.362766	6784.423333	1015.525391	173.012222
-6897.362766	6784.423333	1014.366211	119.290054
-6897.362766	6784.423333	1013.207031	328.586914
-6897.362766	6784.423333	1012.046875	114.781387
-6897.362766	6784.423333	1010.886719	9.372917
-6897.362766	6784.423333	1009.726563	40.744858
-6897.362766	6784.423333	1008.565430	58.512600
-6897.362766	6784.423333	1007.404297	-55.842945
-6897.362766	6784.423333	1006.243164	-141.854416
-6897.362766	6784.423333	1005.082031	30.731211
-6897.362766	6784.423333	1003.920898	-37.200249
-6897.362766	6784.423333	1002.758789	6.458214
-6897.362766	6784.423333	1001.596680	6.103148
-6897.362766	6784.423333	1000.433594	53.169159
-6897.362766	6784.423333	999.271484	97.909378
-6897.362766	6784.423333	998.108398	35.652363
-6897.362766	6784.423333	996.945313	115.239105
-6897.362766	6784.423333	995.782227	98.224892
-6897.362766	6784.423333	994.618164	93.629669
-6897.362766	6784.423333	993.454102	-139.566345
-6897.362766	6784.423333	992.290039	201.255127
-6897.362766	6784.423333	991.125977	80.799774
-6897.362766	6784.423333	989.960938	131.230057
-6897.362766	6784.423333	988.796875	-48.576504
-6897.362766	6784.423333	987.630859	263.759338
-6897.362766	6784.423333	986.465820	-0.286917
-6897.362766	6784.423333	985.300781	33.751881
-6897.362766	6784.423333	984.134766	87.314003
-6897.362766	6784.423333	982.968750	121.235313
-6897.362766	6784.423333	981.801758	32.935993
-6897.362766	6784.423333	980.635742	65.275787
-6897.362766	6784.423333	979.468750	13.783355
-6897.362766	6784.423333	978.301758	-22.074968
-6897.362766	6784.423333	977.133789	88.918770
-6897.362766	6784.423333	975.966797	192.308548
-6897.362766	6784.423333	974.798828	-53.419567
-6897.362766	6784.423333	973.630859	13.818000
-6897.362766	6784.423333	972.461914	-49.709095
-6897.362766	6784.423333	971.293945	76.923660
-6897.362766	6784.423333	970.125000	45.736343
-6897.362766	6784.423333	968.956055	-199.903671
-6897.362766	6784.423333	967.786133	-28.528547
-6897.362766	6784.423333	966.617188	1.743386
-6897.362766	6784.423333	965.447266	-111.932167
-6897.362766	6784.423333	964.276367	-78.278740
-6897.362766	6784.423333	963.106445	-147.860336
-6897.362766	6784.423333	961.935547	-122.805527
-6897.362766	6784.423333	960.764648	-14.782469
-6897.362766	6784.423333	959.593750	-151.157700
-6897.362766	6784.423333	958.422852	-9.614141
-6897.362766	6784.423333	957.250977	-114.240288
-6897.362766	6784.423333	956.079102	-151.502533
-6897.362766	6784.423333	954.907227	31.411785
-6897.362766	6784.423333	953.734375	-49.735752
-6897.362766	6784.423333	952.562500	-0.235399
-6897.362766	6784.423333	951.389648	-29.579309
-6897.362766	6784.423333	950.215820	-46.093529
-6897.362766	6784.423333	949.042969	29.270649
-6897.362766	6784.423333	947.869141	10.103499
-6897.362766	6784.423333	946.695313	8.747831
-6897.362766	6784.423333	945.521484	22.595909
-6897.362766	6784.423333	944.346680	-99.244125
-6897.362766	6784.423333	943.172852	-28.733654
-6897.362766	6784.423333	941.998047	-40.347008
-6897.362766	6784.423333	940.822266	-36.944893
-6897.362766	6784.423333	939.647461	-8.021329
-6897.362766	6784.423333	938.471680	16.102600
-6897.362766	6784.423333	937.295898	-26.421585
-6897.362766	6784.423333	936.119141	-38.250965
-6897.362766	6784.423333	934.943359	131.732361
-6897.362766	6784.423333	933.766602	32.844906
-6897.362766	6784.423333	932.589844	166.902786
-6897.362766	6784.423333	931.413086	91.073669
-6897.362766	6784.423333	930.235352	40.650593
-6897.362766	6784.423333	929.057617	18.522001
-6897.362766	6784.423333	927.879883	208.823318
-6897.362766	6784.423333	926.702148	184.087433
-6897.362766	6784.423333	925.523438	26.219173
-6897.362766	6784.423333	924.344727	218.992752
-6897.362766	6784.423333	923.166016	125.122215
-6897.362766	6784.423333	921.987305	69.647781
-6897.362766	6784.423333	920.807617	78.120201
-6897.362766	6784.423333	919.627930	80.231239
-6897.362766	6784.423333	919.497070	61.239552
-6897.362766	6784.423333	918.331055	-9.596443
-6897.362766	6784.423333	917.165039	-93.197433
-6897.362766	6784.423333	915.999023	81.340553
-6897.362766	6784.423333	914.833008	-132.580948
-6897.362766	6784.423333	913.666016	149.162949
-6897.362766	6784.423333	912.499023	-72.371651
-6897.362766	6784.423333	911.332031	-5.277386
-6897.362766	6784.423333	910.165039	-53.108768
-6897.362766	6784.423333	908.997070	-47.328838
-6897.362766	6784.423333	907.830078	29.890814
-6897.362766	6784.423333	906.661133	96.864815
-6897.362766	6784.423333	905.493164	-93.847610
-6897.362766	6784.423333	904.325195	3.704545
-6897.362766	6784.423333	903.156250	27.259855
-6897.362766	6784.423333	901.987305	-69.027382
-6897.362766	6784.423333	900.818359	-180.578888
-6897.362766	6784.423333	899.648438	-24.517931
-6897.362766	6784.423333	898.478516	190.068588
-6897.362766	6784.423333	897.308594	200.772629
-6897.362766	6784.423333	896.138672	224.195419
-6897.362766	6784.423333	894.968750	334.171570
-6897.362766	6784.423333	893.797852	291.348724
-6897.362766	6784.423333	892.626953	279.076111
-6897.362766	6784.423333	891.456055	360.952972
-6897.362766	6784.423333	890.284180	254.518066
-6897.362766	6784.423333	889.113281	150.658661
-6897.362766	6784.423333	887.941406	255.372498
-6897.362766	6784.423333	886.768555	263.415558
-6897.362766	6784.423333	885.596680	134.169785
-6897.362766	6784.423333	884.423828	129.507889
-6897.362766	6784.423333	883.250977	142.626251
-6897.362766	6784.423333	882.078125	229.406372
-6897.362766	6784.423333	880.905273	181.520248
-6897.362766	6784.423333	879.731445	270.779968
-6897.362766	6784.423333	878.557617	88.321899
-6897.362766	6784.423333	877.383789	-129.608704
-6897.362766	6784.423333	876.209961	122.064445
-6897.362766	6784.423333	875.035156	66.597244
-6897.362766	6784.423333	873.860352	-11.687874
-6897.362766	6784.423333	872.685547	138.327362
-6897.362766	6784.423333	871.510742	-185.937500
-6897.362766	6784.423333	870.334961	50.240196
-6897.362766	6784.423333	869.159180	70.851364
-6897.362766	6784.423333	867.983398	93.980568
-6897.362766	6784.423333	866.807617	-126.152847
-6897.362766	6784.423333	865.630859	16.058502
-6897.362766	6784.423333	864.454102	-90.007736
-6897.362766	6784.423333	863.277344	-140.328033
-6897.362766	6784.423333	862.100586	-162.786102
-6897.362766	6784.423333	860.922852	-5.524579
-6897.362766	6784.423333	859.745117	37.783897
-6897.362766	6784.423333	858.567383	73.477791
-6897.362766	6784.423333	857.389648	109.149445
-6897.362766	6784.423333	856.210938	53.751896
-6897.362766	6784.423333	855.032227	46.414276
-6897.362766	6784.423333	853.853516	-11.488843
-6897.362766	6784.423333	852.674805	-49.154659
-6897.362766	6784.423333	851.495117	158.314636
-6897.362766	6784.423333	850.315430	67.559914
-6897.362766	6784.423333	849.135742	39.986977
-6897.362766	6784.423333	847.956055	22.520195
-6897.362766	6784.423333	846.775391	-63.118427
-6897.362766	6784.423333	845.595703	88.569611
-6897.362766	6784.423333	844.415039	-50.063534
-6897.362766	6784.423333	843.233398	-59.949978
-6897.362766	6784.423333	842.052734	10.893186
-6897.362766	6784.423333	840.871094	81.702339
-6897.362766	6784.423333	839.689453	-21.533489
-6897.362766	6784.423333	838.506836	6.378826
-6897.362766	6784.423333	837.325195	-154.790665
-6897.362766	6784.423333	836.142578	200.766129
-6897.362766	6784.423333	834.959961	24.492836
-6897.362766	6784.423333	833.777344	52.347473
-6897.362766	6784.423333	832.593750	49.960136
-6897.362766	6784.423333	831.410156	-75.825645
-6897.362766	6784.423333	830.226563	85.453987
-6897.362766	6784.423333	829.042969	47.801956
-6897.362766	6784.423333	827.858398	-32.623352
-6897.362766	6784.423333	826.673828	35.432243
-6897.362766	6784.423333	825.489258	-155.658722
-6897.362766	6784.423333	824.304688	-37.316196
-6897.362766	6784.423333	823.120117	-92.536781
-6897.362766	6784.423333	821.934570	76.013634
-6897.362766	6784.423333	820.749023	-87.302841
-6897.362766	6784.423333	819.562500	40.956760
-6897.362766	6784.423333	818.376953	-51.947647
-6897.362766	6784.423333	817.190430	10.926082
-6897.362766	6784.423333	816.003906	-71.899796
-6897.362766	6784.423333	814.817383	6.004354
-6897.362766	6784.423333	813.629883	-109.434647
-6897.362766	6784.423333	812.442383	-29.057318
-6897.362766	6784.423333	811.254883	21.167025
-6897.362766	6784.423333	810.067383	66.345253
-6897.362766	6784.423333	808.878906	-69.104645
-6897.362766	6784.423333	807.690430	-151.840561
-6897.362766	6784.423333	806.501953	-51.512985
-6897.362766	6784.423333	805.313477	-38.973557
-6897.362766	6784.423333	804.124023	-61.533810
-6897.362766	6784.423333	802.934570	38.691326
-6897.362766	6784.423333	801.745117	-16.459383
-6897.362766	6784.423333	800.555664	-171.785843
-6897.362766	6784.423333	799.365234	-129.219254
-6897.362766	6784.423333	798.175781	83.573151
-6897.362766	6784.423333	796.985352	43.447338
-6897.362766	6784.423333	795.793945	35.865555
-6897.362766	6784.423333	794.603516	-39.280781
-6897.362766	6784.423333	793.412109	-29.347700
-6897.362766	6784.423333	792.220703	10.586511
-6897.362766	6784.423333	791.028320	78.002678
-6897.362766	6784.423333	789.836914	60.378189
-6897.362766	6784.423333	788.644531	37.753918
-6897.362766	6784.423333	787.452148	97.598465
-6897.362766	6784.423333	786.258789	7.497098
-6897.362766	6784.423333	785.066406	-82.577141
-6897.362766	6784.423333	783.873047	4.700230
-6897.362766	6784.423333	782.679688	-30.420921
-6897.362766	6784.423333	781.485352	-80.515526
-6897.362766	6784.423333	780.291992	9.172705
-6897.362766	6784.423333	779.097656	18.960361
-6897.362766	6784.423333	777.903320	121.045082
-6897.362766	6784.423333	776.708008	-91.215988
-6897.362766	6784.423333	775.512695	-71.469444
-6897.362766	6784.423333	774.318359	-69.196808
-6897.362766	6784.423333	773.122070	72.664391
-6897.362766	6784.423333	771.926758	39.991714
-6897.362766	6784.423333	770.730469	102.010307
-6897.362766	6784.423333	769.534180	343.363159
-6897.362766	6784.423333	768.337891	235.896713
-6897.362766	6784.423333	767.141602	305.269501
-6897.362766	6784.423333	765.944336	347.214966
-6897.362766	6784.423333	764.747070	414.022125
-6897.362766	6784.423333	763.549805	498.208832
-6897.362766	6784.423333	762.351563	281.279022
-6897.362766	6784.423333	761.154297	173.881851
-6897.362766	6784.423333	759.956055	51.593262
-6897.362766	6784.423333	758.757813	143.191086
-6897.362766	6784.423333	757.558594	80.598663
-6897.362766	6784.423333	756.359375	5.589891
-6897.362766	6784.423333	755.160156	64.791489
-6897.362766	6784.423333	753.960938	196.004959
-6897.362766	6784.423333	752.761719	317.212006
-6897.362766	6784.423333	751.561523	204.903702
-6897.362766	6784.423333	750.361328	137.319397
-6897.362766	6784.423333	749.160156	136.775360
-6897.362766	6784.423333	747.959961	113.876480
-6897.362766	6784.423333	746.758789	123.229713
-6897.362766	6784.423333	745.557617	70.538742
-6897.362766	6784.423333	744.356445	216.285721
-6897.362766	6784.423333	743.154297	99.085678
-6897.362766	6784.423333	741.952148	276.962646
-6897.362766	6784.423333	740.750000	-41.024574
-6897.362766	6784.423333	739.547852	54.985065
-6897.362766	6784.423333	738.344727	168.281326
-6897.362766	6784.423333	737.142578	229.487427
-6897.362766	6784.423333	735.939453	40.493206
-6897.362766	6784.423333	734.735352	91.756836
-6897.362766	6784.423333	733.532227	145.454330
-6897.362766	6784.423333	732.328125	97.625351
-6897.362766	6784.423333	731.124023	121.561623
-6897.362766	6784.423333	729.918945	155.364807
-6897.362766	6784.423333	728.714844	253.447845
-6897.362766	6784.423333	727.509766	284.692566
-6897.362766	6784.423333	726.303711	63.692818
-6897.362766	6784.423333	725.098633	-1.492802
-6897.362766	6784.423333	723.892578	64.322075
-6897.362766	6784.423333	722.686523	65.837975
-6897.362766	6784.423333	721.480469	30.271372
-6897.362766	6784.423333	720.274414	51.507214
-6897.362766	6784.423333	719.067383	77.649406
-6897.362766	6784.423333	717.860352	-91.296272
-6897.362766	6784.423333	716.653320	6.402752
-6897.362766	6784.423333	715.445313	52.208740
-6897.362766	6784.423333	714.238281	-35.274006
-6897.362766	6784.423333	713.030273	10.470616
-6897.362766	6784.423333	711.821289	-192.941071
-6897.362766	6784.423333	710.613281	-46.132195
-6897.362766	6784.423333	709.404297	-195.260590
-6897.362766	6784.423333	708.195313	-68.285202
-6897.362766	6784.423333	706.986328	6.857141
-6897.362766	6784.423333	705.776367	-95.456947
-6897.362766	6784.423333	704.566406	-3.152638
-6897.362766	6784.423333	703.356445	84.158905
-6897.362766	6784.423333	702.146484	55.676571
-6897.362766	6784.423333	700.935547	22.253454
-6897.362766	6784.423333	699.724609	-134.248901
-6897.362766	6784.423333	698.513672	164.525131
-6897.362766	6784.423333	697.302734	106.408226
-6897.362766	6784.423333	696.090820	-0.909197
-6897.362766	6784.423333	694.878906	12.288487
-6897.362766	6784.423333	693.666992	72.164536
-6897.362766	6784.423333	692.455078	-94.167618
-6897.362766	6784.423333	691.242188	17.252369
-6897.362766	6784.423333	690.029297	-134.320221
-6897.362766	6784.423333	688.816406	82.631859
-6897.362766	6784.423333	687.602539	115.250999
-6897.362766	6784.423333	686.389648	179.746567
-6897.362766	6784.423333	685.175781	187.714172
-6897.362766	6784.423333	683.960938	72.916122
-6897.362766	6784.423333	682.747070	171.633713
-6897.362766	6784.423333	681.532227	181.948242
-6897.362766	6784.423333	680.317383	118.632797
-6897.362766	6784.423333	679.102539	119.073296
-6897.362766	6784.423333	677.886719	53.274212
-6897.362766	6784.423333	676.670898	166.423279
-6897.362766	6784.423333	675.455078	208.411316
-6897.362766	6784.423333	674.239258	105.769257
-6897.362766	6784.423333	673.022461	204.025894
-6897.362766	6784.423333	671.805664	74.409622
-6897.362766	6784.423333	670.588867	101.538773
-6897.362766	6784.423333	669.372070	101.686516
-6897.362766	6784.423333	668.154297	57.734058
-6897.362766	6784.423333	666.936523	84.733643
-6897.362766	6784.423333	665.718750	106.789482
-6897.362766	6784.423333	664.500977	99.441330
-6897.362766	6784.423333	663.282227	197.224609
-6897.362766	6784.423333	662.063477	91.969505
-6897.362766	6784.423333	660.844727	214.080063
-6897.362766	6784.423333	659.625000	-15.871295
-6897.362766	6784.423333	658.405273	137.896912
-6897.362766	6784.423333	657.185547	57.011879
-6897.362766	6784.423333	655.965820	159.320999
-6897.362766	6784.423333	654.745117	122.340950
-6897.362766	6784.423333	653.525391	212.301300
-6897.362766	6784.423333	652.303711	-37.138180
-6897.362766	6784.423333	651.083008	-52.214375
-6897.362766	6784.423333	649.861328	198.643234
-6897.362766	6784.423333	648.640625	66.337875
-6897.362766	6784.423333	647.417969	36.483494
-6897.362766	6784.423333	646.196289	162.667862
-6897.362766	6784.423333	644.973633	-33.068047
-6897.362766	6784.423333	643.750977	173.426834
-6897.362766	6784.423333	642.528320	109.282188
-6897.362766	6784.423333	641.305664	76.794701
-6897.362766	6784.423333	640.082031	49.146709
-6897.362766	6784.423333	638.858398	57.997730
-6897.362766	6784.423333	637.634766	35.145935
-6897.362766	6784.423333	636.410156	-16.956419
-6897.362766	6784.423333	635.185547	40.444065
-6897.362766	6784.423333	633.960938	97.774483
-6897.362766	6784.423333	632.736328	103.944351
-6897.362766	6784.423333	631.510742	0.607474
-6897.362766	6784.423333	630.285156	57.770832
-6897.362766	6784.423333	629.059570	-65.055931
-6897.362766	6784.423333	627.833984	106.253029
-6897.362766	6784.423333	626.607422	126.761078
-6897.362766	6784.423333	625.380859	132.635513
-6897.362766	6784.423333	624.154297	36.430935
-6897.362766	6784.423333	622.927734	112.661880
-6897.362766	6784.423333	621.700195	55.258305
-6897.362766	6784.423333	620.472656	141.067368
-6897.362766	6784.423333	619.245117	18.052368
-6897.362766	6784.423333	618.016602	-5.465231
-6897.362766	6784.423333	616.788086	34.060108
-6897.362766	6784.423333	615.559570	61.392498
-6897.362766	6784.423333	614.331055	137.169098
-6897.362766	6784.423333	613.101563	-41.723797
-6897.362766	6784.423333	611.872070	31.520254
-6897.362766	6784.423333	610.642578	0.469600
-6897.362766	6784.423333	609.413086	-171.155060
-6897.362766	6784.423333	608.182617	-156.218552
-6897.362766	6784.423333	606.952148	-49.297539
-6897.362766	6784.423333	605.721680	-7.852441
-6897.362766	6784.423333	604.491211	-0.367619
-6897.362766	6784.423333	603.259766	-21.982412
-6897.362766	6784.423333	602.028320	-65.416862
-6897.362766	6784.423333	600.796875	-2.422865
-6897.362766	6784.423333	599.564453	65.331337
-6897.362766	6784.423333	598.332031	-7.261855
-6897.362766	6784.423333	597.099609	-55.693085
-6897.362766	6784.423333	595.867188	7.050421
-6897.362766	6784.423333	594.633789	-116.386696
-6897.362766	6784.423333	593.400391	-48.922882
-6897.362766	6784.423333	592.166992	-78.171318
-6897.362766	6784.423333	590.933594	-73.639702
-6897.362766	6784.423333	589.699219	-25.693258
-6897.362766	6784.423333	588.464844	-21.272730
-6897.362766	6784.423333	587.230469	118.272911
-6897.362766	6784.423333	585.995117	-27.063263
-6897.362766	6784.423333	584.760742	25.468855
-6897.362766	6784.423333	583.525391	58.629673
-6897.362766	6784.423333	582.289063	-7.156422
-6897.362766	6784.423333	581.053711	-80.191833
-6897.362766	6784.423333	579.817383	162.561508
-6897.362766	6784.423333	578.581055	21.938110
-6897.362766	6784.423333	577.343750	-43.973907
-6897.362766	6784.423333	576.107422	-54.488838
-6897.362766	6784.423333	574.870117	12.029760
-6897.362766	6784.423333	573.631836	109.776848
-6897.362766	6784.423333	572.394531	75.018440
-6897.362766	6784.423333	571.156250	-75.316727
-6897.362766	6784.423333	569.917969	-45.135513
-6897.362766	6784.423333	568.679688	-108.850746
-6897.362766	6784.423333	567.440430	154.575180
-6897.362766	6784.423333	566.202148	-154.563980
-6897.362766	6784.423333	564.961914	77.407913
-6897.362766	6784.423333	563.722656	102.490601
-6897.362766	6784.423333	562.482422	53.004978
-6897.362766	6784.423333	561.243164	92.413536
-6897.362766	6784.423333	560.001953	189.415024
-6897.362766	6784.423333	558.761719	91.773254
-6897.362766	6784.423333	557.520508	44.558411
-6897.362766	6784.423333	556.279297	167.791321
-6897.362766	6784.423333	555.038086	72.486465
-6897.362766	6784.423333	553.795898	3.576708
-6897.362766	6784.423333	552.554688	145.810181
-6897.362766	6784.423333	551.311523	-134.277573
-6897.362766	6784.423333	550.069336	-64.113464
-6897.362766	6784.423333	548.826172	-73.154541
-6897.362766	6784.423333	547.583984	99.974548
-6897.362766	6784.423333	546.339844	38.087337
-6897.362766	6784.423333	545.096680	55.271450
-6897.362766	6784.423333	543.852539	96.364052
-6897.362766	6784.423333	542.608398	-27.877806
-6897.362766	6784.423333	541.364258	-17.994253
-6897.362766	6784.423333	540.119141	-63.226044
-6897.362766	6784.423333	538.875000	42.337738
-6897.362766	6784.423333	537.628906	-41.258957
-6897.362766	6784.423333	536.383789	16.321608
-6897.362766	6784.423333	535.137695	-12.284442
-6897.362766	6784.423333	533.892578	4.533746
-6897.362766	6784.423333	532.645508	-16.959488
-6897.362766	6784.423333	531.399414	-43.255676
-6897.362766	6784.423333	530.152344	-16.994764
-6897.362766	6784.423333	528.905273	-76.808556
-6897.362766	6784.423333	527.658203	-170.078964
-6897.362766	6784.423333	526.410156	-79.420029
-6897.362766	6784.423333	525.163086	-127.341187
-6897.362766	6784.423333	523.914063	-65.452126
-6897.362766	6784.423333	522.666016	39.350853
-6897.362766	6784.423333	521.416992	34.288288
-6897.362766	6784.423333	520.167969	-23.298798
-6897.362766	6784.423333	518.918945	-37.951019
-6897.362766	6784.423333	517.669922	109.558098
-6897.362766	6784.423333	516.419922	-179.408173
-6897.362766	6784.423333	515.169922	-108.287064
-6897.362766	6784.423333	513.919922	-125.417557
-6897.362766	6784.423333	512.668945	-47.253342
-6897.362766	6784.423333	511.417969	-152.606125
-6897.362766	6784.423333	510.166992	8.842813
-6897.362766	6784.423333	508.916016	-113.204025
-6897.362766	6784.423333	507.664063	-206.659424
-6897.362766	6784.423333	506.412109	114.100967
-6897.362766	6784.423333	505.160156	-43.677387
-6897.362766	6784.423333	503.907227	67.458344
-6897.362766	6784.423333	502.655273	128.567261
-6897.362766	6784.423333	501.402344	-43.468269
-6897.362766	6784.423333	500.148438	-13.337961
-6897.362766	6784.423333	498.895508	42.909927
-6897.362766	6784.423333	497.641602	-57.772072
-6897.362766	6784.423333	496.387695	-220.222427
-6897.362766	6784.423333	495.132813	-42.883556
-6897.362766	6784.423333	493.878906	-131.681564
-6897.362766	6784.423333	492.624023	-75.605522
-6897.362766	6784.423333	491.368164	18.405201
-6897.362766	6784.423333	490.113281	-72.802505
-6897.362766	6784.423333	488.857422	-26.348257
-6897.362766	6784.423333	487.601563	-98.578850
-6897.362766	6784.423333	486.344727	47.442440
-6897.362766	6784.423333	485.088867	53.446320
-6897.362766	6784.423333	483.832031	52.304642
-6897.362766	6784.423333	482.575195	67.733559
-6897.362766	6784.423333	481.317383	0.167195
-6897.362766	6784.423333	480.059570	32.134171
-6897.362766	6784.423333	478.801758	42.739368
-6897.362766	6784.423333	477.543945	86.477280
-6897.362766	6784.423333	476.285156	-118.496010
-6897.362766	6784.423333	475.027344	-34.542542
-6897.362766	6784.423333	473.767578	82.479500
-6897.362766	6784.423333	472.508789	90.563034
-6897.362766	6784.423333	471.249023	13.429351
-6897.362766	6784.423333	469.989258	153.942383
-6897.362766	6784.423333	468.729492	-138.453430
-6897.362766	6784.423333	467.469727	27.988035
-6897.362766	6784.423333	466.208984	123.399963
-6897.362766	6784.423333	464.948242	145.470383
-6897.362766	6784.423333	463.686523	58.794270
-6897.362766	6784.423333	462.425781	24.107649
-6897.362766	6784.423333	461.164063	109.866005
-6897.362766	6784.423333	459.901367	-16.990530
-6897.362766	6784.423333	458.639648	-9.238640
-6897.362766	6784.423333	457.376953	147.185272
-6897.362766	6784.423333	456.114258	84.024673
-6897.362766	6784.423333	454.851563	70.406570
-6897.362766	6784.423333	453.587891	158.189911
-6897.362766	6784.423333	452.324219	47.784103
-6897.362766	6784.423333	451.060547	-34.316887
-6897.362766	6784.423333	449.796875	67.462883
-6897.362766	6784.423333	448.532227	96.085030
-6897.362766	6784.423333	447.267578	37.463673
-6897.362766	6784.423333	446.002930	108.401581
-6897.362766	6784.423333	444.737305	12.020721
-6897.362766	6784.423333	443.471680	26.317085
-6897.362766	6784.423333	442.206055	99.419884
-6897.362766	6784.423333	440.940430	113.592026
-6897.362766	6784.423333	439.673828	-112.347725
-6897.362766	6784.423333	438.407227	99.396248
-6897.362766	6784.423333	437.140625	75.752602
-6897.362766	6784.423333	435.873047	103.796555
-6897.362766	6784.423333	434.605469	68.281075
-6897.362766	6784.423333	433.337891	-14.299537
-6897.362766	6784.423333	432.070313	-16.997442
-6897.362766	6784.423333	430.801758	-94.963112
-6897.362766	6784.423333	429.533203	-41.402779
-6897.362766	6784.423333	428.264648	23.805386
-6897.362766	6784.423333	426.996094	39.595119
-6897.362766	6784.423333	425.726563	-8.098747
-6897.362766	6784.423333	424.457031	244.600800
-6897.362766	6784.423333	423.186523	210.790344
-6897.362766	6784.423333	421.916992	125.294022
-6897.362766	6784.423333	420.646484	218.015320
-6897.362766	6784.423333	419.375977	99.526817
-6897.362766	6784.423333	418.104492	147.461426
-6897.362766	6784.423333	416.833008	75.715324
-6897.362766	6784.423333	415.561523	160.923782
-6897.362766	6784.423333	414.290039	147.568588
-6897.362766	6784.423333	413.017578	-118.917892
-6897.362766	6784.423333	411.746094	-22.357904
-6897.362766	6784.423333	410.472656	76.362885
-6897.362766	6784.423333	409.200195	179.601532
-6897.362766	6784.423333	407.926758	46.243874
-6897.362766	6784.423333	406.653320	-24.010235
-6897.362766	6784.423333	405.379883	55.360970
-6897.362766	6784.423333	404.105469	106.470642
-6897.362766	6784.423333	402.831055	115.306541
-6897.362766	6784.423333	401.556641	102.934349
-6897.362766	6784.423333	400.282227	69.361961
-6897.362766	6784.423333	399.006836	117.422531
-6897.362766	6784.423333	397.731445	-84.736778
-6897.362766	6784.423333	396.456055	19.038345
-6897.362766	6784.423333	395.179688	120.231918
-6897.362766	6784.423333	393.903320	57.723824
-6897.362766	6784.423333	392.626953	30.055967
-6897.362766	6784.423333	391.350586	67.540550
-6897.362766	6784.423333	390.073242	212.123520
-6897.362766	6784.423333	388.795898	104.441856
-6897.362766	6784.423333	387.518555	-19.757839
-6897.362766	6784.423333	386.240234	23.749952
-6897.362766	6784.423333	384.961914	87.968727
-6897.362766	6784.423333	383.683594	175.208389
-6897.362766	6784.423333	382.405273	-26.848864
-6897.362766	6784.423333	381.125977	108.745842
-6897.362766	6784.423333	379.846680	101.890335
-6897.362766	6784.423333	378.567383	150.635223
-6897.362766	6784.423333	377.287109	147.810242
-6897.362766	6784.423333	376.006836	-13.638097
-6897.362766	6784.423333	374.726563	173.779007
-6897.362766	6784.423333	373.446289	153.671143
-6897.362766	6784.423333	372.165039	-71.523682
-6897.362766	6784.423333	370.883789	98.432884
-6897.362766	6784.423333	369.602539	128.411804
-6897.362766	6784.423333	368.320313	71.953339
-6897.362766	6784.423333	367.039063	98.814453
-6897.362766	6784.423333	365.755859	108.956070
-6897.362766	6784.423333	364.473633	-36.988937
-6897.362766	6784.423333	363.190430	132.597610
-6897.362766	6784.423333	361.907227	-121.025581
-6897.362766	6784.423333	360.624023	77.772453
-6897.362766	6784.423333	359.340820	36.897263
-6897.362766	6784.423333	358.056641	-55.530727
-6897.362766	6784.423333	356.772461	-173.953506
-6897.362766	6784.423333	355.487305	36.560841
-6897.362766	6784.423333	354.202148	162.943863
-6897.362766	6784.423333	352.916992	100.883453
-6897.362766	6784.423333	351.631836	-133.285370
-6897.362766	6784.423333	350.346680	-10.986761
-6897.362766	6784.423333	349.060547	124.535751
-6897.362766	6784.423333	347.774414	16.101061
-6897.362766	6784.423333	346.487305	122.472649
-6897.362766	6784.423333	345.200195	40.549553
-6897.362766	6784.423333	343.913086	87.640411
-6897.362766	6784.423333	342.625977	-111.365486
-6897.362766	6784.423333	341.338867	-109.656433
-6897.362766	6784.423333	340.050781	-154.988358
-6897.362766	6784.423333	338.762695	-113.156738
-6897.362766	6784.423333	337.473633	-146.161285
-6897.362766	6784.423333	336.184570	-295.574188
-6897.362766	6784.423333	334.895508	48.980865
-6897.362766	6784.423333	333.606445	-111.333733
-6897.362766	6784.423333	332.317383	-27.505932
-6897.362766	6784.423333	331.027344	59.982353
-6897.362766	6784.423333	329.736328	44.849564
-6897.362766	6784.423333	328.446289	8.020090
-6897.362766	6784.423333	327.155273	-52.884090
-6897.362766	6784.423333	325.864258	-47.819370
-6897.362766	6784.423333	324.573242	-147.634781
-6897.362766	6784.423333	323.281250	-22.375580
-6897.362766	6784.423333	321.989258	-94.328690
-6897.362766	6784.423333	320.697266	-68.190567
-6897.362766	6784.423333	319.405273	173.541977
-6897.362766	6784.423333	318.112305	-40.173218
-6897.362766	6784.423333	316.819336	42.322105
-6897.362766	6784.423333	315.526367	-40.050770
-6897.362766	6784.423333	314.232422	-84.522232
-6897.362766	6784.423333	312.938477	215.222000
-6897.362766	6784.423333	311.644531	260.204803
-6897.362766	6784.423333	310.349609	149.517990
-6897.362766	6784.423333	309.054688	7.560703
-6897.362766	6784.423333	307.759766	188.713165
-6897.362766	6784.423333	306.464844	225.675232
-6897.362766	6784.423333	305.168945	323.182068
-6897.362766	6784.423333	303.873047	262.723999
-6897.362766	6784.423333	302.577148	557.098328
-6897.362766	6784.423333	301.281250	518.712036
-6897.362766	6784.423333	299.984375	591.251587
