#X		#Y		#Wave		#Intensity
20471.035372	-748.108500	1999.980469	-103.740074
20471.035372	-748.108500	1999.016602	-24.537329
20471.035372	-748.108500	1998.052734	-37.997181
20471.035372	-748.108500	1997.087891	29.897047
20471.035372	-748.108500	1996.123047	62.654984
20471.035372	-748.108500	1995.158203	-14.005179
20471.035372	-748.108500	1994.193359	60.050434
20471.035372	-748.108500	1993.228516	22.264936
20471.035372	-748.108500	1992.262695	107.926811
20471.035372	-748.108500	1991.297852	-4.833323
20471.035372	-748.108500	1990.332031	124.656815
20471.035372	-748.108500	1989.366211	-82.752678
20471.035372	-748.108500	1988.399414	-35.572742
20471.035372	-748.108500	1987.433594	-139.603836
20471.035372	-748.108500	1986.466797	-23.776133
20471.035372	-748.108500	1985.500977	-160.482254
20471.035372	-748.108500	1984.534180	-55.126751
20471.035372	-748.108500	1983.567383	-48.933563
20471.035372	-748.108500	1982.599609	36.096706
20471.035372	-748.108500	1981.632813	194.981613
20471.035372	-748.108500	1980.665039	-162.709946
20471.035372	-748.108500	1979.697266	185.899628
20471.035372	-748.108500	1978.729492	279.828247
20471.035372	-748.108500	1977.761719	111.821083
20471.035372	-748.108500	1976.792969	188.074921
20471.035372	-748.108500	1975.825195	106.168831
20471.035372	-748.108500	1974.856445	26.598455
20471.035372	-748.108500	1973.887695	166.473511
20471.035372	-748.108500	1972.918945	-19.451281
20471.035372	-748.108500	1971.949219	-42.675472
20471.035372	-748.108500	1970.980469	113.974167
20471.035372	-748.108500	1970.010742	16.518906
20471.035372	-748.108500	1969.041016	-4.607679
20471.035372	-748.108500	1968.071289	-15.978201
20471.035372	-748.108500	1967.101563	135.171432
20471.035372	-748.108500	1966.130859	-26.686705
20471.035372	-748.108500	1965.161133	151.317947
20471.035372	-748.108500	1964.190430	102.622055
20471.035372	-748.108500	1963.219727	-37.227177
20471.035372	-748.108500	1962.249023	83.837013
20471.035372	-748.108500	1961.277344	165.416183
20471.035372	-748.108500	1960.306641	111.566193
20471.035372	-748.108500	1959.334961	281.568695
20471.035372	-748.108500	1958.363281	318.632416
20471.035372	-748.108500	1957.391602	87.573120
20471.035372	-748.108500	1956.419922	16.390043
20471.035372	-748.108500	1955.447266	-15.463099
20471.035372	-748.108500	1954.474609	73.109558
20471.035372	-748.108500	1953.501953	-125.901108
20471.035372	-748.108500	1952.529297	48.615715
20471.035372	-748.108500	1951.556641	41.265804
20471.035372	-748.108500	1950.583984	58.470177
20471.035372	-748.108500	1949.610352	164.066223
20471.035372	-748.108500	1948.636719	-115.848114
20471.035372	-748.108500	1947.663086	95.296150
20471.035372	-748.108500	1946.689453	-83.868675
20471.035372	-748.108500	1945.715820	-10.211389
20471.035372	-748.108500	1944.741211	31.535320
20471.035372	-748.108500	1943.767578	38.938778
20471.035372	-748.108500	1942.792969	31.642553
20471.035372	-748.108500	1941.818359	213.174179
20471.035372	-748.108500	1940.842773	75.957726
20471.035372	-748.108500	1939.868164	85.883041
20471.035372	-748.108500	1938.892578	-107.572678
20471.035372	-748.108500	1937.916992	-60.807320
20471.035372	-748.108500	1936.941406	37.416489
20471.035372	-748.108500	1935.965820	108.694389
20471.035372	-748.108500	1934.990234	-6.131025
20471.035372	-748.108500	1934.013672	18.682009
20471.035372	-748.108500	1933.037109	28.835424
20471.035372	-748.108500	1932.060547	19.445879
20471.035372	-748.108500	1931.083984	66.380890
20471.035372	-748.108500	1930.107422	39.944386
20471.035372	-748.108500	1929.129883	-18.237455
20471.035372	-748.108500	1928.153320	31.254192
20471.035372	-748.108500	1927.175781	61.212410
20471.035372	-748.108500	1926.198242	-277.949005
20471.035372	-748.108500	1925.219727	-59.642235
20471.035372	-748.108500	1924.242188	31.550827
20471.035372	-748.108500	1923.263672	56.788460
20471.035372	-748.108500	1922.285156	-193.982925
20471.035372	-748.108500	1921.306641	-26.953442
20471.035372	-748.108500	1920.328125	-104.137535
20471.035372	-748.108500	1919.349609	-24.984301
20471.035372	-748.108500	1918.370117	-67.865150
20471.035372	-748.108500	1917.391602	-52.107464
20471.035372	-748.108500	1916.412109	-136.351700
20471.035372	-748.108500	1915.431641	25.897203
20471.035372	-748.108500	1914.452148	24.701962
20471.035372	-748.108500	1913.472656	72.332458
20471.035372	-748.108500	1912.492188	98.047966
20471.035372	-748.108500	1911.511719	14.097176
20471.035372	-748.108500	1910.531250	205.655304
20471.035372	-748.108500	1909.550781	-131.637650
20471.035372	-748.108500	1908.569336	94.080994
20471.035372	-748.108500	1907.588867	-150.403549
20471.035372	-748.108500	1906.607422	-192.594803
20471.035372	-748.108500	1905.625977	81.844162
20471.035372	-748.108500	1904.644531	-30.895233
20471.035372	-748.108500	1903.662109	109.613091
20471.035372	-748.108500	1902.680664	-78.454788
20471.035372	-748.108500	1901.698242	83.989571
20471.035372	-748.108500	1900.715820	-142.851227
20471.035372	-748.108500	1899.733398	46.377087
20471.035372	-748.108500	1898.750000	-51.401447
20471.035372	-748.108500	1897.767578	-27.535791
20471.035372	-748.108500	1896.784180	20.668076
20471.035372	-748.108500	1895.800781	-127.994881
20471.035372	-748.108500	1894.817383	53.930935
20471.035372	-748.108500	1893.833984	308.707703
20471.035372	-748.108500	1892.850586	-92.481522
20471.035372	-748.108500	1891.866211	-124.314362
20471.035372	-748.108500	1890.881836	60.010651
20471.035372	-748.108500	1889.897461	152.029953
20471.035372	-748.108500	1888.913086	122.663750
20471.035372	-748.108500	1887.927734	49.645515
20471.035372	-748.108500	1886.943359	-1.491925
20471.035372	-748.108500	1885.958008	78.415329
20471.035372	-748.108500	1884.972656	-123.064995
20471.035372	-748.108500	1883.987305	-21.311672
20471.035372	-748.108500	1883.001953	145.880478
20471.035372	-748.108500	1882.015625	271.809296
20471.035372	-748.108500	1881.029297	-210.676437
20471.035372	-748.108500	1880.042969	12.217282
20471.035372	-748.108500	1879.056641	38.775620
20471.035372	-748.108500	1878.070313	75.014191
20471.035372	-748.108500	1877.083984	152.411484
20471.035372	-748.108500	1876.096680	128.075760
20471.035372	-748.108500	1875.109375	2.057817
20471.035372	-748.108500	1874.122070	-106.974434
20471.035372	-748.108500	1873.134766	188.191803
20471.035372	-748.108500	1872.146484	117.861931
20471.035372	-748.108500	1871.159180	-141.159195
20471.035372	-748.108500	1870.170898	119.946373
20471.035372	-748.108500	1869.182617	-288.947357
20471.035372	-748.108500	1868.194336	158.229767
20471.035372	-748.108500	1867.205078	237.767410
20471.035372	-748.108500	1866.216797	218.152191
20471.035372	-748.108500	1865.227539	84.943001
20471.035372	-748.108500	1864.238281	58.063740
20471.035372	-748.108500	1863.249023	55.319881
20471.035372	-748.108500	1862.259766	122.585274
20471.035372	-748.108500	1861.269531	-162.757889
20471.035372	-748.108500	1860.279297	-49.675240
20471.035372	-748.108500	1859.290039	246.773941
20471.035372	-748.108500	1858.298828	391.032318
20471.035372	-748.108500	1857.308594	194.970322
20471.035372	-748.108500	1856.318359	187.107788
20471.035372	-748.108500	1855.327148	432.464355
20471.035372	-748.108500	1854.335938	202.601990
20471.035372	-748.108500	1853.344727	25.817348
20471.035372	-748.108500	1852.353516	297.425720
20471.035372	-748.108500	1851.362305	323.036285
20471.035372	-748.108500	1850.370117	40.132313
20471.035372	-748.108500	1849.377930	-141.534515
20471.035372	-748.108500	1848.385742	35.719254
20471.035372	-748.108500	1847.393555	357.345612
20471.035372	-748.108500	1846.401367	-41.188751
20471.035372	-748.108500	1845.408203	227.230972
20471.035372	-748.108500	1844.415039	240.334351
20471.035372	-748.108500	1843.421875	176.347824
20471.035372	-748.108500	1842.428711	-51.305820
20471.035372	-748.108500	1841.435547	269.540344
20471.035372	-748.108500	1840.441406	104.333817
20471.035372	-748.108500	1839.448242	-36.846035
20471.035372	-748.108500	1838.454102	112.866508
20471.035372	-748.108500	1837.459961	2.819777
20471.035372	-748.108500	1836.464844	214.784241
20471.035372	-748.108500	1835.470703	68.537231
20471.035372	-748.108500	1834.475586	172.114777
20471.035372	-748.108500	1833.480469	215.508163
20471.035372	-748.108500	1832.485352	95.481148
20471.035372	-748.108500	1831.490234	83.452736
20471.035372	-748.108500	1830.495117	253.781464
20471.035372	-748.108500	1829.499023	440.746033
20471.035372	-748.108500	1828.502930	418.755310
20471.035372	-748.108500	1827.506836	137.540878
20471.035372	-748.108500	1826.510742	352.892029
20471.035372	-748.108500	1825.513672	349.796082
20471.035372	-748.108500	1824.517578	164.345291
20471.035372	-748.108500	1823.520508	221.000412
20471.035372	-748.108500	1822.523438	181.637848
20471.035372	-748.108500	1821.526367	480.096771
20471.035372	-748.108500	1820.529297	279.922394
20471.035372	-748.108500	1819.531250	292.921875
20471.035372	-748.108500	1818.533203	118.964348
20471.035372	-748.108500	1817.535156	225.142944
20471.035372	-748.108500	1816.537109	331.156311
20471.035372	-748.108500	1815.539063	228.734406
20471.035372	-748.108500	1814.540039	13.728796
20471.035372	-748.108500	1813.541992	310.779388
20471.035372	-748.108500	1812.542969	370.723633
20471.035372	-748.108500	1811.543945	174.557556
20471.035372	-748.108500	1810.543945	286.853088
20471.035372	-748.108500	1809.544922	18.771729
20471.035372	-748.108500	1808.544922	197.722260
20471.035372	-748.108500	1807.544922	297.587097
20471.035372	-748.108500	1806.544922	442.682404
20471.035372	-748.108500	1805.544922	143.155304
20471.035372	-748.108500	1804.544922	82.491890
20471.035372	-748.108500	1803.543945	224.728149
20471.035372	-748.108500	1802.542969	77.812759
20471.035372	-748.108500	1801.541992	327.144989
20471.035372	-748.108500	1800.541016	134.617233
20471.035372	-748.108500	1799.539063	254.664474
20471.035372	-748.108500	1798.538086	262.368530
20471.035372	-748.108500	1797.536133	-42.622372
20471.035372	-748.108500	1796.534180	267.764496
20471.035372	-748.108500	1795.532227	310.775269
20471.035372	-748.108500	1794.529297	172.395020
20471.035372	-748.108500	1793.527344	248.473846
20471.035372	-748.108500	1792.524414	-14.095286
20471.035372	-748.108500	1791.521484	87.886253
20471.035372	-748.108500	1790.518555	318.332672
20471.035372	-748.108500	1789.514648	248.375000
20471.035372	-748.108500	1788.511719	192.578812
20471.035372	-748.108500	1787.507813	100.920647
20471.035372	-748.108500	1786.503906	94.843231
20471.035372	-748.108500	1785.500000	288.556824
20471.035372	-748.108500	1784.496094	44.131123
20471.035372	-748.108500	1783.491211	-157.540955
20471.035372	-748.108500	1782.486328	385.326843
20471.035372	-748.108500	1781.481445	-30.732880
20471.035372	-748.108500	1780.476563	-71.060448
20471.035372	-748.108500	1779.471680	347.347565
20471.035372	-748.108500	1778.465820	114.069962
20471.035372	-748.108500	1777.460938	139.785492
20471.035372	-748.108500	1776.455078	277.003754
20471.035372	-748.108500	1775.449219	38.616734
20471.035372	-748.108500	1774.442383	-64.458344
20471.035372	-748.108500	1773.436523	138.711563
20471.035372	-748.108500	1772.429688	85.181747
20471.035372	-748.108500	1771.422852	-106.192093
20471.035372	-748.108500	1770.416016	162.812469
20471.035372	-748.108500	1769.409180	225.081009
20471.035372	-748.108500	1768.402344	49.885841
20471.035372	-748.108500	1767.394531	78.590485
20471.035372	-748.108500	1766.386719	154.547684
20471.035372	-748.108500	1765.378906	163.907745
20471.035372	-748.108500	1764.371094	263.185333
20471.035372	-748.108500	1763.362305	-14.655033
20471.035372	-748.108500	1762.354492	235.954483
20471.035372	-748.108500	1761.345703	130.855988
20471.035372	-748.108500	1760.336914	177.247131
20471.035372	-748.108500	1759.328125	-27.626865
20471.035372	-748.108500	1758.318359	-12.363607
20471.035372	-748.108500	1757.308594	78.489014
20471.035372	-748.108500	1756.299805	292.243164
20471.035372	-748.108500	1755.290039	53.669888
20471.035372	-748.108500	1754.279297	195.991592
20471.035372	-748.108500	1753.269531	6.868156
20471.035372	-748.108500	1752.258789	-258.061157
20471.035372	-748.108500	1751.249023	30.367144
20471.035372	-748.108500	1750.238281	221.556396
20471.035372	-748.108500	1749.226563	308.468475
20471.035372	-748.108500	1748.215820	28.818642
20471.035372	-748.108500	1747.204102	13.775036
20471.035372	-748.108500	1746.193359	-55.764713
20471.035372	-748.108500	1745.181641	6.830787
20471.035372	-748.108500	1744.168945	104.650482
20471.035372	-748.108500	1743.157227	-137.769257
20471.035372	-748.108500	1742.144531	181.635681
20471.035372	-748.108500	1741.132813	85.311554
20471.035372	-748.108500	1740.120117	-155.120499
20471.035372	-748.108500	1739.106445	-183.273514
20471.035372	-748.108500	1738.093750	-150.229538
20471.035372	-748.108500	1737.080078	-192.855576
20471.035372	-748.108500	1736.067383	-105.911705
20471.035372	-748.108500	1735.053711	-14.462739
20471.035372	-748.108500	1734.040039	-163.663605
20471.035372	-748.108500	1733.025391	-188.066299
20471.035372	-748.108500	1732.011719	-146.626892
20471.035372	-748.108500	1730.997070	28.915886
20471.035372	-748.108500	1729.982422	20.496666
20471.035372	-748.108500	1728.967773	-108.189255
20471.035372	-748.108500	1727.952148	-15.660317
20471.035372	-748.108500	1726.937500	-41.020378
20471.035372	-748.108500	1725.921875	29.963116
20471.035372	-748.108500	1724.906250	23.104584
20471.035372	-748.108500	1723.890625	-143.902512
20471.035372	-748.108500	1722.875000	-7.536572
20471.035372	-748.108500	1721.858398	1.603189
20471.035372	-748.108500	1720.841797	-24.684748
20471.035372	-748.108500	1719.825195	-44.059368
20471.035372	-748.108500	1718.808594	-91.785103
20471.035372	-748.108500	1717.791992	-66.784561
20471.035372	-748.108500	1716.774414	211.812195
20471.035372	-748.108500	1715.756836	121.321053
20471.035372	-748.108500	1714.739258	183.393692
20471.035372	-748.108500	1713.721680	186.588043
20471.035372	-748.108500	1712.704102	53.460148
20471.035372	-748.108500	1711.685547	-37.519058
20471.035372	-748.108500	1710.667969	190.606979
20471.035372	-748.108500	1709.649414	78.237747
20471.035372	-748.108500	1708.630859	83.080803
20471.035372	-748.108500	1707.611328	5.669205
20471.035372	-748.108500	1706.592773	97.026985
20471.035372	-748.108500	1705.573242	-65.037132
20471.035372	-748.108500	1704.553711	173.708450
20471.035372	-748.108500	1703.534180	-65.918365
20471.035372	-748.108500	1702.513672	31.851318
20471.035372	-748.108500	1701.494141	394.232269
20471.035372	-748.108500	1700.473633	60.598522
20471.035372	-748.108500	1699.453125	171.963623
20471.035372	-748.108500	1698.432617	88.805733
20471.035372	-748.108500	1697.412109	359.077637
20471.035372	-748.108500	1696.390625	205.436340
20471.035372	-748.108500	1695.369141	86.837280
20471.035372	-748.108500	1694.347656	52.403236
20471.035372	-748.108500	1693.326172	275.196442
20471.035372	-748.108500	1692.304688	245.187332
20471.035372	-748.108500	1691.282227	280.534454
20471.035372	-748.108500	1690.260742	86.650429
20471.035372	-748.108500	1689.238281	184.911072
20471.035372	-748.108500	1688.214844	294.692871
20471.035372	-748.108500	1687.192383	294.522339
20471.035372	-748.108500	1686.168945	443.747406
20471.035372	-748.108500	1685.146484	293.854065
20471.035372	-748.108500	1684.123047	167.250397
20471.035372	-748.108500	1683.099609	225.053421
20471.035372	-748.108500	1682.075195	292.053802
20471.035372	-748.108500	1681.051758	431.308472
20471.035372	-748.108500	1680.027344	472.387115
20471.035372	-748.108500	1679.002930	105.069214
20471.035372	-748.108500	1677.978516	437.592987
20471.035372	-748.108500	1676.953125	280.123779
20471.035372	-748.108500	1675.928711	512.047485
20471.035372	-748.108500	1674.903320	450.036652
20471.035372	-748.108500	1673.877930	306.388702
20471.035372	-748.108500	1672.852539	274.574371
20471.035372	-748.108500	1671.826172	564.204041
20471.035372	-748.108500	1670.800781	818.724915
20471.035372	-748.108500	1669.774414	395.303009
20471.035372	-748.108500	1668.748047	684.519409
20471.035372	-748.108500	1667.721680	1038.741333
20471.035372	-748.108500	1666.694336	845.731201
20471.035372	-748.108500	1665.667969	943.653809
20471.035372	-748.108500	1664.640625	899.518250
20471.035372	-748.108500	1663.613281	899.538818
20471.035372	-748.108500	1662.585938	950.668701
20471.035372	-748.108500	1661.557617	1048.207275
20471.035372	-748.108500	1660.530273	1157.296387
20471.035372	-748.108500	1659.501953	1124.472046
20471.035372	-748.108500	1658.473633	1240.351196
20471.035372	-748.108500	1657.444336	1112.129395
20471.035372	-748.108500	1656.416016	1346.347412
20471.035372	-748.108500	1655.386719	1520.017578
20471.035372	-748.108500	1654.358398	1335.963745
20471.035372	-748.108500	1653.328125	1669.668945
20471.035372	-748.108500	1652.298828	1634.121338
20471.035372	-748.108500	1651.269531	1665.860107
20471.035372	-748.108500	1650.239258	1927.256592
20471.035372	-748.108500	1649.208984	1842.830444
20471.035372	-748.108500	1648.178711	2020.521362
20471.035372	-748.108500	1647.148438	2149.409424
20471.035372	-748.108500	1646.117188	1969.813354
20471.035372	-748.108500	1645.086914	2295.660889
20471.035372	-748.108500	1644.055664	2572.663330
20471.035372	-748.108500	1643.024414	2406.922119
20471.035372	-748.108500	1641.992188	2785.679932
20471.035372	-748.108500	1640.960938	2647.721924
20471.035372	-748.108500	1639.928711	2711.277100
20471.035372	-748.108500	1638.896484	2895.200684
20471.035372	-748.108500	1637.864258	2835.958008
20471.035372	-748.108500	1636.832031	2957.271973
20471.035372	-748.108500	1635.798828	2879.490234
20471.035372	-748.108500	1634.766602	3151.134521
20471.035372	-748.108500	1633.733398	2724.027344
20471.035372	-748.108500	1632.699219	2854.465820
20471.035372	-748.108500	1631.666016	2920.129883
20471.035372	-748.108500	1630.632813	3145.299072
20471.035372	-748.108500	1629.598633	3185.444092
20471.035372	-748.108500	1628.564453	3278.735107
20471.035372	-748.108500	1627.530273	3036.963379
20471.035372	-748.108500	1626.495117	3121.010254
20471.035372	-748.108500	1625.460938	2999.494629
20471.035372	-748.108500	1624.425781	3062.766357
20471.035372	-748.108500	1623.390625	3259.945313
20471.035372	-748.108500	1622.355469	3309.331787
20471.035372	-748.108500	1621.319336	3605.649170
20471.035372	-748.108500	1620.284180	3562.699951
20471.035372	-748.108500	1619.248047	3399.808838
20471.035372	-748.108500	1618.211914	3721.394043
20471.035372	-748.108500	1617.174805	3789.190186
20471.035372	-748.108500	1616.138672	3933.104980
20471.035372	-748.108500	1615.101563	3966.325195
20471.035372	-748.108500	1614.065430	4400.626953
20471.035372	-748.108500	1613.027344	4237.934082
20471.035372	-748.108500	1611.990234	4358.747559
20471.035372	-748.108500	1610.953125	4442.704102
20471.035372	-748.108500	1609.915039	4618.773438
20471.035372	-748.108500	1608.876953	4576.082031
20471.035372	-748.108500	1607.838867	4439.073730
20471.035372	-748.108500	1606.800781	4527.732910
20471.035372	-748.108500	1605.761719	4729.151855
20471.035372	-748.108500	1604.723633	4475.022461
20471.035372	-748.108500	1603.684570	4379.751465
20471.035372	-748.108500	1602.644531	4192.563477
20471.035372	-748.108500	1601.605469	4833.321777
20471.035372	-748.108500	1600.566406	4483.044922
20471.035372	-748.108500	1599.526367	4654.714355
20471.035372	-748.108500	1598.486328	4270.255371
20471.035372	-748.108500	1597.446289	4428.255859
20471.035372	-748.108500	1596.405273	4363.424316
20471.035372	-748.108500	1595.365234	4794.804199
20471.035372	-748.108500	1594.324219	4700.229004
20471.035372	-748.108500	1593.283203	4881.270020
20471.035372	-748.108500	1592.242188	4511.434082
20471.035372	-748.108500	1591.200195	4598.495605
20471.035372	-748.108500	1590.159180	4637.446289
20471.035372	-748.108500	1589.117188	4901.264648
20471.035372	-748.108500	1588.075195	4908.191406
20471.035372	-748.108500	1587.032227	4942.704590
20471.035372	-748.108500	1585.990234	5059.854980
20471.035372	-748.108500	1584.947266	5312.277344
20471.035372	-748.108500	1583.904297	5674.704590
20471.035372	-748.108500	1582.861328	5313.030762
20471.035372	-748.108500	1581.818359	5297.522949
20471.035372	-748.108500	1580.775391	5492.843262
20471.035372	-748.108500	1579.731445	5786.647461
20471.035372	-748.108500	1578.687500	5931.621582
20471.035372	-748.108500	1577.643555	6115.564453
20471.035372	-748.108500	1576.598633	5917.324707
20471.035372	-748.108500	1575.554688	6293.630371
20471.035372	-748.108500	1574.509766	6255.804199
20471.035372	-748.108500	1573.464844	6378.221680
20471.035372	-748.108500	1572.419922	6281.171387
20471.035372	-748.108500	1571.374023	6582.096680
20471.035372	-748.108500	1570.329102	6169.825684
20471.035372	-748.108500	1569.283203	6345.197754
20471.035372	-748.108500	1568.237305	6493.207031
20471.035372	-748.108500	1567.191406	6246.048340
20471.035372	-748.108500	1566.144531	6005.952637
20471.035372	-748.108500	1565.098633	5983.050781
20471.035372	-748.108500	1564.051758	6117.819336
20471.035372	-748.108500	1563.004883	5967.318848
20471.035372	-748.108500	1561.957031	5976.762207
20471.035372	-748.108500	1560.910156	5844.876465
20471.035372	-748.108500	1559.862305	5715.448730
20471.035372	-748.108500	1558.814453	5725.356934
20471.035372	-748.108500	1557.766602	5596.288086
20471.035372	-748.108500	1556.718750	5510.735352
20471.035372	-748.108500	1555.669922	5270.331543
20471.035372	-748.108500	1554.621094	4840.992188
20471.035372	-748.108500	1553.573242	4858.628906
20471.035372	-748.108500	1552.523438	4723.730469
20471.035372	-748.108500	1551.474609	4131.199219
20471.035372	-748.108500	1550.424805	4028.688477
20471.035372	-748.108500	1549.375000	3946.867188
20471.035372	-748.108500	1548.325195	3585.218750
20471.035372	-748.108500	1547.275391	3669.989014
20471.035372	-748.108500	1546.225586	3654.755371
20471.035372	-748.108500	1545.174805	3698.831543
20471.035372	-748.108500	1544.124023	3479.182129
20471.035372	-748.108500	1543.073242	3432.630615
20471.035372	-748.108500	1542.022461	3045.186523
20471.035372	-748.108500	1540.970703	3042.255371
20471.035372	-748.108500	1539.919922	3080.419678
20471.035372	-748.108500	1538.868164	3098.272217
20471.035372	-748.108500	1537.815430	2630.058105
20471.035372	-748.108500	1536.763672	2752.832031
20471.035372	-748.108500	1535.710938	2371.520752
20471.035372	-748.108500	1534.659180	2701.283447
20471.035372	-748.108500	1533.606445	2479.403076
20471.035372	-748.108500	1532.552734	2316.793457
20471.035372	-748.108500	1531.500000	2351.875977
20471.035372	-748.108500	1530.446289	2087.612793
20471.035372	-748.108500	1529.393555	2120.819092
20471.035372	-748.108500	1528.338867	2267.575195
20471.035372	-748.108500	1527.285156	2151.427734
20471.035372	-748.108500	1526.231445	2196.478027
20471.035372	-748.108500	1525.176758	2223.553955
20471.035372	-748.108500	1524.122070	2250.806396
20471.035372	-748.108500	1523.067383	2151.353516
20471.035372	-748.108500	1522.012695	2077.047852
20471.035372	-748.108500	1520.957031	2177.348877
20471.035372	-748.108500	1519.901367	2424.990723
20471.035372	-748.108500	1518.845703	2217.665527
20471.035372	-748.108500	1517.790039	2322.985596
20471.035372	-748.108500	1516.734375	2057.311035
20471.035372	-748.108500	1515.677734	2169.791992
20471.035372	-748.108500	1514.621094	2302.784180
20471.035372	-748.108500	1513.564453	2241.411865
20471.035372	-748.108500	1512.507813	2261.669434
20471.035372	-748.108500	1511.450195	2524.022461
20471.035372	-748.108500	1510.393555	2180.691162
20471.035372	-748.108500	1509.335938	2029.785156
20471.035372	-748.108500	1508.278320	2181.916748
20471.035372	-748.108500	1507.219727	2006.620483
20471.035372	-748.108500	1506.162109	1829.345459
20471.035372	-748.108500	1505.103516	1848.798340
20471.035372	-748.108500	1504.044922	1782.657104
20471.035372	-748.108500	1502.986328	1599.371582
20471.035372	-748.108500	1501.926758	1425.385132
20471.035372	-748.108500	1500.868164	1535.986816
20471.035372	-748.108500	1499.808594	1669.305176
20471.035372	-748.108500	1498.749023	1241.165405
20471.035372	-748.108500	1497.688477	1471.870850
20471.035372	-748.108500	1496.628906	969.959229
20471.035372	-748.108500	1495.568359	1106.374756
20471.035372	-748.108500	1494.507813	1037.863770
20471.035372	-748.108500	1493.447266	600.059570
20471.035372	-748.108500	1492.386719	901.558228
20471.035372	-748.108500	1491.325195	874.304810
20471.035372	-748.108500	1490.263672	685.140625
20471.035372	-748.108500	1489.202148	478.253479
20471.035372	-748.108500	1488.140625	661.088989
20471.035372	-748.108500	1487.079102	542.493225
20471.035372	-748.108500	1486.016602	802.173828
20471.035372	-748.108500	1484.954102	544.547180
20471.035372	-748.108500	1483.891602	559.394653
20471.035372	-748.108500	1482.829102	900.525208
20471.035372	-748.108500	1481.765625	513.282043
20471.035372	-748.108500	1480.702148	317.486755
20471.035372	-748.108500	1479.638672	288.295776
20471.035372	-748.108500	1478.575195	-55.175480
20471.035372	-748.108500	1477.511719	86.846550
20471.035372	-748.108500	1476.447266	256.043915
20471.035372	-748.108500	1475.382813	-16.928873
20471.035372	-748.108500	1474.318359	109.979042
20471.035372	-748.108500	1473.253906	-108.535011
20471.035372	-748.108500	1472.189453	77.105179
20471.035372	-748.108500	1471.124023	74.727112
20471.035372	-748.108500	1470.058594	-44.252144
20471.035372	-748.108500	1468.993164	316.659576
20471.035372	-748.108500	1467.927734	427.013062
20471.035372	-748.108500	1466.861328	566.402100
20471.035372	-748.108500	1465.794922	562.617920
20471.035372	-748.108500	1464.728516	666.750305
20471.035372	-748.108500	1463.662109	842.345947
20471.035372	-748.108500	1462.594727	814.528809
20471.035372	-748.108500	1461.528320	1146.730591
20471.035372	-748.108500	1460.460938	1198.103516
20471.035372	-748.108500	1459.393555	1164.535400
20471.035372	-748.108500	1458.326172	1452.541382
20471.035372	-748.108500	1457.257813	1204.679932
20471.035372	-748.108500	1456.189453	1152.488403
20471.035372	-748.108500	1455.121094	1404.798462
20471.035372	-748.108500	1454.052734	1482.604004
20471.035372	-748.108500	1452.984375	1382.185913
20471.035372	-748.108500	1451.915039	1396.879150
20471.035372	-748.108500	1450.845703	1634.012573
20471.035372	-748.108500	1449.776367	1768.941406
20471.035372	-748.108500	1448.707031	1558.983521
20471.035372	-748.108500	1447.636719	1678.945313
20471.035372	-748.108500	1446.567383	1708.209351
20471.035372	-748.108500	1445.497070	1583.454956
20471.035372	-748.108500	1444.425781	1666.895386
20471.035372	-748.108500	1443.355469	1698.300659
20471.035372	-748.108500	1442.285156	1833.744873
20471.035372	-748.108500	1441.213867	1632.318481
20471.035372	-748.108500	1440.142578	1770.842651
20471.035372	-748.108500	1439.070313	1539.839722
20471.035372	-748.108500	1437.999023	1504.517212
20471.035372	-748.108500	1436.926758	1297.297852
20471.035372	-748.108500	1435.854492	1583.472534
20471.035372	-748.108500	1434.782227	1554.587402
20471.035372	-748.108500	1433.709961	1388.552124
20471.035372	-748.108500	1432.636719	1522.147949
20471.035372	-748.108500	1431.563477	1143.155396
20471.035372	-748.108500	1430.490234	1079.770752
20471.035372	-748.108500	1429.416992	1027.901733
20471.035372	-748.108500	1428.343750	1053.360107
20471.035372	-748.108500	1427.269531	899.373535
20471.035372	-748.108500	1426.195313	975.830444
20471.035372	-748.108500	1425.121094	740.659851
20471.035372	-748.108500	1424.046875	455.874725
20471.035372	-748.108500	1422.971680	591.910339
20471.035372	-748.108500	1421.896484	567.455200
20471.035372	-748.108500	1420.821289	559.826843
20471.035372	-748.108500	1419.746094	556.190552
20471.035372	-748.108500	1418.669922	768.988159
20471.035372	-748.108500	1417.594727	761.366821
20471.035372	-748.108500	1416.518555	442.902618
20471.035372	-748.108500	1415.442383	502.786835
20471.035372	-748.108500	1414.365234	582.536194
20471.035372	-748.108500	1413.289063	689.376404
20471.035372	-748.108500	1412.211914	707.955322
20471.035372	-748.108500	1411.134766	614.641052
20471.035372	-748.108500	1410.057617	716.235474
20471.035372	-748.108500	1408.979492	518.757996
20471.035372	-748.108500	1407.902344	920.735352
20471.035372	-748.108500	1406.824219	675.695862
20471.035372	-748.108500	1405.746094	905.530273
20471.035372	-748.108500	1404.666992	795.793823
20471.035372	-748.108500	1403.588867	1042.234375
20471.035372	-748.108500	1402.509766	1125.434448
20471.035372	-748.108500	1401.430664	1054.061157
20471.035372	-748.108500	1400.351563	874.230774
20471.035372	-748.108500	1399.271484	1140.684937
20471.035372	-748.108500	1398.192383	1100.722290
20471.035372	-748.108500	1397.112305	1145.870483
20471.035372	-748.108500	1396.031250	1011.318298
20471.035372	-748.108500	1394.951172	1251.365356
20471.035372	-748.108500	1393.871094	1330.103271
20471.035372	-748.108500	1392.790039	1166.059937
20471.035372	-748.108500	1391.708984	1239.877197
20471.035372	-748.108500	1390.626953	796.184998
20471.035372	-748.108500	1389.545898	947.134460
20471.035372	-748.108500	1388.463867	1068.203247
20471.035372	-748.108500	1387.381836	844.190735
20471.035372	-748.108500	1386.299805	1161.605591
20471.035372	-748.108500	1385.217773	1316.354858
20471.035372	-748.108500	1384.134766	1116.309204
20471.035372	-748.108500	1383.051758	1245.615234
20471.035372	-748.108500	1381.968750	1206.010010
20471.035372	-748.108500	1380.885742	1526.326294
20471.035372	-748.108500	1379.802734	1297.048950
20471.035372	-748.108500	1378.718750	1385.590698
20471.035372	-748.108500	1377.634766	1313.159546
20471.035372	-748.108500	1376.550781	1189.770142
20471.035372	-748.108500	1375.465820	1300.098755
20471.035372	-748.108500	1374.381836	1284.384277
20471.035372	-748.108500	1373.296875	1396.909058
20471.035372	-748.108500	1372.211914	1254.333618
20471.035372	-748.108500	1371.126953	1377.851929
20471.035372	-748.108500	1370.041016	1270.955811
20471.035372	-748.108500	1368.955078	1140.967285
20471.035372	-748.108500	1367.869141	931.947754
20471.035372	-748.108500	1366.783203	1231.559692
20471.035372	-748.108500	1365.697266	1053.621948
20471.035372	-748.108500	1364.610352	1365.910400
20471.035372	-748.108500	1363.523438	1041.341919
20471.035372	-748.108500	1362.436523	1219.991455
20471.035372	-748.108500	1361.349609	1117.101563
20471.035372	-748.108500	1360.261719	985.329407
20471.035372	-748.108500	1359.174805	1304.927002
20471.035372	-748.108500	1358.086914	1303.825195
20471.035372	-748.108500	1356.998047	1370.886108
20471.035372	-748.108500	1355.910156	1069.601318
20471.035372	-748.108500	1354.821289	1202.025513
20471.035372	-748.108500	1353.732422	1390.644897
20471.035372	-748.108500	1352.643555	1337.047607
20471.035372	-748.108500	1351.554688	1160.304688
20471.035372	-748.108500	1350.464844	1186.068115
20471.035372	-748.108500	1349.375000	1072.757324
20471.035372	-748.108500	1348.285156	1311.999634
20471.035372	-748.108500	1347.195313	1277.824829
20471.035372	-748.108500	1346.105469	1219.567261
20471.035372	-748.108500	1345.014648	1333.813354
20471.035372	-748.108500	1343.923828	1222.468018
20471.035372	-748.108500	1342.833008	1321.979004
20471.035372	-748.108500	1341.741211	1480.719971
20471.035372	-748.108500	1340.650391	1482.280762
20471.035372	-748.108500	1339.558594	1465.269897
20471.035372	-748.108500	1338.466797	1260.953125
20471.035372	-748.108500	1337.374023	1319.280762
20471.035372	-748.108500	1336.282227	1401.343628
20471.035372	-748.108500	1335.189453	1142.360596
20471.035372	-748.108500	1334.096680	1376.965942
20471.035372	-748.108500	1333.003906	1231.541016
20471.035372	-748.108500	1331.910156	1231.339355
20471.035372	-748.108500	1330.817383	1136.241699
20471.035372	-748.108500	1329.723633	1304.510864
20471.035372	-748.108500	1328.629883	1368.901855
20471.035372	-748.108500	1327.535156	1193.018066
20471.035372	-748.108500	1326.441406	1443.575684
20471.035372	-748.108500	1325.346680	1401.476685
20471.035372	-748.108500	1324.251953	1538.534424
20471.035372	-748.108500	1323.156250	1364.333008
20471.035372	-748.108500	1322.061523	1437.683594
20471.035372	-748.108500	1320.965820	1397.949951
20471.035372	-748.108500	1319.870117	1579.966309
20471.035372	-748.108500	1318.774414	1253.151001
20471.035372	-748.108500	1317.678711	1299.012329
20471.035372	-748.108500	1316.582031	1328.033325
20471.035372	-748.108500	1315.485352	1232.032593
20471.035372	-748.108500	1314.388672	1354.797485
20471.035372	-748.108500	1313.291016	1394.805664
20471.035372	-748.108500	1312.194336	1403.858887
20471.035372	-748.108500	1311.096680	1414.166016
20471.035372	-748.108500	1309.999023	1422.457031
20471.035372	-748.108500	1308.901367	1293.822388
20471.035372	-748.108500	1307.802734	1281.976196
20471.035372	-748.108500	1306.705078	1620.092529
20471.035372	-748.108500	1305.606445	1142.412354
20471.035372	-748.108500	1304.506836	1039.910522
20471.035372	-748.108500	1303.408203	1104.749512
20471.035372	-748.108500	1302.308594	1141.068481
20471.035372	-748.108500	1301.208984	1137.440918
20471.035372	-748.108500	1300.109375	1140.662231
20471.035372	-748.108500	1299.009766	1102.697510
20471.035372	-748.108500	1297.909180	763.853455
20471.035372	-748.108500	1296.808594	1080.261597
20471.035372	-748.108500	1295.708008	1004.153015
20471.035372	-748.108500	1294.607422	886.307190
20471.035372	-748.108500	1293.506836	682.001892
20471.035372	-748.108500	1292.405273	814.858459
20471.035372	-748.108500	1291.303711	602.248596
20471.035372	-748.108500	1290.202148	660.280151
20471.035372	-748.108500	1289.099609	534.086182
20471.035372	-748.108500	1287.998047	450.151611
20471.035372	-748.108500	1286.895508	372.142853
20471.035372	-748.108500	1285.792969	365.491913
20471.035372	-748.108500	1284.689453	467.211029
20471.035372	-748.108500	1283.586914	605.444946
20471.035372	-748.108500	1282.483398	548.364319
20471.035372	-748.108500	1281.379883	540.451721
20471.035372	-748.108500	1280.276367	403.861969
20471.035372	-748.108500	1279.171875	386.759766
20471.035372	-748.108500	1278.067383	349.881653
20471.035372	-748.108500	1276.962891	377.421417
20471.035372	-748.108500	1275.858398	377.650940
20471.035372	-748.108500	1274.753906	260.275787
20471.035372	-748.108500	1273.648438	364.335785
20471.035372	-748.108500	1272.542969	302.920929
20471.035372	-748.108500	1271.437500	430.834351
20471.035372	-748.108500	1270.331055	501.756683
20471.035372	-748.108500	1269.225586	478.699188
20471.035372	-748.108500	1268.119141	430.739410
20471.035372	-748.108500	1267.012695	461.984802
20471.035372	-748.108500	1265.906250	352.109680
20471.035372	-748.108500	1264.798828	467.816193
20471.035372	-748.108500	1263.691406	378.094574
20471.035372	-748.108500	1262.583984	224.412094
20471.035372	-748.108500	1261.476563	217.575897
20471.035372	-748.108500	1260.368164	227.348785
20471.035372	-748.108500	1259.260742	283.743774
20471.035372	-748.108500	1258.152344	228.653183
20471.035372	-748.108500	1257.043945	357.975372
20471.035372	-748.108500	1255.934570	376.971252
20471.035372	-748.108500	1254.825195	97.336082
20471.035372	-748.108500	1253.716797	49.630337
20471.035372	-748.108500	1252.606445	153.614166
20471.035372	-748.108500	1251.497070	232.874237
20471.035372	-748.108500	1250.387695	171.591385
20471.035372	-748.108500	1249.277344	413.464050
20471.035372	-748.108500	1248.166992	412.167999
20471.035372	-748.108500	1247.055664	345.784424
20471.035372	-748.108500	1245.945313	447.148773
20471.035372	-748.108500	1244.833984	458.251007
20471.035372	-748.108500	1243.722656	530.188843
20471.035372	-748.108500	1242.611328	481.783234
20471.035372	-748.108500	1241.499023	408.353638
20471.035372	-748.108500	1240.387695	507.309814
20471.035372	-748.108500	1239.275391	478.282349
20471.035372	-748.108500	1238.162109	436.922180
20471.035372	-748.108500	1237.049805	462.469330
20471.035372	-748.108500	1235.936523	275.565918
20471.035372	-748.108500	1234.823242	293.721985
20471.035372	-748.108500	1233.709961	249.404999
20471.035372	-748.108500	1232.596680	225.850021
20471.035372	-748.108500	1231.482422	379.229950
20471.035372	-748.108500	1230.369141	382.509674
20471.035372	-748.108500	1229.253906	335.436920
20471.035372	-748.108500	1228.139648	397.726349
20471.035372	-748.108500	1227.025391	274.832123
20471.035372	-748.108500	1225.910156	228.259109
20471.035372	-748.108500	1224.794922	223.716782
20471.035372	-748.108500	1223.679688	233.055527
20471.035372	-748.108500	1222.563477	178.666840
20471.035372	-748.108500	1221.447266	50.114834
20471.035372	-748.108500	1220.331055	-26.269630
20471.035372	-748.108500	1219.214844	36.086525
20471.035372	-748.108500	1218.098633	6.084502
20471.035372	-748.108500	1216.981445	-44.147976
20471.035372	-748.108500	1215.864258	-29.777081
20471.035372	-748.108500	1214.747070	-74.646683
20471.035372	-748.108500	1213.629883	-184.149490
20471.035372	-748.108500	1212.511719	-76.538757
20471.035372	-748.108500	1211.393555	1.083023
20471.035372	-748.108500	1210.275391	-17.810612
20471.035372	-748.108500	1209.157227	80.731438
20471.035372	-748.108500	1208.038086	24.474329
20471.035372	-748.108500	1206.918945	224.715195
20471.035372	-748.108500	1205.799805	193.828003
20471.035372	-748.108500	1204.680664	278.634003
20471.035372	-748.108500	1203.560547	360.438263
20471.035372	-748.108500	1202.441406	279.373749
20471.035372	-748.108500	1201.321289	318.696991
20471.035372	-748.108500	1200.200195	234.621780
20471.035372	-748.108500	1199.080078	199.402451
20471.035372	-748.108500	1197.958984	234.862701
20471.035372	-748.108500	1196.837891	89.651756
20471.035372	-748.108500	1195.716797	6.492320
20471.035372	-748.108500	1194.594727	42.102207
20471.035372	-748.108500	1193.473633	-0.888624
20471.035372	-748.108500	1192.351563	167.787384
20471.035372	-748.108500	1191.229492	124.813927
20471.035372	-748.108500	1190.106445	61.821747
20471.035372	-748.108500	1188.984375	71.665894
20471.035372	-748.108500	1187.861328	80.985588
20471.035372	-748.108500	1186.738281	65.141563
20471.035372	-748.108500	1185.614258	0.463570
20471.035372	-748.108500	1184.491211	-16.656677
20471.035372	-748.108500	1183.367188	119.762375
20471.035372	-748.108500	1182.243164	-128.525665
20471.035372	-748.108500	1181.119141	-134.364349
20471.035372	-748.108500	1179.994141	-116.907593
20471.035372	-748.108500	1178.869141	-70.177925
20471.035372	-748.108500	1177.744141	-240.094055
20471.035372	-748.108500	1176.619141	-85.494606
20471.035372	-748.108500	1175.493164	-135.509308
20471.035372	-748.108500	1174.368164	-37.535202
20471.035372	-748.108500	1173.242188	207.999008
20471.035372	-748.108500	1172.115234	48.843403
20471.035372	-748.108500	1170.989258	65.783020
20471.035372	-748.108500	1169.862305	74.500107
20471.035372	-748.108500	1168.735352	67.701363
20471.035372	-748.108500	1167.608398	59.452549
20471.035372	-748.108500	1166.481445	65.029411
20471.035372	-748.108500	1165.353516	171.816345
20471.035372	-748.108500	1164.225586	14.145384
20471.035372	-748.108500	1163.097656	-37.503605
20471.035372	-748.108500	1161.968750	-28.821600
20471.035372	-748.108500	1160.840820	16.587194
20471.035372	-748.108500	1159.711914	201.980988
20471.035372	-748.108500	1158.583008	108.847511
20471.035372	-748.108500	1157.453125	79.698639
20471.035372	-748.108500	1156.324219	4.462064
20471.035372	-748.108500	1155.194336	22.626894
20471.035372	-748.108500	1154.064453	-93.123497
20471.035372	-748.108500	1152.933594	-118.435684
20471.035372	-748.108500	1151.803711	-144.088348
20471.035372	-748.108500	1150.672852	-201.744308
20471.035372	-748.108500	1149.541992	-74.898567
20471.035372	-748.108500	1148.411133	-119.449982
20471.035372	-748.108500	1147.279297	7.639101
20471.035372	-748.108500	1146.147461	-96.097702
20471.035372	-748.108500	1145.015625	-175.665680
20471.035372	-748.108500	1143.883789	57.621296
20471.035372	-748.108500	1142.750977	-89.673004
20471.035372	-748.108500	1141.619141	50.367626
20471.035372	-748.108500	1140.486328	78.364182
20471.035372	-748.108500	1139.352539	-106.059906
20471.035372	-748.108500	1138.219727	-110.591408
20471.035372	-748.108500	1137.085938	52.362854
20471.035372	-748.108500	1135.952148	24.568777
20471.035372	-748.108500	1134.818359	18.767271
20471.035372	-748.108500	1133.683594	215.579147
20471.035372	-748.108500	1132.549805	346.929810
20471.035372	-748.108500	1131.415039	594.738892
20471.035372	-748.108500	1130.279297	500.077118
20471.035372	-748.108500	1129.144531	841.857788
20471.035372	-748.108500	1128.008789	1056.495117
20471.035372	-748.108500	1126.873047	735.064270
20471.035372	-748.108500	1125.737305	584.761475
20471.035372	-748.108500	1124.601563	660.726074
20471.035372	-748.108500	1123.464844	550.199280
20471.035372	-748.108500	1122.328125	542.964844
20471.035372	-748.108500	1121.191406	302.160217
20471.035372	-748.108500	1120.054688	485.296967
20471.035372	-748.108500	1118.916992	548.704956
20471.035372	-748.108500	1117.779297	280.844849
20471.035372	-748.108500	1116.641602	184.290833
20471.035372	-748.108500	1115.503906	114.255653
20471.035372	-748.108500	1114.365234	246.023911
20471.035372	-748.108500	1113.226563	87.382919
20471.035372	-748.108500	1112.087891	-3.100981
20471.035372	-748.108500	1110.949219	33.629753
20471.035372	-748.108500	1109.809570	108.184601
20471.035372	-748.108500	1108.669922	-7.752246
20471.035372	-748.108500	1107.530273	268.628754
20471.035372	-748.108500	1106.390625	214.140076
20471.035372	-748.108500	1105.250000	208.702393
20471.035372	-748.108500	1104.109375	389.512054
20471.035372	-748.108500	1102.968750	342.092438
20471.035372	-748.108500	1101.828125	337.872314
20471.035372	-748.108500	1100.686523	445.131439
20471.035372	-748.108500	1099.544922	447.994232
20471.035372	-748.108500	1098.403320	314.609192
20471.035372	-748.108500	1097.261719	400.463654
20471.035372	-748.108500	1096.120117	432.040100
20471.035372	-748.108500	1094.977539	457.774139
20471.035372	-748.108500	1093.834961	342.825897
20471.035372	-748.108500	1092.691406	392.954041
20471.035372	-748.108500	1091.548828	327.778076
20471.035372	-748.108500	1090.405273	179.338684
20471.035372	-748.108500	1089.261719	161.627396
20471.035372	-748.108500	1088.118164	206.319122
20471.035372	-748.108500	1086.973633	288.030579
20471.035372	-748.108500	1085.829102	297.960632
20471.035372	-748.108500	1084.684570	213.203140
20471.035372	-748.108500	1083.540039	-86.562027
20471.035372	-748.108500	1082.395508	89.633064
20471.035372	-748.108500	1081.250000	219.187973
20471.035372	-748.108500	1080.104492	48.324440
20471.035372	-748.108500	1078.958984	193.770203
20471.035372	-748.108500	1077.812500	58.717556
20471.035372	-748.108500	1076.666016	239.153168
20471.035372	-748.108500	1075.519531	231.438583
20471.035372	-748.108500	1074.373047	74.840630
20471.035372	-748.108500	1073.226563	330.663269
20471.035372	-748.108500	1072.079102	262.268341
20471.035372	-748.108500	1070.931641	307.431030
20471.035372	-748.108500	1069.784180	274.699493
20471.035372	-748.108500	1068.635742	162.384521
20471.035372	-748.108500	1067.487305	77.854393
20471.035372	-748.108500	1066.338867	374.062500
20471.035372	-748.108500	1065.190430	183.557999
20471.035372	-748.108500	1064.041992	292.230804
20471.035372	-748.108500	1062.892578	422.893311
20471.035372	-748.108500	1061.743164	396.334167
20471.035372	-748.108500	1060.593750	232.707047
20471.035372	-748.108500	1059.443359	52.476402
20471.035372	-748.108500	1058.292969	313.817902
20471.035372	-748.108500	1057.142578	122.088318
20471.035372	-748.108500	1055.992188	267.297760
20471.035372	-748.108500	1054.841797	230.157532
20471.035372	-748.108500	1053.690430	-59.531338
20471.035372	-748.108500	1052.539063	118.606461
20471.035372	-748.108500	1051.387695	92.110344
20471.035372	-748.108500	1050.235352	-11.620214
20471.035372	-748.108500	1049.083984	92.819054
20471.035372	-748.108500	1047.931641	186.525467
20471.035372	-748.108500	1046.778320	138.100739
20471.035372	-748.108500	1045.625977	149.124435
20471.035372	-748.108500	1044.472656	217.978561
20471.035372	-748.108500	1043.319336	218.881897
20471.035372	-748.108500	1042.166016	215.545746
20471.035372	-748.108500	1041.012695	-80.620262
20471.035372	-748.108500	1039.858398	195.030716
20471.035372	-748.108500	1038.704102	-29.504889
20471.035372	-748.108500	1037.549805	-15.620211
20471.035372	-748.108500	1036.394531	103.991562
20471.035372	-748.108500	1035.239258	163.589767
20471.035372	-748.108500	1034.083984	147.613358
20471.035372	-748.108500	1032.928711	286.388916
20471.035372	-748.108500	1031.773438	106.688416
20471.035372	-748.108500	1030.617188	125.955986
20471.035372	-748.108500	1029.460938	222.555878
20471.035372	-748.108500	1028.304688	316.924103
20471.035372	-748.108500	1027.147461	173.596375
20471.035372	-748.108500	1025.991211	79.600243
20471.035372	-748.108500	1024.833984	150.149216
20471.035372	-748.108500	1023.675781	168.182053
20471.035372	-748.108500	1022.518555	424.257935
20471.035372	-748.108500	1021.360352	156.420059
20471.035372	-748.108500	1020.202148	220.125061
20471.035372	-748.108500	1019.043945	194.388077
20471.035372	-748.108500	1017.884766	35.671093
20471.035372	-748.108500	1016.726563	110.830879
20471.035372	-748.108500	1015.567383	-49.991428
20471.035372	-748.108500	1014.407227	-175.287720
20471.035372	-748.108500	1013.248047	100.538490
20471.035372	-748.108500	1012.087891	-131.584976
20471.035372	-748.108500	1010.927734	-32.992878
20471.035372	-748.108500	1009.767578	-46.441555
20471.035372	-748.108500	1008.606445	78.617355
20471.035372	-748.108500	1007.446289	-217.291275
20471.035372	-748.108500	1006.285156	-80.029305
20471.035372	-748.108500	1005.123047	4.774665
20471.035372	-748.108500	1003.961914	48.944748
20471.035372	-748.108500	1002.799805	-222.305145
20471.035372	-748.108500	1001.637695	-108.939133
20471.035372	-748.108500	1000.475586	25.813812
20471.035372	-748.108500	999.312500	128.880447
20471.035372	-748.108500	998.149414	11.169909
20471.035372	-748.108500	996.986328	-201.000885
20471.035372	-748.108500	995.823242	-87.481033
20471.035372	-748.108500	994.659180	-86.037354
20471.035372	-748.108500	993.496094	83.196396
20471.035372	-748.108500	992.332031	297.344147
20471.035372	-748.108500	991.166992	26.245111
20471.035372	-748.108500	990.002930	1.442664
20471.035372	-748.108500	988.837891	-82.632004
20471.035372	-748.108500	987.672852	17.328245
20471.035372	-748.108500	986.506836	-149.629395
20471.035372	-748.108500	985.341797	-88.536278
20471.035372	-748.108500	984.175781	86.930893
20471.035372	-748.108500	983.009766	-37.948826
20471.035372	-748.108500	981.843750	110.827026
20471.035372	-748.108500	980.676758	-38.365520
20471.035372	-748.108500	979.509766	-59.209175
20471.035372	-748.108500	978.342773	162.358093
20471.035372	-748.108500	977.175781	19.130770
20471.035372	-748.108500	976.007813	77.223885
20471.035372	-748.108500	974.839844	165.287979
20471.035372	-748.108500	973.671875	24.277641
20471.035372	-748.108500	972.503906	45.737347
20471.035372	-748.108500	971.334961	-77.217094
20471.035372	-748.108500	970.166016	25.072847
20471.035372	-748.108500	968.997070	23.505148
20471.035372	-748.108500	967.828125	100.543198
20471.035372	-748.108500	966.658203	29.026234
20471.035372	-748.108500	965.488281	220.839554
20471.035372	-748.108500	964.318359	287.744385
20471.035372	-748.108500	963.148438	264.830109
20471.035372	-748.108500	961.977539	-27.417767
20471.035372	-748.108500	960.806641	34.990730
20471.035372	-748.108500	959.635742	87.189880
20471.035372	-748.108500	958.463867	114.818359
20471.035372	-748.108500	957.292969	355.092407
20471.035372	-748.108500	956.121094	106.568123
20471.035372	-748.108500	954.948242	-31.233635
20471.035372	-748.108500	953.776367	97.890945
20471.035372	-748.108500	952.603516	12.171506
20471.035372	-748.108500	951.430664	73.972420
20471.035372	-748.108500	950.257813	101.352745
20471.035372	-748.108500	949.084961	195.303162
20471.035372	-748.108500	947.911133	218.175797
20471.035372	-748.108500	946.737305	70.411324
20471.035372	-748.108500	945.563477	37.705521
20471.035372	-748.108500	944.388672	-83.246880
20471.035372	-748.108500	943.213867	-24.012869
20471.035372	-748.108500	942.039063	49.341591
20471.035372	-748.108500	940.864258	72.078644
20471.035372	-748.108500	939.688477	232.929947
20471.035372	-748.108500	938.513672	211.613113
20471.035372	-748.108500	937.337891	-67.351418
20471.035372	-748.108500	936.161133	15.929235
20471.035372	-748.108500	934.985352	179.206116
20471.035372	-748.108500	933.808594	82.595116
20471.035372	-748.108500	932.631836	340.591125
20471.035372	-748.108500	931.454102	275.251648
20471.035372	-748.108500	930.277344	503.854401
20471.035372	-748.108500	929.099609	205.279587
20471.035372	-748.108500	927.921875	399.735107
20471.035372	-748.108500	926.743164	518.905273
20471.035372	-748.108500	925.565430	276.113037
20471.035372	-748.108500	924.386719	402.376923
20471.035372	-748.108500	923.208008	523.739929
20471.035372	-748.108500	922.028320	251.877350
20471.035372	-748.108500	920.849609	200.867355
20471.035372	-748.108500	919.669922	208.080673
20471.035372	-748.108500	919.474609	391.189789
20471.035372	-748.108500	918.309570	264.817749
20471.035372	-748.108500	917.143555	89.965614
20471.035372	-748.108500	915.977539	-7.277545
20471.035372	-748.108500	914.810547	-56.039398
20471.035372	-748.108500	913.644531	-53.935776
20471.035372	-748.108500	912.477539	35.354767
20471.035372	-748.108500	911.310547	54.321831
20471.035372	-748.108500	910.143555	82.929573
20471.035372	-748.108500	908.975586	-21.683279
20471.035372	-748.108500	907.807617	169.055008
20471.035372	-748.108500	906.639648	42.606598
20471.035372	-748.108500	905.471680	34.746189
20471.035372	-748.108500	904.303711	104.272865
20471.035372	-748.108500	903.134766	55.210892
20471.035372	-748.108500	901.965820	187.513977
20471.035372	-748.108500	900.796875	145.635498
20471.035372	-748.108500	899.626953	-101.740250
20471.035372	-748.108500	898.457031	76.329788
20471.035372	-748.108500	897.287109	109.303841
20471.035372	-748.108500	896.117188	-80.040535
20471.035372	-748.108500	894.947266	-68.860344
20471.035372	-748.108500	893.776367	94.427948
20471.035372	-748.108500	892.605469	293.830017
20471.035372	-748.108500	891.434570	126.190773
20471.035372	-748.108500	890.262695	96.157135
20471.035372	-748.108500	889.091797	302.569611
20471.035372	-748.108500	887.919922	214.542084
20471.035372	-748.108500	886.748047	184.402618
20471.035372	-748.108500	885.575195	-74.847527
20471.035372	-748.108500	884.403320	-97.752403
20471.035372	-748.108500	883.230469	76.987175
20471.035372	-748.108500	882.057617	227.519669
20471.035372	-748.108500	880.883789	81.586441
20471.035372	-748.108500	879.710938	-163.097565
20471.035372	-748.108500	878.537109	126.990196
20471.035372	-748.108500	877.362305	171.305817
20471.035372	-748.108500	876.188477	44.626919
20471.035372	-748.108500	875.013672	-69.993874
20471.035372	-748.108500	873.839844	-4.112813
20471.035372	-748.108500	872.664063	68.935646
20471.035372	-748.108500	871.489258	-91.427910
20471.035372	-748.108500	870.313477	-23.269302
20471.035372	-748.108500	869.138672	203.528290
20471.035372	-748.108500	867.962891	-16.965334
20471.035372	-748.108500	866.786133	168.818176
20471.035372	-748.108500	865.610352	-49.242508
20471.035372	-748.108500	864.433594	-34.184208
20471.035372	-748.108500	863.256836	7.257159
20471.035372	-748.108500	862.079102	-64.225487
20471.035372	-748.108500	860.902344	214.855148
20471.035372	-748.108500	859.724609	-77.571213
20471.035372	-748.108500	858.546875	-96.289238
20471.035372	-748.108500	857.368164	79.346985
20471.035372	-748.108500	856.190430	31.746828
20471.035372	-748.108500	855.011719	-114.210045
20471.035372	-748.108500	853.833008	-22.717388
20471.035372	-748.108500	852.654297	-125.511520
20471.035372	-748.108500	851.474609	-151.581482
20471.035372	-748.108500	850.294922	-7.505703
20471.035372	-748.108500	849.115234	-189.413116
20471.035372	-748.108500	847.935547	-50.248066
20471.035372	-748.108500	846.754883	-78.838608
20471.035372	-748.108500	845.575195	-11.663559
20471.035372	-748.108500	844.393555	81.793922
20471.035372	-748.108500	843.212891	72.242485
20471.035372	-748.108500	842.032227	-114.444786
20471.035372	-748.108500	840.850586	-116.838272
20471.035372	-748.108500	839.668945	-107.303314
20471.035372	-748.108500	838.486328	-145.639862
20471.035372	-748.108500	837.304688	-138.563690
20471.035372	-748.108500	836.122070	-107.613152
20471.035372	-748.108500	834.939453	-141.249176
20471.035372	-748.108500	833.756836	-215.534378
20471.035372	-748.108500	832.573242	-179.909470
20471.035372	-748.108500	831.389648	-20.112698
20471.035372	-748.108500	830.206055	67.932022
20471.035372	-748.108500	829.022461	177.395477
20471.035372	-748.108500	827.838867	-83.268349
20471.035372	-748.108500	826.654297	-78.910530
20471.035372	-748.108500	825.469727	-141.409775
20471.035372	-748.108500	824.284180	10.817318
20471.035372	-748.108500	823.099609	-73.215820
20471.035372	-748.108500	821.914063	195.723160
20471.035372	-748.108500	820.728516	9.086695
20471.035372	-748.108500	819.542969	48.965477
20471.035372	-748.108500	818.356445	131.695679
20471.035372	-748.108500	817.169922	-114.493820
20471.035372	-748.108500	815.983398	182.585327
20471.035372	-748.108500	814.796875	-180.305344
20471.035372	-748.108500	813.609375	42.766888
20471.035372	-748.108500	812.422852	265.705627
20471.035372	-748.108500	811.235352	43.361725
20471.035372	-748.108500	810.046875	-28.983793
20471.035372	-748.108500	808.859375	-3.780693
20471.035372	-748.108500	807.670898	76.095161
20471.035372	-748.108500	806.482422	-22.492315
20471.035372	-748.108500	805.293945	19.227198
20471.035372	-748.108500	804.104492	101.311127
20471.035372	-748.108500	802.915039	81.107849
20471.035372	-748.108500	801.725586	205.843735
20471.035372	-748.108500	800.536133	69.120155
20471.035372	-748.108500	799.345703	86.828369
20471.035372	-748.108500	798.155273	237.493637
20471.035372	-748.108500	796.964844	131.599152
20471.035372	-748.108500	795.774414	187.147644
20471.035372	-748.108500	794.583008	-20.837931
20471.035372	-748.108500	793.392578	139.053848
20471.035372	-748.108500	792.200195	-66.543365
20471.035372	-748.108500	791.008789	247.400421
20471.035372	-748.108500	789.816406	56.011227
20471.035372	-748.108500	788.625000	-116.373466
20471.035372	-748.108500	787.432617	52.649578
20471.035372	-748.108500	786.239258	95.943306
20471.035372	-748.108500	785.046875	6.469428
20471.035372	-748.108500	783.853516	68.621193
20471.035372	-748.108500	782.660156	-61.161652
20471.035372	-748.108500	781.465820	12.734269
20471.035372	-748.108500	780.272461	145.745560
20471.035372	-748.108500	779.078125	122.422394
20471.035372	-748.108500	777.883789	170.066971
20471.035372	-748.108500	776.688477	94.603065
20471.035372	-748.108500	775.494141	-40.020718
20471.035372	-748.108500	774.298828	99.739662
20471.035372	-748.108500	773.103516	2.917975
20471.035372	-748.108500	771.907227	3.027697
20471.035372	-748.108500	770.711914	81.095863
20471.035372	-748.108500	769.515625	440.318542
20471.035372	-748.108500	768.318359	81.052841
20471.035372	-748.108500	767.122070	-91.489433
20471.035372	-748.108500	765.924805	106.801636
20471.035372	-748.108500	764.727539	-44.514500
20471.035372	-748.108500	763.530273	-113.187096
20471.035372	-748.108500	762.333008	-127.590378
20471.035372	-748.108500	761.134766	185.987015
20471.035372	-748.108500	759.936523	185.588074
20471.035372	-748.108500	758.738281	88.426476
20471.035372	-748.108500	757.540039	-8.744100
20471.035372	-748.108500	756.340820	-167.227081
20471.035372	-748.108500	755.141602	-94.667763
20471.035372	-748.108500	753.942383	3.737344
20471.035372	-748.108500	752.742188	-6.342643
20471.035372	-748.108500	751.541992	-16.468920
20471.035372	-748.108500	750.341797	3.979410
20471.035372	-748.108500	749.141602	123.276566
20471.035372	-748.108500	747.941406	124.749504
20471.035372	-748.108500	746.740234	149.711685
20471.035372	-748.108500	745.539063	172.258362
20471.035372	-748.108500	744.337891	-80.555939
20471.035372	-748.108500	743.135742	-93.361259
20471.035372	-748.108500	741.933594	150.155594
20471.035372	-748.108500	740.731445	-93.244804
20471.035372	-748.108500	739.529297	81.885612
20471.035372	-748.108500	738.326172	113.508469
20471.035372	-748.108500	737.124023	100.413864
20471.035372	-748.108500	735.919922	239.993698
20471.035372	-748.108500	734.716797	240.866516
20471.035372	-748.108500	733.513672	121.907967
20471.035372	-748.108500	732.309570	-11.142200
20471.035372	-748.108500	731.105469	27.182943
20471.035372	-748.108500	729.900391	175.752945
20471.035372	-748.108500	728.696289	157.595856
20471.035372	-748.108500	727.491211	169.892273
20471.035372	-748.108500	726.286133	236.078079
20471.035372	-748.108500	725.080078	30.146690
20471.035372	-748.108500	723.874023	236.904190
20471.035372	-748.108500	722.668945	567.759399
20471.035372	-748.108500	721.461914	106.262810
20471.035372	-748.108500	720.255859	90.106918
20471.035372	-748.108500	719.048828	270.688538
20471.035372	-748.108500	717.841797	254.394104
20471.035372	-748.108500	716.634766	268.493042
20471.035372	-748.108500	715.427734	46.068333
20471.035372	-748.108500	714.219727	235.647217
20471.035372	-748.108500	713.011719	202.769653
20471.035372	-748.108500	711.803711	211.963898
20471.035372	-748.108500	710.594727	204.723907
20471.035372	-748.108500	709.385742	71.137642
20471.035372	-748.108500	708.176758	80.186508
20471.035372	-748.108500	706.967773	-111.875587
20471.035372	-748.108500	705.758789	-65.508606
20471.035372	-748.108500	704.548828	-112.690460
20471.035372	-748.108500	703.338867	-162.245071
20471.035372	-748.108500	702.127930	-55.334991
20471.035372	-748.108500	700.917969	91.173538
20471.035372	-748.108500	699.707031	15.754155
20471.035372	-748.108500	698.496094	52.358562
20471.035372	-748.108500	697.285156	-51.139156
20471.035372	-748.108500	696.073242	1.684184
20471.035372	-748.108500	694.861328	122.082207
20471.035372	-748.108500	693.649414	226.046188
20471.035372	-748.108500	692.436523	108.380104
20471.035372	-748.108500	691.224609	375.389374
20471.035372	-748.108500	690.011719	329.886810
20471.035372	-748.108500	688.798828	295.999420
20471.035372	-748.108500	687.584961	215.470398
20471.035372	-748.108500	686.372070	106.966919
20471.035372	-748.108500	685.158203	429.309326
20471.035372	-748.108500	683.943359	320.691986
20471.035372	-748.108500	682.729492	491.423950
20471.035372	-748.108500	681.514648	445.571411
20471.035372	-748.108500	680.299805	450.875946
20471.035372	-748.108500	679.084961	605.019348
20471.035372	-748.108500	677.869141	528.766174
20471.035372	-748.108500	676.653320	287.376617
20471.035372	-748.108500	675.437500	408.740570
20471.035372	-748.108500	674.221680	469.561432
20471.035372	-748.108500	673.004883	337.403290
20471.035372	-748.108500	671.789063	416.692322
20471.035372	-748.108500	670.571289	265.906494
20471.035372	-748.108500	669.354492	314.874969
20471.035372	-748.108500	668.136719	317.326233
20471.035372	-748.108500	666.919922	421.875275
20471.035372	-748.108500	665.701172	394.020111
20471.035372	-748.108500	664.483398	310.430359
20471.035372	-748.108500	663.264648	217.541153
20471.035372	-748.108500	662.045898	175.671097
20471.035372	-748.108500	660.827148	124.491386
20471.035372	-748.108500	659.608398	200.808060
20471.035372	-748.108500	658.388672	416.130219
20471.035372	-748.108500	657.168945	415.765839
20471.035372	-748.108500	655.949219	162.774887
20471.035372	-748.108500	654.728516	526.086304
20471.035372	-748.108500	653.507813	344.880219
20471.035372	-748.108500	652.287109	309.592712
20471.035372	-748.108500	651.066406	260.380402
20471.035372	-748.108500	649.844727	336.135010
20471.035372	-748.108500	648.623047	397.923645
20471.035372	-748.108500	647.401367	320.811249
20471.035372	-748.108500	646.179688	366.288544
20471.035372	-748.108500	644.957031	434.826172
20471.035372	-748.108500	643.734375	452.417297
20471.035372	-748.108500	642.511719	389.040894
20471.035372	-748.108500	641.289063	353.383057
20471.035372	-748.108500	640.065430	484.072571
20471.035372	-748.108500	638.841797	427.523651
20471.035372	-748.108500	637.618164	301.658661
20471.035372	-748.108500	636.393555	228.916916
20471.035372	-748.108500	635.168945	331.638519
20471.035372	-748.108500	633.944336	150.341614
20471.035372	-748.108500	632.719727	61.395924
20471.035372	-748.108500	631.494141	37.051201
20471.035372	-748.108500	630.269531	264.134888
20471.035372	-748.108500	629.042969	306.561035
20471.035372	-748.108500	627.817383	288.978363
20471.035372	-748.108500	626.590820	338.219635
20471.035372	-748.108500	625.365234	223.751282
20471.035372	-748.108500	624.137695	153.072952
20471.035372	-748.108500	622.911133	98.519295
20471.035372	-748.108500	621.683594	-91.957939
20471.035372	-748.108500	620.456055	-95.845337
20471.035372	-748.108500	619.228516	13.056997
20471.035372	-748.108500	618.000977	131.088623
20471.035372	-748.108500	616.772461	-13.345643
20471.035372	-748.108500	615.543945	118.378090
20471.035372	-748.108500	614.314453	-42.164509
20471.035372	-748.108500	613.085938	82.544342
20471.035372	-748.108500	611.856445	-135.473633
20471.035372	-748.108500	610.626953	69.606750
20471.035372	-748.108500	609.397461	76.888786
20471.035372	-748.108500	608.166992	54.259594
20471.035372	-748.108500	606.936523	162.578629
20471.035372	-748.108500	605.706055	29.622055
20471.035372	-748.108500	604.474609	-202.064850
20471.035372	-748.108500	603.244141	62.300747
20471.035372	-748.108500	602.012695	62.519566
20471.035372	-748.108500	600.780273	-100.248482
20471.035372	-748.108500	599.548828	33.052017
20471.035372	-748.108500	598.316406	-58.565414
20471.035372	-748.108500	597.083984	92.970802
20471.035372	-748.108500	595.851563	145.810867
20471.035372	-748.108500	594.618164	320.122070
20471.035372	-748.108500	593.384766	182.589325
20471.035372	-748.108500	592.151367	97.808136
20471.035372	-748.108500	590.917969	-28.199171
20471.035372	-748.108500	589.683594	191.739517
20471.035372	-748.108500	588.449219	116.116768
20471.035372	-748.108500	587.214844	370.246918
20471.035372	-748.108500	585.979492	191.563721
20471.035372	-748.108500	584.745117	205.209869
20471.035372	-748.108500	583.509766	280.620514
20471.035372	-748.108500	582.273438	170.664581
20471.035372	-748.108500	581.038086	-17.024952
20471.035372	-748.108500	579.801758	21.756527
20471.035372	-748.108500	578.565430	156.540741
20471.035372	-748.108500	577.329102	316.403717
20471.035372	-748.108500	576.091797	105.944229
20471.035372	-748.108500	574.854492	-79.298157
20471.035372	-748.108500	573.617188	135.315048
20471.035372	-748.108500	572.378906	281.306458
20471.035372	-748.108500	571.141602	267.390137
20471.035372	-748.108500	569.903320	276.301819
20471.035372	-748.108500	568.664063	209.880234
20471.035372	-748.108500	567.425781	305.511292
20471.035372	-748.108500	566.186523	373.718842
20471.035372	-748.108500	564.947266	257.129303
20471.035372	-748.108500	563.708008	386.890961
20471.035372	-748.108500	562.467773	242.984329
20471.035372	-748.108500	561.227539	354.454773
20471.035372	-748.108500	559.987305	278.992523
20471.035372	-748.108500	558.747070	237.744766
20471.035372	-748.108500	557.505859	253.468414
20471.035372	-748.108500	556.264648	326.129669
20471.035372	-748.108500	555.023438	148.277100
20471.035372	-748.108500	553.781250	352.984009
20471.035372	-748.108500	552.539063	300.401093
20471.035372	-748.108500	551.296875	238.743866
20471.035372	-748.108500	550.054688	381.889954
20471.035372	-748.108500	548.811523	433.990723
20471.035372	-748.108500	547.569336	495.177887
20471.035372	-748.108500	546.325195	290.311584
20471.035372	-748.108500	545.082031	292.414703
20471.035372	-748.108500	543.837891	255.886063
20471.035372	-748.108500	542.593750	-60.108196
20471.035372	-748.108500	541.349609	-17.009920
20471.035372	-748.108500	540.105469	-44.328377
20471.035372	-748.108500	538.860352	-146.563583
20471.035372	-748.108500	537.615234	-182.902069
20471.035372	-748.108500	536.369141	139.423721
20471.035372	-748.108500	535.124023	-123.870003
20471.035372	-748.108500	533.877930	-101.160728
20471.035372	-748.108500	532.631836	107.564087
20471.035372	-748.108500	531.384766	-33.049156
20471.035372	-748.108500	530.138672	-37.537369
20471.035372	-748.108500	528.891602	-87.349350
20471.035372	-748.108500	527.643555	-143.928162
20471.035372	-748.108500	526.396484	-216.323578
20471.035372	-748.108500	525.148438	-270.550812
20471.035372	-748.108500	523.900391	-195.633759
20471.035372	-748.108500	522.652344	-34.680660
20471.035372	-748.108500	521.403320	-229.235687
20471.035372	-748.108500	520.154297	-86.421486
20471.035372	-748.108500	518.905273	-129.222412
20471.035372	-748.108500	517.656250	-29.446112
20471.035372	-748.108500	516.406250	-92.569435
20471.035372	-748.108500	515.156250	-96.847084
20471.035372	-748.108500	513.906250	-44.578018
20471.035372	-748.108500	512.655273	120.712967
20471.035372	-748.108500	511.404297	195.544449
20471.035372	-748.108500	510.153320	53.432747
20471.035372	-748.108500	508.902344	191.534805
20471.035372	-748.108500	507.650391	74.357925
20471.035372	-748.108500	506.398438	135.645050
20471.035372	-748.108500	505.146484	185.632065
20471.035372	-748.108500	503.893555	183.692383
20471.035372	-748.108500	502.641602	-52.931164
20471.035372	-748.108500	501.388672	3.870996
20471.035372	-748.108500	500.134766	214.050385
20471.035372	-748.108500	498.881836	130.966797
20471.035372	-748.108500	497.627930	395.166229
20471.035372	-748.108500	496.374023	19.036572
20471.035372	-748.108500	495.119141	96.095497
20471.035372	-748.108500	493.865234	211.438797
20471.035372	-748.108500	492.610352	81.175774
20471.035372	-748.108500	491.355469	187.473373
20471.035372	-748.108500	490.099609	302.736694
20471.035372	-748.108500	488.843750	235.589600
20471.035372	-748.108500	487.587891	339.544434
20471.035372	-748.108500	486.332031	270.172211
20471.035372	-748.108500	485.075195	351.574036
20471.035372	-748.108500	483.818359	414.942780
20471.035372	-748.108500	482.561523	500.772003
20471.035372	-748.108500	481.304688	413.425354
20471.035372	-748.108500	480.046875	110.297592
20471.035372	-748.108500	478.789063	97.223885
20471.035372	-748.108500	477.531250	131.333237
20471.035372	-748.108500	476.272461	21.634445
20471.035372	-748.108500	475.013672	96.146004
20471.035372	-748.108500	473.754883	350.257416
20471.035372	-748.108500	472.496094	186.651077
20471.035372	-748.108500	471.236328	-50.980019
20471.035372	-748.108500	469.976563	135.609833
20471.035372	-748.108500	468.716797	-88.493904
20471.035372	-748.108500	467.456055	-97.187447
20471.035372	-748.108500	466.196289	44.354912
20471.035372	-748.108500	464.935547	-54.115898
20471.035372	-748.108500	463.673828	-20.321531
20471.035372	-748.108500	462.413086	-2.266504
20471.035372	-748.108500	461.151367	262.217621
20471.035372	-748.108500	459.889648	329.399384
20471.035372	-748.108500	458.626953	394.260620
20471.035372	-748.108500	457.364258	273.180023
20471.035372	-748.108500	456.101563	414.036987
20471.035372	-748.108500	454.838867	172.021317
20471.035372	-748.108500	453.575195	91.167915
20471.035372	-748.108500	452.312500	218.360657
20471.035372	-748.108500	451.047852	132.918228
20471.035372	-748.108500	449.784180	89.932976
20471.035372	-748.108500	448.519531	243.644623
20471.035372	-748.108500	447.254883	339.085663
20471.035372	-748.108500	445.990234	349.469452
20471.035372	-748.108500	444.725586	299.426270
20471.035372	-748.108500	443.459961	450.362640
20471.035372	-748.108500	442.194336	567.629089
20471.035372	-748.108500	440.927734	278.326019
20471.035372	-748.108500	439.662109	344.012177
20471.035372	-748.108500	438.395508	534.544250
20471.035372	-748.108500	437.127930	367.816071
20471.035372	-748.108500	435.861328	397.371826
20471.035372	-748.108500	434.593750	315.246948
20471.035372	-748.108500	433.326172	576.455627
20471.035372	-748.108500	432.058594	438.301605
20471.035372	-748.108500	430.790039	326.801300
20471.035372	-748.108500	429.521484	353.367249
20471.035372	-748.108500	428.252930	324.053650
20471.035372	-748.108500	426.984375	252.255386
20471.035372	-748.108500	425.714844	302.802246
20471.035372	-748.108500	424.445313	426.623169
20471.035372	-748.108500	423.174805	470.049255
20471.035372	-748.108500	421.905273	301.814117
20471.035372	-748.108500	420.634766	487.260223
20471.035372	-748.108500	419.364258	719.131897
20471.035372	-748.108500	418.092773	485.792084
20471.035372	-748.108500	416.822266	561.442749
20471.035372	-748.108500	415.550781	383.353088
20471.035372	-748.108500	414.278320	642.993835
20471.035372	-748.108500	413.006836	586.692505
20471.035372	-748.108500	411.734375	643.462708
20471.035372	-748.108500	410.461914	406.706879
20471.035372	-748.108500	409.188477	529.556824
20471.035372	-748.108500	407.916016	596.556763
20471.035372	-748.108500	406.642578	443.441437
20471.035372	-748.108500	405.368164	281.195801
20471.035372	-748.108500	404.094727	617.985901
20471.035372	-748.108500	402.820313	657.006409
20471.035372	-748.108500	401.545898	684.578918
20471.035372	-748.108500	400.270508	563.200134
20471.035372	-748.108500	398.996094	638.841187
20471.035372	-748.108500	397.720703	601.018921
20471.035372	-748.108500	396.444336	314.611267
20471.035372	-748.108500	395.168945	522.029541
20471.035372	-748.108500	393.892578	336.855835
20471.035372	-748.108500	392.616211	332.945160
20471.035372	-748.108500	391.339844	383.958557
20471.035372	-748.108500	390.062500	312.738251
20471.035372	-748.108500	388.785156	539.877869
20471.035372	-748.108500	387.507813	430.108948
20471.035372	-748.108500	386.229492	198.215347
20471.035372	-748.108500	384.951172	193.739212
20471.035372	-748.108500	383.672852	323.644806
20471.035372	-748.108500	382.394531	313.685181
20471.035372	-748.108500	381.115234	453.481445
20471.035372	-748.108500	379.835938	323.057739
20471.035372	-748.108500	378.556641	408.641907
20471.035372	-748.108500	377.277344	334.564209
20471.035372	-748.108500	375.997070	334.989746
20471.035372	-748.108500	374.716797	288.433594
20471.035372	-748.108500	373.435547	201.515427
20471.035372	-748.108500	372.155273	21.312300
20471.035372	-748.108500	370.874023	125.147346
20471.035372	-748.108500	369.591797	-34.280312
20471.035372	-748.108500	368.310547	68.144623
20471.035372	-748.108500	367.028320	207.276550
20471.035372	-748.108500	365.746094	54.610367
20471.035372	-748.108500	364.463867	441.268433
20471.035372	-748.108500	363.180664	13.829814
20471.035372	-748.108500	361.897461	105.732529
20471.035372	-748.108500	360.614258	18.374422
20471.035372	-748.108500	359.330078	-122.645729
20471.035372	-748.108500	358.045898	279.372650
20471.035372	-748.108500	356.761719	389.789398
20471.035372	-748.108500	355.477539	-20.102409
20471.035372	-748.108500	354.192383	-1.693217
20471.035372	-748.108500	352.907227	26.781355
20471.035372	-748.108500	351.622070	3.713054
20471.035372	-748.108500	350.336914	87.428871
20471.035372	-748.108500	349.050781	-5.777341
20471.035372	-748.108500	347.764648	58.291916
20471.035372	-748.108500	346.477539	33.371628
20471.035372	-748.108500	345.191406	-5.745201
20471.035372	-748.108500	343.904297	-8.618203
20471.035372	-748.108500	342.616211	53.251900
20471.035372	-748.108500	341.329102	54.721481
20471.035372	-748.108500	340.041016	114.267891
20471.035372	-748.108500	338.752930	238.447159
20471.035372	-748.108500	337.463867	27.839403
20471.035372	-748.108500	336.175781	116.649323
20471.035372	-748.108500	334.886719	76.930702
20471.035372	-748.108500	333.596680	-32.061256
20471.035372	-748.108500	332.307617	-83.086128
20471.035372	-748.108500	331.017578	-122.311790
20471.035372	-748.108500	329.727539	146.071548
20471.035372	-748.108500	328.436523	-121.622253
20471.035372	-748.108500	327.146484	-110.226341
20471.035372	-748.108500	325.855469	-52.151688
20471.035372	-748.108500	324.563477	-41.598320
20471.035372	-748.108500	323.272461	26.588322
20471.035372	-748.108500	321.980469	119.423103
20471.035372	-748.108500	320.688477	-163.465149
20471.035372	-748.108500	319.395508	-132.899200
20471.035372	-748.108500	318.103516	-219.826263
20471.035372	-748.108500	316.810547	-131.329376
20471.035372	-748.108500	315.516602	-94.891159
20471.035372	-748.108500	314.223633	-259.013214
20471.035372	-748.108500	312.929688	-22.843016
20471.035372	-748.108500	311.635742	-31.044107
20471.035372	-748.108500	310.340820	-139.404327
20471.035372	-748.108500	309.045898	248.267059
20471.035372	-748.108500	307.750977	57.551102
20471.035372	-748.108500	306.456055	43.962017
20471.035372	-748.108500	305.160156	100.358841
20471.035372	-748.108500	303.865234	353.324768
20471.035372	-748.108500	302.568359	377.169464
20471.035372	-748.108500	301.272461	778.432800
20471.035372	-748.108500	299.975586	569.068481
20471.035372	-748.108500	298.678711	569.075867
