#X		#Y		#Wave		#Intensity
31420.388777	1095.746500	1999.980469	-261.587860
31420.388777	1095.746500	1999.016602	-38.581959
31420.388777	1095.746500	1998.052734	-11.079295
31420.388777	1095.746500	1997.087891	-8.759872
31420.388777	1095.746500	1996.123047	84.844467
31420.388777	1095.746500	1995.158203	61.606876
31420.388777	1095.746500	1994.193359	65.256699
31420.388777	1095.746500	1993.228516	177.508408
31420.388777	1095.746500	1992.262695	4.660432
31420.388777	1095.746500	1991.297852	185.513870
31420.388777	1095.746500	1990.332031	7.122499
31420.388777	1095.746500	1989.366211	9.119568
31420.388777	1095.746500	1988.399414	65.247665
31420.388777	1095.746500	1987.433594	9.746130
31420.388777	1095.746500	1986.466797	-46.011395
31420.388777	1095.746500	1985.500977	-84.720375
31420.388777	1095.746500	1984.534180	101.293030
31420.388777	1095.746500	1983.567383	42.282795
31420.388777	1095.746500	1982.599609	-26.832647
31420.388777	1095.746500	1981.632813	128.675400
31420.388777	1095.746500	1980.665039	-165.697830
31420.388777	1095.746500	1979.697266	-82.295761
31420.388777	1095.746500	1978.729492	67.537277
31420.388777	1095.746500	1977.761719	-42.132095
31420.388777	1095.746500	1976.792969	72.677544
31420.388777	1095.746500	1975.825195	73.721786
31420.388777	1095.746500	1974.856445	131.339859
31420.388777	1095.746500	1973.887695	75.272530
31420.388777	1095.746500	1972.918945	213.922424
31420.388777	1095.746500	1971.949219	-24.967125
31420.388777	1095.746500	1970.980469	7.305716
31420.388777	1095.746500	1970.010742	-32.073765
31420.388777	1095.746500	1969.041016	192.154755
31420.388777	1095.746500	1968.071289	34.186996
31420.388777	1095.746500	1967.101563	-5.585136
31420.388777	1095.746500	1966.130859	-156.321503
31420.388777	1095.746500	1965.161133	54.939262
31420.388777	1095.746500	1964.190430	69.004860
31420.388777	1095.746500	1963.219727	90.344475
31420.388777	1095.746500	1962.249023	288.810181
31420.388777	1095.746500	1961.277344	145.004486
31420.388777	1095.746500	1960.306641	28.226032
31420.388777	1095.746500	1959.334961	164.810059
31420.388777	1095.746500	1958.363281	55.280266
31420.388777	1095.746500	1957.391602	-19.854792
31420.388777	1095.746500	1956.419922	-43.400154
31420.388777	1095.746500	1955.447266	-10.461597
31420.388777	1095.746500	1954.474609	123.174789
31420.388777	1095.746500	1953.501953	244.413544
31420.388777	1095.746500	1952.529297	-15.292119
31420.388777	1095.746500	1951.556641	76.338066
31420.388777	1095.746500	1950.583984	251.392822
31420.388777	1095.746500	1949.610352	134.110977
31420.388777	1095.746500	1948.636719	-7.722608
31420.388777	1095.746500	1947.663086	105.753853
31420.388777	1095.746500	1946.689453	-1.735649
31420.388777	1095.746500	1945.715820	163.159729
31420.388777	1095.746500	1944.741211	33.556034
31420.388777	1095.746500	1943.767578	83.038826
31420.388777	1095.746500	1942.792969	56.452129
31420.388777	1095.746500	1941.818359	164.715988
31420.388777	1095.746500	1940.842773	40.021126
31420.388777	1095.746500	1939.868164	-1.304922
31420.388777	1095.746500	1938.892578	-101.445084
31420.388777	1095.746500	1937.916992	-32.495247
31420.388777	1095.746500	1936.941406	46.218708
31420.388777	1095.746500	1935.965820	36.722374
31420.388777	1095.746500	1934.990234	95.791252
31420.388777	1095.746500	1934.013672	-43.482319
31420.388777	1095.746500	1933.037109	74.325859
31420.388777	1095.746500	1932.060547	143.141418
31420.388777	1095.746500	1931.083984	-81.705818
31420.388777	1095.746500	1930.107422	40.943977
31420.388777	1095.746500	1929.129883	82.833130
31420.388777	1095.746500	1928.153320	12.214932
31420.388777	1095.746500	1927.175781	112.794022
31420.388777	1095.746500	1926.198242	-18.904442
31420.388777	1095.746500	1925.219727	42.554962
31420.388777	1095.746500	1924.242188	-49.955734
31420.388777	1095.746500	1923.263672	-93.552406
31420.388777	1095.746500	1922.285156	-39.401642
31420.388777	1095.746500	1921.306641	-34.105045
31420.388777	1095.746500	1920.328125	81.095085
31420.388777	1095.746500	1919.349609	123.023766
31420.388777	1095.746500	1918.370117	-147.504105
31420.388777	1095.746500	1917.391602	16.518576
31420.388777	1095.746500	1916.412109	21.887775
31420.388777	1095.746500	1915.431641	46.792572
31420.388777	1095.746500	1914.452148	98.539551
31420.388777	1095.746500	1913.472656	221.013657
31420.388777	1095.746500	1912.492188	158.148712
31420.388777	1095.746500	1911.511719	166.026276
31420.388777	1095.746500	1910.531250	-208.754807
31420.388777	1095.746500	1909.550781	-183.708954
31420.388777	1095.746500	1908.569336	33.834797
31420.388777	1095.746500	1907.588867	234.267303
31420.388777	1095.746500	1906.607422	-147.466156
31420.388777	1095.746500	1905.625977	-207.593094
31420.388777	1095.746500	1904.644531	29.358122
31420.388777	1095.746500	1903.662109	-76.986580
31420.388777	1095.746500	1902.680664	-151.630356
31420.388777	1095.746500	1901.698242	-116.723679
31420.388777	1095.746500	1900.715820	0.908959
31420.388777	1095.746500	1899.733398	-105.264954
31420.388777	1095.746500	1898.750000	-196.786575
31420.388777	1095.746500	1897.767578	91.064110
31420.388777	1095.746500	1896.784180	-90.368202
31420.388777	1095.746500	1895.800781	-31.083143
31420.388777	1095.746500	1894.817383	16.048704
31420.388777	1095.746500	1893.833984	-75.311058
31420.388777	1095.746500	1892.850586	-6.288955
31420.388777	1095.746500	1891.866211	-126.720215
31420.388777	1095.746500	1890.881836	20.028080
31420.388777	1095.746500	1889.897461	28.347868
31420.388777	1095.746500	1888.913086	97.367386
31420.388777	1095.746500	1887.927734	-13.221314
31420.388777	1095.746500	1886.943359	-21.839596
31420.388777	1095.746500	1885.958008	141.809402
31420.388777	1095.746500	1884.972656	159.873962
31420.388777	1095.746500	1883.987305	22.733135
31420.388777	1095.746500	1883.001953	-29.481075
31420.388777	1095.746500	1882.015625	-50.148975
31420.388777	1095.746500	1881.029297	130.375595
31420.388777	1095.746500	1880.042969	-178.673874
31420.388777	1095.746500	1879.056641	52.703644
31420.388777	1095.746500	1878.070313	-76.941040
31420.388777	1095.746500	1877.083984	38.088387
31420.388777	1095.746500	1876.096680	-115.709557
31420.388777	1095.746500	1875.109375	91.294518
31420.388777	1095.746500	1874.122070	77.947266
31420.388777	1095.746500	1873.134766	-27.359766
31420.388777	1095.746500	1872.146484	24.656057
31420.388777	1095.746500	1871.159180	30.684116
31420.388777	1095.746500	1870.170898	-16.503231
31420.388777	1095.746500	1869.182617	-63.676113
31420.388777	1095.746500	1868.194336	7.641906
31420.388777	1095.746500	1867.205078	52.337887
31420.388777	1095.746500	1866.216797	-154.356842
31420.388777	1095.746500	1865.227539	3.916897
31420.388777	1095.746500	1864.238281	19.574480
31420.388777	1095.746500	1863.249023	25.553234
31420.388777	1095.746500	1862.259766	-7.122608
31420.388777	1095.746500	1861.269531	15.741517
31420.388777	1095.746500	1860.279297	168.954544
31420.388777	1095.746500	1859.290039	157.956299
31420.388777	1095.746500	1858.298828	47.999702
31420.388777	1095.746500	1857.308594	145.578491
31420.388777	1095.746500	1856.318359	163.490677
31420.388777	1095.746500	1855.327148	70.426804
31420.388777	1095.746500	1854.335938	61.780807
31420.388777	1095.746500	1853.344727	-21.626245
31420.388777	1095.746500	1852.353516	-66.453766
31420.388777	1095.746500	1851.362305	18.861488
31420.388777	1095.746500	1850.370117	87.252121
31420.388777	1095.746500	1849.377930	104.995949
31420.388777	1095.746500	1848.385742	81.755829
31420.388777	1095.746500	1847.393555	106.662392
31420.388777	1095.746500	1846.401367	83.372620
31420.388777	1095.746500	1845.408203	168.396133
31420.388777	1095.746500	1844.415039	-42.708839
31420.388777	1095.746500	1843.421875	27.801619
31420.388777	1095.746500	1842.428711	81.407753
31420.388777	1095.746500	1841.435547	84.439415
31420.388777	1095.746500	1840.441406	164.399231
31420.388777	1095.746500	1839.448242	-3.400343
31420.388777	1095.746500	1838.454102	-19.704876
31420.388777	1095.746500	1837.459961	283.669128
31420.388777	1095.746500	1836.464844	-33.191864
31420.388777	1095.746500	1835.470703	63.331566
31420.388777	1095.746500	1834.475586	251.068771
31420.388777	1095.746500	1833.480469	172.061798
31420.388777	1095.746500	1832.485352	49.810505
31420.388777	1095.746500	1831.490234	23.601831
31420.388777	1095.746500	1830.495117	182.207108
31420.388777	1095.746500	1829.499023	131.881485
31420.388777	1095.746500	1828.502930	203.912415
31420.388777	1095.746500	1827.506836	155.897415
31420.388777	1095.746500	1826.510742	-24.092339
31420.388777	1095.746500	1825.513672	74.148331
31420.388777	1095.746500	1824.517578	18.825916
31420.388777	1095.746500	1823.520508	59.368393
31420.388777	1095.746500	1822.523438	238.867294
31420.388777	1095.746500	1821.526367	70.728806
31420.388777	1095.746500	1820.529297	94.286858
31420.388777	1095.746500	1819.531250	237.559814
31420.388777	1095.746500	1818.533203	11.846519
31420.388777	1095.746500	1817.535156	-36.630405
31420.388777	1095.746500	1816.537109	154.283340
31420.388777	1095.746500	1815.539063	88.911003
31420.388777	1095.746500	1814.540039	-0.439253
31420.388777	1095.746500	1813.541992	-6.066344
31420.388777	1095.746500	1812.542969	100.688950
31420.388777	1095.746500	1811.543945	-65.365242
31420.388777	1095.746500	1810.543945	65.135681
31420.388777	1095.746500	1809.544922	-74.687675
31420.388777	1095.746500	1808.544922	-8.927549
31420.388777	1095.746500	1807.544922	63.905190
31420.388777	1095.746500	1806.544922	122.297005
31420.388777	1095.746500	1805.544922	-32.063484
31420.388777	1095.746500	1804.544922	59.618816
31420.388777	1095.746500	1803.543945	115.360428
31420.388777	1095.746500	1802.542969	-146.604935
31420.388777	1095.746500	1801.541992	-48.024158
31420.388777	1095.746500	1800.541016	-30.723166
31420.388777	1095.746500	1799.539063	146.397324
31420.388777	1095.746500	1798.538086	149.177490
31420.388777	1095.746500	1797.536133	34.968945
31420.388777	1095.746500	1796.534180	178.337967
31420.388777	1095.746500	1795.532227	-55.241508
31420.388777	1095.746500	1794.529297	18.771894
31420.388777	1095.746500	1793.527344	149.891068
31420.388777	1095.746500	1792.524414	83.040192
31420.388777	1095.746500	1791.521484	113.835800
31420.388777	1095.746500	1790.518555	51.610329
31420.388777	1095.746500	1789.514648	167.980988
31420.388777	1095.746500	1788.511719	0.798507
31420.388777	1095.746500	1787.507813	-61.635773
31420.388777	1095.746500	1786.503906	121.088173
31420.388777	1095.746500	1785.500000	-84.345581
31420.388777	1095.746500	1784.496094	100.514641
31420.388777	1095.746500	1783.491211	40.125481
31420.388777	1095.746500	1782.486328	-20.331135
31420.388777	1095.746500	1781.481445	-40.421070
31420.388777	1095.746500	1780.476563	167.702927
31420.388777	1095.746500	1779.471680	54.672310
31420.388777	1095.746500	1778.465820	81.841805
31420.388777	1095.746500	1777.460938	139.811295
31420.388777	1095.746500	1776.455078	38.447815
31420.388777	1095.746500	1775.449219	198.371506
31420.388777	1095.746500	1774.442383	32.707355
31420.388777	1095.746500	1773.436523	-28.486969
31420.388777	1095.746500	1772.429688	150.066071
31420.388777	1095.746500	1771.422852	24.577858
31420.388777	1095.746500	1770.416016	-41.617832
31420.388777	1095.746500	1769.409180	70.100853
31420.388777	1095.746500	1768.402344	-24.742836
31420.388777	1095.746500	1767.394531	8.448212
31420.388777	1095.746500	1766.386719	-13.021283
31420.388777	1095.746500	1765.378906	88.730377
31420.388777	1095.746500	1764.371094	-155.802780
31420.388777	1095.746500	1763.362305	-18.706554
31420.388777	1095.746500	1762.354492	82.697105
31420.388777	1095.746500	1761.345703	134.197601
31420.388777	1095.746500	1760.336914	131.092468
31420.388777	1095.746500	1759.328125	47.357300
31420.388777	1095.746500	1758.318359	-26.977877
31420.388777	1095.746500	1757.308594	-56.395439
31420.388777	1095.746500	1756.299805	105.856010
31420.388777	1095.746500	1755.290039	-44.480042
31420.388777	1095.746500	1754.279297	51.239738
31420.388777	1095.746500	1753.269531	-68.467873
31420.388777	1095.746500	1752.258789	-39.208519
31420.388777	1095.746500	1751.249023	-54.988461
31420.388777	1095.746500	1750.238281	-85.053337
31420.388777	1095.746500	1749.226563	50.276421
31420.388777	1095.746500	1748.215820	24.734417
31420.388777	1095.746500	1747.204102	-145.059265
31420.388777	1095.746500	1746.193359	-166.023956
31420.388777	1095.746500	1745.181641	-26.447115
31420.388777	1095.746500	1744.168945	-9.845387
31420.388777	1095.746500	1743.157227	-73.628700
31420.388777	1095.746500	1742.144531	-9.998112
31420.388777	1095.746500	1741.132813	48.797001
31420.388777	1095.746500	1740.120117	1.262290
31420.388777	1095.746500	1739.106445	199.043320
31420.388777	1095.746500	1738.093750	-117.638992
31420.388777	1095.746500	1737.080078	-14.451340
31420.388777	1095.746500	1736.067383	-62.319866
31420.388777	1095.746500	1735.053711	165.591324
31420.388777	1095.746500	1734.040039	-89.939842
31420.388777	1095.746500	1733.025391	-62.644920
31420.388777	1095.746500	1732.011719	-73.150459
31420.388777	1095.746500	1730.997070	24.623938
31420.388777	1095.746500	1729.982422	-77.956497
31420.388777	1095.746500	1728.967773	40.791336
31420.388777	1095.746500	1727.952148	-43.108593
31420.388777	1095.746500	1726.937500	150.737640
31420.388777	1095.746500	1725.921875	31.357868
31420.388777	1095.746500	1724.906250	-106.892883
31420.388777	1095.746500	1723.890625	-151.066803
31420.388777	1095.746500	1722.875000	-141.208221
31420.388777	1095.746500	1721.858398	-35.021145
31420.388777	1095.746500	1720.841797	-60.648209
31420.388777	1095.746500	1719.825195	-39.332932
31420.388777	1095.746500	1718.808594	45.353046
31420.388777	1095.746500	1717.791992	97.016823
31420.388777	1095.746500	1716.774414	-91.106468
31420.388777	1095.746500	1715.756836	-98.350395
31420.388777	1095.746500	1714.739258	54.043537
31420.388777	1095.746500	1713.721680	124.101425
31420.388777	1095.746500	1712.704102	-137.009033
31420.388777	1095.746500	1711.685547	-146.932877
31420.388777	1095.746500	1710.667969	66.041061
31420.388777	1095.746500	1709.649414	-202.206223
31420.388777	1095.746500	1708.630859	-3.553589
31420.388777	1095.746500	1707.611328	-49.017406
31420.388777	1095.746500	1706.592773	-71.082161
31420.388777	1095.746500	1705.573242	131.870895
31420.388777	1095.746500	1704.553711	-16.980091
31420.388777	1095.746500	1703.534180	45.096169
31420.388777	1095.746500	1702.513672	123.464836
31420.388777	1095.746500	1701.494141	-32.558968
31420.388777	1095.746500	1700.473633	12.847936
31420.388777	1095.746500	1699.453125	-7.414218
31420.388777	1095.746500	1698.432617	9.722840
31420.388777	1095.746500	1697.412109	167.251221
31420.388777	1095.746500	1696.390625	123.334579
31420.388777	1095.746500	1695.369141	-96.157784
31420.388777	1095.746500	1694.347656	23.639318
31420.388777	1095.746500	1693.326172	68.460220
31420.388777	1095.746500	1692.304688	-146.424576
31420.388777	1095.746500	1691.282227	15.189323
31420.388777	1095.746500	1690.260742	45.756279
31420.388777	1095.746500	1689.238281	92.597221
31420.388777	1095.746500	1688.214844	101.950279
31420.388777	1095.746500	1687.192383	71.524063
31420.388777	1095.746500	1686.168945	59.725143
31420.388777	1095.746500	1685.146484	-26.864576
31420.388777	1095.746500	1684.123047	26.626110
31420.388777	1095.746500	1683.099609	82.372009
31420.388777	1095.746500	1682.075195	-139.771484
31420.388777	1095.746500	1681.051758	188.943985
31420.388777	1095.746500	1680.027344	88.094353
31420.388777	1095.746500	1679.002930	15.224770
31420.388777	1095.746500	1677.978516	93.949593
31420.388777	1095.746500	1676.953125	86.287109
31420.388777	1095.746500	1675.928711	153.203003
31420.388777	1095.746500	1674.903320	273.649689
31420.388777	1095.746500	1673.877930	165.576950
31420.388777	1095.746500	1672.852539	232.274933
31420.388777	1095.746500	1671.826172	303.546875
31420.388777	1095.746500	1670.800781	202.374603
31420.388777	1095.746500	1669.774414	154.751144
31420.388777	1095.746500	1668.748047	149.015167
31420.388777	1095.746500	1667.721680	203.769379
31420.388777	1095.746500	1666.694336	186.288559
31420.388777	1095.746500	1665.667969	389.873260
31420.388777	1095.746500	1664.640625	79.105072
31420.388777	1095.746500	1663.613281	96.432243
31420.388777	1095.746500	1662.585938	397.473114
31420.388777	1095.746500	1661.557617	251.862732
31420.388777	1095.746500	1660.530273	71.410744
31420.388777	1095.746500	1659.501953	11.857649
31420.388777	1095.746500	1658.473633	168.434097
31420.388777	1095.746500	1657.444336	66.981064
31420.388777	1095.746500	1656.416016	193.221542
31420.388777	1095.746500	1655.386719	377.438812
31420.388777	1095.746500	1654.358398	336.307129
31420.388777	1095.746500	1653.328125	381.045105
31420.388777	1095.746500	1652.298828	390.931671
31420.388777	1095.746500	1651.269531	521.478638
31420.388777	1095.746500	1650.239258	262.093353
31420.388777	1095.746500	1649.208984	399.514465
31420.388777	1095.746500	1648.178711	488.150421
31420.388777	1095.746500	1647.148438	275.239777
31420.388777	1095.746500	1646.117188	526.122375
31420.388777	1095.746500	1645.086914	283.112457
31420.388777	1095.746500	1644.055664	617.302551
31420.388777	1095.746500	1643.024414	443.844482
31420.388777	1095.746500	1641.992188	511.385742
31420.388777	1095.746500	1640.960938	588.167419
31420.388777	1095.746500	1639.928711	491.192078
31420.388777	1095.746500	1638.896484	996.291382
31420.388777	1095.746500	1637.864258	582.084656
31420.388777	1095.746500	1636.832031	586.984375
31420.388777	1095.746500	1635.798828	774.685791
31420.388777	1095.746500	1634.766602	902.164429
31420.388777	1095.746500	1633.733398	708.024353
31420.388777	1095.746500	1632.699219	648.090149
31420.388777	1095.746500	1631.666016	738.497437
31420.388777	1095.746500	1630.632813	574.551819
31420.388777	1095.746500	1629.598633	748.140015
31420.388777	1095.746500	1628.564453	808.420776
31420.388777	1095.746500	1627.530273	847.884705
31420.388777	1095.746500	1626.495117	811.089294
31420.388777	1095.746500	1625.460938	1009.919250
31420.388777	1095.746500	1624.425781	920.005188
31420.388777	1095.746500	1623.390625	910.944214
31420.388777	1095.746500	1622.355469	1070.406616
31420.388777	1095.746500	1621.319336	959.778076
31420.388777	1095.746500	1620.284180	1003.818237
31420.388777	1095.746500	1619.248047	953.252441
31420.388777	1095.746500	1618.211914	1043.422974
31420.388777	1095.746500	1617.174805	1170.458984
31420.388777	1095.746500	1616.138672	1048.461304
31420.388777	1095.746500	1615.101563	944.958557
31420.388777	1095.746500	1614.065430	993.643433
31420.388777	1095.746500	1613.027344	1180.565918
31420.388777	1095.746500	1611.990234	1220.000610
31420.388777	1095.746500	1610.953125	1443.718384
31420.388777	1095.746500	1609.915039	1220.579956
31420.388777	1095.746500	1608.876953	1264.648804
31420.388777	1095.746500	1607.838867	1354.769043
31420.388777	1095.746500	1606.800781	1272.259277
31420.388777	1095.746500	1605.761719	1337.073975
31420.388777	1095.746500	1604.723633	1388.102661
31420.388777	1095.746500	1603.684570	1312.613525
31420.388777	1095.746500	1602.644531	1352.166626
31420.388777	1095.746500	1601.605469	1384.853149
31420.388777	1095.746500	1600.566406	1332.500732
31420.388777	1095.746500	1599.526367	1484.759521
31420.388777	1095.746500	1598.486328	1441.661621
31420.388777	1095.746500	1597.446289	1644.463989
31420.388777	1095.746500	1596.405273	1578.446655
31420.388777	1095.746500	1595.365234	1546.959229
31420.388777	1095.746500	1594.324219	1370.848877
31420.388777	1095.746500	1593.283203	1481.829102
31420.388777	1095.746500	1592.242188	1562.970215
31420.388777	1095.746500	1591.200195	1669.358154
31420.388777	1095.746500	1590.159180	1537.138184
31420.388777	1095.746500	1589.117188	1464.650757
31420.388777	1095.746500	1588.075195	1630.772217
31420.388777	1095.746500	1587.032227	1560.676636
31420.388777	1095.746500	1585.990234	1410.427612
31420.388777	1095.746500	1584.947266	1306.122803
31420.388777	1095.746500	1583.904297	1373.795776
31420.388777	1095.746500	1582.861328	1395.671021
31420.388777	1095.746500	1581.818359	1454.248779
31420.388777	1095.746500	1580.775391	1522.021362
31420.388777	1095.746500	1579.731445	1223.416870
31420.388777	1095.746500	1578.687500	1369.159668
31420.388777	1095.746500	1577.643555	1338.645508
31420.388777	1095.746500	1576.598633	1443.224487
31420.388777	1095.746500	1575.554688	1305.286255
31420.388777	1095.746500	1574.509766	1165.168091
31420.388777	1095.746500	1573.464844	1313.369263
31420.388777	1095.746500	1572.419922	1328.940674
31420.388777	1095.746500	1571.374023	1353.707520
31420.388777	1095.746500	1570.329102	1472.267578
31420.388777	1095.746500	1569.283203	1522.274292
31420.388777	1095.746500	1568.237305	1458.079102
31420.388777	1095.746500	1567.191406	1423.680054
31420.388777	1095.746500	1566.144531	1341.388062
31420.388777	1095.746500	1565.098633	1412.220947
31420.388777	1095.746500	1564.051758	1238.780273
31420.388777	1095.746500	1563.004883	1389.642456
31420.388777	1095.746500	1561.957031	1353.358154
31420.388777	1095.746500	1560.910156	1100.391724
31420.388777	1095.746500	1559.862305	1064.333496
31420.388777	1095.746500	1558.814453	889.225647
31420.388777	1095.746500	1557.766602	1038.107056
31420.388777	1095.746500	1556.718750	1020.562744
31420.388777	1095.746500	1555.669922	1078.326050
31420.388777	1095.746500	1554.621094	1031.306030
31420.388777	1095.746500	1553.573242	1059.596069
31420.388777	1095.746500	1552.523438	887.447754
31420.388777	1095.746500	1551.474609	854.413025
31420.388777	1095.746500	1550.424805	757.700378
31420.388777	1095.746500	1549.375000	827.332764
31420.388777	1095.746500	1548.325195	833.283691
31420.388777	1095.746500	1547.275391	780.141785
31420.388777	1095.746500	1546.225586	529.129517
31420.388777	1095.746500	1545.174805	608.201782
31420.388777	1095.746500	1544.124023	566.772522
31420.388777	1095.746500	1543.073242	586.858215
31420.388777	1095.746500	1542.022461	720.721252
31420.388777	1095.746500	1540.970703	534.066772
31420.388777	1095.746500	1539.919922	638.527832
31420.388777	1095.746500	1538.868164	518.057007
31420.388777	1095.746500	1537.815430	611.294922
31420.388777	1095.746500	1536.763672	804.551636
31420.388777	1095.746500	1535.710938	868.366333
31420.388777	1095.746500	1534.659180	564.406128
31420.388777	1095.746500	1533.606445	626.170410
31420.388777	1095.746500	1532.552734	565.431580
31420.388777	1095.746500	1531.500000	581.984131
31420.388777	1095.746500	1530.446289	385.345551
31420.388777	1095.746500	1529.393555	631.246460
31420.388777	1095.746500	1528.338867	584.563660
31420.388777	1095.746500	1527.285156	367.941071
31420.388777	1095.746500	1526.231445	493.844452
31420.388777	1095.746500	1525.176758	309.260590
31420.388777	1095.746500	1524.122070	340.147430
31420.388777	1095.746500	1523.067383	432.303345
31420.388777	1095.746500	1522.012695	356.895844
31420.388777	1095.746500	1520.957031	295.207031
31420.388777	1095.746500	1519.901367	131.751938
31420.388777	1095.746500	1518.845703	348.820160
31420.388777	1095.746500	1517.790039	253.542053
31420.388777	1095.746500	1516.734375	113.148567
31420.388777	1095.746500	1515.677734	343.990570
31420.388777	1095.746500	1514.621094	199.325714
31420.388777	1095.746500	1513.564453	174.702347
31420.388777	1095.746500	1512.507813	319.798615
31420.388777	1095.746500	1511.450195	143.901276
31420.388777	1095.746500	1510.393555	20.182278
31420.388777	1095.746500	1509.335938	122.616219
31420.388777	1095.746500	1508.278320	202.527466
31420.388777	1095.746500	1507.219727	79.200264
31420.388777	1095.746500	1506.162109	-14.595739
31420.388777	1095.746500	1505.103516	-56.307003
31420.388777	1095.746500	1504.044922	-43.700459
31420.388777	1095.746500	1502.986328	-80.643936
31420.388777	1095.746500	1501.926758	4.408037
31420.388777	1095.746500	1500.868164	-18.758471
31420.388777	1095.746500	1499.808594	-59.850590
31420.388777	1095.746500	1498.749023	-109.831169
31420.388777	1095.746500	1497.688477	56.804642
31420.388777	1095.746500	1496.628906	20.585155
31420.388777	1095.746500	1495.568359	194.128296
31420.388777	1095.746500	1494.507813	-22.166971
31420.388777	1095.746500	1493.447266	34.385124
31420.388777	1095.746500	1492.386719	-30.615601
31420.388777	1095.746500	1491.325195	46.422249
31420.388777	1095.746500	1490.263672	-144.426086
31420.388777	1095.746500	1489.202148	-143.704407
31420.388777	1095.746500	1488.140625	-32.563873
31420.388777	1095.746500	1487.079102	-101.391083
31420.388777	1095.746500	1486.016602	30.187122
31420.388777	1095.746500	1484.954102	4.357658
31420.388777	1095.746500	1483.891602	165.345245
31420.388777	1095.746500	1482.829102	-85.133202
31420.388777	1095.746500	1481.765625	15.345676
31420.388777	1095.746500	1480.702148	32.735867
31420.388777	1095.746500	1479.638672	-53.132477
31420.388777	1095.746500	1478.575195	-33.241722
31420.388777	1095.746500	1477.511719	105.842758
31420.388777	1095.746500	1476.447266	92.233307
31420.388777	1095.746500	1475.382813	208.991699
31420.388777	1095.746500	1474.318359	67.697044
31420.388777	1095.746500	1473.253906	-39.711208
31420.388777	1095.746500	1472.189453	99.712257
31420.388777	1095.746500	1471.124023	335.747284
31420.388777	1095.746500	1470.058594	221.986282
31420.388777	1095.746500	1468.993164	14.329584
31420.388777	1095.746500	1467.927734	308.780060
31420.388777	1095.746500	1466.861328	123.815269
31420.388777	1095.746500	1465.794922	340.027069
31420.388777	1095.746500	1464.728516	448.764038
31420.388777	1095.746500	1463.662109	324.798492
31420.388777	1095.746500	1462.594727	379.919952
31420.388777	1095.746500	1461.528320	356.377350
31420.388777	1095.746500	1460.460938	416.450989
31420.388777	1095.746500	1459.393555	503.657806
31420.388777	1095.746500	1458.326172	397.953705
31420.388777	1095.746500	1457.257813	531.486084
31420.388777	1095.746500	1456.189453	539.763672
31420.388777	1095.746500	1455.121094	415.483521
31420.388777	1095.746500	1454.052734	638.398438
31420.388777	1095.746500	1452.984375	367.530579
31420.388777	1095.746500	1451.915039	472.721313
31420.388777	1095.746500	1450.845703	517.426941
31420.388777	1095.746500	1449.776367	602.926514
31420.388777	1095.746500	1448.707031	574.050903
31420.388777	1095.746500	1447.636719	559.940552
31420.388777	1095.746500	1446.567383	453.437805
31420.388777	1095.746500	1445.497070	375.826965
31420.388777	1095.746500	1444.425781	595.450867
31420.388777	1095.746500	1443.355469	425.782928
31420.388777	1095.746500	1442.285156	404.323242
31420.388777	1095.746500	1441.213867	659.038086
31420.388777	1095.746500	1440.142578	468.909027
31420.388777	1095.746500	1439.070313	354.913239
31420.388777	1095.746500	1437.999023	485.099243
31420.388777	1095.746500	1436.926758	388.115356
31420.388777	1095.746500	1435.854492	385.705231
31420.388777	1095.746500	1434.782227	441.586304
31420.388777	1095.746500	1433.709961	453.833344
31420.388777	1095.746500	1432.636719	444.976990
31420.388777	1095.746500	1431.563477	346.502625
31420.388777	1095.746500	1430.490234	143.505524
31420.388777	1095.746500	1429.416992	82.066360
31420.388777	1095.746500	1428.343750	-150.268463
31420.388777	1095.746500	1427.269531	138.751877
31420.388777	1095.746500	1426.195313	-41.693474
31420.388777	1095.746500	1425.121094	12.711446
31420.388777	1095.746500	1424.046875	91.545258
31420.388777	1095.746500	1422.971680	84.531815
31420.388777	1095.746500	1421.896484	-194.901169
31420.388777	1095.746500	1420.821289	-33.046158
31420.388777	1095.746500	1419.746094	199.134399
31420.388777	1095.746500	1418.669922	-100.229980
31420.388777	1095.746500	1417.594727	67.480125
31420.388777	1095.746500	1416.518555	225.283096
31420.388777	1095.746500	1415.442383	-162.175247
31420.388777	1095.746500	1414.365234	-41.029694
31420.388777	1095.746500	1413.289063	38.282684
31420.388777	1095.746500	1412.211914	96.270302
31420.388777	1095.746500	1411.134766	3.496499
31420.388777	1095.746500	1410.057617	-66.240479
31420.388777	1095.746500	1408.979492	192.811768
31420.388777	1095.746500	1407.902344	226.419220
31420.388777	1095.746500	1406.824219	-36.806210
31420.388777	1095.746500	1405.746094	83.946327
31420.388777	1095.746500	1404.666992	187.847549
31420.388777	1095.746500	1403.588867	118.712448
31420.388777	1095.746500	1402.509766	157.110703
31420.388777	1095.746500	1401.430664	-8.077914
31420.388777	1095.746500	1400.351563	238.675232
31420.388777	1095.746500	1399.271484	309.172180
31420.388777	1095.746500	1398.192383	376.669281
31420.388777	1095.746500	1397.112305	300.244965
31420.388777	1095.746500	1396.031250	387.812866
31420.388777	1095.746500	1394.951172	356.495026
31420.388777	1095.746500	1393.871094	344.766449
31420.388777	1095.746500	1392.790039	517.708984
31420.388777	1095.746500	1391.708984	382.679962
31420.388777	1095.746500	1390.626953	448.978180
31420.388777	1095.746500	1389.545898	607.040161
31420.388777	1095.746500	1388.463867	481.989685
31420.388777	1095.746500	1387.381836	504.865356
31420.388777	1095.746500	1386.299805	542.260193
31420.388777	1095.746500	1385.217773	613.019104
31420.388777	1095.746500	1384.134766	627.637695
31420.388777	1095.746500	1383.051758	706.055603
31420.388777	1095.746500	1381.968750	596.918579
31420.388777	1095.746500	1380.885742	655.860535
31420.388777	1095.746500	1379.802734	655.190369
31420.388777	1095.746500	1378.718750	671.542603
31420.388777	1095.746500	1377.634766	803.650452
31420.388777	1095.746500	1376.550781	700.533569
31420.388777	1095.746500	1375.465820	450.559235
31420.388777	1095.746500	1374.381836	577.009155
31420.388777	1095.746500	1373.296875	638.572876
31420.388777	1095.746500	1372.211914	468.530945
31420.388777	1095.746500	1371.126953	696.798523
31420.388777	1095.746500	1370.041016	613.058655
31420.388777	1095.746500	1368.955078	637.722534
31420.388777	1095.746500	1367.869141	671.590088
31420.388777	1095.746500	1366.783203	567.941772
31420.388777	1095.746500	1365.697266	608.229858
31420.388777	1095.746500	1364.610352	821.130920
31420.388777	1095.746500	1363.523438	727.077209
31420.388777	1095.746500	1362.436523	632.700684
31420.388777	1095.746500	1361.349609	701.390137
31420.388777	1095.746500	1360.261719	498.400482
31420.388777	1095.746500	1359.174805	441.456757
31420.388777	1095.746500	1358.086914	448.973938
31420.388777	1095.746500	1356.998047	403.570557
31420.388777	1095.746500	1355.910156	460.014069
31420.388777	1095.746500	1354.821289	397.954376
31420.388777	1095.746500	1353.732422	422.890411
31420.388777	1095.746500	1352.643555	548.833069
31420.388777	1095.746500	1351.554688	418.604675
31420.388777	1095.746500	1350.464844	324.020294
31420.388777	1095.746500	1349.375000	417.448792
31420.388777	1095.746500	1348.285156	645.202759
31420.388777	1095.746500	1347.195313	614.774414
31420.388777	1095.746500	1346.105469	451.616058
31420.388777	1095.746500	1345.014648	650.925781
31420.388777	1095.746500	1343.923828	702.683533
31420.388777	1095.746500	1342.833008	765.617798
31420.388777	1095.746500	1341.741211	656.650635
31420.388777	1095.746500	1340.650391	715.594604
31420.388777	1095.746500	1339.558594	552.149048
31420.388777	1095.746500	1338.466797	656.300354
31420.388777	1095.746500	1337.374023	715.836914
31420.388777	1095.746500	1336.282227	825.439148
31420.388777	1095.746500	1335.189453	804.360413
31420.388777	1095.746500	1334.096680	787.577209
31420.388777	1095.746500	1333.003906	677.469421
31420.388777	1095.746500	1331.910156	652.771973
31420.388777	1095.746500	1330.817383	415.502594
31420.388777	1095.746500	1329.723633	501.524658
31420.388777	1095.746500	1328.629883	568.593567
31420.388777	1095.746500	1327.535156	385.862457
31420.388777	1095.746500	1326.441406	635.554626
31420.388777	1095.746500	1325.346680	455.028015
31420.388777	1095.746500	1324.251953	441.415771
31420.388777	1095.746500	1323.156250	342.560608
31420.388777	1095.746500	1322.061523	509.476532
31420.388777	1095.746500	1320.965820	468.023773
31420.388777	1095.746500	1319.870117	310.302094
31420.388777	1095.746500	1318.774414	342.069366
31420.388777	1095.746500	1317.678711	489.081512
31420.388777	1095.746500	1316.582031	422.997864
31420.388777	1095.746500	1315.485352	639.377991
31420.388777	1095.746500	1314.388672	482.237671
31420.388777	1095.746500	1313.291016	471.889557
31420.388777	1095.746500	1312.194336	496.796326
31420.388777	1095.746500	1311.096680	534.480835
31420.388777	1095.746500	1309.999023	645.081726
31420.388777	1095.746500	1308.901367	517.396790
31420.388777	1095.746500	1307.802734	449.642365
31420.388777	1095.746500	1306.705078	546.769958
31420.388777	1095.746500	1305.606445	572.087952
31420.388777	1095.746500	1304.506836	619.947083
31420.388777	1095.746500	1303.408203	685.022400
31420.388777	1095.746500	1302.308594	477.565857
31420.388777	1095.746500	1301.208984	666.230347
31420.388777	1095.746500	1300.109375	595.881226
31420.388777	1095.746500	1299.009766	520.434509
31420.388777	1095.746500	1297.909180	500.454437
31420.388777	1095.746500	1296.808594	455.625061
31420.388777	1095.746500	1295.708008	449.225769
31420.388777	1095.746500	1294.607422	490.411896
31420.388777	1095.746500	1293.506836	420.663055
31420.388777	1095.746500	1292.405273	475.395996
31420.388777	1095.746500	1291.303711	211.780121
31420.388777	1095.746500	1290.202148	292.025452
31420.388777	1095.746500	1289.099609	138.400421
31420.388777	1095.746500	1287.998047	375.258148
31420.388777	1095.746500	1286.895508	373.152924
31420.388777	1095.746500	1285.792969	301.729675
31420.388777	1095.746500	1284.689453	224.437515
31420.388777	1095.746500	1283.586914	293.721283
31420.388777	1095.746500	1282.483398	355.624634
31420.388777	1095.746500	1281.379883	237.280746
31420.388777	1095.746500	1280.276367	394.571533
31420.388777	1095.746500	1279.171875	345.021393
31420.388777	1095.746500	1278.067383	407.009521
31420.388777	1095.746500	1276.962891	403.218658
31420.388777	1095.746500	1275.858398	413.841339
31420.388777	1095.746500	1274.753906	350.118835
31420.388777	1095.746500	1273.648438	368.697754
31420.388777	1095.746500	1272.542969	94.918175
31420.388777	1095.746500	1271.437500	268.630798
31420.388777	1095.746500	1270.331055	172.247818
31420.388777	1095.746500	1269.225586	328.581055
31420.388777	1095.746500	1268.119141	54.256538
31420.388777	1095.746500	1267.012695	22.517624
31420.388777	1095.746500	1265.906250	86.126205
31420.388777	1095.746500	1264.798828	52.668335
31420.388777	1095.746500	1263.691406	171.080765
31420.388777	1095.746500	1262.583984	101.978920
31420.388777	1095.746500	1261.476563	56.341488
31420.388777	1095.746500	1260.368164	150.132462
31420.388777	1095.746500	1259.260742	106.554306
31420.388777	1095.746500	1258.152344	157.806305
31420.388777	1095.746500	1257.043945	54.513721
31420.388777	1095.746500	1255.934570	6.718681
31420.388777	1095.746500	1254.825195	149.651932
31420.388777	1095.746500	1253.716797	-3.542673
31420.388777	1095.746500	1252.606445	188.543015
31420.388777	1095.746500	1251.497070	226.082367
31420.388777	1095.746500	1250.387695	-30.851254
31420.388777	1095.746500	1249.277344	123.763756
31420.388777	1095.746500	1248.166992	-23.917963
31420.388777	1095.746500	1247.055664	21.620298
31420.388777	1095.746500	1245.945313	25.502117
31420.388777	1095.746500	1244.833984	29.537992
31420.388777	1095.746500	1243.722656	178.782043
31420.388777	1095.746500	1242.611328	106.566582
31420.388777	1095.746500	1241.499023	9.098688
31420.388777	1095.746500	1240.387695	-133.681488
31420.388777	1095.746500	1239.275391	-47.538761
31420.388777	1095.746500	1238.162109	-82.666222
31420.388777	1095.746500	1237.049805	45.539448
31420.388777	1095.746500	1235.936523	-32.894630
31420.388777	1095.746500	1234.823242	-55.928829
31420.388777	1095.746500	1233.709961	18.329739
31420.388777	1095.746500	1232.596680	-81.963333
31420.388777	1095.746500	1231.482422	-258.395966
31420.388777	1095.746500	1230.369141	-6.665356
31420.388777	1095.746500	1229.253906	-35.443211
31420.388777	1095.746500	1228.139648	-40.774937
31420.388777	1095.746500	1227.025391	-19.601952
31420.388777	1095.746500	1225.910156	-97.711472
31420.388777	1095.746500	1224.794922	-118.123222
31420.388777	1095.746500	1223.679688	17.858473
31420.388777	1095.746500	1222.563477	58.796947
31420.388777	1095.746500	1221.447266	-66.254211
31420.388777	1095.746500	1220.331055	49.079422
31420.388777	1095.746500	1219.214844	144.530655
31420.388777	1095.746500	1218.098633	63.491486
31420.388777	1095.746500	1216.981445	86.653091
31420.388777	1095.746500	1215.864258	139.210815
31420.388777	1095.746500	1214.747070	302.938538
31420.388777	1095.746500	1213.629883	320.076874
31420.388777	1095.746500	1212.511719	389.959534
31420.388777	1095.746500	1211.393555	464.897186
31420.388777	1095.746500	1210.275391	622.476257
31420.388777	1095.746500	1209.157227	550.848572
31420.388777	1095.746500	1208.038086	677.623047
31420.388777	1095.746500	1206.918945	716.862549
31420.388777	1095.746500	1205.799805	764.477661
31420.388777	1095.746500	1204.680664	686.613403
31420.388777	1095.746500	1203.560547	667.674561
31420.388777	1095.746500	1202.441406	703.669434
31420.388777	1095.746500	1201.321289	796.340698
31420.388777	1095.746500	1200.200195	656.362549
31420.388777	1095.746500	1199.080078	619.614563
31420.388777	1095.746500	1197.958984	527.314819
31420.388777	1095.746500	1196.837891	461.242310
31420.388777	1095.746500	1195.716797	308.248138
31420.388777	1095.746500	1194.594727	325.101105
31420.388777	1095.746500	1193.473633	133.636307
31420.388777	1095.746500	1192.351563	168.875153
31420.388777	1095.746500	1191.229492	248.915192
31420.388777	1095.746500	1190.106445	-22.234638
31420.388777	1095.746500	1188.984375	96.262993
31420.388777	1095.746500	1187.861328	58.536690
31420.388777	1095.746500	1186.738281	99.015205
31420.388777	1095.746500	1185.614258	-14.676417
31420.388777	1095.746500	1184.491211	64.619774
31420.388777	1095.746500	1183.367188	-18.917099
31420.388777	1095.746500	1182.243164	-22.227240
31420.388777	1095.746500	1181.119141	96.383339
31420.388777	1095.746500	1179.994141	77.018028
31420.388777	1095.746500	1178.869141	-18.646065
31420.388777	1095.746500	1177.744141	114.246208
31420.388777	1095.746500	1176.619141	24.150583
31420.388777	1095.746500	1175.493164	19.179113
31420.388777	1095.746500	1174.368164	-48.560265
31420.388777	1095.746500	1173.242188	120.882423
31420.388777	1095.746500	1172.115234	132.892517
31420.388777	1095.746500	1170.989258	41.168060
31420.388777	1095.746500	1169.862305	140.711533
31420.388777	1095.746500	1168.735352	102.005157
31420.388777	1095.746500	1167.608398	194.374847
31420.388777	1095.746500	1166.481445	184.469772
31420.388777	1095.746500	1165.353516	-37.326862
31420.388777	1095.746500	1164.225586	-92.934967
31420.388777	1095.746500	1163.097656	171.310257
31420.388777	1095.746500	1161.968750	126.975533
31420.388777	1095.746500	1160.840820	24.970652
31420.388777	1095.746500	1159.711914	75.761284
31420.388777	1095.746500	1158.583008	-51.000969
31420.388777	1095.746500	1157.453125	137.236786
31420.388777	1095.746500	1156.324219	-103.069359
31420.388777	1095.746500	1155.194336	-143.005829
31420.388777	1095.746500	1154.064453	-56.201107
31420.388777	1095.746500	1152.933594	-9.821172
31420.388777	1095.746500	1151.803711	-109.687897
31420.388777	1095.746500	1150.672852	-39.892910
31420.388777	1095.746500	1149.541992	-82.358414
31420.388777	1095.746500	1148.411133	-86.297447
31420.388777	1095.746500	1147.279297	-133.337128
31420.388777	1095.746500	1146.147461	-225.845795
31420.388777	1095.746500	1145.015625	-78.202492
31420.388777	1095.746500	1143.883789	-173.738373
31420.388777	1095.746500	1142.750977	-143.959641
31420.388777	1095.746500	1141.619141	-174.637466
31420.388777	1095.746500	1140.486328	-56.121071
31420.388777	1095.746500	1139.352539	-26.473171
31420.388777	1095.746500	1138.219727	-123.542809
31420.388777	1095.746500	1137.085938	9.766863
31420.388777	1095.746500	1135.952148	52.492252
31420.388777	1095.746500	1134.818359	25.311031
31420.388777	1095.746500	1133.683594	212.457916
31420.388777	1095.746500	1132.549805	69.267967
31420.388777	1095.746500	1131.415039	180.975281
31420.388777	1095.746500	1130.279297	164.899017
31420.388777	1095.746500	1129.144531	161.619644
31420.388777	1095.746500	1128.008789	371.608307
31420.388777	1095.746500	1126.873047	175.118652
31420.388777	1095.746500	1125.737305	390.820557
31420.388777	1095.746500	1124.601563	165.223816
31420.388777	1095.746500	1123.464844	33.865520
31420.388777	1095.746500	1122.328125	240.909653
31420.388777	1095.746500	1121.191406	235.073013
31420.388777	1095.746500	1120.054688	183.496277
31420.388777	1095.746500	1118.916992	291.854065
31420.388777	1095.746500	1117.779297	278.108398
31420.388777	1095.746500	1116.641602	279.673431
31420.388777	1095.746500	1115.503906	110.904625
31420.388777	1095.746500	1114.365234	193.735275
31420.388777	1095.746500	1113.226563	202.216492
31420.388777	1095.746500	1112.087891	207.172546
31420.388777	1095.746500	1110.949219	232.806656
31420.388777	1095.746500	1109.809570	90.634911
31420.388777	1095.746500	1108.669922	36.740868
31420.388777	1095.746500	1107.530273	73.925400
31420.388777	1095.746500	1106.390625	184.920029
31420.388777	1095.746500	1105.250000	170.329575
31420.388777	1095.746500	1104.109375	201.807144
31420.388777	1095.746500	1102.968750	276.584259
31420.388777	1095.746500	1101.828125	380.316345
31420.388777	1095.746500	1100.686523	212.848251
31420.388777	1095.746500	1099.544922	203.233688
31420.388777	1095.746500	1098.403320	289.791138
31420.388777	1095.746500	1097.261719	383.092987
31420.388777	1095.746500	1096.120117	596.193115
31420.388777	1095.746500	1094.977539	594.067993
31420.388777	1095.746500	1093.834961	289.320404
31420.388777	1095.746500	1092.691406	318.203186
31420.388777	1095.746500	1091.548828	522.162292
31420.388777	1095.746500	1090.405273	488.854462
31420.388777	1095.746500	1089.261719	429.117126
31420.388777	1095.746500	1088.118164	342.557831
31420.388777	1095.746500	1086.973633	450.554169
31420.388777	1095.746500	1085.829102	467.958344
31420.388777	1095.746500	1084.684570	406.978485
31420.388777	1095.746500	1083.540039	390.204620
31420.388777	1095.746500	1082.395508	296.118408
31420.388777	1095.746500	1081.250000	254.654877
31420.388777	1095.746500	1080.104492	198.341202
31420.388777	1095.746500	1078.958984	134.183441
31420.388777	1095.746500	1077.812500	114.817673
31420.388777	1095.746500	1076.666016	-42.154537
31420.388777	1095.746500	1075.519531	54.398838
31420.388777	1095.746500	1074.373047	132.179199
31420.388777	1095.746500	1073.226563	102.469948
31420.388777	1095.746500	1072.079102	312.150146
31420.388777	1095.746500	1070.931641	138.262024
31420.388777	1095.746500	1069.784180	239.447388
31420.388777	1095.746500	1068.635742	113.468971
31420.388777	1095.746500	1067.487305	269.644501
31420.388777	1095.746500	1066.338867	256.777924
31420.388777	1095.746500	1065.190430	277.255249
31420.388777	1095.746500	1064.041992	231.637238
31420.388777	1095.746500	1062.892578	266.151306
31420.388777	1095.746500	1061.743164	387.657349
31420.388777	1095.746500	1060.593750	86.144920
31420.388777	1095.746500	1059.443359	221.302216
31420.388777	1095.746500	1058.292969	318.760803
31420.388777	1095.746500	1057.142578	393.953552
31420.388777	1095.746500	1055.992188	232.725433
31420.388777	1095.746500	1054.841797	234.526932
31420.388777	1095.746500	1053.690430	118.649597
31420.388777	1095.746500	1052.539063	74.900955
31420.388777	1095.746500	1051.387695	332.124054
31420.388777	1095.746500	1050.235352	59.796894
31420.388777	1095.746500	1049.083984	-24.327713
31420.388777	1095.746500	1047.931641	91.583817
31420.388777	1095.746500	1046.778320	-2.527929
31420.388777	1095.746500	1045.625977	221.132126
31420.388777	1095.746500	1044.472656	-169.009888
31420.388777	1095.746500	1043.319336	47.929081
31420.388777	1095.746500	1042.166016	213.883881
31420.388777	1095.746500	1041.012695	57.030571
31420.388777	1095.746500	1039.858398	91.399559
31420.388777	1095.746500	1038.704102	164.724625
31420.388777	1095.746500	1037.549805	262.285370
31420.388777	1095.746500	1036.394531	164.583740
31420.388777	1095.746500	1035.239258	264.431793
31420.388777	1095.746500	1034.083984	304.702820
31420.388777	1095.746500	1032.928711	281.356171
31420.388777	1095.746500	1031.773438	514.729004
31420.388777	1095.746500	1030.617188	445.411011
31420.388777	1095.746500	1029.460938	240.360916
31420.388777	1095.746500	1028.304688	166.265503
31420.388777	1095.746500	1027.147461	71.170456
31420.388777	1095.746500	1025.991211	216.196259
31420.388777	1095.746500	1024.833984	171.736603
31420.388777	1095.746500	1023.675781	161.406952
31420.388777	1095.746500	1022.518555	127.263542
31420.388777	1095.746500	1021.360352	53.558281
31420.388777	1095.746500	1020.202148	78.251091
31420.388777	1095.746500	1019.043945	-135.200684
31420.388777	1095.746500	1017.884766	-98.579765
31420.388777	1095.746500	1016.726563	-136.693863
31420.388777	1095.746500	1015.567383	-61.605843
31420.388777	1095.746500	1014.407227	33.605423
31420.388777	1095.746500	1013.248047	22.379484
31420.388777	1095.746500	1012.087891	-70.397484
31420.388777	1095.746500	1010.927734	107.112625
31420.388777	1095.746500	1009.767578	-74.903358
31420.388777	1095.746500	1008.606445	-108.218651
31420.388777	1095.746500	1007.446289	-122.620934
31420.388777	1095.746500	1006.285156	-72.087616
31420.388777	1095.746500	1005.123047	36.874691
31420.388777	1095.746500	1003.961914	-112.833069
31420.388777	1095.746500	1002.799805	-10.084949
31420.388777	1095.746500	1001.637695	99.141953
31420.388777	1095.746500	1000.475586	-41.250702
31420.388777	1095.746500	999.312500	47.254662
31420.388777	1095.746500	998.149414	68.514030
31420.388777	1095.746500	996.986328	-38.745731
31420.388777	1095.746500	995.823242	4.980532
31420.388777	1095.746500	994.659180	61.407558
31420.388777	1095.746500	993.496094	-106.181389
31420.388777	1095.746500	992.332031	-34.550499
31420.388777	1095.746500	991.166992	-6.864624
31420.388777	1095.746500	990.002930	43.083488
31420.388777	1095.746500	988.837891	-35.141422
31420.388777	1095.746500	987.672852	22.114708
31420.388777	1095.746500	986.506836	18.762711
31420.388777	1095.746500	985.341797	-132.863022
31420.388777	1095.746500	984.175781	-50.122757
31420.388777	1095.746500	983.009766	-141.763718
31420.388777	1095.746500	981.843750	21.753433
31420.388777	1095.746500	980.676758	-84.772911
31420.388777	1095.746500	979.509766	-184.645569
31420.388777	1095.746500	978.342773	135.466782
31420.388777	1095.746500	977.175781	-28.237375
31420.388777	1095.746500	976.007813	96.942604
31420.388777	1095.746500	974.839844	-49.534286
31420.388777	1095.746500	973.671875	-8.908040
31420.388777	1095.746500	972.503906	103.894829
31420.388777	1095.746500	971.334961	36.181301
31420.388777	1095.746500	970.166016	173.980759
31420.388777	1095.746500	968.997070	101.104965
31420.388777	1095.746500	967.828125	-0.620656
31420.388777	1095.746500	966.658203	81.062927
31420.388777	1095.746500	965.488281	91.076767
31420.388777	1095.746500	964.318359	122.396683
31420.388777	1095.746500	963.148438	114.217224
31420.388777	1095.746500	961.977539	53.009239
31420.388777	1095.746500	960.806641	-0.166488
31420.388777	1095.746500	959.635742	57.023254
31420.388777	1095.746500	958.463867	-26.338448
31420.388777	1095.746500	957.292969	87.323051
31420.388777	1095.746500	956.121094	154.590698
31420.388777	1095.746500	954.948242	114.729263
31420.388777	1095.746500	953.776367	183.245132
31420.388777	1095.746500	952.603516	66.943802
31420.388777	1095.746500	951.430664	136.489670
31420.388777	1095.746500	950.257813	-150.734268
31420.388777	1095.746500	949.084961	34.855167
31420.388777	1095.746500	947.911133	105.779343
31420.388777	1095.746500	946.737305	33.370708
31420.388777	1095.746500	945.563477	103.919464
31420.388777	1095.746500	944.388672	82.325813
31420.388777	1095.746500	943.213867	0.038464
31420.388777	1095.746500	942.039063	-43.008846
31420.388777	1095.746500	940.864258	130.835403
31420.388777	1095.746500	939.688477	80.889275
31420.388777	1095.746500	938.513672	259.090271
31420.388777	1095.746500	937.337891	197.865387
31420.388777	1095.746500	936.161133	66.326042
31420.388777	1095.746500	934.985352	27.880503
31420.388777	1095.746500	933.808594	12.874607
31420.388777	1095.746500	932.631836	190.884140
31420.388777	1095.746500	931.454102	226.977036
31420.388777	1095.746500	930.277344	207.206207
31420.388777	1095.746500	929.099609	157.170273
31420.388777	1095.746500	927.921875	256.001740
31420.388777	1095.746500	926.743164	87.266434
31420.388777	1095.746500	925.565430	423.245972
31420.388777	1095.746500	924.386719	173.150116
31420.388777	1095.746500	923.208008	297.403381
31420.388777	1095.746500	922.028320	135.697571
31420.388777	1095.746500	920.849609	50.721565
31420.388777	1095.746500	919.669922	53.414505
31420.388777	1095.746500	919.474609	12.675828
31420.388777	1095.746500	918.309570	-144.329407
31420.388777	1095.746500	917.143555	135.354385
31420.388777	1095.746500	915.977539	166.442307
31420.388777	1095.746500	914.810547	65.168480
31420.388777	1095.746500	913.644531	35.870430
31420.388777	1095.746500	912.477539	-153.558350
31420.388777	1095.746500	911.310547	-161.953018
31420.388777	1095.746500	910.143555	-149.485886
31420.388777	1095.746500	908.975586	85.609306
31420.388777	1095.746500	907.807617	-24.910278
31420.388777	1095.746500	906.639648	91.792297
31420.388777	1095.746500	905.471680	85.581795
31420.388777	1095.746500	904.303711	-66.637985
31420.388777	1095.746500	903.134766	59.215034
31420.388777	1095.746500	901.965820	-79.075043
31420.388777	1095.746500	900.796875	-55.210388
31420.388777	1095.746500	899.626953	5.675197
31420.388777	1095.746500	898.457031	-72.382690
31420.388777	1095.746500	897.287109	127.316612
31420.388777	1095.746500	896.117188	102.450317
31420.388777	1095.746500	894.947266	-35.790203
31420.388777	1095.746500	893.776367	4.118856
31420.388777	1095.746500	892.605469	41.679947
31420.388777	1095.746500	891.434570	-61.836472
31420.388777	1095.746500	890.262695	331.689056
31420.388777	1095.746500	889.091797	142.600937
31420.388777	1095.746500	887.919922	163.853424
31420.388777	1095.746500	886.748047	25.666342
31420.388777	1095.746500	885.575195	164.696625
31420.388777	1095.746500	884.403320	72.714104
31420.388777	1095.746500	883.230469	-12.322226
31420.388777	1095.746500	882.057617	98.870461
31420.388777	1095.746500	880.883789	66.908516
31420.388777	1095.746500	879.710938	-82.743286
31420.388777	1095.746500	878.537109	21.416361
31420.388777	1095.746500	877.362305	-59.006245
31420.388777	1095.746500	876.188477	109.634918
31420.388777	1095.746500	875.013672	149.076385
31420.388777	1095.746500	873.839844	-99.658783
31420.388777	1095.746500	872.664063	-214.641174
31420.388777	1095.746500	871.489258	-76.141281
31420.388777	1095.746500	870.313477	9.297509
31420.388777	1095.746500	869.138672	-11.268933
31420.388777	1095.746500	867.962891	32.629585
31420.388777	1095.746500	866.786133	-22.507124
31420.388777	1095.746500	865.610352	122.612259
31420.388777	1095.746500	864.433594	-49.931839
31420.388777	1095.746500	863.256836	-61.367115
31420.388777	1095.746500	862.079102	26.098207
31420.388777	1095.746500	860.902344	42.206264
31420.388777	1095.746500	859.724609	-79.679482
31420.388777	1095.746500	858.546875	-19.919474
31420.388777	1095.746500	857.368164	23.705215
31420.388777	1095.746500	856.190430	104.056488
31420.388777	1095.746500	855.011719	12.035236
31420.388777	1095.746500	853.833008	83.122383
31420.388777	1095.746500	852.654297	-27.276976
31420.388777	1095.746500	851.474609	55.222965
31420.388777	1095.746500	850.294922	144.552383
31420.388777	1095.746500	849.115234	-30.127762
31420.388777	1095.746500	847.935547	-67.076958
31420.388777	1095.746500	846.754883	171.276550
31420.388777	1095.746500	845.575195	70.025940
31420.388777	1095.746500	844.393555	-1.392973
31420.388777	1095.746500	843.212891	16.611910
31420.388777	1095.746500	842.032227	-112.127922
31420.388777	1095.746500	840.850586	-16.233223
31420.388777	1095.746500	839.668945	8.561310
31420.388777	1095.746500	838.486328	-152.246964
31420.388777	1095.746500	837.304688	28.265511
31420.388777	1095.746500	836.122070	-2.003045
31420.388777	1095.746500	834.939453	-208.581192
31420.388777	1095.746500	833.756836	42.712963
31420.388777	1095.746500	832.573242	-40.259075
31420.388777	1095.746500	831.389648	-155.258240
31420.388777	1095.746500	830.206055	-197.032806
31420.388777	1095.746500	829.022461	122.557106
31420.388777	1095.746500	827.838867	126.418991
31420.388777	1095.746500	826.654297	-118.948090
31420.388777	1095.746500	825.469727	67.767296
31420.388777	1095.746500	824.284180	133.256073
31420.388777	1095.746500	823.099609	-112.049416
31420.388777	1095.746500	821.914063	21.920868
31420.388777	1095.746500	820.728516	169.508224
31420.388777	1095.746500	819.542969	90.947281
31420.388777	1095.746500	818.356445	76.310158
31420.388777	1095.746500	817.169922	-57.040291
31420.388777	1095.746500	815.983398	-7.806456
31420.388777	1095.746500	814.796875	64.190109
31420.388777	1095.746500	813.609375	263.865173
31420.388777	1095.746500	812.422852	78.006058
31420.388777	1095.746500	811.235352	-50.805508
31420.388777	1095.746500	810.046875	119.037575
31420.388777	1095.746500	808.859375	133.792969
31420.388777	1095.746500	807.670898	50.524708
31420.388777	1095.746500	806.482422	31.048510
31420.388777	1095.746500	805.293945	-95.508926
31420.388777	1095.746500	804.104492	-37.587040
31420.388777	1095.746500	802.915039	31.660742
31420.388777	1095.746500	801.725586	-90.368378
31420.388777	1095.746500	800.536133	44.792618
31420.388777	1095.746500	799.345703	-61.331455
31420.388777	1095.746500	798.155273	-8.201046
31420.388777	1095.746500	796.964844	106.282219
31420.388777	1095.746500	795.774414	-34.005951
31420.388777	1095.746500	794.583008	-103.793297
31420.388777	1095.746500	793.392578	85.539909
31420.388777	1095.746500	792.200195	49.772282
31420.388777	1095.746500	791.008789	0.348810
31420.388777	1095.746500	789.816406	-87.709320
31420.388777	1095.746500	788.625000	-44.040939
31420.388777	1095.746500	787.432617	181.226593
31420.388777	1095.746500	786.239258	13.612943
31420.388777	1095.746500	785.046875	91.164047
31420.388777	1095.746500	783.853516	73.333908
31420.388777	1095.746500	782.660156	66.815292
31420.388777	1095.746500	781.465820	-87.182365
31420.388777	1095.746500	780.272461	35.524834
31420.388777	1095.746500	779.078125	71.979492
31420.388777	1095.746500	777.883789	-50.307106
31420.388777	1095.746500	776.688477	88.059402
31420.388777	1095.746500	775.494141	-111.305191
31420.388777	1095.746500	774.298828	162.865601
31420.388777	1095.746500	773.103516	160.544632
31420.388777	1095.746500	771.907227	-11.660485
31420.388777	1095.746500	770.711914	112.762314
31420.388777	1095.746500	769.515625	40.153976
31420.388777	1095.746500	768.318359	137.270523
31420.388777	1095.746500	767.122070	150.584198
31420.388777	1095.746500	765.924805	10.017770
31420.388777	1095.746500	764.727539	134.091705
31420.388777	1095.746500	763.530273	68.123177
31420.388777	1095.746500	762.333008	-4.644849
31420.388777	1095.746500	761.134766	-61.604538
31420.388777	1095.746500	759.936523	-84.686447
31420.388777	1095.746500	758.738281	152.028183
31420.388777	1095.746500	757.540039	-88.035553
31420.388777	1095.746500	756.340820	-59.287998
31420.388777	1095.746500	755.141602	147.784286
31420.388777	1095.746500	753.942383	4.808580
31420.388777	1095.746500	752.742188	92.065338
31420.388777	1095.746500	751.541992	77.694107
31420.388777	1095.746500	750.341797	36.209869
31420.388777	1095.746500	749.141602	5.974779
31420.388777	1095.746500	747.941406	-137.052826
31420.388777	1095.746500	746.740234	-0.485192
31420.388777	1095.746500	745.539063	-204.409637
31420.388777	1095.746500	744.337891	-20.649536
31420.388777	1095.746500	743.135742	113.413712
31420.388777	1095.746500	741.933594	6.321838
31420.388777	1095.746500	740.731445	-62.482399
31420.388777	1095.746500	739.529297	-52.489830
31420.388777	1095.746500	738.326172	108.294472
31420.388777	1095.746500	737.124023	203.687943
31420.388777	1095.746500	735.919922	4.179357
31420.388777	1095.746500	734.716797	22.957497
31420.388777	1095.746500	733.513672	-84.293762
31420.388777	1095.746500	732.309570	-117.330620
31420.388777	1095.746500	731.105469	108.184952
31420.388777	1095.746500	729.900391	84.015732
31420.388777	1095.746500	728.696289	-7.619904
31420.388777	1095.746500	727.491211	78.260185
31420.388777	1095.746500	726.286133	47.226135
31420.388777	1095.746500	725.080078	-87.171806
31420.388777	1095.746500	723.874023	27.717657
31420.388777	1095.746500	722.668945	45.964417
31420.388777	1095.746500	721.461914	111.292816
31420.388777	1095.746500	720.255859	50.861805
31420.388777	1095.746500	719.048828	44.259491
31420.388777	1095.746500	717.841797	140.807312
31420.388777	1095.746500	716.634766	190.164459
31420.388777	1095.746500	715.427734	-61.039627
31420.388777	1095.746500	714.219727	-27.455164
31420.388777	1095.746500	713.011719	82.279022
31420.388777	1095.746500	711.803711	-25.465435
31420.388777	1095.746500	710.594727	12.422884
31420.388777	1095.746500	709.385742	50.246696
31420.388777	1095.746500	708.176758	-86.688255
31420.388777	1095.746500	706.967773	-87.022980
31420.388777	1095.746500	705.758789	-100.838921
31420.388777	1095.746500	704.548828	-105.746979
31420.388777	1095.746500	703.338867	-30.141476
31420.388777	1095.746500	702.127930	-207.435120
31420.388777	1095.746500	700.917969	-49.173698
31420.388777	1095.746500	699.707031	-145.975769
31420.388777	1095.746500	698.496094	-72.856537
31420.388777	1095.746500	697.285156	-26.641535
31420.388777	1095.746500	696.073242	-27.430622
31420.388777	1095.746500	694.861328	-262.888794
31420.388777	1095.746500	693.649414	-165.425980
31420.388777	1095.746500	692.436523	-18.916079
31420.388777	1095.746500	691.224609	44.863853
31420.388777	1095.746500	690.011719	-63.344398
31420.388777	1095.746500	688.798828	7.018045
31420.388777	1095.746500	687.584961	37.129944
31420.388777	1095.746500	686.372070	69.418663
31420.388777	1095.746500	685.158203	-112.507568
31420.388777	1095.746500	683.943359	95.891472
31420.388777	1095.746500	682.729492	161.452560
31420.388777	1095.746500	681.514648	139.994690
31420.388777	1095.746500	680.299805	256.689362
31420.388777	1095.746500	679.084961	241.814255
31420.388777	1095.746500	677.869141	111.045952
31420.388777	1095.746500	676.653320	122.845161
31420.388777	1095.746500	675.437500	127.915359
31420.388777	1095.746500	674.221680	99.541069
31420.388777	1095.746500	673.004883	115.653694
31420.388777	1095.746500	671.789063	131.719620
31420.388777	1095.746500	670.571289	301.261749
31420.388777	1095.746500	669.354492	7.968927
31420.388777	1095.746500	668.136719	137.346024
31420.388777	1095.746500	666.919922	291.092133
31420.388777	1095.746500	665.701172	177.935913
31420.388777	1095.746500	664.483398	-4.115065
31420.388777	1095.746500	663.264648	118.321823
31420.388777	1095.746500	662.045898	187.343536
31420.388777	1095.746500	660.827148	-5.824846
31420.388777	1095.746500	659.608398	91.987061
31420.388777	1095.746500	658.388672	-7.902852
31420.388777	1095.746500	657.168945	129.746078
31420.388777	1095.746500	655.949219	-10.134991
31420.388777	1095.746500	654.728516	87.434868
31420.388777	1095.746500	653.507813	-25.833845
31420.388777	1095.746500	652.287109	-17.096838
31420.388777	1095.746500	651.066406	-63.839893
31420.388777	1095.746500	649.844727	44.598492
31420.388777	1095.746500	648.623047	192.855743
31420.388777	1095.746500	647.401367	165.937302
31420.388777	1095.746500	646.179688	114.623070
31420.388777	1095.746500	644.957031	74.369408
31420.388777	1095.746500	643.734375	71.752342
31420.388777	1095.746500	642.511719	97.891640
31420.388777	1095.746500	641.289063	39.861153
31420.388777	1095.746500	640.065430	61.502945
31420.388777	1095.746500	638.841797	-85.075569
31420.388777	1095.746500	637.618164	29.447546
31420.388777	1095.746500	636.393555	2.321542
31420.388777	1095.746500	635.168945	57.006462
31420.388777	1095.746500	633.944336	51.941456
31420.388777	1095.746500	632.719727	26.957289
31420.388777	1095.746500	631.494141	54.996525
31420.388777	1095.746500	630.269531	71.954422
31420.388777	1095.746500	629.042969	95.499046
31420.388777	1095.746500	627.817383	72.630753
31420.388777	1095.746500	626.590820	87.285675
31420.388777	1095.746500	625.365234	44.513535
31420.388777	1095.746500	624.137695	17.180487
31420.388777	1095.746500	622.911133	84.735329
31420.388777	1095.746500	621.683594	-2.208138
31420.388777	1095.746500	620.456055	-86.928833
31420.388777	1095.746500	619.228516	66.554474
31420.388777	1095.746500	618.000977	140.576553
31420.388777	1095.746500	616.772461	-8.109587
31420.388777	1095.746500	615.543945	6.349070
31420.388777	1095.746500	614.314453	106.720192
31420.388777	1095.746500	613.085938	198.226654
31420.388777	1095.746500	611.856445	120.072937
31420.388777	1095.746500	610.626953	11.108193
31420.388777	1095.746500	609.397461	58.497299
31420.388777	1095.746500	608.166992	141.069427
31420.388777	1095.746500	606.936523	18.925735
31420.388777	1095.746500	605.706055	-147.181992
31420.388777	1095.746500	604.474609	100.333244
31420.388777	1095.746500	603.244141	-34.948109
31420.388777	1095.746500	602.012695	-167.985718
31420.388777	1095.746500	600.780273	123.315964
31420.388777	1095.746500	599.548828	-49.274094
31420.388777	1095.746500	598.316406	-151.481201
31420.388777	1095.746500	597.083984	146.206009
31420.388777	1095.746500	595.851563	61.564758
31420.388777	1095.746500	594.618164	-161.400009
31420.388777	1095.746500	593.384766	-37.366386
31420.388777	1095.746500	592.151367	216.127426
31420.388777	1095.746500	590.917969	-28.677511
31420.388777	1095.746500	589.683594	-51.768414
31420.388777	1095.746500	588.449219	1.933468
31420.388777	1095.746500	587.214844	13.942638
31420.388777	1095.746500	585.979492	137.778717
31420.388777	1095.746500	584.745117	-54.126274
31420.388777	1095.746500	583.509766	168.313919
31420.388777	1095.746500	582.273438	-73.916466
31420.388777	1095.746500	581.038086	3.843064
31420.388777	1095.746500	579.801758	81.573326
31420.388777	1095.746500	578.565430	122.048309
31420.388777	1095.746500	577.329102	-128.693069
31420.388777	1095.746500	576.091797	38.788734
31420.388777	1095.746500	574.854492	-30.158083
31420.388777	1095.746500	573.617188	25.659643
31420.388777	1095.746500	572.378906	48.645374
31420.388777	1095.746500	571.141602	32.269924
31420.388777	1095.746500	569.903320	29.029861
31420.388777	1095.746500	568.664063	205.076370
31420.388777	1095.746500	567.425781	112.213173
31420.388777	1095.746500	566.186523	-76.752563
31420.388777	1095.746500	564.947266	166.982239
31420.388777	1095.746500	563.708008	222.771820
31420.388777	1095.746500	562.467773	199.929825
31420.388777	1095.746500	561.227539	146.548340
31420.388777	1095.746500	559.987305	88.843826
31420.388777	1095.746500	558.747070	199.237869
31420.388777	1095.746500	557.505859	145.947449
31420.388777	1095.746500	556.264648	116.698303
31420.388777	1095.746500	555.023438	128.925613
31420.388777	1095.746500	553.781250	138.986053
31420.388777	1095.746500	552.539063	197.030014
31420.388777	1095.746500	551.296875	163.523911
31420.388777	1095.746500	550.054688	40.707520
31420.388777	1095.746500	548.811523	246.962921
31420.388777	1095.746500	547.569336	-19.538855
31420.388777	1095.746500	546.325195	18.992876
31420.388777	1095.746500	545.082031	186.006668
31420.388777	1095.746500	543.837891	59.084488
31420.388777	1095.746500	542.593750	-87.343285
31420.388777	1095.746500	541.349609	14.383883
31420.388777	1095.746500	540.105469	-14.436764
31420.388777	1095.746500	538.860352	-169.373352
31420.388777	1095.746500	537.615234	6.324574
31420.388777	1095.746500	536.369141	-165.889618
31420.388777	1095.746500	535.124023	-53.245045
31420.388777	1095.746500	533.877930	-38.416355
31420.388777	1095.746500	532.631836	-162.620102
31420.388777	1095.746500	531.384766	-152.063126
31420.388777	1095.746500	530.138672	99.595490
31420.388777	1095.746500	528.891602	88.439919
31420.388777	1095.746500	527.643555	94.682220
31420.388777	1095.746500	526.396484	-44.460026
31420.388777	1095.746500	525.148438	9.609150
31420.388777	1095.746500	523.900391	172.160080
31420.388777	1095.746500	522.652344	-57.919632
31420.388777	1095.746500	521.403320	-8.130829
31420.388777	1095.746500	520.154297	-153.461182
31420.388777	1095.746500	518.905273	26.444550
31420.388777	1095.746500	517.656250	54.602734
31420.388777	1095.746500	516.406250	-29.892824
31420.388777	1095.746500	515.156250	35.146679
31420.388777	1095.746500	513.906250	-203.019379
31420.388777	1095.746500	512.655273	-55.635147
31420.388777	1095.746500	511.404297	18.110035
31420.388777	1095.746500	510.153320	-137.571472
31420.388777	1095.746500	508.902344	-137.358017
31420.388777	1095.746500	507.650391	46.769859
31420.388777	1095.746500	506.398438	1.570722
31420.388777	1095.746500	505.146484	-86.835075
31420.388777	1095.746500	503.893555	-155.722153
31420.388777	1095.746500	502.641602	-81.889427
31420.388777	1095.746500	501.388672	35.152660
31420.388777	1095.746500	500.134766	-96.310692
31420.388777	1095.746500	498.881836	-5.194876
31420.388777	1095.746500	497.627930	8.147763
31420.388777	1095.746500	496.374023	-4.407633
31420.388777	1095.746500	495.119141	103.948959
31420.388777	1095.746500	493.865234	78.460922
31420.388777	1095.746500	492.610352	160.889053
31420.388777	1095.746500	491.355469	172.100372
31420.388777	1095.746500	490.099609	252.337250
31420.388777	1095.746500	488.843750	119.060287
31420.388777	1095.746500	487.587891	61.308815
31420.388777	1095.746500	486.332031	173.876022
31420.388777	1095.746500	485.075195	256.225739
31420.388777	1095.746500	483.818359	155.401184
31420.388777	1095.746500	482.561523	97.704102
31420.388777	1095.746500	481.304688	104.641212
31420.388777	1095.746500	480.046875	191.237549
31420.388777	1095.746500	478.789063	206.750809
31420.388777	1095.746500	477.531250	200.726563
31420.388777	1095.746500	476.272461	261.398529
31420.388777	1095.746500	475.013672	182.193085
31420.388777	1095.746500	473.754883	315.945557
31420.388777	1095.746500	472.496094	253.932571
31420.388777	1095.746500	471.236328	267.171600
31420.388777	1095.746500	469.976563	254.587708
31420.388777	1095.746500	468.716797	317.198456
31420.388777	1095.746500	467.456055	207.863724
31420.388777	1095.746500	466.196289	278.987183
31420.388777	1095.746500	464.935547	328.564941
31420.388777	1095.746500	463.673828	161.212601
31420.388777	1095.746500	462.413086	303.020264
31420.388777	1095.746500	461.151367	236.529327
31420.388777	1095.746500	459.889648	285.889832
31420.388777	1095.746500	458.626953	446.727295
31420.388777	1095.746500	457.364258	416.545013
31420.388777	1095.746500	456.101563	216.905319
31420.388777	1095.746500	454.838867	300.284515
31420.388777	1095.746500	453.575195	385.696106
31420.388777	1095.746500	452.312500	395.993500
31420.388777	1095.746500	451.047852	307.642395
31420.388777	1095.746500	449.784180	285.652191
31420.388777	1095.746500	448.519531	272.143280
31420.388777	1095.746500	447.254883	440.544128
31420.388777	1095.746500	445.990234	439.657288
31420.388777	1095.746500	444.725586	365.897430
31420.388777	1095.746500	443.459961	446.118195
31420.388777	1095.746500	442.194336	611.758606
31420.388777	1095.746500	440.927734	561.178772
31420.388777	1095.746500	439.662109	803.454712
31420.388777	1095.746500	438.395508	876.591187
31420.388777	1095.746500	437.127930	545.571960
31420.388777	1095.746500	435.861328	582.115967
31420.388777	1095.746500	434.593750	603.531433
31420.388777	1095.746500	433.326172	579.919006
31420.388777	1095.746500	432.058594	594.590332
31420.388777	1095.746500	430.790039	512.995117
31420.388777	1095.746500	429.521484	561.469238
31420.388777	1095.746500	428.252930	383.506470
31420.388777	1095.746500	426.984375	572.430420
31420.388777	1095.746500	425.714844	682.130859
31420.388777	1095.746500	424.445313	625.211243
31420.388777	1095.746500	423.174805	555.295959
31420.388777	1095.746500	421.905273	564.069031
31420.388777	1095.746500	420.634766	651.457581
31420.388777	1095.746500	419.364258	542.514160
31420.388777	1095.746500	418.092773	414.181030
31420.388777	1095.746500	416.822266	764.909546
31420.388777	1095.746500	415.550781	776.600159
31420.388777	1095.746500	414.278320	592.117065
31420.388777	1095.746500	413.006836	349.954132
31420.388777	1095.746500	411.734375	667.305908
31420.388777	1095.746500	410.461914	473.549133
31420.388777	1095.746500	409.188477	622.038147
31420.388777	1095.746500	407.916016	570.217102
31420.388777	1095.746500	406.642578	496.802216
31420.388777	1095.746500	405.368164	510.217560
31420.388777	1095.746500	404.094727	533.897400
31420.388777	1095.746500	402.820313	425.430725
31420.388777	1095.746500	401.545898	414.350647
31420.388777	1095.746500	400.270508	424.103790
31420.388777	1095.746500	398.996094	414.337769
31420.388777	1095.746500	397.720703	198.196823
31420.388777	1095.746500	396.444336	357.410797
31420.388777	1095.746500	395.168945	367.562195
31420.388777	1095.746500	393.892578	394.206512
31420.388777	1095.746500	392.616211	297.327637
31420.388777	1095.746500	391.339844	414.201324
31420.388777	1095.746500	390.062500	223.053635
31420.388777	1095.746500	388.785156	264.657715
31420.388777	1095.746500	387.507813	466.787598
31420.388777	1095.746500	386.229492	318.634125
31420.388777	1095.746500	384.951172	369.121216
31420.388777	1095.746500	383.672852	346.991821
31420.388777	1095.746500	382.394531	201.457367
31420.388777	1095.746500	381.115234	514.778076
31420.388777	1095.746500	379.835938	114.013237
31420.388777	1095.746500	378.556641	309.553131
31420.388777	1095.746500	377.277344	453.569000
31420.388777	1095.746500	375.997070	309.147064
31420.388777	1095.746500	374.716797	642.044617
31420.388777	1095.746500	373.435547	430.670349
31420.388777	1095.746500	372.155273	362.423126
31420.388777	1095.746500	370.874023	147.607086
31420.388777	1095.746500	369.591797	249.045227
31420.388777	1095.746500	368.310547	387.698364
31420.388777	1095.746500	367.028320	164.297867
31420.388777	1095.746500	365.746094	227.347855
31420.388777	1095.746500	364.463867	380.304565
31420.388777	1095.746500	363.180664	365.557648
31420.388777	1095.746500	361.897461	117.804466
31420.388777	1095.746500	360.614258	97.105713
31420.388777	1095.746500	359.330078	52.258152
31420.388777	1095.746500	358.045898	118.247162
31420.388777	1095.746500	356.761719	109.439072
31420.388777	1095.746500	355.477539	221.899109
31420.388777	1095.746500	354.192383	219.457748
31420.388777	1095.746500	352.907227	140.121368
31420.388777	1095.746500	351.622070	135.589813
31420.388777	1095.746500	350.336914	102.590973
31420.388777	1095.746500	349.050781	175.847107
31420.388777	1095.746500	347.764648	85.833023
31420.388777	1095.746500	346.477539	175.664963
31420.388777	1095.746500	345.191406	13.893855
31420.388777	1095.746500	343.904297	48.699581
31420.388777	1095.746500	342.616211	-50.301491
31420.388777	1095.746500	341.329102	34.562057
31420.388777	1095.746500	340.041016	-73.267120
31420.388777	1095.746500	338.752930	-37.339111
31420.388777	1095.746500	337.463867	83.341545
31420.388777	1095.746500	336.175781	-28.487942
31420.388777	1095.746500	334.886719	68.339844
31420.388777	1095.746500	333.596680	123.736839
31420.388777	1095.746500	332.307617	116.793915
31420.388777	1095.746500	331.017578	43.232307
31420.388777	1095.746500	329.727539	-180.841522
31420.388777	1095.746500	328.436523	23.724197
31420.388777	1095.746500	327.146484	-69.141319
31420.388777	1095.746500	325.855469	-127.986557
31420.388777	1095.746500	324.563477	-219.972458
31420.388777	1095.746500	323.272461	-244.373840
31420.388777	1095.746500	321.980469	-67.231377
31420.388777	1095.746500	320.688477	-183.208923
31420.388777	1095.746500	319.395508	-122.905045
31420.388777	1095.746500	318.103516	-108.386848
31420.388777	1095.746500	316.810547	-112.553123
31420.388777	1095.746500	315.516602	-34.931866
31420.388777	1095.746500	314.223633	-45.046230
31420.388777	1095.746500	312.929688	-15.338120
31420.388777	1095.746500	311.635742	24.896976
31420.388777	1095.746500	310.340820	150.855530
31420.388777	1095.746500	309.045898	-131.072464
31420.388777	1095.746500	307.750977	57.553955
31420.388777	1095.746500	306.456055	126.858856
31420.388777	1095.746500	305.160156	85.166008
31420.388777	1095.746500	303.865234	53.853645
31420.388777	1095.746500	302.568359	-32.119968
31420.388777	1095.746500	301.272461	163.749161
31420.388777	1095.746500	299.975586	350.811218
31420.388777	1095.746500	298.678711	491.525421
