#X		#Y		#Wave		#Intensity
22960.461809	3070.125833	1999.980469	21.121517
22960.461809	3070.125833	1999.016602	83.270378
22960.461809	3070.125833	1998.052734	109.599930
22960.461809	3070.125833	1997.087891	140.866730
22960.461809	3070.125833	1996.123047	-8.751527
22960.461809	3070.125833	1995.158203	-19.591816
22960.461809	3070.125833	1994.193359	-50.240215
22960.461809	3070.125833	1993.228516	80.086235
22960.461809	3070.125833	1992.262695	-71.875854
22960.461809	3070.125833	1991.297852	-159.409836
22960.461809	3070.125833	1990.332031	-34.059414
22960.461809	3070.125833	1989.366211	-27.514263
22960.461809	3070.125833	1988.399414	68.106468
22960.461809	3070.125833	1987.433594	-113.323288
22960.461809	3070.125833	1986.466797	-17.682413
22960.461809	3070.125833	1985.500977	-129.751541
22960.461809	3070.125833	1984.534180	-43.983818
22960.461809	3070.125833	1983.567383	-52.145195
22960.461809	3070.125833	1982.599609	152.249359
22960.461809	3070.125833	1981.632813	50.223869
22960.461809	3070.125833	1980.665039	-29.501060
22960.461809	3070.125833	1979.697266	24.209587
22960.461809	3070.125833	1978.729492	90.283089
22960.461809	3070.125833	1977.761719	57.610516
22960.461809	3070.125833	1976.792969	17.580982
22960.461809	3070.125833	1975.825195	81.264534
22960.461809	3070.125833	1974.856445	68.468224
22960.461809	3070.125833	1973.887695	68.053986
22960.461809	3070.125833	1972.918945	47.950161
22960.461809	3070.125833	1971.949219	151.205414
22960.461809	3070.125833	1970.980469	89.264526
22960.461809	3070.125833	1970.010742	37.251583
22960.461809	3070.125833	1969.041016	71.573883
22960.461809	3070.125833	1968.071289	-4.965542
22960.461809	3070.125833	1967.101563	39.303474
22960.461809	3070.125833	1966.130859	-78.984039
22960.461809	3070.125833	1965.161133	120.549370
22960.461809	3070.125833	1964.190430	24.553415
22960.461809	3070.125833	1963.219727	14.816607
22960.461809	3070.125833	1962.249023	-127.792435
22960.461809	3070.125833	1961.277344	69.342270
22960.461809	3070.125833	1960.306641	133.579346
22960.461809	3070.125833	1959.334961	84.672249
22960.461809	3070.125833	1958.363281	-35.497723
22960.461809	3070.125833	1957.391602	196.115036
22960.461809	3070.125833	1956.419922	216.230896
22960.461809	3070.125833	1955.447266	216.725159
22960.461809	3070.125833	1954.474609	74.710640
22960.461809	3070.125833	1953.501953	21.273291
22960.461809	3070.125833	1952.529297	103.046402
22960.461809	3070.125833	1951.556641	162.734024
22960.461809	3070.125833	1950.583984	87.364868
22960.461809	3070.125833	1949.610352	107.848976
22960.461809	3070.125833	1948.636719	86.639397
22960.461809	3070.125833	1947.663086	43.398502
22960.461809	3070.125833	1946.689453	5.134842
22960.461809	3070.125833	1945.715820	47.915512
22960.461809	3070.125833	1944.741211	7.317136
22960.461809	3070.125833	1943.767578	47.732887
22960.461809	3070.125833	1942.792969	19.515533
22960.461809	3070.125833	1941.818359	-65.036316
22960.461809	3070.125833	1940.842773	39.265369
22960.461809	3070.125833	1939.868164	67.593971
22960.461809	3070.125833	1938.892578	44.498341
22960.461809	3070.125833	1937.916992	-110.849701
22960.461809	3070.125833	1936.941406	22.978470
22960.461809	3070.125833	1935.965820	-4.847347
22960.461809	3070.125833	1934.990234	-115.875633
22960.461809	3070.125833	1934.013672	-92.154068
22960.461809	3070.125833	1933.037109	39.313488
22960.461809	3070.125833	1932.060547	60.642044
22960.461809	3070.125833	1931.083984	-59.918648
22960.461809	3070.125833	1930.107422	-9.131063
22960.461809	3070.125833	1929.129883	7.436223
22960.461809	3070.125833	1928.153320	16.702700
22960.461809	3070.125833	1927.175781	-86.469467
22960.461809	3070.125833	1926.198242	-23.320942
22960.461809	3070.125833	1925.219727	-28.594057
22960.461809	3070.125833	1924.242188	-97.365349
22960.461809	3070.125833	1923.263672	24.509836
22960.461809	3070.125833	1922.285156	-17.296347
22960.461809	3070.125833	1921.306641	-134.766281
22960.461809	3070.125833	1920.328125	72.628845
22960.461809	3070.125833	1919.349609	-161.936630
22960.461809	3070.125833	1918.370117	-32.658543
22960.461809	3070.125833	1917.391602	-49.834255
22960.461809	3070.125833	1916.412109	-42.568748
22960.461809	3070.125833	1915.431641	-25.514822
22960.461809	3070.125833	1914.452148	-35.270390
22960.461809	3070.125833	1913.472656	-147.422379
22960.461809	3070.125833	1912.492188	-79.066399
22960.461809	3070.125833	1911.511719	11.232352
22960.461809	3070.125833	1910.531250	74.711060
22960.461809	3070.125833	1909.550781	106.510208
22960.461809	3070.125833	1908.569336	162.687561
22960.461809	3070.125833	1907.588867	-112.440697
22960.461809	3070.125833	1906.607422	-29.407824
22960.461809	3070.125833	1905.625977	82.836006
22960.461809	3070.125833	1904.644531	-150.671295
22960.461809	3070.125833	1903.662109	-28.671244
22960.461809	3070.125833	1902.680664	8.115495
22960.461809	3070.125833	1901.698242	-98.661575
22960.461809	3070.125833	1900.715820	-42.380497
22960.461809	3070.125833	1899.733398	-71.243141
22960.461809	3070.125833	1898.750000	70.157463
22960.461809	3070.125833	1897.767578	16.992556
22960.461809	3070.125833	1896.784180	75.688110
22960.461809	3070.125833	1895.800781	-77.093468
22960.461809	3070.125833	1894.817383	8.344844
22960.461809	3070.125833	1893.833984	18.436398
22960.461809	3070.125833	1892.850586	-12.768758
22960.461809	3070.125833	1891.866211	55.624165
22960.461809	3070.125833	1890.881836	63.284832
22960.461809	3070.125833	1889.897461	-23.743544
22960.461809	3070.125833	1888.913086	90.737511
22960.461809	3070.125833	1887.927734	-71.499779
22960.461809	3070.125833	1886.943359	-0.734011
22960.461809	3070.125833	1885.958008	-99.822350
22960.461809	3070.125833	1884.972656	-4.828537
22960.461809	3070.125833	1883.987305	-23.859753
22960.461809	3070.125833	1883.001953	-35.616928
22960.461809	3070.125833	1882.015625	-35.256107
22960.461809	3070.125833	1881.029297	112.947098
22960.461809	3070.125833	1880.042969	57.522213
22960.461809	3070.125833	1879.056641	74.792252
22960.461809	3070.125833	1878.070313	-19.389997
22960.461809	3070.125833	1877.083984	65.675423
22960.461809	3070.125833	1876.096680	116.792870
22960.461809	3070.125833	1875.109375	51.661896
22960.461809	3070.125833	1874.122070	-73.978462
22960.461809	3070.125833	1873.134766	134.392090
22960.461809	3070.125833	1872.146484	52.298531
22960.461809	3070.125833	1871.159180	18.597961
22960.461809	3070.125833	1870.170898	91.315651
22960.461809	3070.125833	1869.182617	103.522873
22960.461809	3070.125833	1868.194336	45.580288
22960.461809	3070.125833	1867.205078	168.942474
22960.461809	3070.125833	1866.216797	57.780758
22960.461809	3070.125833	1865.227539	142.372620
22960.461809	3070.125833	1864.238281	-2.626004
22960.461809	3070.125833	1863.249023	55.311565
22960.461809	3070.125833	1862.259766	9.341928
22960.461809	3070.125833	1861.269531	93.752037
22960.461809	3070.125833	1860.279297	33.238976
22960.461809	3070.125833	1859.290039	-138.323761
22960.461809	3070.125833	1858.298828	13.533668
22960.461809	3070.125833	1857.308594	90.494034
22960.461809	3070.125833	1856.318359	66.063499
22960.461809	3070.125833	1855.327148	-28.346153
22960.461809	3070.125833	1854.335938	5.050806
22960.461809	3070.125833	1853.344727	93.847565
22960.461809	3070.125833	1852.353516	-27.159054
22960.461809	3070.125833	1851.362305	13.318006
22960.461809	3070.125833	1850.370117	133.256271
22960.461809	3070.125833	1849.377930	123.000824
22960.461809	3070.125833	1848.385742	95.839714
22960.461809	3070.125833	1847.393555	114.398918
22960.461809	3070.125833	1846.401367	149.757050
22960.461809	3070.125833	1845.408203	112.827011
22960.461809	3070.125833	1844.415039	27.717815
22960.461809	3070.125833	1843.421875	159.179993
22960.461809	3070.125833	1842.428711	230.385452
22960.461809	3070.125833	1841.435547	-114.671089
22960.461809	3070.125833	1840.441406	88.735535
22960.461809	3070.125833	1839.448242	128.485214
22960.461809	3070.125833	1838.454102	-2.544046
22960.461809	3070.125833	1837.459961	169.304092
22960.461809	3070.125833	1836.464844	-12.273205
22960.461809	3070.125833	1835.470703	166.601044
22960.461809	3070.125833	1834.475586	81.071518
22960.461809	3070.125833	1833.480469	108.408112
22960.461809	3070.125833	1832.485352	8.386885
22960.461809	3070.125833	1831.490234	78.821007
22960.461809	3070.125833	1830.495117	134.759506
22960.461809	3070.125833	1829.499023	130.605759
22960.461809	3070.125833	1828.502930	-15.200521
22960.461809	3070.125833	1827.506836	-0.263597
22960.461809	3070.125833	1826.510742	67.375771
22960.461809	3070.125833	1825.513672	182.888809
22960.461809	3070.125833	1824.517578	209.564194
22960.461809	3070.125833	1823.520508	101.897858
22960.461809	3070.125833	1822.523438	133.231369
22960.461809	3070.125833	1821.526367	15.891206
22960.461809	3070.125833	1820.529297	-22.403042
22960.461809	3070.125833	1819.531250	25.488754
22960.461809	3070.125833	1818.533203	-10.545139
22960.461809	3070.125833	1817.535156	111.417534
22960.461809	3070.125833	1816.537109	166.217972
22960.461809	3070.125833	1815.539063	-18.469082
22960.461809	3070.125833	1814.540039	14.641219
22960.461809	3070.125833	1813.541992	-55.235466
22960.461809	3070.125833	1812.542969	130.838287
22960.461809	3070.125833	1811.543945	-77.932236
22960.461809	3070.125833	1810.543945	36.167751
22960.461809	3070.125833	1809.544922	73.629951
22960.461809	3070.125833	1808.544922	120.559700
22960.461809	3070.125833	1807.544922	-2.319293
22960.461809	3070.125833	1806.544922	77.904144
22960.461809	3070.125833	1805.544922	48.104591
22960.461809	3070.125833	1804.544922	132.904190
22960.461809	3070.125833	1803.543945	105.328346
22960.461809	3070.125833	1802.542969	75.292603
22960.461809	3070.125833	1801.541992	186.052963
22960.461809	3070.125833	1800.541016	31.716967
22960.461809	3070.125833	1799.539063	142.274109
22960.461809	3070.125833	1798.538086	-2.617964
22960.461809	3070.125833	1797.536133	76.720688
22960.461809	3070.125833	1796.534180	72.458633
22960.461809	3070.125833	1795.532227	266.057007
22960.461809	3070.125833	1794.529297	128.059692
22960.461809	3070.125833	1793.527344	13.871271
22960.461809	3070.125833	1792.524414	-86.061462
22960.461809	3070.125833	1791.521484	57.030151
22960.461809	3070.125833	1790.518555	35.580479
22960.461809	3070.125833	1789.514648	25.959679
22960.461809	3070.125833	1788.511719	-117.117157
22960.461809	3070.125833	1787.507813	80.290138
22960.461809	3070.125833	1786.503906	172.779327
22960.461809	3070.125833	1785.500000	129.465027
22960.461809	3070.125833	1784.496094	-44.814999
22960.461809	3070.125833	1783.491211	135.417892
22960.461809	3070.125833	1782.486328	153.721802
22960.461809	3070.125833	1781.481445	79.166977
22960.461809	3070.125833	1780.476563	28.332941
22960.461809	3070.125833	1779.471680	103.445236
22960.461809	3070.125833	1778.465820	33.426979
22960.461809	3070.125833	1777.460938	79.811653
22960.461809	3070.125833	1776.455078	-83.029152
22960.461809	3070.125833	1775.449219	29.701656
22960.461809	3070.125833	1774.442383	-4.978861
22960.461809	3070.125833	1773.436523	14.893693
22960.461809	3070.125833	1772.429688	-0.952284
22960.461809	3070.125833	1771.422852	-116.591393
22960.461809	3070.125833	1770.416016	45.434952
22960.461809	3070.125833	1769.409180	-6.272090
22960.461809	3070.125833	1768.402344	62.959461
22960.461809	3070.125833	1767.394531	72.763870
22960.461809	3070.125833	1766.386719	-62.202999
22960.461809	3070.125833	1765.378906	25.698648
22960.461809	3070.125833	1764.371094	-111.755630
22960.461809	3070.125833	1763.362305	-19.320044
22960.461809	3070.125833	1762.354492	-14.691291
22960.461809	3070.125833	1761.345703	39.601963
22960.461809	3070.125833	1760.336914	-10.453263
22960.461809	3070.125833	1759.328125	124.175972
22960.461809	3070.125833	1758.318359	57.364998
22960.461809	3070.125833	1757.308594	-111.321243
22960.461809	3070.125833	1756.299805	-154.557709
22960.461809	3070.125833	1755.290039	-60.595150
22960.461809	3070.125833	1754.279297	-11.723085
22960.461809	3070.125833	1753.269531	-138.028702
22960.461809	3070.125833	1752.258789	-169.759796
22960.461809	3070.125833	1751.249023	-97.496872
22960.461809	3070.125833	1750.238281	62.135517
22960.461809	3070.125833	1749.226563	-151.918182
22960.461809	3070.125833	1748.215820	-53.962555
22960.461809	3070.125833	1747.204102	13.141552
22960.461809	3070.125833	1746.193359	-61.623978
22960.461809	3070.125833	1745.181641	-67.944984
22960.461809	3070.125833	1744.168945	29.567392
22960.461809	3070.125833	1743.157227	-28.887188
22960.461809	3070.125833	1742.144531	-134.629761
22960.461809	3070.125833	1741.132813	52.297504
22960.461809	3070.125833	1740.120117	14.856961
22960.461809	3070.125833	1739.106445	-152.438446
22960.461809	3070.125833	1738.093750	-154.602097
22960.461809	3070.125833	1737.080078	-29.482567
22960.461809	3070.125833	1736.067383	-41.263340
22960.461809	3070.125833	1735.053711	-10.686840
22960.461809	3070.125833	1734.040039	10.368163
22960.461809	3070.125833	1733.025391	3.044881
22960.461809	3070.125833	1732.011719	-207.002609
22960.461809	3070.125833	1730.997070	58.859692
22960.461809	3070.125833	1729.982422	18.318756
22960.461809	3070.125833	1728.967773	67.210129
22960.461809	3070.125833	1727.952148	31.229456
22960.461809	3070.125833	1726.937500	72.884117
22960.461809	3070.125833	1725.921875	69.717110
22960.461809	3070.125833	1724.906250	170.022278
22960.461809	3070.125833	1723.890625	199.627884
22960.461809	3070.125833	1722.875000	10.373411
22960.461809	3070.125833	1721.858398	42.194408
22960.461809	3070.125833	1720.841797	73.930435
22960.461809	3070.125833	1719.825195	110.284294
22960.461809	3070.125833	1718.808594	212.369949
22960.461809	3070.125833	1717.791992	135.732498
22960.461809	3070.125833	1716.774414	122.487381
22960.461809	3070.125833	1715.756836	280.674225
22960.461809	3070.125833	1714.739258	37.083317
22960.461809	3070.125833	1713.721680	143.424332
22960.461809	3070.125833	1712.704102	158.088135
22960.461809	3070.125833	1711.685547	231.356873
22960.461809	3070.125833	1710.667969	177.801682
22960.461809	3070.125833	1709.649414	103.072052
22960.461809	3070.125833	1708.630859	72.882896
22960.461809	3070.125833	1707.611328	173.989319
22960.461809	3070.125833	1706.592773	150.706116
22960.461809	3070.125833	1705.573242	57.015839
22960.461809	3070.125833	1704.553711	43.006714
22960.461809	3070.125833	1703.534180	-10.903957
22960.461809	3070.125833	1702.513672	33.558708
22960.461809	3070.125833	1701.494141	89.670052
22960.461809	3070.125833	1700.473633	37.934563
22960.461809	3070.125833	1699.453125	14.265501
22960.461809	3070.125833	1698.432617	37.380493
22960.461809	3070.125833	1697.412109	32.336033
22960.461809	3070.125833	1696.390625	27.227535
22960.461809	3070.125833	1695.369141	29.086658
22960.461809	3070.125833	1694.347656	63.648140
22960.461809	3070.125833	1693.326172	245.523682
22960.461809	3070.125833	1692.304688	174.672623
22960.461809	3070.125833	1691.282227	-8.460192
22960.461809	3070.125833	1690.260742	-114.407852
22960.461809	3070.125833	1689.238281	158.311646
22960.461809	3070.125833	1688.214844	98.994476
22960.461809	3070.125833	1687.192383	11.621995
22960.461809	3070.125833	1686.168945	160.184265
22960.461809	3070.125833	1685.146484	194.199936
22960.461809	3070.125833	1684.123047	419.643280
22960.461809	3070.125833	1683.099609	107.932335
22960.461809	3070.125833	1682.075195	148.785507
22960.461809	3070.125833	1681.051758	222.266190
22960.461809	3070.125833	1680.027344	260.662872
22960.461809	3070.125833	1679.002930	271.005981
22960.461809	3070.125833	1677.978516	250.980606
22960.461809	3070.125833	1676.953125	450.136993
22960.461809	3070.125833	1675.928711	367.049683
22960.461809	3070.125833	1674.903320	162.718719
22960.461809	3070.125833	1673.877930	175.196747
22960.461809	3070.125833	1672.852539	196.956390
22960.461809	3070.125833	1671.826172	323.507782
22960.461809	3070.125833	1670.800781	338.172852
22960.461809	3070.125833	1669.774414	401.696960
22960.461809	3070.125833	1668.748047	453.522064
22960.461809	3070.125833	1667.721680	468.045135
22960.461809	3070.125833	1666.694336	352.170258
22960.461809	3070.125833	1665.667969	443.446625
22960.461809	3070.125833	1664.640625	539.301514
22960.461809	3070.125833	1663.613281	435.026672
22960.461809	3070.125833	1662.585938	588.938965
22960.461809	3070.125833	1661.557617	549.743652
22960.461809	3070.125833	1660.530273	610.524841
22960.461809	3070.125833	1659.501953	629.405396
22960.461809	3070.125833	1658.473633	831.859314
22960.461809	3070.125833	1657.444336	792.542908
22960.461809	3070.125833	1656.416016	771.817322
22960.461809	3070.125833	1655.386719	627.963501
22960.461809	3070.125833	1654.358398	681.553101
22960.461809	3070.125833	1653.328125	904.575500
22960.461809	3070.125833	1652.298828	828.046265
22960.461809	3070.125833	1651.269531	765.456116
22960.461809	3070.125833	1650.239258	825.850525
22960.461809	3070.125833	1649.208984	668.122009
22960.461809	3070.125833	1648.178711	888.537170
22960.461809	3070.125833	1647.148438	1067.110229
22960.461809	3070.125833	1646.117188	932.566772
22960.461809	3070.125833	1645.086914	1043.811646
22960.461809	3070.125833	1644.055664	1233.798340
22960.461809	3070.125833	1643.024414	1238.314575
22960.461809	3070.125833	1641.992188	1261.344727
22960.461809	3070.125833	1640.960938	1156.966919
22960.461809	3070.125833	1639.928711	1481.075684
22960.461809	3070.125833	1638.896484	1550.341919
22960.461809	3070.125833	1637.864258	1455.204102
22960.461809	3070.125833	1636.832031	1482.779541
22960.461809	3070.125833	1635.798828	1751.009521
22960.461809	3070.125833	1634.766602	1602.668457
22960.461809	3070.125833	1633.733398	1773.611938
22960.461809	3070.125833	1632.699219	1865.841919
22960.461809	3070.125833	1631.666016	1884.052734
22960.461809	3070.125833	1630.632813	1918.443481
22960.461809	3070.125833	1629.598633	1839.550415
22960.461809	3070.125833	1628.564453	1927.090332
22960.461809	3070.125833	1627.530273	2053.883545
22960.461809	3070.125833	1626.495117	1877.989746
22960.461809	3070.125833	1625.460938	1933.157715
22960.461809	3070.125833	1624.425781	1962.900269
22960.461809	3070.125833	1623.390625	2115.009277
22960.461809	3070.125833	1622.355469	2087.017334
22960.461809	3070.125833	1621.319336	2310.601807
22960.461809	3070.125833	1620.284180	2215.691406
22960.461809	3070.125833	1619.248047	2164.654541
22960.461809	3070.125833	1618.211914	2411.201904
22960.461809	3070.125833	1617.174805	2189.512451
22960.461809	3070.125833	1616.138672	2399.102295
22960.461809	3070.125833	1615.101563	2548.680908
22960.461809	3070.125833	1614.065430	2596.820801
22960.461809	3070.125833	1613.027344	2511.287842
22960.461809	3070.125833	1611.990234	2667.729248
22960.461809	3070.125833	1610.953125	2768.848633
22960.461809	3070.125833	1609.915039	2994.302246
22960.461809	3070.125833	1608.876953	2772.998047
22960.461809	3070.125833	1607.838867	2676.117676
22960.461809	3070.125833	1606.800781	2984.391602
22960.461809	3070.125833	1605.761719	2804.705811
22960.461809	3070.125833	1604.723633	3018.558350
22960.461809	3070.125833	1603.684570	2972.409180
22960.461809	3070.125833	1602.644531	3176.981201
22960.461809	3070.125833	1601.605469	3110.186035
22960.461809	3070.125833	1600.566406	3167.590332
22960.461809	3070.125833	1599.526367	3107.770264
22960.461809	3070.125833	1598.486328	2871.055176
22960.461809	3070.125833	1597.446289	2838.954590
22960.461809	3070.125833	1596.405273	2793.107910
22960.461809	3070.125833	1595.365234	2816.226318
22960.461809	3070.125833	1594.324219	2733.734375
22960.461809	3070.125833	1593.283203	2722.481445
22960.461809	3070.125833	1592.242188	2708.976318
22960.461809	3070.125833	1591.200195	2642.722900
22960.461809	3070.125833	1590.159180	2415.931885
22960.461809	3070.125833	1589.117188	2414.076172
22960.461809	3070.125833	1588.075195	2352.628662
22960.461809	3070.125833	1587.032227	2366.911133
22960.461809	3070.125833	1585.990234	2339.973633
22960.461809	3070.125833	1584.947266	2118.241455
22960.461809	3070.125833	1583.904297	2244.993408
22960.461809	3070.125833	1582.861328	2335.078857
22960.461809	3070.125833	1581.818359	2441.213623
22960.461809	3070.125833	1580.775391	2235.855225
22960.461809	3070.125833	1579.731445	2330.604004
22960.461809	3070.125833	1578.687500	2304.019531
22960.461809	3070.125833	1577.643555	2250.026855
22960.461809	3070.125833	1576.598633	2301.374023
22960.461809	3070.125833	1575.554688	2204.030518
22960.461809	3070.125833	1574.509766	2120.494385
22960.461809	3070.125833	1573.464844	2117.099854
22960.461809	3070.125833	1572.419922	2081.744873
22960.461809	3070.125833	1571.374023	2124.187500
22960.461809	3070.125833	1570.329102	2159.821533
22960.461809	3070.125833	1569.283203	1850.376587
22960.461809	3070.125833	1568.237305	1922.715698
22960.461809	3070.125833	1567.191406	1766.623535
22960.461809	3070.125833	1566.144531	1688.303467
22960.461809	3070.125833	1565.098633	1744.821899
22960.461809	3070.125833	1564.051758	1719.172363
22960.461809	3070.125833	1563.004883	1663.916992
22960.461809	3070.125833	1561.957031	1665.796021
22960.461809	3070.125833	1560.910156	1542.239868
22960.461809	3070.125833	1559.862305	1637.807983
22960.461809	3070.125833	1558.814453	1487.052124
22960.461809	3070.125833	1557.766602	1229.233765
22960.461809	3070.125833	1556.718750	1345.522461
22960.461809	3070.125833	1555.669922	1568.967651
22960.461809	3070.125833	1554.621094	1357.059448
22960.461809	3070.125833	1553.573242	1573.721069
22960.461809	3070.125833	1552.523438	1528.340332
22960.461809	3070.125833	1551.474609	1412.440796
22960.461809	3070.125833	1550.424805	1483.396606
22960.461809	3070.125833	1549.375000	1472.424072
22960.461809	3070.125833	1548.325195	1454.696411
22960.461809	3070.125833	1547.275391	1569.061035
22960.461809	3070.125833	1546.225586	1398.997070
22960.461809	3070.125833	1545.174805	1415.630615
22960.461809	3070.125833	1544.124023	1377.736206
22960.461809	3070.125833	1543.073242	1440.000732
22960.461809	3070.125833	1542.022461	1634.197388
22960.461809	3070.125833	1540.970703	1591.951660
22960.461809	3070.125833	1539.919922	1347.513184
22960.461809	3070.125833	1538.868164	1385.029907
22960.461809	3070.125833	1537.815430	1440.777954
22960.461809	3070.125833	1536.763672	1539.748657
22960.461809	3070.125833	1535.710938	1452.516357
22960.461809	3070.125833	1534.659180	1660.596558
22960.461809	3070.125833	1533.606445	1855.043945
22960.461809	3070.125833	1532.552734	1917.838013
22960.461809	3070.125833	1531.500000	2051.045410
22960.461809	3070.125833	1530.446289	2431.584961
22960.461809	3070.125833	1529.393555	2505.819580
22960.461809	3070.125833	1528.338867	2555.143066
22960.461809	3070.125833	1527.285156	2559.184326
22960.461809	3070.125833	1526.231445	2359.265625
22960.461809	3070.125833	1525.176758	2170.833984
22960.461809	3070.125833	1524.122070	1760.470825
22960.461809	3070.125833	1523.067383	1393.403076
22960.461809	3070.125833	1522.012695	1334.649658
22960.461809	3070.125833	1520.957031	1185.403809
22960.461809	3070.125833	1519.901367	1178.960571
22960.461809	3070.125833	1518.845703	1005.071289
22960.461809	3070.125833	1517.790039	919.614136
22960.461809	3070.125833	1516.734375	752.806274
22960.461809	3070.125833	1515.677734	934.593323
22960.461809	3070.125833	1514.621094	779.327332
22960.461809	3070.125833	1513.564453	791.579956
22960.461809	3070.125833	1512.507813	613.966736
22960.461809	3070.125833	1511.450195	619.635742
22960.461809	3070.125833	1510.393555	546.282959
22960.461809	3070.125833	1509.335938	552.140869
22960.461809	3070.125833	1508.278320	445.110748
22960.461809	3070.125833	1507.219727	315.616425
22960.461809	3070.125833	1506.162109	380.510437
22960.461809	3070.125833	1505.103516	531.274841
22960.461809	3070.125833	1504.044922	282.452271
22960.461809	3070.125833	1502.986328	196.343689
22960.461809	3070.125833	1501.926758	381.174988
22960.461809	3070.125833	1500.868164	302.033234
22960.461809	3070.125833	1499.808594	480.186462
22960.461809	3070.125833	1498.749023	308.760742
22960.461809	3070.125833	1497.688477	369.759644
22960.461809	3070.125833	1496.628906	279.774384
22960.461809	3070.125833	1495.568359	464.919312
22960.461809	3070.125833	1494.507813	553.173645
22960.461809	3070.125833	1493.447266	247.169479
22960.461809	3070.125833	1492.386719	373.917603
22960.461809	3070.125833	1491.325195	343.040222
22960.461809	3070.125833	1490.263672	213.186111
22960.461809	3070.125833	1489.202148	-8.832112
22960.461809	3070.125833	1488.140625	111.485664
22960.461809	3070.125833	1487.079102	171.084869
22960.461809	3070.125833	1486.016602	140.746262
22960.461809	3070.125833	1484.954102	-69.457039
22960.461809	3070.125833	1483.891602	253.582458
22960.461809	3070.125833	1482.829102	-26.078556
22960.461809	3070.125833	1481.765625	78.928947
22960.461809	3070.125833	1480.702148	71.601486
22960.461809	3070.125833	1479.638672	12.689095
22960.461809	3070.125833	1478.575195	32.549240
22960.461809	3070.125833	1477.511719	-10.405938
22960.461809	3070.125833	1476.447266	-80.196671
22960.461809	3070.125833	1475.382813	27.489468
22960.461809	3070.125833	1474.318359	-33.046726
22960.461809	3070.125833	1473.253906	7.468180
22960.461809	3070.125833	1472.189453	32.389641
22960.461809	3070.125833	1471.124023	-110.825607
22960.461809	3070.125833	1470.058594	66.711540
22960.461809	3070.125833	1468.993164	-31.295837
22960.461809	3070.125833	1467.927734	32.116085
22960.461809	3070.125833	1466.861328	16.955162
22960.461809	3070.125833	1465.794922	24.686264
22960.461809	3070.125833	1464.728516	83.919670
22960.461809	3070.125833	1463.662109	167.746140
22960.461809	3070.125833	1462.594727	320.682617
22960.461809	3070.125833	1461.528320	366.739929
22960.461809	3070.125833	1460.460938	419.353577
22960.461809	3070.125833	1459.393555	516.510254
22960.461809	3070.125833	1458.326172	479.842651
22960.461809	3070.125833	1457.257813	439.064453
22960.461809	3070.125833	1456.189453	531.748047
22960.461809	3070.125833	1455.121094	566.726379
22960.461809	3070.125833	1454.052734	575.386902
22960.461809	3070.125833	1452.984375	592.952087
22960.461809	3070.125833	1451.915039	831.782654
22960.461809	3070.125833	1450.845703	568.229614
22960.461809	3070.125833	1449.776367	775.367188
22960.461809	3070.125833	1448.707031	646.698975
22960.461809	3070.125833	1447.636719	703.827087
22960.461809	3070.125833	1446.567383	657.900391
22960.461809	3070.125833	1445.497070	700.399719
22960.461809	3070.125833	1444.425781	846.788025
22960.461809	3070.125833	1443.355469	807.137329
22960.461809	3070.125833	1442.285156	990.109558
22960.461809	3070.125833	1441.213867	1035.440918
22960.461809	3070.125833	1440.142578	999.381287
22960.461809	3070.125833	1439.070313	986.554688
22960.461809	3070.125833	1437.999023	1141.899658
22960.461809	3070.125833	1436.926758	968.840637
22960.461809	3070.125833	1435.854492	1156.530273
22960.461809	3070.125833	1434.782227	1341.290527
22960.461809	3070.125833	1433.709961	1330.083130
22960.461809	3070.125833	1432.636719	1541.396973
22960.461809	3070.125833	1431.563477	1358.097168
22960.461809	3070.125833	1430.490234	1250.464600
22960.461809	3070.125833	1429.416992	1068.571289
22960.461809	3070.125833	1428.343750	1328.208984
22960.461809	3070.125833	1427.269531	1126.074951
22960.461809	3070.125833	1426.195313	905.541626
22960.461809	3070.125833	1425.121094	859.679077
22960.461809	3070.125833	1424.046875	903.509399
22960.461809	3070.125833	1422.971680	802.852356
22960.461809	3070.125833	1421.896484	628.960815
22960.461809	3070.125833	1420.821289	484.051300
22960.461809	3070.125833	1419.746094	754.710327
22960.461809	3070.125833	1418.669922	731.795044
22960.461809	3070.125833	1417.594727	439.137054
22960.461809	3070.125833	1416.518555	670.926575
22960.461809	3070.125833	1415.442383	402.240326
22960.461809	3070.125833	1414.365234	542.798035
22960.461809	3070.125833	1413.289063	723.192322
22960.461809	3070.125833	1412.211914	777.207825
22960.461809	3070.125833	1411.134766	684.842773
22960.461809	3070.125833	1410.057617	566.790161
22960.461809	3070.125833	1408.979492	691.158630
22960.461809	3070.125833	1407.902344	749.579163
22960.461809	3070.125833	1406.824219	868.129089
22960.461809	3070.125833	1405.746094	829.259338
22960.461809	3070.125833	1404.666992	888.349548
22960.461809	3070.125833	1403.588867	1023.918518
22960.461809	3070.125833	1402.509766	1056.759155
22960.461809	3070.125833	1401.430664	902.080811
22960.461809	3070.125833	1400.351563	1008.862488
22960.461809	3070.125833	1399.271484	1086.534912
22960.461809	3070.125833	1398.192383	1173.264526
22960.461809	3070.125833	1397.112305	912.606873
22960.461809	3070.125833	1396.031250	1102.465820
22960.461809	3070.125833	1394.951172	987.695862
22960.461809	3070.125833	1393.871094	1072.888062
22960.461809	3070.125833	1392.790039	833.549805
22960.461809	3070.125833	1391.708984	917.968689
22960.461809	3070.125833	1390.626953	1047.090698
22960.461809	3070.125833	1389.545898	1009.740295
22960.461809	3070.125833	1388.463867	1123.297119
22960.461809	3070.125833	1387.381836	1545.478394
22960.461809	3070.125833	1386.299805	1324.958374
22960.461809	3070.125833	1385.217773	1496.678955
22960.461809	3070.125833	1384.134766	1379.335205
22960.461809	3070.125833	1383.051758	1337.380615
22960.461809	3070.125833	1381.968750	1422.813477
22960.461809	3070.125833	1380.885742	1211.825562
22960.461809	3070.125833	1379.802734	1401.004395
22960.461809	3070.125833	1378.718750	1363.083618
22960.461809	3070.125833	1377.634766	1170.514038
22960.461809	3070.125833	1376.550781	1357.660400
22960.461809	3070.125833	1375.465820	1215.241821
22960.461809	3070.125833	1374.381836	1081.785034
22960.461809	3070.125833	1373.296875	1095.424561
22960.461809	3070.125833	1372.211914	1200.134155
22960.461809	3070.125833	1371.126953	1303.355835
22960.461809	3070.125833	1370.041016	1022.824646
22960.461809	3070.125833	1368.955078	1071.019165
22960.461809	3070.125833	1367.869141	1076.373535
22960.461809	3070.125833	1366.783203	914.419189
22960.461809	3070.125833	1365.697266	1022.125366
22960.461809	3070.125833	1364.610352	960.355469
22960.461809	3070.125833	1363.523438	741.793823
22960.461809	3070.125833	1362.436523	935.810913
22960.461809	3070.125833	1361.349609	753.359253
22960.461809	3070.125833	1360.261719	639.998718
22960.461809	3070.125833	1359.174805	571.481873
22960.461809	3070.125833	1358.086914	600.999329
22960.461809	3070.125833	1356.998047	572.828064
22960.461809	3070.125833	1355.910156	631.480957
22960.461809	3070.125833	1354.821289	497.207642
22960.461809	3070.125833	1353.732422	566.907776
22960.461809	3070.125833	1352.643555	629.076782
22960.461809	3070.125833	1351.554688	594.808777
22960.461809	3070.125833	1350.464844	529.213013
22960.461809	3070.125833	1349.375000	676.605835
22960.461809	3070.125833	1348.285156	703.184814
22960.461809	3070.125833	1347.195313	852.543152
22960.461809	3070.125833	1346.105469	783.620605
22960.461809	3070.125833	1345.014648	772.647644
22960.461809	3070.125833	1343.923828	898.921936
22960.461809	3070.125833	1342.833008	1009.371460
22960.461809	3070.125833	1341.741211	1053.060913
22960.461809	3070.125833	1340.650391	1077.218628
22960.461809	3070.125833	1339.558594	1128.615845
22960.461809	3070.125833	1338.466797	1002.643005
22960.461809	3070.125833	1337.374023	889.297363
22960.461809	3070.125833	1336.282227	862.973816
22960.461809	3070.125833	1335.189453	834.037048
22960.461809	3070.125833	1334.096680	868.246155
22960.461809	3070.125833	1333.003906	798.047668
22960.461809	3070.125833	1331.910156	712.634583
22960.461809	3070.125833	1330.817383	765.709900
22960.461809	3070.125833	1329.723633	733.158325
22960.461809	3070.125833	1328.629883	757.387024
22960.461809	3070.125833	1327.535156	769.523743
22960.461809	3070.125833	1326.441406	817.594421
22960.461809	3070.125833	1325.346680	983.540588
22960.461809	3070.125833	1324.251953	784.771362
22960.461809	3070.125833	1323.156250	814.723267
22960.461809	3070.125833	1322.061523	947.732239
22960.461809	3070.125833	1320.965820	902.035278
22960.461809	3070.125833	1319.870117	849.437683
22960.461809	3070.125833	1318.774414	888.890076
22960.461809	3070.125833	1317.678711	941.563599
22960.461809	3070.125833	1316.582031	732.682007
22960.461809	3070.125833	1315.485352	905.765381
22960.461809	3070.125833	1314.388672	836.798523
22960.461809	3070.125833	1313.291016	906.198486
22960.461809	3070.125833	1312.194336	1064.314575
22960.461809	3070.125833	1311.096680	981.921326
22960.461809	3070.125833	1309.999023	1059.080566
22960.461809	3070.125833	1308.901367	1080.608276
22960.461809	3070.125833	1307.802734	847.138367
22960.461809	3070.125833	1306.705078	819.461243
22960.461809	3070.125833	1305.606445	797.097839
22960.461809	3070.125833	1304.506836	820.650146
22960.461809	3070.125833	1303.408203	776.693420
22960.461809	3070.125833	1302.308594	765.666748
22960.461809	3070.125833	1301.208984	790.541016
22960.461809	3070.125833	1300.109375	685.749146
22960.461809	3070.125833	1299.009766	890.479004
22960.461809	3070.125833	1297.909180	726.203857
22960.461809	3070.125833	1296.808594	779.455994
22960.461809	3070.125833	1295.708008	730.103943
22960.461809	3070.125833	1294.607422	653.980957
22960.461809	3070.125833	1293.506836	679.108887
22960.461809	3070.125833	1292.405273	439.401611
22960.461809	3070.125833	1291.303711	299.044617
22960.461809	3070.125833	1290.202148	427.777466
22960.461809	3070.125833	1289.099609	228.733322
22960.461809	3070.125833	1287.998047	419.106384
22960.461809	3070.125833	1286.895508	220.826721
22960.461809	3070.125833	1285.792969	254.835083
22960.461809	3070.125833	1284.689453	202.481506
22960.461809	3070.125833	1283.586914	229.932693
22960.461809	3070.125833	1282.483398	158.429886
22960.461809	3070.125833	1281.379883	227.217514
22960.461809	3070.125833	1280.276367	173.353027
22960.461809	3070.125833	1279.171875	308.132874
22960.461809	3070.125833	1278.067383	144.954193
22960.461809	3070.125833	1276.962891	106.442406
22960.461809	3070.125833	1275.858398	198.074890
22960.461809	3070.125833	1274.753906	296.161591
22960.461809	3070.125833	1273.648438	106.560501
22960.461809	3070.125833	1272.542969	125.276680
22960.461809	3070.125833	1271.437500	65.459915
22960.461809	3070.125833	1270.331055	50.434071
22960.461809	3070.125833	1269.225586	72.131149
22960.461809	3070.125833	1268.119141	-1.841988
22960.461809	3070.125833	1267.012695	87.724251
22960.461809	3070.125833	1265.906250	-30.926105
22960.461809	3070.125833	1264.798828	163.901978
22960.461809	3070.125833	1263.691406	36.637299
22960.461809	3070.125833	1262.583984	58.059067
22960.461809	3070.125833	1261.476563	102.731155
22960.461809	3070.125833	1260.368164	-5.328144
22960.461809	3070.125833	1259.260742	68.360420
22960.461809	3070.125833	1258.152344	4.116269
22960.461809	3070.125833	1257.043945	263.926788
22960.461809	3070.125833	1255.934570	211.892334
22960.461809	3070.125833	1254.825195	190.328903
22960.461809	3070.125833	1253.716797	142.350327
22960.461809	3070.125833	1252.606445	184.066483
22960.461809	3070.125833	1251.497070	239.861008
22960.461809	3070.125833	1250.387695	202.144348
22960.461809	3070.125833	1249.277344	212.367981
22960.461809	3070.125833	1248.166992	311.152588
22960.461809	3070.125833	1247.055664	239.755310
22960.461809	3070.125833	1245.945313	302.711029
22960.461809	3070.125833	1244.833984	211.329483
22960.461809	3070.125833	1243.722656	165.310974
22960.461809	3070.125833	1242.611328	155.487000
22960.461809	3070.125833	1241.499023	143.892548
22960.461809	3070.125833	1240.387695	8.220724
22960.461809	3070.125833	1239.275391	154.492233
22960.461809	3070.125833	1238.162109	41.695313
22960.461809	3070.125833	1237.049805	115.377602
22960.461809	3070.125833	1235.936523	1.009487
22960.461809	3070.125833	1234.823242	88.224899
22960.461809	3070.125833	1233.709961	12.205465
22960.461809	3070.125833	1232.596680	96.459976
22960.461809	3070.125833	1231.482422	-4.366728
22960.461809	3070.125833	1230.369141	-50.706913
22960.461809	3070.125833	1229.253906	-26.574781
22960.461809	3070.125833	1228.139648	-60.126518
22960.461809	3070.125833	1227.025391	-58.500473
22960.461809	3070.125833	1225.910156	-108.065971
22960.461809	3070.125833	1224.794922	-44.485394
22960.461809	3070.125833	1223.679688	-98.124916
22960.461809	3070.125833	1222.563477	-41.938358
22960.461809	3070.125833	1221.447266	31.199045
22960.461809	3070.125833	1220.331055	61.290276
22960.461809	3070.125833	1219.214844	-37.776932
22960.461809	3070.125833	1218.098633	-125.610924
22960.461809	3070.125833	1216.981445	-129.102554
22960.461809	3070.125833	1215.864258	-133.426788
22960.461809	3070.125833	1214.747070	-152.191467
22960.461809	3070.125833	1213.629883	-152.044006
22960.461809	3070.125833	1212.511719	-66.541275
22960.461809	3070.125833	1211.393555	-43.288860
22960.461809	3070.125833	1210.275391	-51.452694
22960.461809	3070.125833	1209.157227	-63.481899
22960.461809	3070.125833	1208.038086	-67.246902
22960.461809	3070.125833	1206.918945	-31.789713
22960.461809	3070.125833	1205.799805	-30.009161
22960.461809	3070.125833	1204.680664	-0.017933
22960.461809	3070.125833	1203.560547	-14.258756
22960.461809	3070.125833	1202.441406	107.536476
22960.461809	3070.125833	1201.321289	15.514899
22960.461809	3070.125833	1200.200195	-89.799484
22960.461809	3070.125833	1199.080078	-105.930931
22960.461809	3070.125833	1197.958984	-26.973614
22960.461809	3070.125833	1196.837891	-93.711052
22960.461809	3070.125833	1195.716797	107.214310
22960.461809	3070.125833	1194.594727	210.400665
22960.461809	3070.125833	1193.473633	104.282448
22960.461809	3070.125833	1192.351563	135.533401
22960.461809	3070.125833	1191.229492	247.512695
22960.461809	3070.125833	1190.106445	216.214447
22960.461809	3070.125833	1188.984375	110.966820
22960.461809	3070.125833	1187.861328	195.023026
22960.461809	3070.125833	1186.738281	176.282822
22960.461809	3070.125833	1185.614258	82.405350
22960.461809	3070.125833	1184.491211	33.265789
22960.461809	3070.125833	1183.367188	34.329624
22960.461809	3070.125833	1182.243164	27.926907
22960.461809	3070.125833	1181.119141	19.010481
22960.461809	3070.125833	1179.994141	77.657829
22960.461809	3070.125833	1178.869141	5.795277
22960.461809	3070.125833	1177.744141	56.537785
22960.461809	3070.125833	1176.619141	-25.817049
22960.461809	3070.125833	1175.493164	79.097244
22960.461809	3070.125833	1174.368164	-2.434515
22960.461809	3070.125833	1173.242188	110.183662
22960.461809	3070.125833	1172.115234	128.514938
22960.461809	3070.125833	1170.989258	138.619186
22960.461809	3070.125833	1169.862305	34.570782
22960.461809	3070.125833	1168.735352	172.252350
22960.461809	3070.125833	1167.608398	172.498138
22960.461809	3070.125833	1166.481445	132.115555
22960.461809	3070.125833	1165.353516	40.434277
22960.461809	3070.125833	1164.225586	168.509903
22960.461809	3070.125833	1163.097656	-8.628005
22960.461809	3070.125833	1161.968750	44.899029
22960.461809	3070.125833	1160.840820	63.875954
22960.461809	3070.125833	1159.711914	-4.742874
22960.461809	3070.125833	1158.583008	28.729143
22960.461809	3070.125833	1157.453125	-49.839874
22960.461809	3070.125833	1156.324219	45.048626
22960.461809	3070.125833	1155.194336	-47.897274
22960.461809	3070.125833	1154.064453	-28.505503
22960.461809	3070.125833	1152.933594	65.507004
22960.461809	3070.125833	1151.803711	13.636600
22960.461809	3070.125833	1150.672852	-12.087542
22960.461809	3070.125833	1149.541992	29.573664
22960.461809	3070.125833	1148.411133	114.724571
22960.461809	3070.125833	1147.279297	30.622259
22960.461809	3070.125833	1146.147461	229.668518
22960.461809	3070.125833	1145.015625	152.751862
22960.461809	3070.125833	1143.883789	262.672028
22960.461809	3070.125833	1142.750977	164.012619
22960.461809	3070.125833	1141.619141	-0.300766
22960.461809	3070.125833	1140.486328	14.528196
22960.461809	3070.125833	1139.352539	21.673634
22960.461809	3070.125833	1138.219727	-24.186747
22960.461809	3070.125833	1137.085938	-33.481388
22960.461809	3070.125833	1135.952148	-32.364384
22960.461809	3070.125833	1134.818359	104.877563
22960.461809	3070.125833	1133.683594	43.226368
22960.461809	3070.125833	1132.549805	-23.965654
22960.461809	3070.125833	1131.415039	5.570557
22960.461809	3070.125833	1130.279297	133.427628
22960.461809	3070.125833	1129.144531	134.641647
22960.461809	3070.125833	1128.008789	105.962486
22960.461809	3070.125833	1126.873047	60.246067
22960.461809	3070.125833	1125.737305	55.230629
22960.461809	3070.125833	1124.601563	21.197861
22960.461809	3070.125833	1123.464844	-73.077080
22960.461809	3070.125833	1122.328125	80.293114
22960.461809	3070.125833	1121.191406	-3.469415
22960.461809	3070.125833	1120.054688	88.797409
22960.461809	3070.125833	1118.916992	-84.916992
22960.461809	3070.125833	1117.779297	69.096100
22960.461809	3070.125833	1116.641602	-34.313225
22960.461809	3070.125833	1115.503906	101.211464
22960.461809	3070.125833	1114.365234	10.369937
22960.461809	3070.125833	1113.226563	104.070267
22960.461809	3070.125833	1112.087891	-63.697792
22960.461809	3070.125833	1110.949219	40.763027
22960.461809	3070.125833	1109.809570	-24.296343
22960.461809	3070.125833	1108.669922	91.165611
22960.461809	3070.125833	1107.530273	77.474106
22960.461809	3070.125833	1106.390625	95.843506
22960.461809	3070.125833	1105.250000	115.784424
22960.461809	3070.125833	1104.109375	151.564575
22960.461809	3070.125833	1102.968750	208.314346
22960.461809	3070.125833	1101.828125	135.036728
22960.461809	3070.125833	1100.686523	358.775879
22960.461809	3070.125833	1099.544922	278.353882
22960.461809	3070.125833	1098.403320	267.030060
22960.461809	3070.125833	1097.261719	181.003632
22960.461809	3070.125833	1096.120117	115.758583
22960.461809	3070.125833	1094.977539	182.954697
22960.461809	3070.125833	1093.834961	174.850677
22960.461809	3070.125833	1092.691406	86.624367
22960.461809	3070.125833	1091.548828	339.907593
22960.461809	3070.125833	1090.405273	-2.442137
22960.461809	3070.125833	1089.261719	156.123566
22960.461809	3070.125833	1088.118164	78.232216
22960.461809	3070.125833	1086.973633	44.294899
22960.461809	3070.125833	1085.829102	218.527603
22960.461809	3070.125833	1084.684570	179.652573
22960.461809	3070.125833	1083.540039	-23.974152
22960.461809	3070.125833	1082.395508	51.299877
22960.461809	3070.125833	1081.250000	-20.549440
22960.461809	3070.125833	1080.104492	108.055840
22960.461809	3070.125833	1078.958984	1.269136
22960.461809	3070.125833	1077.812500	-35.495731
22960.461809	3070.125833	1076.666016	20.872478
22960.461809	3070.125833	1075.519531	22.899752
22960.461809	3070.125833	1074.373047	79.902611
22960.461809	3070.125833	1073.226563	99.859680
22960.461809	3070.125833	1072.079102	93.834068
22960.461809	3070.125833	1070.931641	-10.954433
22960.461809	3070.125833	1069.784180	125.191078
22960.461809	3070.125833	1068.635742	-35.520866
22960.461809	3070.125833	1067.487305	-25.980238
22960.461809	3070.125833	1066.338867	152.579193
22960.461809	3070.125833	1065.190430	-28.143700
22960.461809	3070.125833	1064.041992	238.884415
22960.461809	3070.125833	1062.892578	1.122441
22960.461809	3070.125833	1061.743164	162.563843
22960.461809	3070.125833	1060.593750	109.377716
22960.461809	3070.125833	1059.443359	23.707451
22960.461809	3070.125833	1058.292969	134.688202
22960.461809	3070.125833	1057.142578	156.215149
22960.461809	3070.125833	1055.992188	84.496902
22960.461809	3070.125833	1054.841797	-37.655819
22960.461809	3070.125833	1053.690430	53.780647
22960.461809	3070.125833	1052.539063	112.639824
22960.461809	3070.125833	1051.387695	145.398911
22960.461809	3070.125833	1050.235352	171.566376
22960.461809	3070.125833	1049.083984	66.322998
22960.461809	3070.125833	1047.931641	40.486797
22960.461809	3070.125833	1046.778320	-19.550539
22960.461809	3070.125833	1045.625977	-8.059239
22960.461809	3070.125833	1044.472656	151.603760
22960.461809	3070.125833	1043.319336	-12.361109
22960.461809	3070.125833	1042.166016	-38.133858
22960.461809	3070.125833	1041.012695	16.033728
22960.461809	3070.125833	1039.858398	29.385744
22960.461809	3070.125833	1038.704102	12.476235
22960.461809	3070.125833	1037.549805	-119.199020
22960.461809	3070.125833	1036.394531	-31.172852
22960.461809	3070.125833	1035.239258	-27.758326
22960.461809	3070.125833	1034.083984	-46.933781
22960.461809	3070.125833	1032.928711	-70.878738
22960.461809	3070.125833	1031.773438	-65.949463
22960.461809	3070.125833	1030.617188	-16.466003
22960.461809	3070.125833	1029.460938	7.357327
22960.461809	3070.125833	1028.304688	76.305855
22960.461809	3070.125833	1027.147461	-11.004972
22960.461809	3070.125833	1025.991211	-8.136582
22960.461809	3070.125833	1024.833984	-5.800680
22960.461809	3070.125833	1023.675781	93.416916
22960.461809	3070.125833	1022.518555	98.873360
22960.461809	3070.125833	1021.360352	67.812889
22960.461809	3070.125833	1020.202148	44.498898
22960.461809	3070.125833	1019.043945	-24.208084
22960.461809	3070.125833	1017.884766	16.141199
22960.461809	3070.125833	1016.726563	159.524246
22960.461809	3070.125833	1015.567383	146.905762
22960.461809	3070.125833	1014.407227	-38.170177
22960.461809	3070.125833	1013.248047	27.485956
22960.461809	3070.125833	1012.087891	-99.689079
22960.461809	3070.125833	1010.927734	122.752373
22960.461809	3070.125833	1009.767578	-4.757385
22960.461809	3070.125833	1008.606445	53.908474
22960.461809	3070.125833	1007.446289	-56.114029
22960.461809	3070.125833	1006.285156	165.689789
22960.461809	3070.125833	1005.123047	-26.297131
22960.461809	3070.125833	1003.961914	165.111145
22960.461809	3070.125833	1002.799805	127.965797
22960.461809	3070.125833	1001.637695	118.753708
22960.461809	3070.125833	1000.475586	110.421822
22960.461809	3070.125833	999.312500	59.930794
22960.461809	3070.125833	998.149414	143.561493
22960.461809	3070.125833	996.986328	67.160751
22960.461809	3070.125833	995.823242	171.084717
22960.461809	3070.125833	994.659180	-54.203094
22960.461809	3070.125833	993.496094	-12.335772
22960.461809	3070.125833	992.332031	-21.649174
22960.461809	3070.125833	991.166992	-79.568970
22960.461809	3070.125833	990.002930	-62.247166
22960.461809	3070.125833	988.837891	-60.800507
22960.461809	3070.125833	987.672852	39.633087
22960.461809	3070.125833	986.506836	2.150781
22960.461809	3070.125833	985.341797	47.543564
22960.461809	3070.125833	984.175781	102.863022
22960.461809	3070.125833	983.009766	51.265720
22960.461809	3070.125833	981.843750	72.684433
22960.461809	3070.125833	980.676758	-20.841385
22960.461809	3070.125833	979.509766	139.533371
22960.461809	3070.125833	978.342773	59.779045
22960.461809	3070.125833	977.175781	-19.911810
22960.461809	3070.125833	976.007813	-109.539360
22960.461809	3070.125833	974.839844	-44.352211
22960.461809	3070.125833	973.671875	-60.251095
22960.461809	3070.125833	972.503906	79.763641
22960.461809	3070.125833	971.334961	-56.628540
22960.461809	3070.125833	970.166016	-67.821693
22960.461809	3070.125833	968.997070	56.902573
22960.461809	3070.125833	967.828125	-42.005409
22960.461809	3070.125833	966.658203	53.591763
22960.461809	3070.125833	965.488281	168.670197
22960.461809	3070.125833	964.318359	27.918507
22960.461809	3070.125833	963.148438	-64.547462
22960.461809	3070.125833	961.977539	45.763615
22960.461809	3070.125833	960.806641	20.147251
22960.461809	3070.125833	959.635742	49.049362
22960.461809	3070.125833	958.463867	31.164848
22960.461809	3070.125833	957.292969	46.002190
22960.461809	3070.125833	956.121094	-118.546509
22960.461809	3070.125833	954.948242	88.723412
22960.461809	3070.125833	953.776367	49.169147
22960.461809	3070.125833	952.603516	52.233482
22960.461809	3070.125833	951.430664	-48.041885
22960.461809	3070.125833	950.257813	-144.653931
22960.461809	3070.125833	949.084961	-28.896509
22960.461809	3070.125833	947.911133	22.508636
22960.461809	3070.125833	946.737305	32.294155
22960.461809	3070.125833	945.563477	65.363937
22960.461809	3070.125833	944.388672	2.999605
22960.461809	3070.125833	943.213867	82.077393
22960.461809	3070.125833	942.039063	54.809788
22960.461809	3070.125833	940.864258	38.883385
22960.461809	3070.125833	939.688477	-7.109713
22960.461809	3070.125833	938.513672	69.737801
22960.461809	3070.125833	937.337891	21.403498
22960.461809	3070.125833	936.161133	21.679392
22960.461809	3070.125833	934.985352	177.276093
22960.461809	3070.125833	933.808594	237.862473
22960.461809	3070.125833	932.631836	131.425705
22960.461809	3070.125833	931.454102	161.721359
22960.461809	3070.125833	930.277344	99.274078
22960.461809	3070.125833	929.099609	69.353241
22960.461809	3070.125833	927.921875	55.585197
22960.461809	3070.125833	926.743164	148.480835
22960.461809	3070.125833	925.565430	41.980396
22960.461809	3070.125833	924.386719	39.814091
22960.461809	3070.125833	923.208008	2.876866
22960.461809	3070.125833	922.028320	100.305511
22960.461809	3070.125833	920.849609	-22.348782
22960.461809	3070.125833	919.669922	-18.782207
22960.461809	3070.125833	919.474609	1.511507
22960.461809	3070.125833	918.309570	50.179699
22960.461809	3070.125833	917.143555	80.300552
22960.461809	3070.125833	915.977539	108.081093
22960.461809	3070.125833	914.810547	68.741013
22960.461809	3070.125833	913.644531	3.955176
22960.461809	3070.125833	912.477539	-9.934212
22960.461809	3070.125833	911.310547	33.976200
22960.461809	3070.125833	910.143555	-49.296024
22960.461809	3070.125833	908.975586	75.478020
22960.461809	3070.125833	907.807617	142.415085
22960.461809	3070.125833	906.639648	40.649433
22960.461809	3070.125833	905.471680	61.339729
22960.461809	3070.125833	904.303711	68.150505
22960.461809	3070.125833	903.134766	-65.903290
22960.461809	3070.125833	901.965820	-112.190697
22960.461809	3070.125833	900.796875	-133.084793
22960.461809	3070.125833	899.626953	35.242310
22960.461809	3070.125833	898.457031	25.837133
22960.461809	3070.125833	897.287109	-34.325275
22960.461809	3070.125833	896.117188	-11.453943
22960.461809	3070.125833	894.947266	-25.497656
22960.461809	3070.125833	893.776367	-81.042656
22960.461809	3070.125833	892.605469	-74.349525
22960.461809	3070.125833	891.434570	52.151028
22960.461809	3070.125833	890.262695	-81.746933
22960.461809	3070.125833	889.091797	63.101151
22960.461809	3070.125833	887.919922	-84.591530
22960.461809	3070.125833	886.748047	18.727491
22960.461809	3070.125833	885.575195	-115.111153
22960.461809	3070.125833	884.403320	61.790104
22960.461809	3070.125833	883.230469	-12.205752
22960.461809	3070.125833	882.057617	-63.180984
22960.461809	3070.125833	880.883789	46.858059
22960.461809	3070.125833	879.710938	-86.925331
22960.461809	3070.125833	878.537109	-142.495941
22960.461809	3070.125833	877.362305	-124.499405
22960.461809	3070.125833	876.188477	-104.229881
22960.461809	3070.125833	875.013672	19.416107
22960.461809	3070.125833	873.839844	-157.949280
22960.461809	3070.125833	872.664063	2.375986
22960.461809	3070.125833	871.489258	118.987007
22960.461809	3070.125833	870.313477	-120.321449
22960.461809	3070.125833	869.138672	-72.627563
22960.461809	3070.125833	867.962891	82.893631
22960.461809	3070.125833	866.786133	-32.407928
22960.461809	3070.125833	865.610352	-71.980476
22960.461809	3070.125833	864.433594	-95.496674
22960.461809	3070.125833	863.256836	-109.848183
22960.461809	3070.125833	862.079102	82.121933
22960.461809	3070.125833	860.902344	-88.157967
22960.461809	3070.125833	859.724609	-86.511086
22960.461809	3070.125833	858.546875	4.472244
22960.461809	3070.125833	857.368164	-14.550623
22960.461809	3070.125833	856.190430	-6.103375
22960.461809	3070.125833	855.011719	27.511654
22960.461809	3070.125833	853.833008	-21.319752
22960.461809	3070.125833	852.654297	44.290920
22960.461809	3070.125833	851.474609	-68.632851
22960.461809	3070.125833	850.294922	17.515459
22960.461809	3070.125833	849.115234	12.113128
22960.461809	3070.125833	847.935547	-32.184258
22960.461809	3070.125833	846.754883	-17.032984
22960.461809	3070.125833	845.575195	-6.481860
22960.461809	3070.125833	844.393555	-50.803646
22960.461809	3070.125833	843.212891	25.978643
22960.461809	3070.125833	842.032227	-32.081825
22960.461809	3070.125833	840.850586	-12.476888
22960.461809	3070.125833	839.668945	-22.588165
22960.461809	3070.125833	838.486328	47.196964
22960.461809	3070.125833	837.304688	-147.863449
22960.461809	3070.125833	836.122070	-84.971237
22960.461809	3070.125833	834.939453	28.072598
22960.461809	3070.125833	833.756836	6.451944
22960.461809	3070.125833	832.573242	133.072784
22960.461809	3070.125833	831.389648	31.584349
22960.461809	3070.125833	830.206055	57.788696
22960.461809	3070.125833	829.022461	36.091866
22960.461809	3070.125833	827.838867	-6.129886
22960.461809	3070.125833	826.654297	65.568375
22960.461809	3070.125833	825.469727	-42.748974
22960.461809	3070.125833	824.284180	60.767250
22960.461809	3070.125833	823.099609	-81.707466
22960.461809	3070.125833	821.914063	17.172403
22960.461809	3070.125833	820.728516	100.054810
22960.461809	3070.125833	819.542969	30.409260
22960.461809	3070.125833	818.356445	85.904655
22960.461809	3070.125833	817.169922	-33.801235
22960.461809	3070.125833	815.983398	19.360214
22960.461809	3070.125833	814.796875	24.724232
22960.461809	3070.125833	813.609375	34.608555
22960.461809	3070.125833	812.422852	8.095768
22960.461809	3070.125833	811.235352	-91.146713
22960.461809	3070.125833	810.046875	200.393509
22960.461809	3070.125833	808.859375	37.498867
22960.461809	3070.125833	807.670898	133.535843
22960.461809	3070.125833	806.482422	52.407036
22960.461809	3070.125833	805.293945	134.725983
22960.461809	3070.125833	804.104492	101.237465
22960.461809	3070.125833	802.915039	163.036057
22960.461809	3070.125833	801.725586	63.708904
22960.461809	3070.125833	800.536133	25.634705
22960.461809	3070.125833	799.345703	132.679733
22960.461809	3070.125833	798.155273	3.861978
22960.461809	3070.125833	796.964844	-47.862743
22960.461809	3070.125833	795.774414	72.640594
22960.461809	3070.125833	794.583008	43.522850
22960.461809	3070.125833	793.392578	39.304852
22960.461809	3070.125833	792.200195	139.243744
22960.461809	3070.125833	791.008789	-0.915638
22960.461809	3070.125833	789.816406	-95.768440
22960.461809	3070.125833	788.625000	22.150690
22960.461809	3070.125833	787.432617	44.945232
22960.461809	3070.125833	786.239258	69.962547
22960.461809	3070.125833	785.046875	-4.593580
22960.461809	3070.125833	783.853516	88.206848
22960.461809	3070.125833	782.660156	45.269821
22960.461809	3070.125833	781.465820	-135.579269
22960.461809	3070.125833	780.272461	58.800121
22960.461809	3070.125833	779.078125	90.369011
22960.461809	3070.125833	777.883789	22.485176
22960.461809	3070.125833	776.688477	87.863548
22960.461809	3070.125833	775.494141	17.682968
22960.461809	3070.125833	774.298828	64.904747
22960.461809	3070.125833	773.103516	82.727097
22960.461809	3070.125833	771.907227	5.719344
22960.461809	3070.125833	770.711914	73.118668
22960.461809	3070.125833	769.515625	16.378830
22960.461809	3070.125833	768.318359	106.233917
22960.461809	3070.125833	767.122070	62.970127
22960.461809	3070.125833	765.924805	-104.310028
22960.461809	3070.125833	764.727539	127.413177
22960.461809	3070.125833	763.530273	81.811913
22960.461809	3070.125833	762.333008	6.902108
22960.461809	3070.125833	761.134766	-9.443445
22960.461809	3070.125833	759.936523	-61.853825
22960.461809	3070.125833	758.738281	-139.047958
22960.461809	3070.125833	757.540039	65.159523
22960.461809	3070.125833	756.340820	-23.357229
22960.461809	3070.125833	755.141602	-55.616325
22960.461809	3070.125833	753.942383	-72.151131
22960.461809	3070.125833	752.742188	133.971985
22960.461809	3070.125833	751.541992	72.350754
22960.461809	3070.125833	750.341797	-153.419769
22960.461809	3070.125833	749.141602	-53.178131
22960.461809	3070.125833	747.941406	55.973484
22960.461809	3070.125833	746.740234	-3.487480
22960.461809	3070.125833	745.539063	-13.537841
22960.461809	3070.125833	744.337891	-48.330566
22960.461809	3070.125833	743.135742	-42.726673
22960.461809	3070.125833	741.933594	1.003675
22960.461809	3070.125833	740.731445	129.974121
22960.461809	3070.125833	739.529297	59.114727
22960.461809	3070.125833	738.326172	-74.580658
22960.461809	3070.125833	737.124023	-57.958992
22960.461809	3070.125833	735.919922	43.841793
22960.461809	3070.125833	734.716797	107.439888
22960.461809	3070.125833	733.513672	81.295448
22960.461809	3070.125833	732.309570	-3.155437
22960.461809	3070.125833	731.105469	33.399441
22960.461809	3070.125833	729.900391	152.795532
22960.461809	3070.125833	728.696289	173.540359
22960.461809	3070.125833	727.491211	198.714584
22960.461809	3070.125833	726.286133	172.338074
22960.461809	3070.125833	725.080078	101.158752
22960.461809	3070.125833	723.874023	242.590622
22960.461809	3070.125833	722.668945	-70.323776
22960.461809	3070.125833	721.461914	-76.653160
22960.461809	3070.125833	720.255859	28.815157
22960.461809	3070.125833	719.048828	42.510521
22960.461809	3070.125833	717.841797	51.686466
22960.461809	3070.125833	716.634766	130.112518
22960.461809	3070.125833	715.427734	7.326255
22960.461809	3070.125833	714.219727	-86.403618
22960.461809	3070.125833	713.011719	-10.358072
22960.461809	3070.125833	711.803711	-77.327621
22960.461809	3070.125833	710.594727	3.065230
22960.461809	3070.125833	709.385742	-46.102936
22960.461809	3070.125833	708.176758	14.077577
22960.461809	3070.125833	706.967773	40.717155
22960.461809	3070.125833	705.758789	234.637619
22960.461809	3070.125833	704.548828	102.759331
22960.461809	3070.125833	703.338867	95.784531
22960.461809	3070.125833	702.127930	-22.715607
22960.461809	3070.125833	700.917969	46.049370
22960.461809	3070.125833	699.707031	87.997604
22960.461809	3070.125833	698.496094	25.156214
22960.461809	3070.125833	697.285156	-64.434662
22960.461809	3070.125833	696.073242	84.297981
22960.461809	3070.125833	694.861328	-32.074661
22960.461809	3070.125833	693.649414	31.901623
22960.461809	3070.125833	692.436523	104.711876
22960.461809	3070.125833	691.224609	43.922024
22960.461809	3070.125833	690.011719	45.416061
22960.461809	3070.125833	688.798828	-4.296142
22960.461809	3070.125833	687.584961	59.398773
22960.461809	3070.125833	686.372070	29.635387
22960.461809	3070.125833	685.158203	42.082623
22960.461809	3070.125833	683.943359	121.163422
22960.461809	3070.125833	682.729492	215.727905
22960.461809	3070.125833	681.514648	283.549805
22960.461809	3070.125833	680.299805	266.894196
22960.461809	3070.125833	679.084961	327.934601
22960.461809	3070.125833	677.869141	118.024910
22960.461809	3070.125833	676.653320	52.456669
22960.461809	3070.125833	675.437500	157.772598
22960.461809	3070.125833	674.221680	245.253693
22960.461809	3070.125833	673.004883	121.901253
22960.461809	3070.125833	671.789063	162.697357
22960.461809	3070.125833	670.571289	141.343002
22960.461809	3070.125833	669.354492	206.427795
22960.461809	3070.125833	668.136719	71.950508
22960.461809	3070.125833	666.919922	94.840775
22960.461809	3070.125833	665.701172	228.464294
22960.461809	3070.125833	664.483398	169.273376
22960.461809	3070.125833	663.264648	43.626457
22960.461809	3070.125833	662.045898	230.209076
22960.461809	3070.125833	660.827148	237.358963
22960.461809	3070.125833	659.608398	113.882645
22960.461809	3070.125833	658.388672	96.639565
22960.461809	3070.125833	657.168945	143.528290
22960.461809	3070.125833	655.949219	-90.553345
22960.461809	3070.125833	654.728516	13.782867
22960.461809	3070.125833	653.507813	118.041077
22960.461809	3070.125833	652.287109	140.431656
22960.461809	3070.125833	651.066406	176.040466
22960.461809	3070.125833	649.844727	65.765900
22960.461809	3070.125833	648.623047	145.490662
22960.461809	3070.125833	647.401367	180.977402
22960.461809	3070.125833	646.179688	2.221701
22960.461809	3070.125833	644.957031	68.566696
22960.461809	3070.125833	643.734375	-105.738556
22960.461809	3070.125833	642.511719	95.156036
22960.461809	3070.125833	641.289063	59.857891
22960.461809	3070.125833	640.065430	156.895645
22960.461809	3070.125833	638.841797	130.361267
22960.461809	3070.125833	637.618164	112.629768
22960.461809	3070.125833	636.393555	136.760513
22960.461809	3070.125833	635.168945	66.081879
22960.461809	3070.125833	633.944336	13.034832
22960.461809	3070.125833	632.719727	142.838669
22960.461809	3070.125833	631.494141	147.011688
22960.461809	3070.125833	630.269531	162.170807
22960.461809	3070.125833	629.042969	104.638840
22960.461809	3070.125833	627.817383	84.530624
22960.461809	3070.125833	626.590820	84.211769
22960.461809	3070.125833	625.365234	-67.945770
22960.461809	3070.125833	624.137695	6.513457
22960.461809	3070.125833	622.911133	-24.646042
22960.461809	3070.125833	621.683594	-64.611023
22960.461809	3070.125833	620.456055	95.475029
22960.461809	3070.125833	619.228516	62.055130
22960.461809	3070.125833	618.000977	61.592316
22960.461809	3070.125833	616.772461	116.033508
22960.461809	3070.125833	615.543945	40.838329
22960.461809	3070.125833	614.314453	71.066490
22960.461809	3070.125833	613.085938	-105.118690
22960.461809	3070.125833	611.856445	6.315107
22960.461809	3070.125833	610.626953	80.377396
22960.461809	3070.125833	609.397461	-32.114250
22960.461809	3070.125833	608.166992	-133.605530
22960.461809	3070.125833	606.936523	-134.176712
22960.461809	3070.125833	605.706055	-104.060516
22960.461809	3070.125833	604.474609	53.183594
22960.461809	3070.125833	603.244141	-85.549896
22960.461809	3070.125833	602.012695	-62.073982
22960.461809	3070.125833	600.780273	-80.248322
22960.461809	3070.125833	599.548828	-41.468410
22960.461809	3070.125833	598.316406	-57.466225
22960.461809	3070.125833	597.083984	-5.589036
22960.461809	3070.125833	595.851563	-78.518250
22960.461809	3070.125833	594.618164	63.058743
22960.461809	3070.125833	593.384766	-1.115489
22960.461809	3070.125833	592.151367	92.245941
22960.461809	3070.125833	590.917969	34.646206
22960.461809	3070.125833	589.683594	53.600555
22960.461809	3070.125833	588.449219	-8.347631
22960.461809	3070.125833	587.214844	60.878567
22960.461809	3070.125833	585.979492	60.139610
22960.461809	3070.125833	584.745117	-60.764614
22960.461809	3070.125833	583.509766	-22.156900
22960.461809	3070.125833	582.273438	-44.718132
22960.461809	3070.125833	581.038086	-143.686508
22960.461809	3070.125833	579.801758	-61.421936
22960.461809	3070.125833	578.565430	-103.594406
22960.461809	3070.125833	577.329102	-147.926300
22960.461809	3070.125833	576.091797	54.286591
22960.461809	3070.125833	574.854492	88.469978
22960.461809	3070.125833	573.617188	-8.196698
22960.461809	3070.125833	572.378906	102.304787
22960.461809	3070.125833	571.141602	-29.183796
22960.461809	3070.125833	569.903320	63.857620
22960.461809	3070.125833	568.664063	54.460552
22960.461809	3070.125833	567.425781	-148.794037
22960.461809	3070.125833	566.186523	-127.628693
22960.461809	3070.125833	564.947266	-45.492844
22960.461809	3070.125833	563.708008	-91.820824
22960.461809	3070.125833	562.467773	38.179062
22960.461809	3070.125833	561.227539	100.679428
22960.461809	3070.125833	559.987305	269.771790
22960.461809	3070.125833	558.747070	10.309362
22960.461809	3070.125833	557.505859	85.867569
22960.461809	3070.125833	556.264648	152.713165
22960.461809	3070.125833	555.023438	173.900055
22960.461809	3070.125833	553.781250	105.989006
22960.461809	3070.125833	552.539063	31.608046
22960.461809	3070.125833	551.296875	-49.238781
22960.461809	3070.125833	550.054688	-82.250084
22960.461809	3070.125833	548.811523	4.197460
22960.461809	3070.125833	547.569336	34.187630
22960.461809	3070.125833	546.325195	3.408538
22960.461809	3070.125833	545.082031	96.358269
22960.461809	3070.125833	543.837891	20.064140
22960.461809	3070.125833	542.593750	-86.540405
22960.461809	3070.125833	541.349609	10.773659
22960.461809	3070.125833	540.105469	155.770020
22960.461809	3070.125833	538.860352	5.922603
22960.461809	3070.125833	537.615234	1.368329
22960.461809	3070.125833	536.369141	66.175377
22960.461809	3070.125833	535.124023	91.990448
22960.461809	3070.125833	533.877930	96.160873
22960.461809	3070.125833	532.631836	-23.068209
22960.461809	3070.125833	531.384766	43.959782
22960.461809	3070.125833	530.138672	-94.631683
22960.461809	3070.125833	528.891602	-85.987350
22960.461809	3070.125833	527.643555	-157.370056
22960.461809	3070.125833	526.396484	-72.952408
22960.461809	3070.125833	525.148438	-57.745823
22960.461809	3070.125833	523.900391	-72.786240
22960.461809	3070.125833	522.652344	89.464615
22960.461809	3070.125833	521.403320	-87.631638
22960.461809	3070.125833	520.154297	-11.818120
22960.461809	3070.125833	518.905273	79.115211
22960.461809	3070.125833	517.656250	5.895475
22960.461809	3070.125833	516.406250	161.624039
22960.461809	3070.125833	515.156250	174.831436
22960.461809	3070.125833	513.906250	-23.459873
22960.461809	3070.125833	512.655273	-53.318501
22960.461809	3070.125833	511.404297	195.179489
22960.461809	3070.125833	510.153320	7.885524
22960.461809	3070.125833	508.902344	62.234959
22960.461809	3070.125833	507.650391	-4.151876
22960.461809	3070.125833	506.398438	140.770279
22960.461809	3070.125833	505.146484	70.143692
22960.461809	3070.125833	503.893555	141.783951
22960.461809	3070.125833	502.641602	-34.311760
22960.461809	3070.125833	501.388672	-27.235151
22960.461809	3070.125833	500.134766	55.229195
22960.461809	3070.125833	498.881836	-25.928179
22960.461809	3070.125833	497.627930	11.354354
22960.461809	3070.125833	496.374023	-89.074791
22960.461809	3070.125833	495.119141	-120.590637
22960.461809	3070.125833	493.865234	4.955194
22960.461809	3070.125833	492.610352	-11.465064
22960.461809	3070.125833	491.355469	51.696903
22960.461809	3070.125833	490.099609	-35.619118
22960.461809	3070.125833	488.843750	34.010521
22960.461809	3070.125833	487.587891	-31.735497
22960.461809	3070.125833	486.332031	35.754559
22960.461809	3070.125833	485.075195	38.800186
22960.461809	3070.125833	483.818359	7.505383
22960.461809	3070.125833	482.561523	44.937752
22960.461809	3070.125833	481.304688	-5.632057
22960.461809	3070.125833	480.046875	-58.314438
22960.461809	3070.125833	478.789063	-20.853859
22960.461809	3070.125833	477.531250	57.354607
22960.461809	3070.125833	476.272461	77.634949
22960.461809	3070.125833	475.013672	-26.440653
22960.461809	3070.125833	473.754883	62.456142
22960.461809	3070.125833	472.496094	5.585725
22960.461809	3070.125833	471.236328	137.293777
22960.461809	3070.125833	469.976563	142.554962
22960.461809	3070.125833	468.716797	96.410217
22960.461809	3070.125833	467.456055	148.777237
22960.461809	3070.125833	466.196289	115.484535
22960.461809	3070.125833	464.935547	-41.944496
22960.461809	3070.125833	463.673828	46.767521
22960.461809	3070.125833	462.413086	302.303375
22960.461809	3070.125833	461.151367	245.423447
22960.461809	3070.125833	459.889648	212.071960
22960.461809	3070.125833	458.626953	187.263062
22960.461809	3070.125833	457.364258	337.721100
22960.461809	3070.125833	456.101563	-22.682878
22960.461809	3070.125833	454.838867	247.348389
22960.461809	3070.125833	453.575195	171.165466
22960.461809	3070.125833	452.312500	156.915512
22960.461809	3070.125833	451.047852	260.066925
22960.461809	3070.125833	449.784180	183.808044
22960.461809	3070.125833	448.519531	90.457321
22960.461809	3070.125833	447.254883	14.166200
22960.461809	3070.125833	445.990234	157.594421
22960.461809	3070.125833	444.725586	30.015905
22960.461809	3070.125833	443.459961	258.553467
22960.461809	3070.125833	442.194336	156.459274
22960.461809	3070.125833	440.927734	186.492050
22960.461809	3070.125833	439.662109	210.044174
22960.461809	3070.125833	438.395508	237.763489
22960.461809	3070.125833	437.127930	178.045044
22960.461809	3070.125833	435.861328	295.031219
22960.461809	3070.125833	434.593750	186.166458
22960.461809	3070.125833	433.326172	298.642822
22960.461809	3070.125833	432.058594	251.338882
22960.461809	3070.125833	430.790039	174.150375
22960.461809	3070.125833	429.521484	194.738937
22960.461809	3070.125833	428.252930	355.574982
22960.461809	3070.125833	426.984375	192.984253
22960.461809	3070.125833	425.714844	381.122253
22960.461809	3070.125833	424.445313	435.126465
22960.461809	3070.125833	423.174805	420.952087
22960.461809	3070.125833	421.905273	364.139862
22960.461809	3070.125833	420.634766	572.712036
22960.461809	3070.125833	419.364258	547.415649
22960.461809	3070.125833	418.092773	500.718567
22960.461809	3070.125833	416.822266	511.179352
22960.461809	3070.125833	415.550781	438.670624
22960.461809	3070.125833	414.278320	455.111267
22960.461809	3070.125833	413.006836	416.187225
22960.461809	3070.125833	411.734375	531.893616
22960.461809	3070.125833	410.461914	492.532074
22960.461809	3070.125833	409.188477	264.268127
22960.461809	3070.125833	407.916016	285.982605
22960.461809	3070.125833	406.642578	282.006989
22960.461809	3070.125833	405.368164	379.467712
22960.461809	3070.125833	404.094727	417.317413
22960.461809	3070.125833	402.820313	370.161224
22960.461809	3070.125833	401.545898	451.896729
22960.461809	3070.125833	400.270508	285.627594
22960.461809	3070.125833	398.996094	406.961182
22960.461809	3070.125833	397.720703	439.053223
22960.461809	3070.125833	396.444336	381.951385
22960.461809	3070.125833	395.168945	390.111969
22960.461809	3070.125833	393.892578	254.127487
22960.461809	3070.125833	392.616211	238.348267
22960.461809	3070.125833	391.339844	334.229523
22960.461809	3070.125833	390.062500	207.799820
22960.461809	3070.125833	388.785156	345.120972
22960.461809	3070.125833	387.507813	243.295471
22960.461809	3070.125833	386.229492	310.031830
22960.461809	3070.125833	384.951172	279.189880
22960.461809	3070.125833	383.672852	393.569092
22960.461809	3070.125833	382.394531	425.138611
22960.461809	3070.125833	381.115234	344.388336
22960.461809	3070.125833	379.835938	263.191986
22960.461809	3070.125833	378.556641	373.456421
22960.461809	3070.125833	377.277344	343.997864
22960.461809	3070.125833	375.997070	356.177643
22960.461809	3070.125833	374.716797	359.382538
22960.461809	3070.125833	373.435547	305.124298
22960.461809	3070.125833	372.155273	69.154091
22960.461809	3070.125833	370.874023	205.498306
22960.461809	3070.125833	369.591797	90.574654
22960.461809	3070.125833	368.310547	122.472496
22960.461809	3070.125833	367.028320	319.993896
22960.461809	3070.125833	365.746094	34.861038
22960.461809	3070.125833	364.463867	123.692444
22960.461809	3070.125833	363.180664	47.707523
22960.461809	3070.125833	361.897461	63.585499
22960.461809	3070.125833	360.614258	32.476158
22960.461809	3070.125833	359.330078	-47.727921
22960.461809	3070.125833	358.045898	35.273182
22960.461809	3070.125833	356.761719	132.167313
22960.461809	3070.125833	355.477539	123.181557
22960.461809	3070.125833	354.192383	88.155426
22960.461809	3070.125833	352.907227	161.497177
22960.461809	3070.125833	351.622070	120.578362
22960.461809	3070.125833	350.336914	43.114384
22960.461809	3070.125833	349.050781	69.681931
22960.461809	3070.125833	347.764648	2.998936
22960.461809	3070.125833	346.477539	147.227295
22960.461809	3070.125833	345.191406	137.358414
22960.461809	3070.125833	343.904297	241.790314
22960.461809	3070.125833	342.616211	68.434586
22960.461809	3070.125833	341.329102	-11.551479
22960.461809	3070.125833	340.041016	-10.879611
22960.461809	3070.125833	338.752930	43.167030
22960.461809	3070.125833	337.463867	-92.449318
22960.461809	3070.125833	336.175781	-116.045044
22960.461809	3070.125833	334.886719	-96.866463
22960.461809	3070.125833	333.596680	19.448397
22960.461809	3070.125833	332.307617	159.634949
22960.461809	3070.125833	331.017578	-21.611032
22960.461809	3070.125833	329.727539	23.933661
22960.461809	3070.125833	328.436523	-109.632172
22960.461809	3070.125833	327.146484	-179.623505
22960.461809	3070.125833	325.855469	14.478487
22960.461809	3070.125833	324.563477	-70.880341
22960.461809	3070.125833	323.272461	-38.491722
22960.461809	3070.125833	321.980469	7.010545
22960.461809	3070.125833	320.688477	-99.359581
22960.461809	3070.125833	319.395508	-56.909069
22960.461809	3070.125833	318.103516	0.718785
22960.461809	3070.125833	316.810547	50.433525
22960.461809	3070.125833	315.516602	-76.812141
22960.461809	3070.125833	314.223633	-155.535355
22960.461809	3070.125833	312.929688	68.555786
22960.461809	3070.125833	311.635742	-32.383049
22960.461809	3070.125833	310.340820	169.295258
22960.461809	3070.125833	309.045898	175.250702
22960.461809	3070.125833	307.750977	166.872421
22960.461809	3070.125833	306.456055	-12.122329
22960.461809	3070.125833	305.160156	306.912750
22960.461809	3070.125833	303.865234	411.511963
22960.461809	3070.125833	302.568359	155.851028
22960.461809	3070.125833	301.272461	499.926025
22960.461809	3070.125833	299.975586	375.553162
22960.461809	3070.125833	298.678711	382.296936
