#X		#Y		#Wave		#Intensity
31163.558989	1135.658667	1999.980469	16.706234
31163.558989	1135.658667	1999.016602	-173.223969
31163.558989	1135.658667	1998.052734	-194.293259
31163.558989	1135.658667	1997.087891	-101.753647
31163.558989	1135.658667	1996.123047	-158.296921
31163.558989	1135.658667	1995.158203	32.523033
31163.558989	1135.658667	1994.193359	-37.151558
31163.558989	1135.658667	1993.228516	152.853500
31163.558989	1135.658667	1992.262695	55.252968
31163.558989	1135.658667	1991.297852	-30.275364
31163.558989	1135.658667	1990.332031	-165.587997
31163.558989	1135.658667	1989.366211	27.936869
31163.558989	1135.658667	1988.399414	127.078331
31163.558989	1135.658667	1987.433594	32.947578
31163.558989	1135.658667	1986.466797	25.129108
31163.558989	1135.658667	1985.500977	64.012238
31163.558989	1135.658667	1984.534180	100.145737
31163.558989	1135.658667	1983.567383	89.045647
31163.558989	1135.658667	1982.599609	114.771446
31163.558989	1135.658667	1981.632813	98.240166
31163.558989	1135.658667	1980.665039	24.667715
31163.558989	1135.658667	1979.697266	76.861443
31163.558989	1135.658667	1978.729492	318.963287
31163.558989	1135.658667	1977.761719	39.819145
31163.558989	1135.658667	1976.792969	88.887398
31163.558989	1135.658667	1975.825195	46.425579
31163.558989	1135.658667	1974.856445	-52.959534
31163.558989	1135.658667	1973.887695	-6.927120
31163.558989	1135.658667	1972.918945	231.315094
31163.558989	1135.658667	1971.949219	10.591000
31163.558989	1135.658667	1970.980469	9.241109
31163.558989	1135.658667	1970.010742	145.795425
31163.558989	1135.658667	1969.041016	20.881962
31163.558989	1135.658667	1968.071289	-30.194138
31163.558989	1135.658667	1967.101563	9.780315
31163.558989	1135.658667	1966.130859	249.150864
31163.558989	1135.658667	1965.161133	-36.305645
31163.558989	1135.658667	1964.190430	3.281010
31163.558989	1135.658667	1963.219727	69.825882
31163.558989	1135.658667	1962.249023	227.319748
31163.558989	1135.658667	1961.277344	214.834427
31163.558989	1135.658667	1960.306641	111.213577
31163.558989	1135.658667	1959.334961	110.869591
31163.558989	1135.658667	1958.363281	-155.216217
31163.558989	1135.658667	1957.391602	235.357376
31163.558989	1135.658667	1956.419922	259.338135
31163.558989	1135.658667	1955.447266	155.398163
31163.558989	1135.658667	1954.474609	63.719765
31163.558989	1135.658667	1953.501953	30.991735
31163.558989	1135.658667	1952.529297	148.097092
31163.558989	1135.658667	1951.556641	48.923599
31163.558989	1135.658667	1950.583984	79.909691
31163.558989	1135.658667	1949.610352	17.520346
31163.558989	1135.658667	1948.636719	99.967789
31163.558989	1135.658667	1947.663086	37.512371
31163.558989	1135.658667	1946.689453	208.202423
31163.558989	1135.658667	1945.715820	96.601784
31163.558989	1135.658667	1944.741211	41.438354
31163.558989	1135.658667	1943.767578	165.334091
31163.558989	1135.658667	1942.792969	-34.571102
31163.558989	1135.658667	1941.818359	8.327082
31163.558989	1135.658667	1940.842773	95.316605
31163.558989	1135.658667	1939.868164	339.129547
31163.558989	1135.658667	1938.892578	-15.124080
31163.558989	1135.658667	1937.916992	159.985931
31163.558989	1135.658667	1936.941406	214.983444
31163.558989	1135.658667	1935.965820	189.127548
31163.558989	1135.658667	1934.990234	-120.787552
31163.558989	1135.658667	1934.013672	-11.920923
31163.558989	1135.658667	1933.037109	-35.282249
31163.558989	1135.658667	1932.060547	-92.897926
31163.558989	1135.658667	1931.083984	-91.761246
31163.558989	1135.658667	1930.107422	68.404953
31163.558989	1135.658667	1929.129883	-133.505096
31163.558989	1135.658667	1928.153320	-147.015182
31163.558989	1135.658667	1927.175781	-28.474371
31163.558989	1135.658667	1926.198242	-32.201546
31163.558989	1135.658667	1925.219727	144.959000
31163.558989	1135.658667	1924.242188	-73.829453
31163.558989	1135.658667	1923.263672	-31.083138
31163.558989	1135.658667	1922.285156	-0.551961
31163.558989	1135.658667	1921.306641	17.772949
31163.558989	1135.658667	1920.328125	-66.454094
31163.558989	1135.658667	1919.349609	122.821541
31163.558989	1135.658667	1918.370117	-76.087585
31163.558989	1135.658667	1917.391602	32.618771
31163.558989	1135.658667	1916.412109	-102.712563
31163.558989	1135.658667	1915.431641	135.302933
31163.558989	1135.658667	1914.452148	36.637024
31163.558989	1135.658667	1913.472656	-18.070820
31163.558989	1135.658667	1912.492188	-21.529757
31163.558989	1135.658667	1911.511719	123.747650
31163.558989	1135.658667	1910.531250	13.064507
31163.558989	1135.658667	1909.550781	-19.569117
31163.558989	1135.658667	1908.569336	94.025200
31163.558989	1135.658667	1907.588867	117.468887
31163.558989	1135.658667	1906.607422	109.265923
31163.558989	1135.658667	1905.625977	247.200134
31163.558989	1135.658667	1904.644531	100.249130
31163.558989	1135.658667	1903.662109	131.077515
31163.558989	1135.658667	1902.680664	-113.098076
31163.558989	1135.658667	1901.698242	-50.555878
31163.558989	1135.658667	1900.715820	-82.895241
31163.558989	1135.658667	1899.733398	-34.925907
31163.558989	1135.658667	1898.750000	-225.285110
31163.558989	1135.658667	1897.767578	-116.468620
31163.558989	1135.658667	1896.784180	72.554932
31163.558989	1135.658667	1895.800781	-13.126623
31163.558989	1135.658667	1894.817383	-18.556650
31163.558989	1135.658667	1893.833984	-349.542206
31163.558989	1135.658667	1892.850586	-60.921677
31163.558989	1135.658667	1891.866211	23.594406
31163.558989	1135.658667	1890.881836	10.966582
31163.558989	1135.658667	1889.897461	-96.323296
31163.558989	1135.658667	1888.913086	68.321831
31163.558989	1135.658667	1887.927734	-106.853569
31163.558989	1135.658667	1886.943359	-19.877466
31163.558989	1135.658667	1885.958008	-44.515202
31163.558989	1135.658667	1884.972656	-44.869053
31163.558989	1135.658667	1883.987305	-110.683907
31163.558989	1135.658667	1883.001953	56.313858
31163.558989	1135.658667	1882.015625	-55.524899
31163.558989	1135.658667	1881.029297	-50.963764
31163.558989	1135.658667	1880.042969	-10.040714
31163.558989	1135.658667	1879.056641	16.343962
31163.558989	1135.658667	1878.070313	74.222557
31163.558989	1135.658667	1877.083984	88.496498
31163.558989	1135.658667	1876.096680	-44.939487
31163.558989	1135.658667	1875.109375	46.844143
31163.558989	1135.658667	1874.122070	-23.578400
31163.558989	1135.658667	1873.134766	-43.143673
31163.558989	1135.658667	1872.146484	191.374069
31163.558989	1135.658667	1871.159180	111.307350
31163.558989	1135.658667	1870.170898	60.299099
31163.558989	1135.658667	1869.182617	23.824585
31163.558989	1135.658667	1868.194336	-75.500099
31163.558989	1135.658667	1867.205078	57.289021
31163.558989	1135.658667	1866.216797	25.672785
31163.558989	1135.658667	1865.227539	-27.680538
31163.558989	1135.658667	1864.238281	20.458145
31163.558989	1135.658667	1863.249023	-170.571503
31163.558989	1135.658667	1862.259766	-245.604645
31163.558989	1135.658667	1861.269531	-86.387337
31163.558989	1135.658667	1860.279297	-52.779423
31163.558989	1135.658667	1859.290039	-14.363343
31163.558989	1135.658667	1858.298828	7.133730
31163.558989	1135.658667	1857.308594	103.414085
31163.558989	1135.658667	1856.318359	-77.786003
31163.558989	1135.658667	1855.327148	85.984550
31163.558989	1135.658667	1854.335938	-5.944620
31163.558989	1135.658667	1853.344727	-107.499565
31163.558989	1135.658667	1852.353516	116.405396
31163.558989	1135.658667	1851.362305	195.596146
31163.558989	1135.658667	1850.370117	233.770737
31163.558989	1135.658667	1849.377930	-87.072220
31163.558989	1135.658667	1848.385742	95.629517
31163.558989	1135.658667	1847.393555	90.386383
31163.558989	1135.658667	1846.401367	17.699080
31163.558989	1135.658667	1845.408203	-74.248154
31163.558989	1135.658667	1844.415039	-89.161674
31163.558989	1135.658667	1843.421875	-77.625755
31163.558989	1135.658667	1842.428711	75.836845
31163.558989	1135.658667	1841.435547	56.004169
31163.558989	1135.658667	1840.441406	-146.650620
31163.558989	1135.658667	1839.448242	69.166466
31163.558989	1135.658667	1838.454102	13.180334
31163.558989	1135.658667	1837.459961	171.122330
31163.558989	1135.658667	1836.464844	-69.998367
31163.558989	1135.658667	1835.470703	191.151566
31163.558989	1135.658667	1834.475586	214.315323
31163.558989	1135.658667	1833.480469	126.934380
31163.558989	1135.658667	1832.485352	5.922513
31163.558989	1135.658667	1831.490234	52.992371
31163.558989	1135.658667	1830.495117	114.403473
31163.558989	1135.658667	1829.499023	53.332699
31163.558989	1135.658667	1828.502930	47.432674
31163.558989	1135.658667	1827.506836	65.479538
31163.558989	1135.658667	1826.510742	-60.463470
31163.558989	1135.658667	1825.513672	-40.106327
31163.558989	1135.658667	1824.517578	80.906776
31163.558989	1135.658667	1823.520508	69.955849
31163.558989	1135.658667	1822.523438	13.409653
31163.558989	1135.658667	1821.526367	103.022881
31163.558989	1135.658667	1820.529297	401.012177
31163.558989	1135.658667	1819.531250	99.899666
31163.558989	1135.658667	1818.533203	55.134468
31163.558989	1135.658667	1817.535156	130.067017
31163.558989	1135.658667	1816.537109	145.049713
31163.558989	1135.658667	1815.539063	447.233795
31163.558989	1135.658667	1814.540039	-14.275775
31163.558989	1135.658667	1813.541992	108.219910
31163.558989	1135.658667	1812.542969	20.055777
31163.558989	1135.658667	1811.543945	22.757582
31163.558989	1135.658667	1810.543945	223.894882
31163.558989	1135.658667	1809.544922	178.594910
31163.558989	1135.658667	1808.544922	190.617905
31163.558989	1135.658667	1807.544922	221.686203
31163.558989	1135.658667	1806.544922	142.738251
31163.558989	1135.658667	1805.544922	78.081703
31163.558989	1135.658667	1804.544922	125.655998
31163.558989	1135.658667	1803.543945	65.651398
31163.558989	1135.658667	1802.542969	-6.347033
31163.558989	1135.658667	1801.541992	38.595322
31163.558989	1135.658667	1800.541016	-105.141579
31163.558989	1135.658667	1799.539063	42.268993
31163.558989	1135.658667	1798.538086	-75.326241
31163.558989	1135.658667	1797.536133	43.230949
31163.558989	1135.658667	1796.534180	47.165791
31163.558989	1135.658667	1795.532227	120.176674
31163.558989	1135.658667	1794.529297	-42.986164
31163.558989	1135.658667	1793.527344	41.765099
31163.558989	1135.658667	1792.524414	143.079178
31163.558989	1135.658667	1791.521484	-132.255722
31163.558989	1135.658667	1790.518555	52.270397
31163.558989	1135.658667	1789.514648	34.149624
31163.558989	1135.658667	1788.511719	349.391571
31163.558989	1135.658667	1787.507813	14.334652
31163.558989	1135.658667	1786.503906	62.624977
31163.558989	1135.658667	1785.500000	44.155434
31163.558989	1135.658667	1784.496094	30.360914
31163.558989	1135.658667	1783.491211	49.786808
31163.558989	1135.658667	1782.486328	88.143127
31163.558989	1135.658667	1781.481445	216.776917
31163.558989	1135.658667	1780.476563	57.515736
31163.558989	1135.658667	1779.471680	126.474228
31163.558989	1135.658667	1778.465820	102.594887
31163.558989	1135.658667	1777.460938	-78.232613
31163.558989	1135.658667	1776.455078	223.295151
31163.558989	1135.658667	1775.449219	-52.721401
31163.558989	1135.658667	1774.442383	-29.435791
31163.558989	1135.658667	1773.436523	190.866669
31163.558989	1135.658667	1772.429688	-137.526871
31163.558989	1135.658667	1771.422852	30.279367
31163.558989	1135.658667	1770.416016	150.449997
31163.558989	1135.658667	1769.409180	-175.677490
31163.558989	1135.658667	1768.402344	-195.705002
31163.558989	1135.658667	1767.394531	121.025879
31163.558989	1135.658667	1766.386719	46.187874
31163.558989	1135.658667	1765.378906	177.583389
31163.558989	1135.658667	1764.371094	52.769733
31163.558989	1135.658667	1763.362305	-190.629135
31163.558989	1135.658667	1762.354492	49.445580
31163.558989	1135.658667	1761.345703	-18.720901
31163.558989	1135.658667	1760.336914	88.345596
31163.558989	1135.658667	1759.328125	-93.705727
31163.558989	1135.658667	1758.318359	-20.036476
31163.558989	1135.658667	1757.308594	98.486076
31163.558989	1135.658667	1756.299805	27.483339
31163.558989	1135.658667	1755.290039	-74.373802
31163.558989	1135.658667	1754.279297	105.294121
31163.558989	1135.658667	1753.269531	22.176731
31163.558989	1135.658667	1752.258789	111.656288
31163.558989	1135.658667	1751.249023	269.590820
31163.558989	1135.658667	1750.238281	6.454989
31163.558989	1135.658667	1749.226563	-3.733939
31163.558989	1135.658667	1748.215820	149.077042
31163.558989	1135.658667	1747.204102	55.939205
31163.558989	1135.658667	1746.193359	-96.330330
31163.558989	1135.658667	1745.181641	56.082058
31163.558989	1135.658667	1744.168945	-70.379539
31163.558989	1135.658667	1743.157227	-41.037003
31163.558989	1135.658667	1742.144531	54.286026
31163.558989	1135.658667	1741.132813	-72.414536
31163.558989	1135.658667	1740.120117	-175.581818
31163.558989	1135.658667	1739.106445	-101.853668
31163.558989	1135.658667	1738.093750	37.806522
31163.558989	1135.658667	1737.080078	61.719727
31163.558989	1135.658667	1736.067383	-199.823105
31163.558989	1135.658667	1735.053711	-138.360764
31163.558989	1135.658667	1734.040039	76.201172
31163.558989	1135.658667	1733.025391	-95.968903
31163.558989	1135.658667	1732.011719	-49.017673
31163.558989	1135.658667	1730.997070	94.398201
31163.558989	1135.658667	1729.982422	-129.815887
31163.558989	1135.658667	1728.967773	-132.667419
31163.558989	1135.658667	1727.952148	-135.632919
31163.558989	1135.658667	1726.937500	84.959358
31163.558989	1135.658667	1725.921875	-191.292267
31163.558989	1135.658667	1724.906250	-173.377319
31163.558989	1135.658667	1723.890625	51.480938
31163.558989	1135.658667	1722.875000	5.620844
31163.558989	1135.658667	1721.858398	110.191376
31163.558989	1135.658667	1720.841797	113.503242
31163.558989	1135.658667	1719.825195	29.722935
31163.558989	1135.658667	1718.808594	-44.724262
31163.558989	1135.658667	1717.791992	24.116262
31163.558989	1135.658667	1716.774414	269.047394
31163.558989	1135.658667	1715.756836	83.868698
31163.558989	1135.658667	1714.739258	-131.874374
31163.558989	1135.658667	1713.721680	-79.919548
31163.558989	1135.658667	1712.704102	-140.783798
31163.558989	1135.658667	1711.685547	47.098080
31163.558989	1135.658667	1710.667969	23.589560
31163.558989	1135.658667	1709.649414	86.804794
31163.558989	1135.658667	1708.630859	56.053833
31163.558989	1135.658667	1707.611328	116.688705
31163.558989	1135.658667	1706.592773	120.931061
31163.558989	1135.658667	1705.573242	338.439362
31163.558989	1135.658667	1704.553711	40.018158
31163.558989	1135.658667	1703.534180	135.389877
31163.558989	1135.658667	1702.513672	-8.410211
31163.558989	1135.658667	1701.494141	-112.403679
31163.558989	1135.658667	1700.473633	-80.594963
31163.558989	1135.658667	1699.453125	56.503635
31163.558989	1135.658667	1698.432617	-85.194016
31163.558989	1135.658667	1697.412109	112.544334
31163.558989	1135.658667	1696.390625	-132.291382
31163.558989	1135.658667	1695.369141	-23.740395
31163.558989	1135.658667	1694.347656	-79.105606
31163.558989	1135.658667	1693.326172	33.899979
31163.558989	1135.658667	1692.304688	15.795767
31163.558989	1135.658667	1691.282227	-21.106333
31163.558989	1135.658667	1690.260742	124.300941
31163.558989	1135.658667	1689.238281	145.663910
31163.558989	1135.658667	1688.214844	166.923706
31163.558989	1135.658667	1687.192383	209.137283
31163.558989	1135.658667	1686.168945	94.713257
31163.558989	1135.658667	1685.146484	99.391510
31163.558989	1135.658667	1684.123047	167.029633
31163.558989	1135.658667	1683.099609	155.179245
31163.558989	1135.658667	1682.075195	173.589233
31163.558989	1135.658667	1681.051758	-99.817329
31163.558989	1135.658667	1680.027344	107.500252
31163.558989	1135.658667	1679.002930	125.683762
31163.558989	1135.658667	1677.978516	400.376801
31163.558989	1135.658667	1676.953125	255.084808
31163.558989	1135.658667	1675.928711	186.739395
31163.558989	1135.658667	1674.903320	209.256622
31163.558989	1135.658667	1673.877930	154.777679
31163.558989	1135.658667	1672.852539	286.682556
31163.558989	1135.658667	1671.826172	430.105347
31163.558989	1135.658667	1670.800781	466.264404
31163.558989	1135.658667	1669.774414	451.091919
31163.558989	1135.658667	1668.748047	410.245972
31163.558989	1135.658667	1667.721680	499.728699
31163.558989	1135.658667	1666.694336	307.450287
31163.558989	1135.658667	1665.667969	436.360229
31163.558989	1135.658667	1664.640625	427.863800
31163.558989	1135.658667	1663.613281	570.525635
31163.558989	1135.658667	1662.585938	527.003235
31163.558989	1135.658667	1661.557617	634.580566
31163.558989	1135.658667	1660.530273	477.026031
31163.558989	1135.658667	1659.501953	670.471008
31163.558989	1135.658667	1658.473633	724.341797
31163.558989	1135.658667	1657.444336	701.444763
31163.558989	1135.658667	1656.416016	553.068176
31163.558989	1135.658667	1655.386719	448.817688
31163.558989	1135.658667	1654.358398	453.721985
31163.558989	1135.658667	1653.328125	567.674072
31163.558989	1135.658667	1652.298828	546.910400
31163.558989	1135.658667	1651.269531	825.512573
31163.558989	1135.658667	1650.239258	781.399109
31163.558989	1135.658667	1649.208984	762.779968
31163.558989	1135.658667	1648.178711	737.169067
31163.558989	1135.658667	1647.148438	906.338135
31163.558989	1135.658667	1646.117188	711.350159
31163.558989	1135.658667	1645.086914	801.561584
31163.558989	1135.658667	1644.055664	859.237488
31163.558989	1135.658667	1643.024414	912.221924
31163.558989	1135.658667	1641.992188	951.234924
31163.558989	1135.658667	1640.960938	1073.609741
31163.558989	1135.658667	1639.928711	920.284058
31163.558989	1135.658667	1638.896484	1209.261353
31163.558989	1135.658667	1637.864258	1048.965576
31163.558989	1135.658667	1636.832031	1161.835693
31163.558989	1135.658667	1635.798828	1230.651123
31163.558989	1135.658667	1634.766602	1271.665405
31163.558989	1135.658667	1633.733398	1178.451782
31163.558989	1135.658667	1632.699219	1050.543945
31163.558989	1135.658667	1631.666016	1070.675659
31163.558989	1135.658667	1630.632813	1211.003540
31163.558989	1135.658667	1629.598633	1559.279785
31163.558989	1135.658667	1628.564453	1255.681519
31163.558989	1135.658667	1627.530273	1504.425049
31163.558989	1135.658667	1626.495117	1589.020142
31163.558989	1135.658667	1625.460938	1650.487183
31163.558989	1135.658667	1624.425781	1430.171875
31163.558989	1135.658667	1623.390625	1473.139160
31163.558989	1135.658667	1622.355469	1377.576904
31163.558989	1135.658667	1621.319336	1452.816406
31163.558989	1135.658667	1620.284180	1816.472656
31163.558989	1135.658667	1619.248047	1783.155884
31163.558989	1135.658667	1618.211914	1731.396973
31163.558989	1135.658667	1617.174805	1645.047729
31163.558989	1135.658667	1616.138672	1849.264160
31163.558989	1135.658667	1615.101563	1924.292358
31163.558989	1135.658667	1614.065430	1865.630981
31163.558989	1135.658667	1613.027344	1972.877808
31163.558989	1135.658667	1611.990234	1914.221924
31163.558989	1135.658667	1610.953125	1950.037720
31163.558989	1135.658667	1609.915039	1907.528564
31163.558989	1135.658667	1608.876953	1860.440063
31163.558989	1135.658667	1607.838867	2257.684570
31163.558989	1135.658667	1606.800781	2164.534180
31163.558989	1135.658667	1605.761719	2170.369873
31163.558989	1135.658667	1604.723633	2265.961670
31163.558989	1135.658667	1603.684570	2382.219238
31163.558989	1135.658667	1602.644531	2371.940674
31163.558989	1135.658667	1601.605469	2274.322510
31163.558989	1135.658667	1600.566406	2208.946533
31163.558989	1135.658667	1599.526367	2201.065674
31163.558989	1135.658667	1598.486328	1993.278320
31163.558989	1135.658667	1597.446289	1925.749512
31163.558989	1135.658667	1596.405273	2025.950684
31163.558989	1135.658667	1595.365234	1937.823242
31163.558989	1135.658667	1594.324219	2079.368896
31163.558989	1135.658667	1593.283203	1931.615967
31163.558989	1135.658667	1592.242188	2151.209473
31163.558989	1135.658667	1591.200195	2285.822021
31163.558989	1135.658667	1590.159180	2216.222656
31163.558989	1135.658667	1589.117188	2135.198730
31163.558989	1135.658667	1588.075195	2081.765869
31163.558989	1135.658667	1587.032227	2232.463867
31163.558989	1135.658667	1585.990234	2167.644531
31163.558989	1135.658667	1584.947266	2050.154053
31163.558989	1135.658667	1583.904297	2198.596680
31163.558989	1135.658667	1582.861328	2154.552002
31163.558989	1135.658667	1581.818359	2064.750488
31163.558989	1135.658667	1580.775391	1995.642822
31163.558989	1135.658667	1579.731445	1979.263306
31163.558989	1135.658667	1578.687500	1882.803833
31163.558989	1135.658667	1577.643555	1855.103638
31163.558989	1135.658667	1576.598633	1644.359253
31163.558989	1135.658667	1575.554688	1861.654907
31163.558989	1135.658667	1574.509766	1937.063354
31163.558989	1135.658667	1573.464844	2115.425537
31163.558989	1135.658667	1572.419922	2023.924194
31163.558989	1135.658667	1571.374023	2074.257568
31163.558989	1135.658667	1570.329102	2030.919922
31163.558989	1135.658667	1569.283203	1900.794434
31163.558989	1135.658667	1568.237305	1857.612305
31163.558989	1135.658667	1567.191406	1595.187256
31163.558989	1135.658667	1566.144531	1846.849243
31163.558989	1135.658667	1565.098633	1721.678223
31163.558989	1135.658667	1564.051758	1900.281372
31163.558989	1135.658667	1563.004883	1985.286133
31163.558989	1135.658667	1561.957031	1711.979736
31163.558989	1135.658667	1560.910156	2034.443481
31163.558989	1135.658667	1559.862305	1765.936523
31163.558989	1135.658667	1558.814453	1851.165039
31163.558989	1135.658667	1557.766602	1573.821411
31163.558989	1135.658667	1556.718750	1636.400269
31163.558989	1135.658667	1555.669922	1591.869629
31163.558989	1135.658667	1554.621094	1538.316406
31163.558989	1135.658667	1553.573242	1263.833984
31163.558989	1135.658667	1552.523438	1543.144775
31163.558989	1135.658667	1551.474609	1166.409424
31163.558989	1135.658667	1550.424805	1423.016113
31163.558989	1135.658667	1549.375000	1165.005127
31163.558989	1135.658667	1548.325195	1066.536987
31163.558989	1135.658667	1547.275391	1052.406494
31163.558989	1135.658667	1546.225586	945.065979
31163.558989	1135.658667	1545.174805	1040.333008
31163.558989	1135.658667	1544.124023	830.835693
31163.558989	1135.658667	1543.073242	830.743896
31163.558989	1135.658667	1542.022461	819.373108
31163.558989	1135.658667	1540.970703	794.444641
31163.558989	1135.658667	1539.919922	644.617554
31163.558989	1135.658667	1538.868164	738.088501
31163.558989	1135.658667	1537.815430	756.627258
31163.558989	1135.658667	1536.763672	859.315247
31163.558989	1135.658667	1535.710938	746.286987
31163.558989	1135.658667	1534.659180	597.080566
31163.558989	1135.658667	1533.606445	709.099487
31163.558989	1135.658667	1532.552734	621.419250
31163.558989	1135.658667	1531.500000	672.316406
31163.558989	1135.658667	1530.446289	1149.839722
31163.558989	1135.658667	1529.393555	1103.271118
31163.558989	1135.658667	1528.338867	1034.121460
31163.558989	1135.658667	1527.285156	1175.999878
31163.558989	1135.658667	1526.231445	862.233154
31163.558989	1135.658667	1525.176758	838.821289
31163.558989	1135.658667	1524.122070	1130.531860
31163.558989	1135.658667	1523.067383	964.547241
31163.558989	1135.658667	1522.012695	880.288269
31163.558989	1135.658667	1520.957031	757.658691
31163.558989	1135.658667	1519.901367	741.617920
31163.558989	1135.658667	1518.845703	684.943115
31163.558989	1135.658667	1517.790039	789.114624
31163.558989	1135.658667	1516.734375	811.886108
31163.558989	1135.658667	1515.677734	721.620728
31163.558989	1135.658667	1514.621094	640.555725
31163.558989	1135.658667	1513.564453	611.658691
31163.558989	1135.658667	1512.507813	564.798401
31163.558989	1135.658667	1511.450195	633.369812
31163.558989	1135.658667	1510.393555	661.354004
31163.558989	1135.658667	1509.335938	497.339905
31163.558989	1135.658667	1508.278320	670.178162
31163.558989	1135.658667	1507.219727	526.791382
31163.558989	1135.658667	1506.162109	607.194031
31163.558989	1135.658667	1505.103516	455.087036
31163.558989	1135.658667	1504.044922	289.616608
31163.558989	1135.658667	1502.986328	336.520660
31163.558989	1135.658667	1501.926758	202.975220
31163.558989	1135.658667	1500.868164	265.921234
31163.558989	1135.658667	1499.808594	306.400665
31163.558989	1135.658667	1498.749023	243.237717
31163.558989	1135.658667	1497.688477	65.213387
31163.558989	1135.658667	1496.628906	119.618126
31163.558989	1135.658667	1495.568359	273.304443
31163.558989	1135.658667	1494.507813	221.971985
31163.558989	1135.658667	1493.447266	184.310715
31163.558989	1135.658667	1492.386719	56.681522
31163.558989	1135.658667	1491.325195	140.949066
31163.558989	1135.658667	1490.263672	117.223572
31163.558989	1135.658667	1489.202148	-27.939785
31163.558989	1135.658667	1488.140625	209.759277
31163.558989	1135.658667	1487.079102	112.164001
31163.558989	1135.658667	1486.016602	55.237263
31163.558989	1135.658667	1484.954102	198.688217
31163.558989	1135.658667	1483.891602	-55.894806
31163.558989	1135.658667	1482.829102	15.832351
31163.558989	1135.658667	1481.765625	-53.983368
31163.558989	1135.658667	1480.702148	71.933044
31163.558989	1135.658667	1479.638672	-161.647522
31163.558989	1135.658667	1478.575195	-204.017670
31163.558989	1135.658667	1477.511719	-133.878220
31163.558989	1135.658667	1476.447266	-166.950775
31163.558989	1135.658667	1475.382813	33.614155
31163.558989	1135.658667	1474.318359	-356.061035
31163.558989	1135.658667	1473.253906	-85.792442
31163.558989	1135.658667	1472.189453	-104.815132
31163.558989	1135.658667	1471.124023	22.162588
31163.558989	1135.658667	1470.058594	-5.735114
31163.558989	1135.658667	1468.993164	-17.420088
31163.558989	1135.658667	1467.927734	15.667482
31163.558989	1135.658667	1466.861328	413.832458
31163.558989	1135.658667	1465.794922	135.985550
31163.558989	1135.658667	1464.728516	-166.538086
31163.558989	1135.658667	1463.662109	227.464905
31163.558989	1135.658667	1462.594727	169.295914
31163.558989	1135.658667	1461.528320	-52.033932
31163.558989	1135.658667	1460.460938	56.051781
31163.558989	1135.658667	1459.393555	112.493164
31163.558989	1135.658667	1458.326172	-78.095390
31163.558989	1135.658667	1457.257813	219.930939
31163.558989	1135.658667	1456.189453	140.341919
31163.558989	1135.658667	1455.121094	250.064377
31163.558989	1135.658667	1454.052734	66.961716
31163.558989	1135.658667	1452.984375	300.148254
31163.558989	1135.658667	1451.915039	350.722534
31163.558989	1135.658667	1450.845703	422.120605
31163.558989	1135.658667	1449.776367	485.962616
31163.558989	1135.658667	1448.707031	402.673370
31163.558989	1135.658667	1447.636719	574.754272
31163.558989	1135.658667	1446.567383	296.017212
31163.558989	1135.658667	1445.497070	40.277493
31163.558989	1135.658667	1444.425781	254.971115
31163.558989	1135.658667	1443.355469	468.439301
31163.558989	1135.658667	1442.285156	292.527435
31163.558989	1135.658667	1441.213867	552.552063
31163.558989	1135.658667	1440.142578	454.122620
31163.558989	1135.658667	1439.070313	228.076355
31163.558989	1135.658667	1437.999023	387.161346
31163.558989	1135.658667	1436.926758	553.478271
31163.558989	1135.658667	1435.854492	419.608551
31163.558989	1135.658667	1434.782227	422.154602
31163.558989	1135.658667	1433.709961	567.997070
31163.558989	1135.658667	1432.636719	402.472198
31163.558989	1135.658667	1431.563477	424.024048
31163.558989	1135.658667	1430.490234	548.252991
31163.558989	1135.658667	1429.416992	443.992889
31163.558989	1135.658667	1428.343750	469.666382
31163.558989	1135.658667	1427.269531	307.685394
31163.558989	1135.658667	1426.195313	218.625153
31163.558989	1135.658667	1425.121094	262.514740
31163.558989	1135.658667	1424.046875	86.531624
31163.558989	1135.658667	1422.971680	295.857788
31163.558989	1135.658667	1421.896484	224.375473
31163.558989	1135.658667	1420.821289	17.784607
31163.558989	1135.658667	1419.746094	148.063416
31163.558989	1135.658667	1418.669922	20.152163
31163.558989	1135.658667	1417.594727	167.424438
31163.558989	1135.658667	1416.518555	-2.554231
31163.558989	1135.658667	1415.442383	264.662933
31163.558989	1135.658667	1414.365234	193.397568
31163.558989	1135.658667	1413.289063	98.948906
31163.558989	1135.658667	1412.211914	-1.698560
31163.558989	1135.658667	1411.134766	34.635780
31163.558989	1135.658667	1410.057617	-142.452759
31163.558989	1135.658667	1408.979492	-127.412453
31163.558989	1135.658667	1407.902344	72.714722
31163.558989	1135.658667	1406.824219	35.356892
31163.558989	1135.658667	1405.746094	149.434204
31163.558989	1135.658667	1404.666992	97.156052
31163.558989	1135.658667	1403.588867	183.150314
31163.558989	1135.658667	1402.509766	130.296280
31163.558989	1135.658667	1401.430664	123.560432
31163.558989	1135.658667	1400.351563	213.906143
31163.558989	1135.658667	1399.271484	91.105919
31163.558989	1135.658667	1398.192383	278.987457
31163.558989	1135.658667	1397.112305	-88.904625
31163.558989	1135.658667	1396.031250	8.311342
31163.558989	1135.658667	1394.951172	311.403717
31163.558989	1135.658667	1393.871094	-40.810890
31163.558989	1135.658667	1392.790039	-88.139359
31163.558989	1135.658667	1391.708984	212.881592
31163.558989	1135.658667	1390.626953	377.293915
31163.558989	1135.658667	1389.545898	115.734787
31163.558989	1135.658667	1388.463867	55.165737
31163.558989	1135.658667	1387.381836	-51.427044
31163.558989	1135.658667	1386.299805	168.706818
31163.558989	1135.658667	1385.217773	113.052078
31163.558989	1135.658667	1384.134766	383.640594
31163.558989	1135.658667	1383.051758	311.372162
31163.558989	1135.658667	1381.968750	444.027313
31163.558989	1135.658667	1380.885742	299.389648
31163.558989	1135.658667	1379.802734	411.286591
31163.558989	1135.658667	1378.718750	248.551407
31163.558989	1135.658667	1377.634766	367.595825
31163.558989	1135.658667	1376.550781	288.425110
31163.558989	1135.658667	1375.465820	103.963516
31163.558989	1135.658667	1374.381836	101.326279
31163.558989	1135.658667	1373.296875	366.504456
31163.558989	1135.658667	1372.211914	245.412155
31163.558989	1135.658667	1371.126953	433.694183
31163.558989	1135.658667	1370.041016	290.814423
31163.558989	1135.658667	1368.955078	340.522614
31163.558989	1135.658667	1367.869141	426.932190
31163.558989	1135.658667	1366.783203	435.746582
31163.558989	1135.658667	1365.697266	521.339050
31163.558989	1135.658667	1364.610352	462.527466
31163.558989	1135.658667	1363.523438	498.036591
31163.558989	1135.658667	1362.436523	478.946655
31163.558989	1135.658667	1361.349609	609.030273
31163.558989	1135.658667	1360.261719	347.030731
31163.558989	1135.658667	1359.174805	416.918274
31163.558989	1135.658667	1358.086914	500.563965
31163.558989	1135.658667	1356.998047	300.505371
31163.558989	1135.658667	1355.910156	543.508118
31163.558989	1135.658667	1354.821289	483.626404
31163.558989	1135.658667	1353.732422	383.606354
31163.558989	1135.658667	1352.643555	451.436401
31163.558989	1135.658667	1351.554688	442.742615
31163.558989	1135.658667	1350.464844	404.288544
31163.558989	1135.658667	1349.375000	339.976135
31163.558989	1135.658667	1348.285156	376.742981
31163.558989	1135.658667	1347.195313	335.481781
31163.558989	1135.658667	1346.105469	344.030487
31163.558989	1135.658667	1345.014648	326.173615
31163.558989	1135.658667	1343.923828	371.715912
31163.558989	1135.658667	1342.833008	527.670105
31163.558989	1135.658667	1341.741211	403.684326
31163.558989	1135.658667	1340.650391	246.682434
31163.558989	1135.658667	1339.558594	306.170532
31163.558989	1135.658667	1338.466797	196.595383
31163.558989	1135.658667	1337.374023	210.082962
31163.558989	1135.658667	1336.282227	70.738052
31163.558989	1135.658667	1335.189453	186.881897
31163.558989	1135.658667	1334.096680	189.520493
31163.558989	1135.658667	1333.003906	187.106979
31163.558989	1135.658667	1331.910156	293.079224
31163.558989	1135.658667	1330.817383	182.954224
31163.558989	1135.658667	1329.723633	98.981789
31163.558989	1135.658667	1328.629883	38.078587
31163.558989	1135.658667	1327.535156	-85.054504
31163.558989	1135.658667	1326.441406	20.109543
31163.558989	1135.658667	1325.346680	161.403244
31163.558989	1135.658667	1324.251953	72.489952
31163.558989	1135.658667	1323.156250	4.010323
31163.558989	1135.658667	1322.061523	-57.836430
31163.558989	1135.658667	1320.965820	-49.275768
31163.558989	1135.658667	1319.870117	-101.312630
31163.558989	1135.658667	1318.774414	4.955297
31163.558989	1135.658667	1317.678711	35.407867
31163.558989	1135.658667	1316.582031	123.625610
31163.558989	1135.658667	1315.485352	72.649170
31163.558989	1135.658667	1314.388672	83.912086
31163.558989	1135.658667	1313.291016	329.427734
31163.558989	1135.658667	1312.194336	250.814819
31163.558989	1135.658667	1311.096680	224.214432
31163.558989	1135.658667	1309.999023	492.782074
31163.558989	1135.658667	1308.901367	375.121185
31163.558989	1135.658667	1307.802734	200.188812
31163.558989	1135.658667	1306.705078	142.674271
31163.558989	1135.658667	1305.606445	131.989838
31163.558989	1135.658667	1304.506836	99.965675
31163.558989	1135.658667	1303.408203	39.060261
31163.558989	1135.658667	1302.308594	21.112974
31163.558989	1135.658667	1301.208984	167.076599
31163.558989	1135.658667	1300.109375	154.944229
31163.558989	1135.658667	1299.009766	205.617142
31163.558989	1135.658667	1297.909180	317.401550
31163.558989	1135.658667	1296.808594	355.636749
31163.558989	1135.658667	1295.708008	14.041324
31163.558989	1135.658667	1294.607422	161.053726
31163.558989	1135.658667	1293.506836	378.350616
31163.558989	1135.658667	1292.405273	223.816574
31163.558989	1135.658667	1291.303711	139.870667
31163.558989	1135.658667	1290.202148	191.481537
31163.558989	1135.658667	1289.099609	156.804459
31163.558989	1135.658667	1287.998047	226.912460
31163.558989	1135.658667	1286.895508	291.115234
31163.558989	1135.658667	1285.792969	106.923355
31163.558989	1135.658667	1284.689453	183.663162
31163.558989	1135.658667	1283.586914	398.189545
31163.558989	1135.658667	1282.483398	254.588898
31163.558989	1135.658667	1281.379883	267.131409
31163.558989	1135.658667	1280.276367	403.068878
31163.558989	1135.658667	1279.171875	548.893921
31163.558989	1135.658667	1278.067383	609.832642
31163.558989	1135.658667	1276.962891	519.418091
31163.558989	1135.658667	1275.858398	503.207733
31163.558989	1135.658667	1274.753906	512.084351
31163.558989	1135.658667	1273.648438	371.555420
31163.558989	1135.658667	1272.542969	127.776398
31163.558989	1135.658667	1271.437500	184.772614
31163.558989	1135.658667	1270.331055	162.124817
31163.558989	1135.658667	1269.225586	-133.668610
31163.558989	1135.658667	1268.119141	188.007126
31163.558989	1135.658667	1267.012695	-61.357647
31163.558989	1135.658667	1265.906250	-8.070646
31163.558989	1135.658667	1264.798828	-32.530418
31163.558989	1135.658667	1263.691406	-127.147133
31163.558989	1135.658667	1262.583984	-45.064434
31163.558989	1135.658667	1261.476563	-119.429871
31163.558989	1135.658667	1260.368164	-97.462189
31163.558989	1135.658667	1259.260742	166.799301
31163.558989	1135.658667	1258.152344	-27.445074
31163.558989	1135.658667	1257.043945	-88.791199
31163.558989	1135.658667	1255.934570	60.535454
31163.558989	1135.658667	1254.825195	7.343246
31163.558989	1135.658667	1253.716797	163.237350
31163.558989	1135.658667	1252.606445	148.878510
31163.558989	1135.658667	1251.497070	-57.437134
31163.558989	1135.658667	1250.387695	94.123573
31163.558989	1135.658667	1249.277344	-77.944992
31163.558989	1135.658667	1248.166992	-24.325790
31163.558989	1135.658667	1247.055664	71.417000
31163.558989	1135.658667	1245.945313	23.256300
31163.558989	1135.658667	1244.833984	-105.092430
31163.558989	1135.658667	1243.722656	161.024719
31163.558989	1135.658667	1242.611328	44.860607
31163.558989	1135.658667	1241.499023	-5.046320
31163.558989	1135.658667	1240.387695	-108.440063
31163.558989	1135.658667	1239.275391	32.684040
31163.558989	1135.658667	1238.162109	70.761520
31163.558989	1135.658667	1237.049805	178.413574
31163.558989	1135.658667	1235.936523	41.007214
31163.558989	1135.658667	1234.823242	139.989258
31163.558989	1135.658667	1233.709961	215.727829
31163.558989	1135.658667	1232.596680	353.241486
31163.558989	1135.658667	1231.482422	410.504242
31163.558989	1135.658667	1230.369141	295.522034
31163.558989	1135.658667	1229.253906	433.437836
31163.558989	1135.658667	1228.139648	427.975800
31163.558989	1135.658667	1227.025391	403.956726
31163.558989	1135.658667	1225.910156	383.237518
31163.558989	1135.658667	1224.794922	439.418274
31163.558989	1135.658667	1223.679688	282.338837
31163.558989	1135.658667	1222.563477	345.320007
31163.558989	1135.658667	1221.447266	446.563446
31163.558989	1135.658667	1220.331055	332.496948
31163.558989	1135.658667	1219.214844	421.237671
31163.558989	1135.658667	1218.098633	412.321838
31163.558989	1135.658667	1216.981445	352.823059
31163.558989	1135.658667	1215.864258	533.364990
31163.558989	1135.658667	1214.747070	478.465240
31163.558989	1135.658667	1213.629883	559.172729
31163.558989	1135.658667	1212.511719	547.212402
31163.558989	1135.658667	1211.393555	466.430634
31163.558989	1135.658667	1210.275391	560.407593
31163.558989	1135.658667	1209.157227	500.455780
31163.558989	1135.658667	1208.038086	519.384216
31163.558989	1135.658667	1206.918945	537.928894
31163.558989	1135.658667	1205.799805	444.653442
31163.558989	1135.658667	1204.680664	391.970001
31163.558989	1135.658667	1203.560547	327.742218
31163.558989	1135.658667	1202.441406	282.804596
31163.558989	1135.658667	1201.321289	273.666534
31163.558989	1135.658667	1200.200195	118.284119
31163.558989	1135.658667	1199.080078	85.823059
31163.558989	1135.658667	1197.958984	177.893204
31163.558989	1135.658667	1196.837891	118.431999
31163.558989	1135.658667	1195.716797	137.456146
31163.558989	1135.658667	1194.594727	179.072311
31163.558989	1135.658667	1193.473633	194.962097
31163.558989	1135.658667	1192.351563	50.242958
31163.558989	1135.658667	1191.229492	-7.090901
31163.558989	1135.658667	1190.106445	41.880566
31163.558989	1135.658667	1188.984375	87.549156
31163.558989	1135.658667	1187.861328	31.119045
31163.558989	1135.658667	1186.738281	60.927349
31163.558989	1135.658667	1185.614258	-135.357925
31163.558989	1135.658667	1184.491211	-0.447289
31163.558989	1135.658667	1183.367188	-32.168007
31163.558989	1135.658667	1182.243164	-23.382046
31163.558989	1135.658667	1181.119141	-133.263031
31163.558989	1135.658667	1179.994141	-38.656773
31163.558989	1135.658667	1178.869141	8.484066
31163.558989	1135.658667	1177.744141	-45.858852
31163.558989	1135.658667	1176.619141	-14.904046
31163.558989	1135.658667	1175.493164	-35.504269
31163.558989	1135.658667	1174.368164	25.437275
31163.558989	1135.658667	1173.242188	32.052723
31163.558989	1135.658667	1172.115234	-32.473213
31163.558989	1135.658667	1170.989258	-18.783737
31163.558989	1135.658667	1169.862305	-212.460785
31163.558989	1135.658667	1168.735352	-159.484955
31163.558989	1135.658667	1167.608398	-108.209518
31163.558989	1135.658667	1166.481445	-75.154671
31163.558989	1135.658667	1165.353516	-132.433212
31163.558989	1135.658667	1164.225586	-140.585175
31163.558989	1135.658667	1163.097656	-147.043823
31163.558989	1135.658667	1161.968750	-140.699402
31163.558989	1135.658667	1160.840820	86.559555
31163.558989	1135.658667	1159.711914	-28.470634
31163.558989	1135.658667	1158.583008	2.700530
31163.558989	1135.658667	1157.453125	-59.783173
31163.558989	1135.658667	1156.324219	-58.989552
31163.558989	1135.658667	1155.194336	87.963295
31163.558989	1135.658667	1154.064453	117.879562
31163.558989	1135.658667	1152.933594	87.531769
31163.558989	1135.658667	1151.803711	267.979462
31163.558989	1135.658667	1150.672852	224.722366
31163.558989	1135.658667	1149.541992	232.936951
31163.558989	1135.658667	1148.411133	139.359955
31163.558989	1135.658667	1147.279297	45.436535
31163.558989	1135.658667	1146.147461	224.930252
31163.558989	1135.658667	1145.015625	244.295654
31163.558989	1135.658667	1143.883789	167.175720
31163.558989	1135.658667	1142.750977	142.285950
31163.558989	1135.658667	1141.619141	191.940781
31163.558989	1135.658667	1140.486328	111.829483
31163.558989	1135.658667	1139.352539	-15.422623
31163.558989	1135.658667	1138.219727	16.262888
31163.558989	1135.658667	1137.085938	224.585754
31163.558989	1135.658667	1135.952148	114.552284
31163.558989	1135.658667	1134.818359	-20.903467
31163.558989	1135.658667	1133.683594	215.578156
31163.558989	1135.658667	1132.549805	340.806641
31163.558989	1135.658667	1131.415039	348.901154
31163.558989	1135.658667	1130.279297	300.737030
31163.558989	1135.658667	1129.144531	257.523529
31163.558989	1135.658667	1128.008789	417.439056
31163.558989	1135.658667	1126.873047	450.786285
31163.558989	1135.658667	1125.737305	276.074554
31163.558989	1135.658667	1124.601563	381.516357
31163.558989	1135.658667	1123.464844	383.407410
31163.558989	1135.658667	1122.328125	323.768433
31163.558989	1135.658667	1121.191406	520.904663
31163.558989	1135.658667	1120.054688	422.352905
31163.558989	1135.658667	1118.916992	352.359741
31163.558989	1135.658667	1117.779297	505.185455
31163.558989	1135.658667	1116.641602	608.400024
31163.558989	1135.658667	1115.503906	507.160248
31163.558989	1135.658667	1114.365234	608.591553
31163.558989	1135.658667	1113.226563	664.083374
31163.558989	1135.658667	1112.087891	594.200745
31163.558989	1135.658667	1110.949219	683.067383
31163.558989	1135.658667	1109.809570	660.164001
31163.558989	1135.658667	1108.669922	476.848907
31163.558989	1135.658667	1107.530273	733.498840
31163.558989	1135.658667	1106.390625	744.776611
31163.558989	1135.658667	1105.250000	648.125366
31163.558989	1135.658667	1104.109375	643.598328
31163.558989	1135.658667	1102.968750	565.682495
31163.558989	1135.658667	1101.828125	553.201721
31163.558989	1135.658667	1100.686523	657.106018
31163.558989	1135.658667	1099.544922	613.898865
31163.558989	1135.658667	1098.403320	782.203125
31163.558989	1135.658667	1097.261719	809.201111
31163.558989	1135.658667	1096.120117	564.930725
31163.558989	1135.658667	1094.977539	633.938171
31163.558989	1135.658667	1093.834961	643.991150
31163.558989	1135.658667	1092.691406	715.749023
31163.558989	1135.658667	1091.548828	621.579773
31163.558989	1135.658667	1090.405273	641.965454
31163.558989	1135.658667	1089.261719	521.678894
31163.558989	1135.658667	1088.118164	626.841003
31163.558989	1135.658667	1086.973633	799.498596
31163.558989	1135.658667	1085.829102	608.886597
31163.558989	1135.658667	1084.684570	672.597595
31163.558989	1135.658667	1083.540039	633.881470
31163.558989	1135.658667	1082.395508	557.602356
31163.558989	1135.658667	1081.250000	609.163147
31163.558989	1135.658667	1080.104492	556.969116
31163.558989	1135.658667	1078.958984	602.183228
31163.558989	1135.658667	1077.812500	362.760956
31163.558989	1135.658667	1076.666016	536.982788
31163.558989	1135.658667	1075.519531	498.760651
31163.558989	1135.658667	1074.373047	623.283997
31163.558989	1135.658667	1073.226563	442.905212
31163.558989	1135.658667	1072.079102	543.402771
31163.558989	1135.658667	1070.931641	452.166901
31163.558989	1135.658667	1069.784180	598.654480
31163.558989	1135.658667	1068.635742	741.783508
31163.558989	1135.658667	1067.487305	699.736389
31163.558989	1135.658667	1066.338867	599.735657
31163.558989	1135.658667	1065.190430	640.235413
31163.558989	1135.658667	1064.041992	687.294189
31163.558989	1135.658667	1062.892578	719.468323
31163.558989	1135.658667	1061.743164	709.551880
31163.558989	1135.658667	1060.593750	609.913025
31163.558989	1135.658667	1059.443359	884.100037
31163.558989	1135.658667	1058.292969	602.325195
31163.558989	1135.658667	1057.142578	700.281921
31163.558989	1135.658667	1055.992188	556.353943
31163.558989	1135.658667	1054.841797	488.268860
31163.558989	1135.658667	1053.690430	577.422302
31163.558989	1135.658667	1052.539063	621.732971
31163.558989	1135.658667	1051.387695	448.273163
31163.558989	1135.658667	1050.235352	547.879761
31163.558989	1135.658667	1049.083984	413.067596
31163.558989	1135.658667	1047.931641	469.112793
31163.558989	1135.658667	1046.778320	258.919495
31163.558989	1135.658667	1045.625977	234.266663
31163.558989	1135.658667	1044.472656	427.246429
31163.558989	1135.658667	1043.319336	506.312286
31163.558989	1135.658667	1042.166016	484.888184
31163.558989	1135.658667	1041.012695	359.934174
31163.558989	1135.658667	1039.858398	427.271820
31163.558989	1135.658667	1038.704102	510.757355
31163.558989	1135.658667	1037.549805	481.646729
31163.558989	1135.658667	1036.394531	559.772095
31163.558989	1135.658667	1035.239258	433.150970
31163.558989	1135.658667	1034.083984	653.041321
31163.558989	1135.658667	1032.928711	711.453979
31163.558989	1135.658667	1031.773438	830.533630
31163.558989	1135.658667	1030.617188	897.908997
31163.558989	1135.658667	1029.460938	743.746460
31163.558989	1135.658667	1028.304688	642.790222
31163.558989	1135.658667	1027.147461	677.386658
31163.558989	1135.658667	1025.991211	572.222412
31163.558989	1135.658667	1024.833984	524.276062
31163.558989	1135.658667	1023.675781	724.531006
31163.558989	1135.658667	1022.518555	662.505249
31163.558989	1135.658667	1021.360352	486.886108
31163.558989	1135.658667	1020.202148	332.964447
31163.558989	1135.658667	1019.043945	477.983582
31163.558989	1135.658667	1017.884766	527.594116
31163.558989	1135.658667	1016.726563	366.596008
31163.558989	1135.658667	1015.567383	459.687622
31163.558989	1135.658667	1014.407227	447.933319
31163.558989	1135.658667	1013.248047	458.092621
31163.558989	1135.658667	1012.087891	397.799896
31163.558989	1135.658667	1010.927734	452.593689
31163.558989	1135.658667	1009.767578	470.708649
31163.558989	1135.658667	1008.606445	447.978363
31163.558989	1135.658667	1007.446289	408.193268
31163.558989	1135.658667	1006.285156	477.806427
31163.558989	1135.658667	1005.123047	431.497589
31163.558989	1135.658667	1003.961914	399.040009
31163.558989	1135.658667	1002.799805	555.895142
31163.558989	1135.658667	1001.637695	456.987885
31163.558989	1135.658667	1000.475586	453.164215
31163.558989	1135.658667	999.312500	409.178131
31163.558989	1135.658667	998.149414	545.591431
31163.558989	1135.658667	996.986328	600.147583
31163.558989	1135.658667	995.823242	505.240417
31163.558989	1135.658667	994.659180	158.381470
31163.558989	1135.658667	993.496094	239.594254
31163.558989	1135.658667	992.332031	372.839142
31163.558989	1135.658667	991.166992	166.259750
31163.558989	1135.658667	990.002930	376.271576
31163.558989	1135.658667	988.837891	220.307266
31163.558989	1135.658667	987.672852	348.042480
31163.558989	1135.658667	986.506836	365.442535
31163.558989	1135.658667	985.341797	277.500549
31163.558989	1135.658667	984.175781	62.368385
31163.558989	1135.658667	983.009766	194.055023
31163.558989	1135.658667	981.843750	377.576416
31163.558989	1135.658667	980.676758	122.452209
31163.558989	1135.658667	979.509766	231.634933
31163.558989	1135.658667	978.342773	393.731354
31163.558989	1135.658667	977.175781	409.885315
31163.558989	1135.658667	976.007813	331.680786
31163.558989	1135.658667	974.839844	356.787262
31163.558989	1135.658667	973.671875	329.909210
31163.558989	1135.658667	972.503906	348.616272
31163.558989	1135.658667	971.334961	357.082001
31163.558989	1135.658667	970.166016	242.868774
31163.558989	1135.658667	968.997070	462.693726
31163.558989	1135.658667	967.828125	419.111847
31163.558989	1135.658667	966.658203	322.077759
31163.558989	1135.658667	965.488281	526.743835
31163.558989	1135.658667	964.318359	332.382019
31163.558989	1135.658667	963.148438	474.999451
31163.558989	1135.658667	961.977539	556.058228
31163.558989	1135.658667	960.806641	493.382996
31163.558989	1135.658667	959.635742	449.449646
31163.558989	1135.658667	958.463867	429.425262
31163.558989	1135.658667	957.292969	197.185730
31163.558989	1135.658667	956.121094	440.990540
31163.558989	1135.658667	954.948242	169.440460
31163.558989	1135.658667	953.776367	64.286713
31163.558989	1135.658667	952.603516	281.367584
31163.558989	1135.658667	951.430664	338.816681
31163.558989	1135.658667	950.257813	335.097260
31163.558989	1135.658667	949.084961	226.188248
31163.558989	1135.658667	947.911133	249.704422
31163.558989	1135.658667	946.737305	325.820679
31163.558989	1135.658667	945.563477	187.930923
31163.558989	1135.658667	944.388672	481.884216
31163.558989	1135.658667	943.213867	322.814606
31163.558989	1135.658667	942.039063	275.818085
31163.558989	1135.658667	940.864258	306.052338
31163.558989	1135.658667	939.688477	265.122040
31163.558989	1135.658667	938.513672	231.115692
31163.558989	1135.658667	937.337891	335.805817
31163.558989	1135.658667	936.161133	422.305908
31163.558989	1135.658667	934.985352	490.612030
31163.558989	1135.658667	933.808594	381.547119
31163.558989	1135.658667	932.631836	454.275909
31163.558989	1135.658667	931.454102	360.960449
31163.558989	1135.658667	930.277344	626.579529
31163.558989	1135.658667	929.099609	476.402100
31163.558989	1135.658667	927.921875	326.193634
31163.558989	1135.658667	926.743164	348.574921
31163.558989	1135.658667	925.565430	364.050598
31163.558989	1135.658667	924.386719	315.927277
31163.558989	1135.658667	923.208008	301.811432
31163.558989	1135.658667	922.028320	267.223114
31163.558989	1135.658667	920.849609	423.176117
31163.558989	1135.658667	919.669922	424.399506
31163.558989	1135.658667	919.474609	368.255157
31163.558989	1135.658667	918.309570	242.775909
31163.558989	1135.658667	917.143555	47.006519
31163.558989	1135.658667	915.977539	-10.452085
31163.558989	1135.658667	914.810547	262.972565
31163.558989	1135.658667	913.644531	364.013519
31163.558989	1135.658667	912.477539	93.405182
31163.558989	1135.658667	911.310547	151.299423
31163.558989	1135.658667	910.143555	172.884109
31163.558989	1135.658667	908.975586	237.429749
31163.558989	1135.658667	907.807617	95.896919
31163.558989	1135.658667	906.639648	219.176651
31163.558989	1135.658667	905.471680	104.760483
31163.558989	1135.658667	904.303711	83.097031
31163.558989	1135.658667	903.134766	-87.891083
31163.558989	1135.658667	901.965820	69.049934
31163.558989	1135.658667	900.796875	92.480988
31163.558989	1135.658667	899.626953	14.131208
31163.558989	1135.658667	898.457031	35.207642
31163.558989	1135.658667	897.287109	60.746777
31163.558989	1135.658667	896.117188	156.261658
31163.558989	1135.658667	894.947266	208.776077
31163.558989	1135.658667	893.776367	177.668381
31163.558989	1135.658667	892.605469	230.063782
31163.558989	1135.658667	891.434570	298.193085
31163.558989	1135.658667	890.262695	183.444305
31163.558989	1135.658667	889.091797	210.849075
31163.558989	1135.658667	887.919922	154.728912
31163.558989	1135.658667	886.748047	240.680862
31163.558989	1135.658667	885.575195	229.586945
31163.558989	1135.658667	884.403320	26.818918
31163.558989	1135.658667	883.230469	94.578857
31163.558989	1135.658667	882.057617	-78.870003
31163.558989	1135.658667	880.883789	-90.064781
31163.558989	1135.658667	879.710938	151.004272
31163.558989	1135.658667	878.537109	47.340721
31163.558989	1135.658667	877.362305	245.413528
31163.558989	1135.658667	876.188477	130.431854
31163.558989	1135.658667	875.013672	-153.359726
31163.558989	1135.658667	873.839844	42.257839
31163.558989	1135.658667	872.664063	-25.489185
31163.558989	1135.658667	871.489258	151.943115
31163.558989	1135.658667	870.313477	174.079300
31163.558989	1135.658667	869.138672	68.000984
31163.558989	1135.658667	867.962891	72.080238
31163.558989	1135.658667	866.786133	-29.519615
31163.558989	1135.658667	865.610352	-63.703098
31163.558989	1135.658667	864.433594	52.617485
31163.558989	1135.658667	863.256836	34.076969
31163.558989	1135.658667	862.079102	31.224607
31163.558989	1135.658667	860.902344	75.487198
31163.558989	1135.658667	859.724609	99.489281
31163.558989	1135.658667	858.546875	89.777916
31163.558989	1135.658667	857.368164	-27.677841
31163.558989	1135.658667	856.190430	-98.007607
31163.558989	1135.658667	855.011719	-13.579266
31163.558989	1135.658667	853.833008	-25.651316
31163.558989	1135.658667	852.654297	-111.744942
31163.558989	1135.658667	851.474609	33.048199
31163.558989	1135.658667	850.294922	49.999008
31163.558989	1135.658667	849.115234	51.222027
31163.558989	1135.658667	847.935547	101.695084
31163.558989	1135.658667	846.754883	-0.195075
31163.558989	1135.658667	845.575195	-52.811932
31163.558989	1135.658667	844.393555	-31.561337
31163.558989	1135.658667	843.212891	-144.657974
31163.558989	1135.658667	842.032227	160.755585
31163.558989	1135.658667	840.850586	101.296402
31163.558989	1135.658667	839.668945	-61.074955
31163.558989	1135.658667	838.486328	18.135492
31163.558989	1135.658667	837.304688	27.962084
31163.558989	1135.658667	836.122070	-47.205208
31163.558989	1135.658667	834.939453	47.500542
31163.558989	1135.658667	833.756836	48.276871
31163.558989	1135.658667	832.573242	95.937912
31163.558989	1135.658667	831.389648	-46.326084
31163.558989	1135.658667	830.206055	-56.795135
31163.558989	1135.658667	829.022461	254.244888
31163.558989	1135.658667	827.838867	107.475868
31163.558989	1135.658667	826.654297	291.068268
31163.558989	1135.658667	825.469727	124.204643
31163.558989	1135.658667	824.284180	77.856155
31163.558989	1135.658667	823.099609	111.797981
31163.558989	1135.658667	821.914063	-199.976044
31163.558989	1135.658667	820.728516	-96.931717
31163.558989	1135.658667	819.542969	90.750534
31163.558989	1135.658667	818.356445	209.232208
31163.558989	1135.658667	817.169922	-64.544250
31163.558989	1135.658667	815.983398	9.305208
31163.558989	1135.658667	814.796875	-153.005325
31163.558989	1135.658667	813.609375	14.302738
31163.558989	1135.658667	812.422852	-9.958920
31163.558989	1135.658667	811.235352	-3.077153
31163.558989	1135.658667	810.046875	1.546836
31163.558989	1135.658667	808.859375	-223.040756
31163.558989	1135.658667	807.670898	26.278345
31163.558989	1135.658667	806.482422	-164.915512
31163.558989	1135.658667	805.293945	-171.490250
31163.558989	1135.658667	804.104492	-109.171410
31163.558989	1135.658667	802.915039	-42.460590
31163.558989	1135.658667	801.725586	-26.916182
31163.558989	1135.658667	800.536133	97.466919
31163.558989	1135.658667	799.345703	99.592026
31163.558989	1135.658667	798.155273	117.237862
31163.558989	1135.658667	796.964844	-36.126617
31163.558989	1135.658667	795.774414	-62.912323
31163.558989	1135.658667	794.583008	56.776154
31163.558989	1135.658667	793.392578	-89.899254
31163.558989	1135.658667	792.200195	-67.927589
31163.558989	1135.658667	791.008789	-54.859428
31163.558989	1135.658667	789.816406	60.190472
31163.558989	1135.658667	788.625000	113.087311
31163.558989	1135.658667	787.432617	-91.212448
31163.558989	1135.658667	786.239258	-82.685219
31163.558989	1135.658667	785.046875	-176.114136
31163.558989	1135.658667	783.853516	-45.773319
31163.558989	1135.658667	782.660156	-123.715843
31163.558989	1135.658667	781.465820	-42.207638
31163.558989	1135.658667	780.272461	76.884323
31163.558989	1135.658667	779.078125	-173.766968
31163.558989	1135.658667	777.883789	120.091156
31163.558989	1135.658667	776.688477	19.948534
31163.558989	1135.658667	775.494141	-51.414196
31163.558989	1135.658667	774.298828	-144.889618
31163.558989	1135.658667	773.103516	13.737896
31163.558989	1135.658667	771.907227	-35.541882
31163.558989	1135.658667	770.711914	100.849663
31163.558989	1135.658667	769.515625	111.195595
31163.558989	1135.658667	768.318359	-130.363312
31163.558989	1135.658667	767.122070	-179.658508
31163.558989	1135.658667	765.924805	-158.284943
31163.558989	1135.658667	764.727539	-35.368702
31163.558989	1135.658667	763.530273	-14.075605
31163.558989	1135.658667	762.333008	35.881649
31163.558989	1135.658667	761.134766	-31.159645
31163.558989	1135.658667	759.936523	-54.068661
31163.558989	1135.658667	758.738281	200.939957
31163.558989	1135.658667	757.540039	120.613441
31163.558989	1135.658667	756.340820	16.044922
31163.558989	1135.658667	755.141602	288.452179
31163.558989	1135.658667	753.942383	161.814896
31163.558989	1135.658667	752.742188	231.316956
31163.558989	1135.658667	751.541992	128.935974
31163.558989	1135.658667	750.341797	260.049072
31163.558989	1135.658667	749.141602	228.134964
31163.558989	1135.658667	747.941406	160.988770
31163.558989	1135.658667	746.740234	168.688828
31163.558989	1135.658667	745.539063	70.733322
31163.558989	1135.658667	744.337891	45.409550
31163.558989	1135.658667	743.135742	-140.509827
31163.558989	1135.658667	741.933594	16.728270
31163.558989	1135.658667	740.731445	-6.424773
31163.558989	1135.658667	739.529297	29.771467
31163.558989	1135.658667	738.326172	-0.006113
31163.558989	1135.658667	737.124023	22.955673
31163.558989	1135.658667	735.919922	-145.259201
31163.558989	1135.658667	734.716797	16.071356
31163.558989	1135.658667	733.513672	113.631058
31163.558989	1135.658667	732.309570	151.847733
31163.558989	1135.658667	731.105469	-36.075214
31163.558989	1135.658667	729.900391	-22.020523
31163.558989	1135.658667	728.696289	71.010323
31163.558989	1135.658667	727.491211	23.577778
31163.558989	1135.658667	726.286133	15.631413
31163.558989	1135.658667	725.080078	-55.924450
31163.558989	1135.658667	723.874023	-17.842377
31163.558989	1135.658667	722.668945	31.171988
31163.558989	1135.658667	721.461914	-57.920807
31163.558989	1135.658667	720.255859	-256.542786
31163.558989	1135.658667	719.048828	-1.638546
31163.558989	1135.658667	717.841797	-3.105079
31163.558989	1135.658667	716.634766	54.538284
31163.558989	1135.658667	715.427734	-32.346909
31163.558989	1135.658667	714.219727	108.422890
31163.558989	1135.658667	713.011719	-35.362782
31163.558989	1135.658667	711.803711	155.643951
31163.558989	1135.658667	710.594727	18.442034
31163.558989	1135.658667	709.385742	-81.535400
31163.558989	1135.658667	708.176758	-83.091835
31163.558989	1135.658667	706.967773	-163.355942
31163.558989	1135.658667	705.758789	149.806274
31163.558989	1135.658667	704.548828	121.943588
31163.558989	1135.658667	703.338867	-2.044064
31163.558989	1135.658667	702.127930	-21.151892
31163.558989	1135.658667	700.917969	75.479416
31163.558989	1135.658667	699.707031	65.074997
31163.558989	1135.658667	698.496094	-126.510063
31163.558989	1135.658667	697.285156	18.060411
31163.558989	1135.658667	696.073242	-35.996895
31163.558989	1135.658667	694.861328	219.725845
31163.558989	1135.658667	693.649414	-13.211528
31163.558989	1135.658667	692.436523	275.085358
31163.558989	1135.658667	691.224609	98.898827
31163.558989	1135.658667	690.011719	227.921677
31163.558989	1135.658667	688.798828	387.389923
31163.558989	1135.658667	687.584961	333.266327
31163.558989	1135.658667	686.372070	388.074402
31163.558989	1135.658667	685.158203	599.648621
31163.558989	1135.658667	683.943359	560.730347
31163.558989	1135.658667	682.729492	328.082520
31163.558989	1135.658667	681.514648	384.986755
31163.558989	1135.658667	680.299805	467.972076
31163.558989	1135.658667	679.084961	646.637390
31163.558989	1135.658667	677.869141	383.685699
31163.558989	1135.658667	676.653320	723.198730
31163.558989	1135.658667	675.437500	466.852631
31163.558989	1135.658667	674.221680	501.881012
31163.558989	1135.658667	673.004883	510.809174
31163.558989	1135.658667	671.789063	628.368713
31163.558989	1135.658667	670.571289	304.892639
31163.558989	1135.658667	669.354492	465.872803
31163.558989	1135.658667	668.136719	199.015656
31163.558989	1135.658667	666.919922	342.575317
31163.558989	1135.658667	665.701172	329.791962
31163.558989	1135.658667	664.483398	360.414337
31163.558989	1135.658667	663.264648	315.084412
31163.558989	1135.658667	662.045898	391.241455
31163.558989	1135.658667	660.827148	124.719788
31163.558989	1135.658667	659.608398	92.472816
31163.558989	1135.658667	658.388672	66.737762
31163.558989	1135.658667	657.168945	249.070068
31163.558989	1135.658667	655.949219	156.141937
31163.558989	1135.658667	654.728516	201.894699
31163.558989	1135.658667	653.507813	124.173828
31163.558989	1135.658667	652.287109	152.591980
31163.558989	1135.658667	651.066406	235.124100
31163.558989	1135.658667	649.844727	99.003510
31163.558989	1135.658667	648.623047	43.012222
31163.558989	1135.658667	647.401367	199.079300
31163.558989	1135.658667	646.179688	97.668968
31163.558989	1135.658667	644.957031	270.961823
31163.558989	1135.658667	643.734375	273.367798
31163.558989	1135.658667	642.511719	392.513275
31163.558989	1135.658667	641.289063	593.741333
31163.558989	1135.658667	640.065430	498.847839
31163.558989	1135.658667	638.841797	550.906799
31163.558989	1135.658667	637.618164	469.032867
31163.558989	1135.658667	636.393555	406.630280
31163.558989	1135.658667	635.168945	493.232056
31163.558989	1135.658667	633.944336	396.325836
31163.558989	1135.658667	632.719727	273.569214
31163.558989	1135.658667	631.494141	271.697571
31163.558989	1135.658667	630.269531	125.304718
31163.558989	1135.658667	629.042969	216.215256
31163.558989	1135.658667	627.817383	100.096542
31163.558989	1135.658667	626.590820	100.446365
31163.558989	1135.658667	625.365234	191.333084
31163.558989	1135.658667	624.137695	152.889984
31163.558989	1135.658667	622.911133	60.614410
31163.558989	1135.658667	621.683594	235.479797
31163.558989	1135.658667	620.456055	106.632324
31163.558989	1135.658667	619.228516	107.035240
31163.558989	1135.658667	618.000977	167.723099
31163.558989	1135.658667	616.772461	-1.889903
31163.558989	1135.658667	615.543945	194.372650
31163.558989	1135.658667	614.314453	100.141762
31163.558989	1135.658667	613.085938	31.775650
31163.558989	1135.658667	611.856445	111.822136
31163.558989	1135.658667	610.626953	41.355034
31163.558989	1135.658667	609.397461	-16.171200
31163.558989	1135.658667	608.166992	25.190926
31163.558989	1135.658667	606.936523	-79.549278
31163.558989	1135.658667	605.706055	99.313622
31163.558989	1135.658667	604.474609	-46.175190
31163.558989	1135.658667	603.244141	-41.283714
31163.558989	1135.658667	602.012695	-21.354551
31163.558989	1135.658667	600.780273	-121.609970
31163.558989	1135.658667	599.548828	-108.076843
31163.558989	1135.658667	598.316406	94.252876
31163.558989	1135.658667	597.083984	75.592484
31163.558989	1135.658667	595.851563	7.636630
31163.558989	1135.658667	594.618164	-96.721741
31163.558989	1135.658667	593.384766	-18.821175
31163.558989	1135.658667	592.151367	33.348419
31163.558989	1135.658667	590.917969	6.239495
31163.558989	1135.658667	589.683594	-5.846760
31163.558989	1135.658667	588.449219	127.725639
31163.558989	1135.658667	587.214844	190.600540
31163.558989	1135.658667	585.979492	11.561579
31163.558989	1135.658667	584.745117	228.577515
31163.558989	1135.658667	583.509766	379.183136
31163.558989	1135.658667	582.273438	202.416824
31163.558989	1135.658667	581.038086	190.448380
31163.558989	1135.658667	579.801758	443.674011
31163.558989	1135.658667	578.565430	209.346664
31163.558989	1135.658667	577.329102	436.854279
31163.558989	1135.658667	576.091797	384.323364
31163.558989	1135.658667	574.854492	545.502930
31163.558989	1135.658667	573.617188	493.017151
31163.558989	1135.658667	572.378906	506.781647
31163.558989	1135.658667	571.141602	426.614288
31163.558989	1135.658667	569.903320	318.749359
31163.558989	1135.658667	568.664063	283.520111
31163.558989	1135.658667	567.425781	391.304779
31163.558989	1135.658667	566.186523	243.050659
31163.558989	1135.658667	564.947266	269.789703
31163.558989	1135.658667	563.708008	339.191895
31163.558989	1135.658667	562.467773	227.359497
31163.558989	1135.658667	561.227539	111.335999
31163.558989	1135.658667	559.987305	357.687927
31163.558989	1135.658667	558.747070	354.664307
31163.558989	1135.658667	557.505859	296.277588
31163.558989	1135.658667	556.264648	137.838669
31163.558989	1135.658667	555.023438	258.439423
31163.558989	1135.658667	553.781250	276.823669
31163.558989	1135.658667	552.539063	139.848145
31163.558989	1135.658667	551.296875	-105.571159
31163.558989	1135.658667	550.054688	-146.617889
31163.558989	1135.658667	548.811523	139.946899
31163.558989	1135.658667	547.569336	67.016167
31163.558989	1135.658667	546.325195	-48.386417
31163.558989	1135.658667	545.082031	-27.666630
31163.558989	1135.658667	543.837891	-142.950958
31163.558989	1135.658667	542.593750	79.682480
31163.558989	1135.658667	541.349609	-16.407156
31163.558989	1135.658667	540.105469	-146.414444
31163.558989	1135.658667	538.860352	86.763840
31163.558989	1135.658667	537.615234	-0.705518
31163.558989	1135.658667	536.369141	64.706467
31163.558989	1135.658667	535.124023	15.521970
31163.558989	1135.658667	533.877930	178.542374
31163.558989	1135.658667	532.631836	50.914776
31163.558989	1135.658667	531.384766	-114.811386
31163.558989	1135.658667	530.138672	-79.019463
31163.558989	1135.658667	528.891602	-0.826986
31163.558989	1135.658667	527.643555	-22.258827
31163.558989	1135.658667	526.396484	-43.660450
31163.558989	1135.658667	525.148438	-96.812462
31163.558989	1135.658667	523.900391	-60.966560
31163.558989	1135.658667	522.652344	-105.585289
31163.558989	1135.658667	521.403320	-93.007019
31163.558989	1135.658667	520.154297	-55.018764
31163.558989	1135.658667	518.905273	23.176594
31163.558989	1135.658667	517.656250	29.419090
31163.558989	1135.658667	516.406250	-15.094589
31163.558989	1135.658667	515.156250	10.212606
31163.558989	1135.658667	513.906250	58.780209
31163.558989	1135.658667	512.655273	-89.256714
31163.558989	1135.658667	511.404297	-38.554665
31163.558989	1135.658667	510.153320	-55.479904
31163.558989	1135.658667	508.902344	-97.740532
31163.558989	1135.658667	507.650391	-91.398888
31163.558989	1135.658667	506.398438	-66.049187
31163.558989	1135.658667	505.146484	-40.705341
31163.558989	1135.658667	503.893555	18.402231
31163.558989	1135.658667	502.641602	-4.812401
31163.558989	1135.658667	501.388672	12.068997
31163.558989	1135.658667	500.134766	-181.993057
31163.558989	1135.658667	498.881836	33.154598
31163.558989	1135.658667	497.627930	12.057976
31163.558989	1135.658667	496.374023	130.095062
31163.558989	1135.658667	495.119141	66.824142
31163.558989	1135.658667	493.865234	87.857140
31163.558989	1135.658667	492.610352	-23.847090
31163.558989	1135.658667	491.355469	30.872431
31163.558989	1135.658667	490.099609	157.148895
31163.558989	1135.658667	488.843750	39.143162
31163.558989	1135.658667	487.587891	70.613998
31163.558989	1135.658667	486.332031	327.218536
31163.558989	1135.658667	485.075195	259.687317
31163.558989	1135.658667	483.818359	129.056961
31163.558989	1135.658667	482.561523	4.766629
31163.558989	1135.658667	481.304688	227.422409
31163.558989	1135.658667	480.046875	349.049408
31163.558989	1135.658667	478.789063	348.694794
31163.558989	1135.658667	477.531250	344.103058
31163.558989	1135.658667	476.272461	440.307831
31163.558989	1135.658667	475.013672	391.510406
31163.558989	1135.658667	473.754883	411.984406
31163.558989	1135.658667	472.496094	220.365601
31163.558989	1135.658667	471.236328	438.069031
31163.558989	1135.658667	469.976563	412.201996
31163.558989	1135.658667	468.716797	476.505554
31163.558989	1135.658667	467.456055	605.744934
31163.558989	1135.658667	466.196289	470.631012
31163.558989	1135.658667	464.935547	469.694275
31163.558989	1135.658667	463.673828	502.224976
31163.558989	1135.658667	462.413086	547.246704
31163.558989	1135.658667	461.151367	527.214966
31163.558989	1135.658667	459.889648	534.344116
31163.558989	1135.658667	458.626953	461.796875
31163.558989	1135.658667	457.364258	560.895874
31163.558989	1135.658667	456.101563	513.315796
31163.558989	1135.658667	454.838867	534.729309
31163.558989	1135.658667	453.575195	283.993591
31163.558989	1135.658667	452.312500	405.663635
31163.558989	1135.658667	451.047852	451.865936
31163.558989	1135.658667	449.784180	420.560699
31163.558989	1135.658667	448.519531	437.234253
31163.558989	1135.658667	447.254883	330.447357
31163.558989	1135.658667	445.990234	388.677521
31163.558989	1135.658667	444.725586	404.960785
31163.558989	1135.658667	443.459961	402.292328
31163.558989	1135.658667	442.194336	587.447632
31163.558989	1135.658667	440.927734	542.681152
31163.558989	1135.658667	439.662109	437.241089
31163.558989	1135.658667	438.395508	517.439209
31163.558989	1135.658667	437.127930	380.411987
31163.558989	1135.658667	435.861328	259.965485
31163.558989	1135.658667	434.593750	496.059814
31163.558989	1135.658667	433.326172	229.294540
31163.558989	1135.658667	432.058594	446.151703
31163.558989	1135.658667	430.790039	495.953888
31163.558989	1135.658667	429.521484	470.504883
31163.558989	1135.658667	428.252930	421.934601
31163.558989	1135.658667	426.984375	412.745056
31163.558989	1135.658667	425.714844	442.898224
31163.558989	1135.658667	424.445313	483.214447
31163.558989	1135.658667	423.174805	502.447083
31163.558989	1135.658667	421.905273	544.322998
31163.558989	1135.658667	420.634766	298.760956
31163.558989	1135.658667	419.364258	525.288452
31163.558989	1135.658667	418.092773	782.637756
31163.558989	1135.658667	416.822266	590.429382
31163.558989	1135.658667	415.550781	474.932281
31163.558989	1135.658667	414.278320	436.085571
31163.558989	1135.658667	413.006836	347.080780
31163.558989	1135.658667	411.734375	180.914490
31163.558989	1135.658667	410.461914	342.698456
31163.558989	1135.658667	409.188477	437.610352
31163.558989	1135.658667	407.916016	465.701385
31163.558989	1135.658667	406.642578	375.090424
31163.558989	1135.658667	405.368164	236.409454
31163.558989	1135.658667	404.094727	253.046631
31163.558989	1135.658667	402.820313	458.063904
31163.558989	1135.658667	401.545898	430.297089
31163.558989	1135.658667	400.270508	555.573853
31163.558989	1135.658667	398.996094	537.337585
31163.558989	1135.658667	397.720703	659.615784
31163.558989	1135.658667	396.444336	387.653168
31163.558989	1135.658667	395.168945	270.754730
31163.558989	1135.658667	393.892578	412.352570
31163.558989	1135.658667	392.616211	298.687500
31163.558989	1135.658667	391.339844	408.193787
31163.558989	1135.658667	390.062500	426.055908
31163.558989	1135.658667	388.785156	341.984833
31163.558989	1135.658667	387.507813	478.819366
31163.558989	1135.658667	386.229492	561.251892
31163.558989	1135.658667	384.951172	283.220306
31163.558989	1135.658667	383.672852	207.383057
31163.558989	1135.658667	382.394531	230.226517
31163.558989	1135.658667	381.115234	370.259613
31163.558989	1135.658667	379.835938	398.030334
31163.558989	1135.658667	378.556641	166.913910
31163.558989	1135.658667	377.277344	474.359528
31163.558989	1135.658667	375.997070	520.795105
31163.558989	1135.658667	374.716797	349.748840
31163.558989	1135.658667	373.435547	178.067017
31163.558989	1135.658667	372.155273	465.987488
31163.558989	1135.658667	370.874023	177.381119
31163.558989	1135.658667	369.591797	-27.283705
31163.558989	1135.658667	368.310547	82.949097
31163.558989	1135.658667	367.028320	173.780212
31163.558989	1135.658667	365.746094	57.629288
31163.558989	1135.658667	364.463867	216.897766
31163.558989	1135.658667	363.180664	146.518723
31163.558989	1135.658667	361.897461	15.577660
31163.558989	1135.658667	360.614258	306.063049
31163.558989	1135.658667	359.330078	-143.760040
31163.558989	1135.658667	358.045898	68.639221
31163.558989	1135.658667	356.761719	24.783487
31163.558989	1135.658667	355.477539	198.137482
31163.558989	1135.658667	354.192383	199.651642
31163.558989	1135.658667	352.907227	43.842564
31163.558989	1135.658667	351.622070	125.651512
31163.558989	1135.658667	350.336914	60.409073
31163.558989	1135.658667	349.050781	66.057350
31163.558989	1135.658667	347.764648	-13.638391
31163.558989	1135.658667	346.477539	187.070190
31163.558989	1135.658667	345.191406	43.530243
31163.558989	1135.658667	343.904297	52.911263
31163.558989	1135.658667	342.616211	128.843781
31163.558989	1135.658667	341.329102	-24.296608
31163.558989	1135.658667	340.041016	51.253811
31163.558989	1135.658667	338.752930	24.973497
31163.558989	1135.658667	337.463867	-60.052406
31163.558989	1135.658667	336.175781	-23.228605
31163.558989	1135.658667	334.886719	-260.532837
31163.558989	1135.658667	333.596680	126.209167
31163.558989	1135.658667	332.307617	48.181446
31163.558989	1135.658667	331.017578	-49.706497
31163.558989	1135.658667	329.727539	39.515015
31163.558989	1135.658667	328.436523	24.762836
31163.558989	1135.658667	327.146484	-50.822052
31163.558989	1135.658667	325.855469	95.244537
31163.558989	1135.658667	324.563477	-120.655502
31163.558989	1135.658667	323.272461	83.627205
31163.558989	1135.658667	321.980469	46.743412
31163.558989	1135.658667	320.688477	-224.993683
31163.558989	1135.658667	319.395508	35.497185
31163.558989	1135.658667	318.103516	-159.753677
31163.558989	1135.658667	316.810547	29.687716
31163.558989	1135.658667	315.516602	-146.625610
31163.558989	1135.658667	314.223633	-110.038834
31163.558989	1135.658667	312.929688	-153.011108
31163.558989	1135.658667	311.635742	49.320236
31163.558989	1135.658667	310.340820	-103.724419
31163.558989	1135.658667	309.045898	-172.899857
31163.558989	1135.658667	307.750977	107.079338
31163.558989	1135.658667	306.456055	160.411194
31163.558989	1135.658667	305.160156	91.200089
31163.558989	1135.658667	303.865234	13.870736
31163.558989	1135.658667	302.568359	64.821800
31163.558989	1135.658667	301.272461	352.221802
31163.558989	1135.658667	299.975586	445.566010
31163.558989	1135.658667	298.678711	255.335022
