#X		#Y		#Wave		#Intensity
23003.316277	3290.620667	1999.980469	15.625667
23003.316277	3290.620667	1999.016602	-21.071707
23003.316277	3290.620667	1998.052734	-7.928700
23003.316277	3290.620667	1997.087891	-2.675106
23003.316277	3290.620667	1996.123047	-44.948257
23003.316277	3290.620667	1995.158203	-0.938896
23003.316277	3290.620667	1994.193359	196.188385
23003.316277	3290.620667	1993.228516	-97.476349
23003.316277	3290.620667	1992.262695	-116.607513
23003.316277	3290.620667	1991.297852	34.671436
23003.316277	3290.620667	1990.332031	-2.571152
23003.316277	3290.620667	1989.366211	-27.795261
23003.316277	3290.620667	1988.399414	-135.003784
23003.316277	3290.620667	1987.433594	61.719151
23003.316277	3290.620667	1986.466797	-31.311852
23003.316277	3290.620667	1985.500977	228.944092
23003.316277	3290.620667	1984.534180	164.938507
23003.316277	3290.620667	1983.567383	-10.576670
23003.316277	3290.620667	1982.599609	194.249985
23003.316277	3290.620667	1981.632813	-46.032021
23003.316277	3290.620667	1980.665039	84.048080
23003.316277	3290.620667	1979.697266	105.136307
23003.316277	3290.620667	1978.729492	-54.313034
23003.316277	3290.620667	1977.761719	134.166885
23003.316277	3290.620667	1976.792969	-30.659201
23003.316277	3290.620667	1975.825195	-59.921268
23003.316277	3290.620667	1974.856445	80.864838
23003.316277	3290.620667	1973.887695	112.825150
23003.316277	3290.620667	1972.918945	6.428562
23003.316277	3290.620667	1971.949219	8.380256
23003.316277	3290.620667	1970.980469	-2.194467
23003.316277	3290.620667	1970.010742	36.350616
23003.316277	3290.620667	1969.041016	45.121300
23003.316277	3290.620667	1968.071289	16.746792
23003.316277	3290.620667	1967.101563	22.709663
23003.316277	3290.620667	1966.130859	62.996281
23003.316277	3290.620667	1965.161133	80.945076
23003.316277	3290.620667	1964.190430	226.790085
23003.316277	3290.620667	1963.219727	113.919434
23003.316277	3290.620667	1962.249023	20.647976
23003.316277	3290.620667	1961.277344	38.031910
23003.316277	3290.620667	1960.306641	-102.200958
23003.316277	3290.620667	1959.334961	124.075836
23003.316277	3290.620667	1958.363281	-33.571846
23003.316277	3290.620667	1957.391602	96.471886
23003.316277	3290.620667	1956.419922	91.126465
23003.316277	3290.620667	1955.447266	-54.445953
23003.316277	3290.620667	1954.474609	-15.709843
23003.316277	3290.620667	1953.501953	57.330021
23003.316277	3290.620667	1952.529297	-9.793188
23003.316277	3290.620667	1951.556641	97.448700
23003.316277	3290.620667	1950.583984	-173.668228
23003.316277	3290.620667	1949.610352	29.191761
23003.316277	3290.620667	1948.636719	-244.402863
23003.316277	3290.620667	1947.663086	4.908598
23003.316277	3290.620667	1946.689453	94.540421
23003.316277	3290.620667	1945.715820	31.947767
23003.316277	3290.620667	1944.741211	-30.673162
23003.316277	3290.620667	1943.767578	-14.819468
23003.316277	3290.620667	1942.792969	101.535751
23003.316277	3290.620667	1941.818359	-12.680039
23003.316277	3290.620667	1940.842773	191.813705
23003.316277	3290.620667	1939.868164	136.384048
23003.316277	3290.620667	1938.892578	78.493668
23003.316277	3290.620667	1937.916992	5.898873
23003.316277	3290.620667	1936.941406	-98.536972
23003.316277	3290.620667	1935.965820	147.293549
23003.316277	3290.620667	1934.990234	-47.771774
23003.316277	3290.620667	1934.013672	156.303589
23003.316277	3290.620667	1933.037109	-41.165878
23003.316277	3290.620667	1932.060547	82.046982
23003.316277	3290.620667	1931.083984	53.493427
23003.316277	3290.620667	1930.107422	-38.664032
23003.316277	3290.620667	1929.129883	96.696594
23003.316277	3290.620667	1928.153320	53.477634
23003.316277	3290.620667	1927.175781	56.734138
23003.316277	3290.620667	1926.198242	101.555382
23003.316277	3290.620667	1925.219727	-32.068798
23003.316277	3290.620667	1924.242188	61.643440
23003.316277	3290.620667	1923.263672	94.243919
23003.316277	3290.620667	1922.285156	-5.071981
23003.316277	3290.620667	1921.306641	10.457083
23003.316277	3290.620667	1920.328125	30.880468
23003.316277	3290.620667	1919.349609	56.194717
23003.316277	3290.620667	1918.370117	37.576714
23003.316277	3290.620667	1917.391602	11.663988
23003.316277	3290.620667	1916.412109	95.587158
23003.316277	3290.620667	1915.431641	133.144287
23003.316277	3290.620667	1914.452148	-2.475668
23003.316277	3290.620667	1913.472656	105.858932
23003.316277	3290.620667	1912.492188	155.655746
23003.316277	3290.620667	1911.511719	3.114039
23003.316277	3290.620667	1910.531250	126.086151
23003.316277	3290.620667	1909.550781	49.205631
23003.316277	3290.620667	1908.569336	72.277840
23003.316277	3290.620667	1907.588867	-172.596024
23003.316277	3290.620667	1906.607422	-25.217125
23003.316277	3290.620667	1905.625977	-99.463898
23003.316277	3290.620667	1904.644531	-212.608383
23003.316277	3290.620667	1903.662109	-79.822884
23003.316277	3290.620667	1902.680664	235.480499
23003.316277	3290.620667	1901.698242	-21.140015
23003.316277	3290.620667	1900.715820	148.120316
23003.316277	3290.620667	1899.733398	-127.785233
23003.316277	3290.620667	1898.750000	82.837120
23003.316277	3290.620667	1897.767578	-73.746590
23003.316277	3290.620667	1896.784180	44.469193
23003.316277	3290.620667	1895.800781	179.687225
23003.316277	3290.620667	1894.817383	-27.767382
23003.316277	3290.620667	1893.833984	-6.720959
23003.316277	3290.620667	1892.850586	82.367332
23003.316277	3290.620667	1891.866211	18.438227
23003.316277	3290.620667	1890.881836	114.834724
23003.316277	3290.620667	1889.897461	-14.569468
23003.316277	3290.620667	1888.913086	120.695992
23003.316277	3290.620667	1887.927734	-8.602022
23003.316277	3290.620667	1886.943359	-57.745529
23003.316277	3290.620667	1885.958008	9.607183
23003.316277	3290.620667	1884.972656	-107.382957
23003.316277	3290.620667	1883.987305	-139.421585
23003.316277	3290.620667	1883.001953	-113.227043
23003.316277	3290.620667	1882.015625	-171.866501
23003.316277	3290.620667	1881.029297	-7.468360
23003.316277	3290.620667	1880.042969	6.645418
23003.316277	3290.620667	1879.056641	-56.753429
23003.316277	3290.620667	1878.070313	13.129274
23003.316277	3290.620667	1877.083984	-258.490448
23003.316277	3290.620667	1876.096680	140.776245
23003.316277	3290.620667	1875.109375	188.858246
23003.316277	3290.620667	1874.122070	-121.308792
23003.316277	3290.620667	1873.134766	69.634613
23003.316277	3290.620667	1872.146484	23.392694
23003.316277	3290.620667	1871.159180	-61.521969
23003.316277	3290.620667	1870.170898	-27.866003
23003.316277	3290.620667	1869.182617	-47.410995
23003.316277	3290.620667	1868.194336	-115.291748
23003.316277	3290.620667	1867.205078	-76.766930
23003.316277	3290.620667	1866.216797	2.846641
23003.316277	3290.620667	1865.227539	101.773834
23003.316277	3290.620667	1864.238281	-108.584259
23003.316277	3290.620667	1863.249023	31.412830
23003.316277	3290.620667	1862.259766	26.454412
23003.316277	3290.620667	1861.269531	-75.083473
23003.316277	3290.620667	1860.279297	-169.335022
23003.316277	3290.620667	1859.290039	-176.647354
23003.316277	3290.620667	1858.298828	-7.779745
23003.316277	3290.620667	1857.308594	40.383072
23003.316277	3290.620667	1856.318359	66.816673
23003.316277	3290.620667	1855.327148	73.943916
23003.316277	3290.620667	1854.335938	-97.387108
23003.316277	3290.620667	1853.344727	-46.835857
23003.316277	3290.620667	1852.353516	-18.002232
23003.316277	3290.620667	1851.362305	-85.592598
23003.316277	3290.620667	1850.370117	29.976957
23003.316277	3290.620667	1849.377930	-47.249222
23003.316277	3290.620667	1848.385742	-23.283190
23003.316277	3290.620667	1847.393555	51.239948
23003.316277	3290.620667	1846.401367	-69.318825
23003.316277	3290.620667	1845.408203	-30.952847
23003.316277	3290.620667	1844.415039	149.399811
23003.316277	3290.620667	1843.421875	74.571785
23003.316277	3290.620667	1842.428711	55.095913
23003.316277	3290.620667	1841.435547	93.345833
23003.316277	3290.620667	1840.441406	13.704082
23003.316277	3290.620667	1839.448242	63.930794
23003.316277	3290.620667	1838.454102	-27.739857
23003.316277	3290.620667	1837.459961	147.427963
23003.316277	3290.620667	1836.464844	111.005165
23003.316277	3290.620667	1835.470703	79.376068
23003.316277	3290.620667	1834.475586	71.754143
23003.316277	3290.620667	1833.480469	68.910477
23003.316277	3290.620667	1832.485352	-106.877022
23003.316277	3290.620667	1831.490234	-6.500342
23003.316277	3290.620667	1830.495117	113.011810
23003.316277	3290.620667	1829.499023	150.834625
23003.316277	3290.620667	1828.502930	75.816475
23003.316277	3290.620667	1827.506836	139.950134
23003.316277	3290.620667	1826.510742	194.425659
23003.316277	3290.620667	1825.513672	90.542130
23003.316277	3290.620667	1824.517578	-30.128910
23003.316277	3290.620667	1823.520508	204.035477
23003.316277	3290.620667	1822.523438	20.975698
23003.316277	3290.620667	1821.526367	29.668924
23003.316277	3290.620667	1820.529297	76.649956
23003.316277	3290.620667	1819.531250	94.814323
23003.316277	3290.620667	1818.533203	33.878017
23003.316277	3290.620667	1817.535156	51.942253
23003.316277	3290.620667	1816.537109	-92.869270
23003.316277	3290.620667	1815.539063	-41.379143
23003.316277	3290.620667	1814.540039	-35.443035
23003.316277	3290.620667	1813.541992	118.803703
23003.316277	3290.620667	1812.542969	143.733994
23003.316277	3290.620667	1811.543945	161.418716
23003.316277	3290.620667	1810.543945	296.224670
23003.316277	3290.620667	1809.544922	67.458382
23003.316277	3290.620667	1808.544922	185.371262
23003.316277	3290.620667	1807.544922	54.584278
23003.316277	3290.620667	1806.544922	189.053223
23003.316277	3290.620667	1805.544922	65.350159
23003.316277	3290.620667	1804.544922	96.907463
23003.316277	3290.620667	1803.543945	-0.598866
23003.316277	3290.620667	1802.542969	243.350937
23003.316277	3290.620667	1801.541992	59.758640
23003.316277	3290.620667	1800.541016	239.006882
23003.316277	3290.620667	1799.539063	-90.252983
23003.316277	3290.620667	1798.538086	138.916031
23003.316277	3290.620667	1797.536133	17.210321
23003.316277	3290.620667	1796.534180	74.371788
23003.316277	3290.620667	1795.532227	129.047791
23003.316277	3290.620667	1794.529297	133.547592
23003.316277	3290.620667	1793.527344	178.494522
23003.316277	3290.620667	1792.524414	220.955383
23003.316277	3290.620667	1791.521484	79.819984
23003.316277	3290.620667	1790.518555	98.289482
23003.316277	3290.620667	1789.514648	190.509705
23003.316277	3290.620667	1788.511719	94.456436
23003.316277	3290.620667	1787.507813	-68.326744
23003.316277	3290.620667	1786.503906	-47.814743
23003.316277	3290.620667	1785.500000	201.114532
23003.316277	3290.620667	1784.496094	142.850800
23003.316277	3290.620667	1783.491211	86.892990
23003.316277	3290.620667	1782.486328	11.831030
23003.316277	3290.620667	1781.481445	74.660141
23003.316277	3290.620667	1780.476563	89.810143
23003.316277	3290.620667	1779.471680	202.341705
23003.316277	3290.620667	1778.465820	27.088383
23003.316277	3290.620667	1777.460938	243.973343
23003.316277	3290.620667	1776.455078	-21.715464
23003.316277	3290.620667	1775.449219	142.626282
23003.316277	3290.620667	1774.442383	-106.517784
23003.316277	3290.620667	1773.436523	-35.044956
23003.316277	3290.620667	1772.429688	131.273422
23003.316277	3290.620667	1771.422852	24.412252
23003.316277	3290.620667	1770.416016	102.629654
23003.316277	3290.620667	1769.409180	24.085114
23003.316277	3290.620667	1768.402344	92.573898
23003.316277	3290.620667	1767.394531	-97.647499
23003.316277	3290.620667	1766.386719	207.800705
23003.316277	3290.620667	1765.378906	-124.862366
23003.316277	3290.620667	1764.371094	73.571724
23003.316277	3290.620667	1763.362305	94.034912
23003.316277	3290.620667	1762.354492	76.468224
23003.316277	3290.620667	1761.345703	153.574905
23003.316277	3290.620667	1760.336914	31.540134
23003.316277	3290.620667	1759.328125	219.732574
23003.316277	3290.620667	1758.318359	83.295677
23003.316277	3290.620667	1757.308594	112.540955
23003.316277	3290.620667	1756.299805	77.753021
23003.316277	3290.620667	1755.290039	-92.048615
23003.316277	3290.620667	1754.279297	-51.297276
23003.316277	3290.620667	1753.269531	-110.037193
23003.316277	3290.620667	1752.258789	207.237854
23003.316277	3290.620667	1751.249023	268.861053
23003.316277	3290.620667	1750.238281	77.330421
23003.316277	3290.620667	1749.226563	60.696144
23003.316277	3290.620667	1748.215820	-22.222548
23003.316277	3290.620667	1747.204102	-46.150864
23003.316277	3290.620667	1746.193359	135.384201
23003.316277	3290.620667	1745.181641	11.986169
23003.316277	3290.620667	1744.168945	-31.185329
23003.316277	3290.620667	1743.157227	-157.097961
23003.316277	3290.620667	1742.144531	35.644131
23003.316277	3290.620667	1741.132813	-10.207495
23003.316277	3290.620667	1740.120117	-84.488808
23003.316277	3290.620667	1739.106445	32.262684
23003.316277	3290.620667	1738.093750	101.678131
23003.316277	3290.620667	1737.080078	-10.680590
23003.316277	3290.620667	1736.067383	79.705856
23003.316277	3290.620667	1735.053711	-18.693813
23003.316277	3290.620667	1734.040039	-34.665764
23003.316277	3290.620667	1733.025391	-152.105850
23003.316277	3290.620667	1732.011719	-104.655922
23003.316277	3290.620667	1730.997070	-22.010157
23003.316277	3290.620667	1729.982422	-200.983490
23003.316277	3290.620667	1728.967773	126.346062
23003.316277	3290.620667	1727.952148	170.862457
23003.316277	3290.620667	1726.937500	149.336182
23003.316277	3290.620667	1725.921875	-41.780468
23003.316277	3290.620667	1724.906250	54.164013
23003.316277	3290.620667	1723.890625	41.721600
23003.316277	3290.620667	1722.875000	47.987255
23003.316277	3290.620667	1721.858398	49.419594
23003.316277	3290.620667	1720.841797	43.679440
23003.316277	3290.620667	1719.825195	44.878414
23003.316277	3290.620667	1718.808594	36.557835
23003.316277	3290.620667	1717.791992	-16.528065
23003.316277	3290.620667	1716.774414	-76.769737
23003.316277	3290.620667	1715.756836	-26.687372
23003.316277	3290.620667	1714.739258	173.584656
23003.316277	3290.620667	1713.721680	167.007675
23003.316277	3290.620667	1712.704102	-36.905197
23003.316277	3290.620667	1711.685547	-128.188400
23003.316277	3290.620667	1710.667969	163.026993
23003.316277	3290.620667	1709.649414	83.246803
23003.316277	3290.620667	1708.630859	-71.691849
23003.316277	3290.620667	1707.611328	-17.930201
23003.316277	3290.620667	1706.592773	-4.158947
23003.316277	3290.620667	1705.573242	-166.374023
23003.316277	3290.620667	1704.553711	-103.582527
23003.316277	3290.620667	1703.534180	-12.800501
23003.316277	3290.620667	1702.513672	68.451515
23003.316277	3290.620667	1701.494141	39.454620
23003.316277	3290.620667	1700.473633	-45.873001
23003.316277	3290.620667	1699.453125	-65.698997
23003.316277	3290.620667	1698.432617	-3.667238
23003.316277	3290.620667	1697.412109	224.455383
23003.316277	3290.620667	1696.390625	84.878304
23003.316277	3290.620667	1695.369141	95.025146
23003.316277	3290.620667	1694.347656	-14.267423
23003.316277	3290.620667	1693.326172	9.720100
23003.316277	3290.620667	1692.304688	82.713089
23003.316277	3290.620667	1691.282227	97.099297
23003.316277	3290.620667	1690.260742	-47.595688
23003.316277	3290.620667	1689.238281	-5.344272
23003.316277	3290.620667	1688.214844	41.450779
23003.316277	3290.620667	1687.192383	8.693583
23003.316277	3290.620667	1686.168945	-119.949112
23003.316277	3290.620667	1685.146484	-1.034727
23003.316277	3290.620667	1684.123047	197.122696
23003.316277	3290.620667	1683.099609	138.269394
23003.316277	3290.620667	1682.075195	287.093201
23003.316277	3290.620667	1681.051758	181.374420
23003.316277	3290.620667	1680.027344	229.600113
23003.316277	3290.620667	1679.002930	266.049133
23003.316277	3290.620667	1677.978516	458.676544
23003.316277	3290.620667	1676.953125	254.652344
23003.316277	3290.620667	1675.928711	328.107269
23003.316277	3290.620667	1674.903320	403.760071
23003.316277	3290.620667	1673.877930	125.007263
23003.316277	3290.620667	1672.852539	368.281555
23003.316277	3290.620667	1671.826172	252.548492
23003.316277	3290.620667	1670.800781	346.443573
23003.316277	3290.620667	1669.774414	384.304993
23003.316277	3290.620667	1668.748047	245.095108
23003.316277	3290.620667	1667.721680	285.122681
23003.316277	3290.620667	1666.694336	243.568771
23003.316277	3290.620667	1665.667969	322.981781
23003.316277	3290.620667	1664.640625	295.236359
23003.316277	3290.620667	1663.613281	288.360748
23003.316277	3290.620667	1662.585938	311.646149
23003.316277	3290.620667	1661.557617	476.682526
23003.316277	3290.620667	1660.530273	478.846222
23003.316277	3290.620667	1659.501953	532.059082
23003.316277	3290.620667	1658.473633	561.937622
23003.316277	3290.620667	1657.444336	535.949524
23003.316277	3290.620667	1656.416016	465.775421
23003.316277	3290.620667	1655.386719	562.781982
23003.316277	3290.620667	1654.358398	518.037720
23003.316277	3290.620667	1653.328125	405.878357
23003.316277	3290.620667	1652.298828	688.350586
23003.316277	3290.620667	1651.269531	840.675964
23003.316277	3290.620667	1650.239258	674.953674
23003.316277	3290.620667	1649.208984	982.524475
23003.316277	3290.620667	1648.178711	786.561646
23003.316277	3290.620667	1647.148438	838.764648
23003.316277	3290.620667	1646.117188	814.355652
23003.316277	3290.620667	1645.086914	884.964722
23003.316277	3290.620667	1644.055664	830.312012
23003.316277	3290.620667	1643.024414	875.272949
23003.316277	3290.620667	1641.992188	1042.943359
23003.316277	3290.620667	1640.960938	1092.373779
23003.316277	3290.620667	1639.928711	1220.462769
23003.316277	3290.620667	1638.896484	1142.367920
23003.316277	3290.620667	1637.864258	1369.851563
23003.316277	3290.620667	1636.832031	1131.952271
23003.316277	3290.620667	1635.798828	1278.244141
23003.316277	3290.620667	1634.766602	1079.701172
23003.316277	3290.620667	1633.733398	1445.626587
23003.316277	3290.620667	1632.699219	1392.722900
23003.316277	3290.620667	1631.666016	1404.564941
23003.316277	3290.620667	1630.632813	1555.083130
23003.316277	3290.620667	1629.598633	1377.253174
23003.316277	3290.620667	1628.564453	1573.851440
23003.316277	3290.620667	1627.530273	1754.166382
23003.316277	3290.620667	1626.495117	1862.745850
23003.316277	3290.620667	1625.460938	1869.641357
23003.316277	3290.620667	1624.425781	1807.210449
23003.316277	3290.620667	1623.390625	1897.158325
23003.316277	3290.620667	1622.355469	2176.332520
23003.316277	3290.620667	1621.319336	2256.874023
23003.316277	3290.620667	1620.284180	2293.536865
23003.316277	3290.620667	1619.248047	2311.689453
23003.316277	3290.620667	1618.211914	2267.536865
23003.316277	3290.620667	1617.174805	2340.978516
23003.316277	3290.620667	1616.138672	2315.246582
23003.316277	3290.620667	1615.101563	2443.944092
23003.316277	3290.620667	1614.065430	2378.990967
23003.316277	3290.620667	1613.027344	2673.493408
23003.316277	3290.620667	1611.990234	2500.197021
23003.316277	3290.620667	1610.953125	2407.578857
23003.316277	3290.620667	1609.915039	2420.910156
23003.316277	3290.620667	1608.876953	2680.601318
23003.316277	3290.620667	1607.838867	2535.016602
23003.316277	3290.620667	1606.800781	2741.637695
23003.316277	3290.620667	1605.761719	2639.798340
23003.316277	3290.620667	1604.723633	2749.684570
23003.316277	3290.620667	1603.684570	2822.707275
23003.316277	3290.620667	1602.644531	2518.510498
23003.316277	3290.620667	1601.605469	2807.700195
23003.316277	3290.620667	1600.566406	2666.878174
23003.316277	3290.620667	1599.526367	2703.086914
23003.316277	3290.620667	1598.486328	2387.685791
23003.316277	3290.620667	1597.446289	2272.311035
23003.316277	3290.620667	1596.405273	2283.320313
23003.316277	3290.620667	1595.365234	2645.754150
23003.316277	3290.620667	1594.324219	2576.345459
23003.316277	3290.620667	1593.283203	2594.221680
23003.316277	3290.620667	1592.242188	2442.250977
23003.316277	3290.620667	1591.200195	2568.028564
23003.316277	3290.620667	1590.159180	2624.962402
23003.316277	3290.620667	1589.117188	2525.884766
23003.316277	3290.620667	1588.075195	2695.218506
23003.316277	3290.620667	1587.032227	2626.010986
23003.316277	3290.620667	1585.990234	2549.997070
23003.316277	3290.620667	1584.947266	2485.484863
23003.316277	3290.620667	1583.904297	2702.918701
23003.316277	3290.620667	1582.861328	2819.481689
23003.316277	3290.620667	1581.818359	2913.123047
23003.316277	3290.620667	1580.775391	3192.289063
23003.316277	3290.620667	1579.731445	3249.236572
23003.316277	3290.620667	1578.687500	3349.702148
23003.316277	3290.620667	1577.643555	3173.187744
23003.316277	3290.620667	1576.598633	3225.631836
23003.316277	3290.620667	1575.554688	3262.098145
23003.316277	3290.620667	1574.509766	3115.557373
23003.316277	3290.620667	1573.464844	2998.856201
23003.316277	3290.620667	1572.419922	3028.607178
23003.316277	3290.620667	1571.374023	3154.406982
23003.316277	3290.620667	1570.329102	2976.193848
23003.316277	3290.620667	1569.283203	2923.789307
23003.316277	3290.620667	1568.237305	2926.300293
23003.316277	3290.620667	1567.191406	2782.650879
23003.316277	3290.620667	1566.144531	2575.141846
23003.316277	3290.620667	1565.098633	2849.651855
23003.316277	3290.620667	1564.051758	2852.390137
23003.316277	3290.620667	1563.004883	2807.248779
23003.316277	3290.620667	1561.957031	2600.125000
23003.316277	3290.620667	1560.910156	2959.078369
23003.316277	3290.620667	1559.862305	2638.062500
23003.316277	3290.620667	1558.814453	2663.955811
23003.316277	3290.620667	1557.766602	2854.109131
23003.316277	3290.620667	1556.718750	2519.829834
23003.316277	3290.620667	1555.669922	2420.544189
23003.316277	3290.620667	1554.621094	2474.079590
23003.316277	3290.620667	1553.573242	2596.046875
23003.316277	3290.620667	1552.523438	2515.240967
23003.316277	3290.620667	1551.474609	2427.726074
23003.316277	3290.620667	1550.424805	2035.133057
23003.316277	3290.620667	1549.375000	2086.787354
23003.316277	3290.620667	1548.325195	2118.014404
23003.316277	3290.620667	1547.275391	1876.181885
23003.316277	3290.620667	1546.225586	1805.203125
23003.316277	3290.620667	1545.174805	1879.935059
23003.316277	3290.620667	1544.124023	1831.889893
23003.316277	3290.620667	1543.073242	1831.712402
23003.316277	3290.620667	1542.022461	1747.493652
23003.316277	3290.620667	1540.970703	1406.490601
23003.316277	3290.620667	1539.919922	1404.399780
23003.316277	3290.620667	1538.868164	1504.652222
23003.316277	3290.620667	1537.815430	1398.189941
23003.316277	3290.620667	1536.763672	1298.696289
23003.316277	3290.620667	1535.710938	1308.342285
23003.316277	3290.620667	1534.659180	1025.176147
23003.316277	3290.620667	1533.606445	1434.639526
23003.316277	3290.620667	1532.552734	1156.275879
23003.316277	3290.620667	1531.500000	1091.460205
23003.316277	3290.620667	1530.446289	1167.435425
23003.316277	3290.620667	1529.393555	1130.075928
23003.316277	3290.620667	1528.338867	1067.865112
23003.316277	3290.620667	1527.285156	1209.882446
23003.316277	3290.620667	1526.231445	1084.432617
23003.316277	3290.620667	1525.176758	1169.931641
23003.316277	3290.620667	1524.122070	1112.738281
23003.316277	3290.620667	1523.067383	962.783447
23003.316277	3290.620667	1522.012695	991.964722
23003.316277	3290.620667	1520.957031	871.755371
23003.316277	3290.620667	1519.901367	987.213867
23003.316277	3290.620667	1518.845703	869.553223
23003.316277	3290.620667	1517.790039	876.554749
23003.316277	3290.620667	1516.734375	1010.407043
23003.316277	3290.620667	1515.677734	1031.185425
23003.316277	3290.620667	1514.621094	1244.365845
23003.316277	3290.620667	1513.564453	1000.711792
23003.316277	3290.620667	1512.507813	1320.344604
23003.316277	3290.620667	1511.450195	1099.622192
23003.316277	3290.620667	1510.393555	1215.926392
23003.316277	3290.620667	1509.335938	1508.579834
23003.316277	3290.620667	1508.278320	1376.458862
23003.316277	3290.620667	1507.219727	1230.955200
23003.316277	3290.620667	1506.162109	1566.738525
23003.316277	3290.620667	1505.103516	1267.964478
23003.316277	3290.620667	1504.044922	1041.691528
23003.316277	3290.620667	1502.986328	960.107971
23003.316277	3290.620667	1501.926758	874.169739
23003.316277	3290.620667	1500.868164	619.183838
23003.316277	3290.620667	1499.808594	601.300293
23003.316277	3290.620667	1498.749023	527.176392
23003.316277	3290.620667	1497.688477	205.158035
23003.316277	3290.620667	1496.628906	255.425217
23003.316277	3290.620667	1495.568359	188.589920
23003.316277	3290.620667	1494.507813	112.910423
23003.316277	3290.620667	1493.447266	105.000801
23003.316277	3290.620667	1492.386719	-33.423336
23003.316277	3290.620667	1491.325195	-203.187210
23003.316277	3290.620667	1490.263672	-111.517494
23003.316277	3290.620667	1489.202148	-51.256256
23003.316277	3290.620667	1488.140625	-11.131269
23003.316277	3290.620667	1487.079102	251.933365
23003.316277	3290.620667	1486.016602	177.518326
23003.316277	3290.620667	1484.954102	-4.701487
23003.316277	3290.620667	1483.891602	51.720867
23003.316277	3290.620667	1482.829102	-238.034271
23003.316277	3290.620667	1481.765625	39.049858
23003.316277	3290.620667	1480.702148	1.485396
23003.316277	3290.620667	1479.638672	-6.690914
23003.316277	3290.620667	1478.575195	412.185577
23003.316277	3290.620667	1477.511719	112.230721
23003.316277	3290.620667	1476.447266	153.905258
23003.316277	3290.620667	1475.382813	213.736160
23003.316277	3290.620667	1474.318359	15.514013
23003.316277	3290.620667	1473.253906	405.567474
23003.316277	3290.620667	1472.189453	535.277893
23003.316277	3290.620667	1471.124023	359.975861
23003.316277	3290.620667	1470.058594	541.515686
23003.316277	3290.620667	1468.993164	696.228882
23003.316277	3290.620667	1467.927734	718.936157
23003.316277	3290.620667	1466.861328	743.816406
23003.316277	3290.620667	1465.794922	751.273926
23003.316277	3290.620667	1464.728516	888.336487
23003.316277	3290.620667	1463.662109	844.400085
23003.316277	3290.620667	1462.594727	1106.983765
23003.316277	3290.620667	1461.528320	1123.795654
23003.316277	3290.620667	1460.460938	1062.678467
23003.316277	3290.620667	1459.393555	1285.647095
23003.316277	3290.620667	1458.326172	1262.140137
23003.316277	3290.620667	1457.257813	1239.694214
23003.316277	3290.620667	1456.189453	968.966919
23003.316277	3290.620667	1455.121094	1184.964600
23003.316277	3290.620667	1454.052734	1046.560425
23003.316277	3290.620667	1452.984375	960.544800
23003.316277	3290.620667	1451.915039	1084.486084
23003.316277	3290.620667	1450.845703	820.809692
23003.316277	3290.620667	1449.776367	689.329407
23003.316277	3290.620667	1448.707031	794.080505
23003.316277	3290.620667	1447.636719	649.322510
23003.316277	3290.620667	1446.567383	784.010681
23003.316277	3290.620667	1445.497070	863.964722
23003.316277	3290.620667	1444.425781	644.080750
23003.316277	3290.620667	1443.355469	821.991821
23003.316277	3290.620667	1442.285156	823.698914
23003.316277	3290.620667	1441.213867	852.659485
23003.316277	3290.620667	1440.142578	877.426270
23003.316277	3290.620667	1439.070313	1057.189575
23003.316277	3290.620667	1437.999023	852.710571
23003.316277	3290.620667	1436.926758	1055.530151
23003.316277	3290.620667	1435.854492	872.312683
23003.316277	3290.620667	1434.782227	969.045349
23003.316277	3290.620667	1433.709961	1009.634338
23003.316277	3290.620667	1432.636719	899.572571
23003.316277	3290.620667	1431.563477	798.219971
23003.316277	3290.620667	1430.490234	750.195557
23003.316277	3290.620667	1429.416992	724.538269
23003.316277	3290.620667	1428.343750	652.001953
23003.316277	3290.620667	1427.269531	396.759918
23003.316277	3290.620667	1426.195313	470.924042
23003.316277	3290.620667	1425.121094	399.414154
23003.316277	3290.620667	1424.046875	628.294495
23003.316277	3290.620667	1422.971680	466.602264
23003.316277	3290.620667	1421.896484	389.516022
23003.316277	3290.620667	1420.821289	146.481888
23003.316277	3290.620667	1419.746094	208.030899
23003.316277	3290.620667	1418.669922	408.518127
23003.316277	3290.620667	1417.594727	309.460358
23003.316277	3290.620667	1416.518555	315.450958
23003.316277	3290.620667	1415.442383	507.190002
23003.316277	3290.620667	1414.365234	437.516510
23003.316277	3290.620667	1413.289063	269.779022
23003.316277	3290.620667	1412.211914	226.389420
23003.316277	3290.620667	1411.134766	196.060776
23003.316277	3290.620667	1410.057617	19.077894
23003.316277	3290.620667	1408.979492	169.137955
23003.316277	3290.620667	1407.902344	63.956966
23003.316277	3290.620667	1406.824219	33.934662
23003.316277	3290.620667	1405.746094	146.912155
23003.316277	3290.620667	1404.666992	268.304962
23003.316277	3290.620667	1403.588867	402.277985
23003.316277	3290.620667	1402.509766	409.909882
23003.316277	3290.620667	1401.430664	473.818420
23003.316277	3290.620667	1400.351563	542.387878
23003.316277	3290.620667	1399.271484	540.458313
23003.316277	3290.620667	1398.192383	541.454773
23003.316277	3290.620667	1397.112305	490.115540
23003.316277	3290.620667	1396.031250	628.151489
23003.316277	3290.620667	1394.951172	542.887085
23003.316277	3290.620667	1393.871094	567.374512
23003.316277	3290.620667	1392.790039	581.245605
23003.316277	3290.620667	1391.708984	704.548340
23003.316277	3290.620667	1390.626953	678.043823
23003.316277	3290.620667	1389.545898	694.906433
23003.316277	3290.620667	1388.463867	686.683411
23003.316277	3290.620667	1387.381836	794.620361
23003.316277	3290.620667	1386.299805	667.028076
23003.316277	3290.620667	1385.217773	471.413757
23003.316277	3290.620667	1384.134766	689.147644
23003.316277	3290.620667	1383.051758	709.305603
23003.316277	3290.620667	1381.968750	765.725891
23003.316277	3290.620667	1380.885742	756.095276
23003.316277	3290.620667	1379.802734	695.085876
23003.316277	3290.620667	1378.718750	1058.898682
23003.316277	3290.620667	1377.634766	959.455444
23003.316277	3290.620667	1376.550781	927.218384
23003.316277	3290.620667	1375.465820	580.667114
23003.316277	3290.620667	1374.381836	608.170227
23003.316277	3290.620667	1373.296875	525.771912
23003.316277	3290.620667	1372.211914	478.720428
23003.316277	3290.620667	1371.126953	648.297119
23003.316277	3290.620667	1370.041016	594.556580
23003.316277	3290.620667	1368.955078	674.456482
23003.316277	3290.620667	1367.869141	832.249878
23003.316277	3290.620667	1366.783203	775.894958
23003.316277	3290.620667	1365.697266	1013.727661
23003.316277	3290.620667	1364.610352	642.762207
23003.316277	3290.620667	1363.523438	581.230896
23003.316277	3290.620667	1362.436523	601.437561
23003.316277	3290.620667	1361.349609	567.537476
23003.316277	3290.620667	1360.261719	754.053101
23003.316277	3290.620667	1359.174805	849.986755
23003.316277	3290.620667	1358.086914	886.068787
23003.316277	3290.620667	1356.998047	679.179504
23003.316277	3290.620667	1355.910156	741.261841
23003.316277	3290.620667	1354.821289	1060.290161
23003.316277	3290.620667	1353.732422	1031.971069
23003.316277	3290.620667	1352.643555	1021.296753
23003.316277	3290.620667	1351.554688	1022.782898
23003.316277	3290.620667	1350.464844	756.705750
23003.316277	3290.620667	1349.375000	790.054749
23003.316277	3290.620667	1348.285156	1033.533936
23003.316277	3290.620667	1347.195313	891.025085
23003.316277	3290.620667	1346.105469	866.472351
23003.316277	3290.620667	1345.014648	994.746521
23003.316277	3290.620667	1343.923828	812.792297
23003.316277	3290.620667	1342.833008	950.444580
23003.316277	3290.620667	1341.741211	783.227600
23003.316277	3290.620667	1340.650391	766.691223
23003.316277	3290.620667	1339.558594	614.392029
23003.316277	3290.620667	1338.466797	615.140381
23003.316277	3290.620667	1337.374023	774.168030
23003.316277	3290.620667	1336.282227	624.771912
23003.316277	3290.620667	1335.189453	689.235046
23003.316277	3290.620667	1334.096680	673.975708
23003.316277	3290.620667	1333.003906	522.780884
23003.316277	3290.620667	1331.910156	690.754883
23003.316277	3290.620667	1330.817383	465.056702
23003.316277	3290.620667	1329.723633	582.243896
23003.316277	3290.620667	1328.629883	679.268372
23003.316277	3290.620667	1327.535156	640.535583
23003.316277	3290.620667	1326.441406	581.528015
23003.316277	3290.620667	1325.346680	405.664276
23003.316277	3290.620667	1324.251953	333.427124
23003.316277	3290.620667	1323.156250	667.512390
23003.316277	3290.620667	1322.061523	626.934937
23003.316277	3290.620667	1320.965820	739.120972
23003.316277	3290.620667	1319.870117	711.205139
23003.316277	3290.620667	1318.774414	769.466553
23003.316277	3290.620667	1317.678711	853.213379
23003.316277	3290.620667	1316.582031	885.846191
23003.316277	3290.620667	1315.485352	923.228699
23003.316277	3290.620667	1314.388672	952.646790
23003.316277	3290.620667	1313.291016	1097.036255
23003.316277	3290.620667	1312.194336	1174.138794
23003.316277	3290.620667	1311.096680	1069.859863
23003.316277	3290.620667	1309.999023	1119.002930
23003.316277	3290.620667	1308.901367	1236.430176
23003.316277	3290.620667	1307.802734	1183.277954
23003.316277	3290.620667	1306.705078	1157.718750
23003.316277	3290.620667	1305.606445	1089.949707
23003.316277	3290.620667	1304.506836	1323.973633
23003.316277	3290.620667	1303.408203	1321.408691
23003.316277	3290.620667	1302.308594	1094.937012
23003.316277	3290.620667	1301.208984	1266.683838
23003.316277	3290.620667	1300.109375	1290.441650
23003.316277	3290.620667	1299.009766	1156.621460
23003.316277	3290.620667	1297.909180	1184.918701
23003.316277	3290.620667	1296.808594	926.242737
23003.316277	3290.620667	1295.708008	878.324463
23003.316277	3290.620667	1294.607422	980.069885
23003.316277	3290.620667	1293.506836	1013.847717
23003.316277	3290.620667	1292.405273	799.678162
23003.316277	3290.620667	1291.303711	588.218018
23003.316277	3290.620667	1290.202148	618.322449
23003.316277	3290.620667	1289.099609	685.270630
23003.316277	3290.620667	1287.998047	567.941467
23003.316277	3290.620667	1286.895508	653.145813
23003.316277	3290.620667	1285.792969	439.134918
23003.316277	3290.620667	1284.689453	243.264297
23003.316277	3290.620667	1283.586914	402.289490
23003.316277	3290.620667	1282.483398	307.920074
23003.316277	3290.620667	1281.379883	354.465698
23003.316277	3290.620667	1280.276367	228.069550
23003.316277	3290.620667	1279.171875	197.908661
23003.316277	3290.620667	1278.067383	166.590378
23003.316277	3290.620667	1276.962891	151.952209
23003.316277	3290.620667	1275.858398	8.032767
23003.316277	3290.620667	1274.753906	57.074818
23003.316277	3290.620667	1273.648438	89.651154
23003.316277	3290.620667	1272.542969	71.173584
23003.316277	3290.620667	1271.437500	61.311600
23003.316277	3290.620667	1270.331055	-45.614799
23003.316277	3290.620667	1269.225586	-33.102287
23003.316277	3290.620667	1268.119141	191.377274
23003.316277	3290.620667	1267.012695	286.055786
23003.316277	3290.620667	1265.906250	-22.081816
23003.316277	3290.620667	1264.798828	17.124481
23003.316277	3290.620667	1263.691406	154.373276
23003.316277	3290.620667	1262.583984	28.486403
23003.316277	3290.620667	1261.476563	235.889236
23003.316277	3290.620667	1260.368164	20.971416
23003.316277	3290.620667	1259.260742	166.914368
23003.316277	3290.620667	1258.152344	0.646247
23003.316277	3290.620667	1257.043945	-46.170677
23003.316277	3290.620667	1255.934570	81.781075
23003.316277	3290.620667	1254.825195	50.297508
23003.316277	3290.620667	1253.716797	7.270275
23003.316277	3290.620667	1252.606445	237.222061
23003.316277	3290.620667	1251.497070	-21.009306
23003.316277	3290.620667	1250.387695	-14.373873
23003.316277	3290.620667	1249.277344	140.234039
23003.316277	3290.620667	1248.166992	70.061516
23003.316277	3290.620667	1247.055664	141.986725
23003.316277	3290.620667	1245.945313	156.928925
23003.316277	3290.620667	1244.833984	71.409523
23003.316277	3290.620667	1243.722656	101.736092
23003.316277	3290.620667	1242.611328	224.364319
23003.316277	3290.620667	1241.499023	58.947819
23003.316277	3290.620667	1240.387695	163.624527
23003.316277	3290.620667	1239.275391	110.621025
23003.316277	3290.620667	1238.162109	150.984818
23003.316277	3290.620667	1237.049805	300.523743
23003.316277	3290.620667	1235.936523	293.955597
23003.316277	3290.620667	1234.823242	166.628021
23003.316277	3290.620667	1233.709961	301.827728
23003.316277	3290.620667	1232.596680	348.386444
23003.316277	3290.620667	1231.482422	343.338684
23003.316277	3290.620667	1230.369141	357.171997
23003.316277	3290.620667	1229.253906	402.042419
23003.316277	3290.620667	1228.139648	195.309830
23003.316277	3290.620667	1227.025391	338.953186
23003.316277	3290.620667	1225.910156	358.853638
23003.316277	3290.620667	1224.794922	416.315887
23003.316277	3290.620667	1223.679688	231.881638
23003.316277	3290.620667	1222.563477	424.182068
23003.316277	3290.620667	1221.447266	222.975021
23003.316277	3290.620667	1220.331055	205.148895
23003.316277	3290.620667	1219.214844	69.642860
23003.316277	3290.620667	1218.098633	306.413666
23003.316277	3290.620667	1216.981445	253.679382
23003.316277	3290.620667	1215.864258	239.291718
23003.316277	3290.620667	1214.747070	48.454487
23003.316277	3290.620667	1213.629883	203.761215
23003.316277	3290.620667	1212.511719	104.939674
23003.316277	3290.620667	1211.393555	110.823097
23003.316277	3290.620667	1210.275391	104.236450
23003.316277	3290.620667	1209.157227	17.151197
23003.316277	3290.620667	1208.038086	36.323364
23003.316277	3290.620667	1206.918945	34.721062
23003.316277	3290.620667	1205.799805	42.104836
23003.316277	3290.620667	1204.680664	46.838753
23003.316277	3290.620667	1203.560547	-32.280224
23003.316277	3290.620667	1202.441406	173.163177
23003.316277	3290.620667	1201.321289	-6.997690
23003.316277	3290.620667	1200.200195	18.879490
23003.316277	3290.620667	1199.080078	18.085207
23003.316277	3290.620667	1197.958984	-66.246582
23003.316277	3290.620667	1196.837891	-51.117172
23003.316277	3290.620667	1195.716797	51.689144
23003.316277	3290.620667	1194.594727	-52.704716
23003.316277	3290.620667	1193.473633	79.875916
23003.316277	3290.620667	1192.351563	-68.541771
23003.316277	3290.620667	1191.229492	-306.578949
23003.316277	3290.620667	1190.106445	-74.146042
23003.316277	3290.620667	1188.984375	50.633167
23003.316277	3290.620667	1187.861328	-8.357015
23003.316277	3290.620667	1186.738281	-114.945572
23003.316277	3290.620667	1185.614258	-81.932709
23003.316277	3290.620667	1184.491211	17.535698
23003.316277	3290.620667	1183.367188	46.245022
23003.316277	3290.620667	1182.243164	-54.754612
23003.316277	3290.620667	1181.119141	45.686195
23003.316277	3290.620667	1179.994141	46.927219
23003.316277	3290.620667	1178.869141	109.032425
23003.316277	3290.620667	1177.744141	38.843632
23003.316277	3290.620667	1176.619141	-65.799294
23003.316277	3290.620667	1175.493164	-115.476204
23003.316277	3290.620667	1174.368164	69.539085
23003.316277	3290.620667	1173.242188	-40.905388
23003.316277	3290.620667	1172.115234	-94.286285
23003.316277	3290.620667	1170.989258	20.884653
23003.316277	3290.620667	1169.862305	-80.765541
23003.316277	3290.620667	1168.735352	-87.287575
23003.316277	3290.620667	1167.608398	-28.440128
23003.316277	3290.620667	1166.481445	-96.782646
23003.316277	3290.620667	1165.353516	-22.639551
23003.316277	3290.620667	1164.225586	-40.510490
23003.316277	3290.620667	1163.097656	34.843948
23003.316277	3290.620667	1161.968750	-91.924240
23003.316277	3290.620667	1160.840820	-28.066858
23003.316277	3290.620667	1159.711914	47.114418
23003.316277	3290.620667	1158.583008	-18.137518
23003.316277	3290.620667	1157.453125	-19.935532
23003.316277	3290.620667	1156.324219	-85.145126
23003.316277	3290.620667	1155.194336	26.744047
23003.316277	3290.620667	1154.064453	-16.500402
23003.316277	3290.620667	1152.933594	-71.956406
23003.316277	3290.620667	1151.803711	-204.941040
23003.316277	3290.620667	1150.672852	-133.357529
23003.316277	3290.620667	1149.541992	-150.481903
23003.316277	3290.620667	1148.411133	-126.729889
23003.316277	3290.620667	1147.279297	-157.159180
23003.316277	3290.620667	1146.147461	17.210283
23003.316277	3290.620667	1145.015625	-38.235420
23003.316277	3290.620667	1143.883789	59.510883
23003.316277	3290.620667	1142.750977	207.695938
23003.316277	3290.620667	1141.619141	30.039171
23003.316277	3290.620667	1140.486328	135.403778
23003.316277	3290.620667	1139.352539	140.299698
23003.316277	3290.620667	1138.219727	62.683178
23003.316277	3290.620667	1137.085938	28.254877
23003.316277	3290.620667	1135.952148	99.078629
23003.316277	3290.620667	1134.818359	55.802338
23003.316277	3290.620667	1133.683594	123.367538
23003.316277	3290.620667	1132.549805	184.584824
23003.316277	3290.620667	1131.415039	410.993011
23003.316277	3290.620667	1130.279297	464.139221
23003.316277	3290.620667	1129.144531	465.337494
23003.316277	3290.620667	1128.008789	409.335205
23003.316277	3290.620667	1126.873047	477.331635
23003.316277	3290.620667	1125.737305	422.559753
23003.316277	3290.620667	1124.601563	385.805267
23003.316277	3290.620667	1123.464844	438.976898
23003.316277	3290.620667	1122.328125	337.142456
23003.316277	3290.620667	1121.191406	446.199036
23003.316277	3290.620667	1120.054688	264.631622
23003.316277	3290.620667	1118.916992	333.824158
23003.316277	3290.620667	1117.779297	310.746307
23003.316277	3290.620667	1116.641602	382.513885
23003.316277	3290.620667	1115.503906	422.313080
23003.316277	3290.620667	1114.365234	385.025726
23003.316277	3290.620667	1113.226563	511.672485
23003.316277	3290.620667	1112.087891	197.741394
23003.316277	3290.620667	1110.949219	271.134491
23003.316277	3290.620667	1109.809570	273.879791
23003.316277	3290.620667	1108.669922	335.339172
23003.316277	3290.620667	1107.530273	320.179413
23003.316277	3290.620667	1106.390625	364.425690
23003.316277	3290.620667	1105.250000	438.399597
23003.316277	3290.620667	1104.109375	523.388306
23003.316277	3290.620667	1102.968750	428.291931
23003.316277	3290.620667	1101.828125	425.066437
23003.316277	3290.620667	1100.686523	338.567261
23003.316277	3290.620667	1099.544922	469.393494
23003.316277	3290.620667	1098.403320	433.771545
23003.316277	3290.620667	1097.261719	481.284271
23003.316277	3290.620667	1096.120117	401.448151
23003.316277	3290.620667	1094.977539	488.345856
23003.316277	3290.620667	1093.834961	632.947021
23003.316277	3290.620667	1092.691406	557.670227
23003.316277	3290.620667	1091.548828	464.861633
23003.316277	3290.620667	1090.405273	649.134644
23003.316277	3290.620667	1089.261719	533.674133
23003.316277	3290.620667	1088.118164	624.242798
23003.316277	3290.620667	1086.973633	789.607361
23003.316277	3290.620667	1085.829102	565.584778
23003.316277	3290.620667	1084.684570	528.139893
23003.316277	3290.620667	1083.540039	440.082367
23003.316277	3290.620667	1082.395508	376.597687
23003.316277	3290.620667	1081.250000	338.323303
23003.316277	3290.620667	1080.104492	396.180267
23003.316277	3290.620667	1078.958984	504.521149
23003.316277	3290.620667	1077.812500	529.687317
23003.316277	3290.620667	1076.666016	510.501404
23003.316277	3290.620667	1075.519531	493.363922
23003.316277	3290.620667	1074.373047	807.625549
23003.316277	3290.620667	1073.226563	661.756042
23003.316277	3290.620667	1072.079102	753.565186
23003.316277	3290.620667	1070.931641	700.593933
23003.316277	3290.620667	1069.784180	734.157837
23003.316277	3290.620667	1068.635742	840.984314
23003.316277	3290.620667	1067.487305	803.954468
23003.316277	3290.620667	1066.338867	670.889771
23003.316277	3290.620667	1065.190430	737.872375
23003.316277	3290.620667	1064.041992	715.168213
23003.316277	3290.620667	1062.892578	774.565796
23003.316277	3290.620667	1061.743164	602.286499
23003.316277	3290.620667	1060.593750	509.915619
23003.316277	3290.620667	1059.443359	423.950439
23003.316277	3290.620667	1058.292969	541.743530
23003.316277	3290.620667	1057.142578	384.892792
23003.316277	3290.620667	1055.992188	437.838928
23003.316277	3290.620667	1054.841797	533.687744
23003.316277	3290.620667	1053.690430	446.644104
23003.316277	3290.620667	1052.539063	452.379517
23003.316277	3290.620667	1051.387695	280.710632
23003.316277	3290.620667	1050.235352	269.387177
23003.316277	3290.620667	1049.083984	321.732880
23003.316277	3290.620667	1047.931641	313.559235
23003.316277	3290.620667	1046.778320	452.401520
23003.316277	3290.620667	1045.625977	280.416046
23003.316277	3290.620667	1044.472656	434.704834
23003.316277	3290.620667	1043.319336	420.869720
23003.316277	3290.620667	1042.166016	335.241211
23003.316277	3290.620667	1041.012695	253.789368
23003.316277	3290.620667	1039.858398	451.435120
23003.316277	3290.620667	1038.704102	598.260132
23003.316277	3290.620667	1037.549805	559.770752
23003.316277	3290.620667	1036.394531	523.715698
23003.316277	3290.620667	1035.239258	594.132080
23003.316277	3290.620667	1034.083984	722.699036
23003.316277	3290.620667	1032.928711	703.921875
23003.316277	3290.620667	1031.773438	636.510071
23003.316277	3290.620667	1030.617188	490.809723
23003.316277	3290.620667	1029.460938	603.012573
23003.316277	3290.620667	1028.304688	640.486389
23003.316277	3290.620667	1027.147461	470.095520
23003.316277	3290.620667	1025.991211	409.414276
23003.316277	3290.620667	1024.833984	635.101685
23003.316277	3290.620667	1023.675781	740.133606
23003.316277	3290.620667	1022.518555	680.663818
23003.316277	3290.620667	1021.360352	614.960388
23003.316277	3290.620667	1020.202148	542.510559
23003.316277	3290.620667	1019.043945	527.209534
23003.316277	3290.620667	1017.884766	512.461243
23003.316277	3290.620667	1016.726563	478.651703
23003.316277	3290.620667	1015.567383	455.991577
23003.316277	3290.620667	1014.407227	496.735077
23003.316277	3290.620667	1013.248047	498.352692
23003.316277	3290.620667	1012.087891	521.048828
23003.316277	3290.620667	1010.927734	601.037048
23003.316277	3290.620667	1009.767578	676.784729
23003.316277	3290.620667	1008.606445	607.882874
23003.316277	3290.620667	1007.446289	564.029175
23003.316277	3290.620667	1006.285156	670.758423
23003.316277	3290.620667	1005.123047	634.682434
23003.316277	3290.620667	1003.961914	337.362549
23003.316277	3290.620667	1002.799805	334.159393
23003.316277	3290.620667	1001.637695	502.625031
23003.316277	3290.620667	1000.475586	379.042328
23003.316277	3290.620667	999.312500	516.042786
23003.316277	3290.620667	998.149414	656.486267
23003.316277	3290.620667	996.986328	774.326538
23003.316277	3290.620667	995.823242	398.370941
23003.316277	3290.620667	994.659180	389.795654
23003.316277	3290.620667	993.496094	449.554901
23003.316277	3290.620667	992.332031	504.101898
23003.316277	3290.620667	991.166992	364.508423
23003.316277	3290.620667	990.002930	521.141235
23003.316277	3290.620667	988.837891	410.917969
23003.316277	3290.620667	987.672852	418.732391
23003.316277	3290.620667	986.506836	338.303192
23003.316277	3290.620667	985.341797	389.645142
23003.316277	3290.620667	984.175781	76.693024
23003.316277	3290.620667	983.009766	198.709915
23003.316277	3290.620667	981.843750	259.364502
23003.316277	3290.620667	980.676758	352.682861
23003.316277	3290.620667	979.509766	252.241745
23003.316277	3290.620667	978.342773	138.393463
23003.316277	3290.620667	977.175781	169.686539
23003.316277	3290.620667	976.007813	262.360718
23003.316277	3290.620667	974.839844	378.295746
23003.316277	3290.620667	973.671875	195.138809
23003.316277	3290.620667	972.503906	103.255875
23003.316277	3290.620667	971.334961	55.502670
23003.316277	3290.620667	970.166016	274.140015
23003.316277	3290.620667	968.997070	324.295593
23003.316277	3290.620667	967.828125	320.411499
23003.316277	3290.620667	966.658203	172.574753
23003.316277	3290.620667	965.488281	191.694809
23003.316277	3290.620667	964.318359	176.131775
23003.316277	3290.620667	963.148438	150.901978
23003.316277	3290.620667	961.977539	137.210403
23003.316277	3290.620667	960.806641	115.147354
23003.316277	3290.620667	959.635742	290.449921
23003.316277	3290.620667	958.463867	299.531860
23003.316277	3290.620667	957.292969	94.733711
23003.316277	3290.620667	956.121094	211.527847
23003.316277	3290.620667	954.948242	228.104294
23003.316277	3290.620667	953.776367	167.627060
23003.316277	3290.620667	952.603516	179.226471
23003.316277	3290.620667	951.430664	210.141632
23003.316277	3290.620667	950.257813	281.730713
23003.316277	3290.620667	949.084961	239.222885
23003.316277	3290.620667	947.911133	286.771851
23003.316277	3290.620667	946.737305	303.649109
23003.316277	3290.620667	945.563477	393.684448
23003.316277	3290.620667	944.388672	66.257019
23003.316277	3290.620667	943.213867	407.412842
23003.316277	3290.620667	942.039063	407.389954
23003.316277	3290.620667	940.864258	208.181213
23003.316277	3290.620667	939.688477	425.968323
23003.316277	3290.620667	938.513672	605.763000
23003.316277	3290.620667	937.337891	470.275513
23003.316277	3290.620667	936.161133	510.169556
23003.316277	3290.620667	934.985352	388.973663
23003.316277	3290.620667	933.808594	492.782654
23003.316277	3290.620667	932.631836	395.163422
23003.316277	3290.620667	931.454102	399.442871
23003.316277	3290.620667	930.277344	621.515015
23003.316277	3290.620667	929.099609	535.631653
23003.316277	3290.620667	927.921875	463.897827
23003.316277	3290.620667	926.743164	425.349365
23003.316277	3290.620667	925.565430	564.337463
23003.316277	3290.620667	924.386719	476.010254
23003.316277	3290.620667	923.208008	335.612427
23003.316277	3290.620667	922.028320	370.328156
23003.316277	3290.620667	920.849609	473.607513
23003.316277	3290.620667	919.669922	474.571930
23003.316277	3290.620667	919.474609	257.666992
23003.316277	3290.620667	918.309570	254.437378
23003.316277	3290.620667	917.143555	239.356720
23003.316277	3290.620667	915.977539	212.433624
23003.316277	3290.620667	914.810547	417.098053
23003.316277	3290.620667	913.644531	260.134399
23003.316277	3290.620667	912.477539	152.816971
23003.316277	3290.620667	911.310547	130.542160
23003.316277	3290.620667	910.143555	30.323248
23003.316277	3290.620667	908.975586	78.855667
23003.316277	3290.620667	907.807617	103.737991
23003.316277	3290.620667	906.639648	149.823303
23003.316277	3290.620667	905.471680	94.408043
23003.316277	3290.620667	904.303711	253.658737
23003.316277	3290.620667	903.134766	110.929916
23003.316277	3290.620667	901.965820	130.940323
23003.316277	3290.620667	900.796875	254.651398
23003.316277	3290.620667	899.626953	210.938095
23003.316277	3290.620667	898.457031	138.940094
23003.316277	3290.620667	897.287109	290.779968
23003.316277	3290.620667	896.117188	176.350739
23003.316277	3290.620667	894.947266	245.649033
23003.316277	3290.620667	893.776367	298.414856
23003.316277	3290.620667	892.605469	301.701996
23003.316277	3290.620667	891.434570	283.784424
23003.316277	3290.620667	890.262695	319.979187
23003.316277	3290.620667	889.091797	374.961945
23003.316277	3290.620667	887.919922	227.609665
23003.316277	3290.620667	886.748047	37.966419
23003.316277	3290.620667	885.575195	10.623652
23003.316277	3290.620667	884.403320	100.815697
23003.316277	3290.620667	883.230469	-53.481049
23003.316277	3290.620667	882.057617	46.053894
23003.316277	3290.620667	880.883789	77.399574
23003.316277	3290.620667	879.710938	28.853888
23003.316277	3290.620667	878.537109	-130.063950
23003.316277	3290.620667	877.362305	-0.133911
23003.316277	3290.620667	876.188477	-208.307068
23003.316277	3290.620667	875.013672	-24.462748
23003.316277	3290.620667	873.839844	-73.011963
23003.316277	3290.620667	872.664063	-51.173874
23003.316277	3290.620667	871.489258	-48.123238
23003.316277	3290.620667	870.313477	39.335697
23003.316277	3290.620667	869.138672	-23.308626
23003.316277	3290.620667	867.962891	-57.809738
23003.316277	3290.620667	866.786133	1.435135
23003.316277	3290.620667	865.610352	-58.857014
23003.316277	3290.620667	864.433594	-11.373390
23003.316277	3290.620667	863.256836	-127.873550
23003.316277	3290.620667	862.079102	-57.001816
23003.316277	3290.620667	860.902344	107.478378
23003.316277	3290.620667	859.724609	28.442209
23003.316277	3290.620667	858.546875	113.247307
23003.316277	3290.620667	857.368164	148.870377
23003.316277	3290.620667	856.190430	156.396637
23003.316277	3290.620667	855.011719	191.974609
23003.316277	3290.620667	853.833008	61.505836
23003.316277	3290.620667	852.654297	-1.121816
23003.316277	3290.620667	851.474609	34.437401
23003.316277	3290.620667	850.294922	25.569424
23003.316277	3290.620667	849.115234	91.461876
23003.316277	3290.620667	847.935547	94.246689
23003.316277	3290.620667	846.754883	195.109406
23003.316277	3290.620667	845.575195	120.798363
23003.316277	3290.620667	844.393555	-39.869324
23003.316277	3290.620667	843.212891	165.962219
23003.316277	3290.620667	842.032227	-109.010757
23003.316277	3290.620667	840.850586	-108.578415
23003.316277	3290.620667	839.668945	-28.847033
23003.316277	3290.620667	838.486328	67.165680
23003.316277	3290.620667	837.304688	-63.037018
23003.316277	3290.620667	836.122070	-78.970100
23003.316277	3290.620667	834.939453	37.942753
23003.316277	3290.620667	833.756836	-5.985974
23003.316277	3290.620667	832.573242	-12.629554
23003.316277	3290.620667	831.389648	111.156693
23003.316277	3290.620667	830.206055	-28.266937
23003.316277	3290.620667	829.022461	55.871960
23003.316277	3290.620667	827.838867	72.460037
23003.316277	3290.620667	826.654297	121.614159
23003.316277	3290.620667	825.469727	12.514142
23003.316277	3290.620667	824.284180	24.418430
23003.316277	3290.620667	823.099609	178.185806
23003.316277	3290.620667	821.914063	166.777542
23003.316277	3290.620667	820.728516	120.489662
23003.316277	3290.620667	819.542969	-23.415279
23003.316277	3290.620667	818.356445	81.390396
23003.316277	3290.620667	817.169922	46.733955
23003.316277	3290.620667	815.983398	-101.746109
23003.316277	3290.620667	814.796875	-38.827324
23003.316277	3290.620667	813.609375	135.512253
23003.316277	3290.620667	812.422852	-31.500360
23003.316277	3290.620667	811.235352	-10.449061
23003.316277	3290.620667	810.046875	-7.984484
23003.316277	3290.620667	808.859375	-17.132534
23003.316277	3290.620667	807.670898	-30.928343
23003.316277	3290.620667	806.482422	-0.668687
23003.316277	3290.620667	805.293945	8.698907
23003.316277	3290.620667	804.104492	85.275330
23003.316277	3290.620667	802.915039	-109.366074
23003.316277	3290.620667	801.725586	-90.754890
23003.316277	3290.620667	800.536133	59.889835
23003.316277	3290.620667	799.345703	210.457001
23003.316277	3290.620667	798.155273	-32.738850
23003.316277	3290.620667	796.964844	4.303929
23003.316277	3290.620667	795.774414	145.484406
23003.316277	3290.620667	794.583008	101.440430
23003.316277	3290.620667	793.392578	-30.528561
23003.316277	3290.620667	792.200195	82.760132
23003.316277	3290.620667	791.008789	15.578163
23003.316277	3290.620667	789.816406	-7.657924
23003.316277	3290.620667	788.625000	-37.838062
23003.316277	3290.620667	787.432617	105.338005
23003.316277	3290.620667	786.239258	-33.508087
23003.316277	3290.620667	785.046875	-61.409771
23003.316277	3290.620667	783.853516	46.973145
23003.316277	3290.620667	782.660156	127.576363
23003.316277	3290.620667	781.465820	-18.165636
23003.316277	3290.620667	780.272461	150.103455
23003.316277	3290.620667	779.078125	13.607451
23003.316277	3290.620667	777.883789	112.526253
23003.316277	3290.620667	776.688477	82.179955
23003.316277	3290.620667	775.494141	213.293167
23003.316277	3290.620667	774.298828	210.567062
23003.316277	3290.620667	773.103516	-48.118229
23003.316277	3290.620667	771.907227	112.835632
23003.316277	3290.620667	770.711914	119.278343
23003.316277	3290.620667	769.515625	257.037903
23003.316277	3290.620667	768.318359	28.405693
23003.316277	3290.620667	767.122070	27.874147
23003.316277	3290.620667	765.924805	-18.742586
23003.316277	3290.620667	764.727539	1.402510
23003.316277	3290.620667	763.530273	-153.434250
23003.316277	3290.620667	762.333008	-98.804192
23003.316277	3290.620667	761.134766	-16.617012
23003.316277	3290.620667	759.936523	-90.924080
23003.316277	3290.620667	758.738281	-172.131210
23003.316277	3290.620667	757.540039	-46.378597
23003.316277	3290.620667	756.340820	53.999126
23003.316277	3290.620667	755.141602	46.271969
23003.316277	3290.620667	753.942383	36.216717
23003.316277	3290.620667	752.742188	129.524033
23003.316277	3290.620667	751.541992	89.525520
23003.316277	3290.620667	750.341797	-23.982508
23003.316277	3290.620667	749.141602	-4.301410
23003.316277	3290.620667	747.941406	-19.098743
23003.316277	3290.620667	746.740234	16.566988
23003.316277	3290.620667	745.539063	-12.071133
23003.316277	3290.620667	744.337891	-162.329102
23003.316277	3290.620667	743.135742	-87.774330
23003.316277	3290.620667	741.933594	-173.819138
23003.316277	3290.620667	740.731445	-14.537337
23003.316277	3290.620667	739.529297	23.144691
23003.316277	3290.620667	738.326172	83.688736
23003.316277	3290.620667	737.124023	132.710480
23003.316277	3290.620667	735.919922	188.539703
23003.316277	3290.620667	734.716797	54.201904
23003.316277	3290.620667	733.513672	-93.863609
23003.316277	3290.620667	732.309570	21.376062
23003.316277	3290.620667	731.105469	-23.704025
23003.316277	3290.620667	729.900391	171.479752
23003.316277	3290.620667	728.696289	140.024017
23003.316277	3290.620667	727.491211	213.761581
23003.316277	3290.620667	726.286133	147.911423
23003.316277	3290.620667	725.080078	-0.277953
23003.316277	3290.620667	723.874023	50.438847
23003.316277	3290.620667	722.668945	16.520254
23003.316277	3290.620667	721.461914	131.096542
23003.316277	3290.620667	720.255859	-67.420685
23003.316277	3290.620667	719.048828	-76.320213
23003.316277	3290.620667	717.841797	47.189457
23003.316277	3290.620667	716.634766	81.550171
23003.316277	3290.620667	715.427734	104.430344
23003.316277	3290.620667	714.219727	70.190475
23003.316277	3290.620667	713.011719	-25.697077
23003.316277	3290.620667	711.803711	24.406805
23003.316277	3290.620667	710.594727	-73.821068
23003.316277	3290.620667	709.385742	-69.446297
23003.316277	3290.620667	708.176758	-128.965469
23003.316277	3290.620667	706.967773	139.720520
23003.316277	3290.620667	705.758789	-27.039200
23003.316277	3290.620667	704.548828	-50.244751
23003.316277	3290.620667	703.338867	-141.837479
23003.316277	3290.620667	702.127930	46.680485
23003.316277	3290.620667	700.917969	-88.272949
23003.316277	3290.620667	699.707031	-125.339340
23003.316277	3290.620667	698.496094	-39.542828
23003.316277	3290.620667	697.285156	-24.383827
23003.316277	3290.620667	696.073242	72.608948
23003.316277	3290.620667	694.861328	-64.786697
23003.316277	3290.620667	693.649414	-104.396355
23003.316277	3290.620667	692.436523	-87.212715
23003.316277	3290.620667	691.224609	189.050171
23003.316277	3290.620667	690.011719	221.950272
23003.316277	3290.620667	688.798828	293.402374
23003.316277	3290.620667	687.584961	303.420471
23003.316277	3290.620667	686.372070	102.144501
23003.316277	3290.620667	685.158203	305.090057
23003.316277	3290.620667	683.943359	267.227386
23003.316277	3290.620667	682.729492	429.066864
23003.316277	3290.620667	681.514648	524.957825
23003.316277	3290.620667	680.299805	507.298920
23003.316277	3290.620667	679.084961	503.192444
23003.316277	3290.620667	677.869141	433.248749
23003.316277	3290.620667	676.653320	508.385284
23003.316277	3290.620667	675.437500	395.264893
23003.316277	3290.620667	674.221680	501.976318
23003.316277	3290.620667	673.004883	343.447113
23003.316277	3290.620667	671.789063	350.306885
23003.316277	3290.620667	670.571289	148.702988
23003.316277	3290.620667	669.354492	320.777863
23003.316277	3290.620667	668.136719	-21.245123
23003.316277	3290.620667	666.919922	-130.032776
23003.316277	3290.620667	665.701172	102.887878
23003.316277	3290.620667	664.483398	199.885544
23003.316277	3290.620667	663.264648	43.403008
23003.316277	3290.620667	662.045898	151.541092
23003.316277	3290.620667	660.827148	83.187515
23003.316277	3290.620667	659.608398	41.924328
23003.316277	3290.620667	658.388672	122.662155
23003.316277	3290.620667	657.168945	142.283356
23003.316277	3290.620667	655.949219	308.686462
23003.316277	3290.620667	654.728516	145.151169
23003.316277	3290.620667	653.507813	392.644958
23003.316277	3290.620667	652.287109	233.541077
23003.316277	3290.620667	651.066406	101.526215
23003.316277	3290.620667	649.844727	287.727570
23003.316277	3290.620667	648.623047	322.597321
23003.316277	3290.620667	647.401367	226.538101
23003.316277	3290.620667	646.179688	184.584320
23003.316277	3290.620667	644.957031	250.820114
23003.316277	3290.620667	643.734375	138.849350
23003.316277	3290.620667	642.511719	263.540497
23003.316277	3290.620667	641.289063	322.758209
23003.316277	3290.620667	640.065430	264.716370
23003.316277	3290.620667	638.841797	211.140198
23003.316277	3290.620667	637.618164	265.625885
23003.316277	3290.620667	636.393555	261.475098
23003.316277	3290.620667	635.168945	349.562714
23003.316277	3290.620667	633.944336	259.739899
23003.316277	3290.620667	632.719727	300.407471
23003.316277	3290.620667	631.494141	406.235291
23003.316277	3290.620667	630.269531	217.298431
23003.316277	3290.620667	629.042969	172.296524
23003.316277	3290.620667	627.817383	163.232361
23003.316277	3290.620667	626.590820	21.479988
23003.316277	3290.620667	625.365234	86.496857
23003.316277	3290.620667	624.137695	153.661789
23003.316277	3290.620667	622.911133	99.437241
23003.316277	3290.620667	621.683594	157.471420
23003.316277	3290.620667	620.456055	172.760193
23003.316277	3290.620667	619.228516	131.859055
23003.316277	3290.620667	618.000977	274.974915
23003.316277	3290.620667	616.772461	128.482391
23003.316277	3290.620667	615.543945	168.217514
23003.316277	3290.620667	614.314453	174.230682
23003.316277	3290.620667	613.085938	-17.159227
23003.316277	3290.620667	611.856445	-15.696990
23003.316277	3290.620667	610.626953	-54.636200
23003.316277	3290.620667	609.397461	173.098389
23003.316277	3290.620667	608.166992	-74.357910
23003.316277	3290.620667	606.936523	18.766911
23003.316277	3290.620667	605.706055	190.198563
23003.316277	3290.620667	604.474609	90.547935
23003.316277	3290.620667	603.244141	-6.859436
23003.316277	3290.620667	602.012695	83.749870
23003.316277	3290.620667	600.780273	39.998066
23003.316277	3290.620667	599.548828	157.327164
23003.316277	3290.620667	598.316406	-22.954372
23003.316277	3290.620667	597.083984	-55.589684
23003.316277	3290.620667	595.851563	32.495785
23003.316277	3290.620667	594.618164	37.788898
23003.316277	3290.620667	593.384766	94.450951
23003.316277	3290.620667	592.151367	19.217722
23003.316277	3290.620667	590.917969	-47.078323
23003.316277	3290.620667	589.683594	174.753799
23003.316277	3290.620667	588.449219	86.057236
23003.316277	3290.620667	587.214844	301.014130
23003.316277	3290.620667	585.979492	268.074310
23003.316277	3290.620667	584.745117	27.581972
23003.316277	3290.620667	583.509766	220.024109
23003.316277	3290.620667	582.273438	-107.412186
23003.316277	3290.620667	581.038086	-86.794640
23003.316277	3290.620667	579.801758	96.565880
23003.316277	3290.620667	578.565430	14.541153
23003.316277	3290.620667	577.329102	-0.596632
23003.316277	3290.620667	576.091797	129.097549
23003.316277	3290.620667	574.854492	131.735809
23003.316277	3290.620667	573.617188	25.219311
23003.316277	3290.620667	572.378906	65.713837
23003.316277	3290.620667	571.141602	1.548433
23003.316277	3290.620667	569.903320	50.925972
23003.316277	3290.620667	568.664063	86.920563
23003.316277	3290.620667	567.425781	158.508759
23003.316277	3290.620667	566.186523	105.483345
23003.316277	3290.620667	564.947266	14.676348
23003.316277	3290.620667	563.708008	70.672668
23003.316277	3290.620667	562.467773	51.059181
23003.316277	3290.620667	561.227539	151.489212
23003.316277	3290.620667	559.987305	14.111209
23003.316277	3290.620667	558.747070	105.643921
23003.316277	3290.620667	557.505859	94.969246
23003.316277	3290.620667	556.264648	106.524727
23003.316277	3290.620667	555.023438	198.025238
23003.316277	3290.620667	553.781250	54.199482
23003.316277	3290.620667	552.539063	256.679291
23003.316277	3290.620667	551.296875	46.386600
23003.316277	3290.620667	550.054688	122.385979
23003.316277	3290.620667	548.811523	94.132797
23003.316277	3290.620667	547.569336	-62.681824
23003.316277	3290.620667	546.325195	28.894108
23003.316277	3290.620667	545.082031	82.792603
23003.316277	3290.620667	543.837891	158.861038
23003.316277	3290.620667	542.593750	110.864876
23003.316277	3290.620667	541.349609	118.310097
23003.316277	3290.620667	540.105469	-58.017044
23003.316277	3290.620667	538.860352	44.754173
23003.316277	3290.620667	537.615234	76.691811
23003.316277	3290.620667	536.369141	4.641286
23003.316277	3290.620667	535.124023	25.615265
23003.316277	3290.620667	533.877930	-41.860546
23003.316277	3290.620667	532.631836	-186.661621
23003.316277	3290.620667	531.384766	-167.711929
23003.316277	3290.620667	530.138672	21.530088
23003.316277	3290.620667	528.891602	93.601234
23003.316277	3290.620667	527.643555	-15.509027
23003.316277	3290.620667	526.396484	114.115494
23003.316277	3290.620667	525.148438	157.600754
23003.316277	3290.620667	523.900391	-110.252441
23003.316277	3290.620667	522.652344	-108.543709
23003.316277	3290.620667	521.403320	-234.801178
23003.316277	3290.620667	520.154297	-58.564125
23003.316277	3290.620667	518.905273	-30.161737
23003.316277	3290.620667	517.656250	-25.957434
23003.316277	3290.620667	516.406250	128.304031
23003.316277	3290.620667	515.156250	-17.313467
23003.316277	3290.620667	513.906250	22.409573
23003.316277	3290.620667	512.655273	139.345688
23003.316277	3290.620667	511.404297	247.507675
23003.316277	3290.620667	510.153320	58.277027
23003.316277	3290.620667	508.902344	52.051792
23003.316277	3290.620667	507.650391	116.393127
23003.316277	3290.620667	506.398438	-15.158334
23003.316277	3290.620667	505.146484	-172.971268
23003.316277	3290.620667	503.893555	-51.110428
23003.316277	3290.620667	502.641602	-303.263458
23003.316277	3290.620667	501.388672	-97.625717
23003.316277	3290.620667	500.134766	-15.145909
23003.316277	3290.620667	498.881836	-60.132515
23003.316277	3290.620667	497.627930	-52.233665
23003.316277	3290.620667	496.374023	-105.776047
23003.316277	3290.620667	495.119141	-152.597672
23003.316277	3290.620667	493.865234	-47.687664
23003.316277	3290.620667	492.610352	-4.221084
23003.316277	3290.620667	491.355469	146.949341
23003.316277	3290.620667	490.099609	162.030563
23003.316277	3290.620667	488.843750	91.606018
23003.316277	3290.620667	487.587891	21.324623
23003.316277	3290.620667	486.332031	188.165237
23003.316277	3290.620667	485.075195	80.823082
23003.316277	3290.620667	483.818359	76.726593
23003.316277	3290.620667	482.561523	156.074066
23003.316277	3290.620667	481.304688	167.537338
23003.316277	3290.620667	480.046875	387.336945
23003.316277	3290.620667	478.789063	100.939629
23003.316277	3290.620667	477.531250	233.249252
23003.316277	3290.620667	476.272461	400.659180
23003.316277	3290.620667	475.013672	368.820984
23003.316277	3290.620667	473.754883	299.887207
23003.316277	3290.620667	472.496094	305.522064
23003.316277	3290.620667	471.236328	390.050293
23003.316277	3290.620667	469.976563	492.157806
23003.316277	3290.620667	468.716797	417.130310
23003.316277	3290.620667	467.456055	462.533722
23003.316277	3290.620667	466.196289	632.666443
23003.316277	3290.620667	464.935547	479.266785
23003.316277	3290.620667	463.673828	509.635834
23003.316277	3290.620667	462.413086	443.941162
23003.316277	3290.620667	461.151367	485.426941
23003.316277	3290.620667	459.889648	374.085663
23003.316277	3290.620667	458.626953	524.946411
23003.316277	3290.620667	457.364258	317.756958
23003.316277	3290.620667	456.101563	346.498688
23003.316277	3290.620667	454.838867	449.514069
23003.316277	3290.620667	453.575195	325.639221
23003.316277	3290.620667	452.312500	269.522461
23003.316277	3290.620667	451.047852	708.593933
23003.316277	3290.620667	449.784180	506.461395
23003.316277	3290.620667	448.519531	491.968079
23003.316277	3290.620667	447.254883	320.608521
23003.316277	3290.620667	445.990234	238.723694
23003.316277	3290.620667	444.725586	603.551697
23003.316277	3290.620667	443.459961	515.200745
23003.316277	3290.620667	442.194336	568.480652
23003.316277	3290.620667	440.927734	541.211914
23003.316277	3290.620667	439.662109	309.365814
23003.316277	3290.620667	438.395508	456.320068
23003.316277	3290.620667	437.127930	535.773254
23003.316277	3290.620667	435.861328	684.813660
23003.316277	3290.620667	434.593750	514.079163
23003.316277	3290.620667	433.326172	382.551239
23003.316277	3290.620667	432.058594	677.162537
23003.316277	3290.620667	430.790039	393.475342
23003.316277	3290.620667	429.521484	468.427368
23003.316277	3290.620667	428.252930	410.781311
23003.316277	3290.620667	426.984375	618.106079
23003.316277	3290.620667	425.714844	649.380676
23003.316277	3290.620667	424.445313	617.610657
23003.316277	3290.620667	423.174805	692.137390
23003.316277	3290.620667	421.905273	686.247192
23003.316277	3290.620667	420.634766	736.670227
23003.316277	3290.620667	419.364258	810.821960
23003.316277	3290.620667	418.092773	713.483215
23003.316277	3290.620667	416.822266	657.250000
23003.316277	3290.620667	415.550781	713.618713
23003.316277	3290.620667	414.278320	674.436279
23003.316277	3290.620667	413.006836	806.282593
23003.316277	3290.620667	411.734375	810.062073
23003.316277	3290.620667	410.461914	755.155762
23003.316277	3290.620667	409.188477	708.713440
23003.316277	3290.620667	407.916016	681.546875
23003.316277	3290.620667	406.642578	619.506531
23003.316277	3290.620667	405.368164	587.520935
23003.316277	3290.620667	404.094727	663.451233
23003.316277	3290.620667	402.820313	529.219421
23003.316277	3290.620667	401.545898	816.449463
23003.316277	3290.620667	400.270508	865.372070
23003.316277	3290.620667	398.996094	684.778015
23003.316277	3290.620667	397.720703	780.524475
23003.316277	3290.620667	396.444336	672.714844
23003.316277	3290.620667	395.168945	750.328186
23003.316277	3290.620667	393.892578	715.152832
23003.316277	3290.620667	392.616211	744.315674
23003.316277	3290.620667	391.339844	671.514099
23003.316277	3290.620667	390.062500	747.165100
23003.316277	3290.620667	388.785156	761.831055
23003.316277	3290.620667	387.507813	609.808228
23003.316277	3290.620667	386.229492	532.761230
23003.316277	3290.620667	384.951172	653.546692
23003.316277	3290.620667	383.672852	590.379700
23003.316277	3290.620667	382.394531	578.317444
23003.316277	3290.620667	381.115234	679.786499
23003.316277	3290.620667	379.835938	528.397339
23003.316277	3290.620667	378.556641	686.537109
23003.316277	3290.620667	377.277344	578.920288
23003.316277	3290.620667	375.997070	636.335327
23003.316277	3290.620667	374.716797	555.106689
23003.316277	3290.620667	373.435547	720.549316
23003.316277	3290.620667	372.155273	611.738831
23003.316277	3290.620667	370.874023	381.543610
23003.316277	3290.620667	369.591797	453.742432
23003.316277	3290.620667	368.310547	610.934265
23003.316277	3290.620667	367.028320	601.443420
23003.316277	3290.620667	365.746094	472.645020
23003.316277	3290.620667	364.463867	342.779572
23003.316277	3290.620667	363.180664	566.307983
23003.316277	3290.620667	361.897461	457.720367
23003.316277	3290.620667	360.614258	481.090393
23003.316277	3290.620667	359.330078	443.016815
23003.316277	3290.620667	358.045898	429.387054
23003.316277	3290.620667	356.761719	553.893921
23003.316277	3290.620667	355.477539	262.783844
23003.316277	3290.620667	354.192383	480.894531
23003.316277	3290.620667	352.907227	345.633820
23003.316277	3290.620667	351.622070	339.673828
23003.316277	3290.620667	350.336914	467.168030
23003.316277	3290.620667	349.050781	627.204712
23003.316277	3290.620667	347.764648	491.860016
23003.316277	3290.620667	346.477539	371.906738
23003.316277	3290.620667	345.191406	228.792145
23003.316277	3290.620667	343.904297	355.802490
23003.316277	3290.620667	342.616211	300.922852
23003.316277	3290.620667	341.329102	102.821266
23003.316277	3290.620667	340.041016	215.175919
23003.316277	3290.620667	338.752930	244.050446
23003.316277	3290.620667	337.463867	287.799194
23003.316277	3290.620667	336.175781	384.936523
23003.316277	3290.620667	334.886719	417.662750
23003.316277	3290.620667	333.596680	330.364288
23003.316277	3290.620667	332.307617	26.969166
23003.316277	3290.620667	331.017578	-58.757008
23003.316277	3290.620667	329.727539	40.977360
23003.316277	3290.620667	328.436523	-28.654036
23003.316277	3290.620667	327.146484	-11.234994
23003.316277	3290.620667	325.855469	95.117439
23003.316277	3290.620667	324.563477	104.555084
23003.316277	3290.620667	323.272461	108.957336
23003.316277	3290.620667	321.980469	35.572514
23003.316277	3290.620667	320.688477	72.155914
23003.316277	3290.620667	319.395508	-16.120575
23003.316277	3290.620667	318.103516	-62.797001
23003.316277	3290.620667	316.810547	-157.671738
23003.316277	3290.620667	315.516602	-45.049614
23003.316277	3290.620667	314.223633	-134.121658
23003.316277	3290.620667	312.929688	52.198452
23003.316277	3290.620667	311.635742	109.030846
23003.316277	3290.620667	310.340820	46.920223
23003.316277	3290.620667	309.045898	132.060776
23003.316277	3290.620667	307.750977	13.048143
23003.316277	3290.620667	306.456055	-176.014969
23003.316277	3290.620667	305.160156	-75.722519
23003.316277	3290.620667	303.865234	-62.668110
23003.316277	3290.620667	302.568359	173.271011
23003.316277	3290.620667	301.272461	-58.853355
23003.316277	3290.620667	299.975586	303.801697
23003.316277	3290.620667	298.678711	168.450592
