#X		#Y		#Wave		#Intensity
22949.326968	3270.144833	1999.980469	-61.044319
22949.326968	3270.144833	1999.016602	-42.970501
22949.326968	3270.144833	1998.052734	-113.461105
22949.326968	3270.144833	1997.087891	-99.760887
22949.326968	3270.144833	1996.123047	84.803108
22949.326968	3270.144833	1995.158203	33.878048
22949.326968	3270.144833	1994.193359	-69.123367
22949.326968	3270.144833	1993.228516	-18.634214
22949.326968	3270.144833	1992.262695	-136.597351
22949.326968	3270.144833	1991.297852	129.094742
22949.326968	3270.144833	1990.332031	-55.816368
22949.326968	3270.144833	1989.366211	66.106918
22949.326968	3270.144833	1988.399414	74.118423
22949.326968	3270.144833	1987.433594	49.909874
22949.326968	3270.144833	1986.466797	161.672195
22949.326968	3270.144833	1985.500977	243.666550
22949.326968	3270.144833	1984.534180	56.112759
22949.326968	3270.144833	1983.567383	86.087997
22949.326968	3270.144833	1982.599609	106.119720
22949.326968	3270.144833	1981.632813	-17.204634
22949.326968	3270.144833	1980.665039	74.390739
22949.326968	3270.144833	1979.697266	170.853027
22949.326968	3270.144833	1978.729492	99.321243
22949.326968	3270.144833	1977.761719	40.125729
22949.326968	3270.144833	1976.792969	50.036457
22949.326968	3270.144833	1975.825195	-107.914742
22949.326968	3270.144833	1974.856445	143.781448
22949.326968	3270.144833	1973.887695	-9.251180
22949.326968	3270.144833	1972.918945	-147.452164
22949.326968	3270.144833	1971.949219	99.100388
22949.326968	3270.144833	1970.980469	94.034912
22949.326968	3270.144833	1970.010742	165.373856
22949.326968	3270.144833	1969.041016	91.242744
22949.326968	3270.144833	1968.071289	78.731087
22949.326968	3270.144833	1967.101563	16.931202
22949.326968	3270.144833	1966.130859	120.190300
22949.326968	3270.144833	1965.161133	154.434540
22949.326968	3270.144833	1964.190430	-15.736060
22949.326968	3270.144833	1963.219727	-178.467682
22949.326968	3270.144833	1962.249023	-168.833282
22949.326968	3270.144833	1961.277344	62.292339
22949.326968	3270.144833	1960.306641	-73.317192
22949.326968	3270.144833	1959.334961	98.647766
22949.326968	3270.144833	1958.363281	27.024231
22949.326968	3270.144833	1957.391602	-123.273727
22949.326968	3270.144833	1956.419922	58.429634
22949.326968	3270.144833	1955.447266	-5.778875
22949.326968	3270.144833	1954.474609	8.690494
22949.326968	3270.144833	1953.501953	150.944992
22949.326968	3270.144833	1952.529297	30.243183
22949.326968	3270.144833	1951.556641	34.874855
22949.326968	3270.144833	1950.583984	113.190277
22949.326968	3270.144833	1949.610352	122.719360
22949.326968	3270.144833	1948.636719	-54.347839
22949.326968	3270.144833	1947.663086	85.318336
22949.326968	3270.144833	1946.689453	-172.659561
22949.326968	3270.144833	1945.715820	-84.543732
22949.326968	3270.144833	1944.741211	145.840057
22949.326968	3270.144833	1943.767578	-33.495129
22949.326968	3270.144833	1942.792969	-107.301834
22949.326968	3270.144833	1941.818359	54.319656
22949.326968	3270.144833	1940.842773	196.273941
22949.326968	3270.144833	1939.868164	110.230148
22949.326968	3270.144833	1938.892578	-159.574142
22949.326968	3270.144833	1937.916992	-208.753067
22949.326968	3270.144833	1936.941406	94.856621
22949.326968	3270.144833	1935.965820	121.591911
22949.326968	3270.144833	1934.990234	128.734146
22949.326968	3270.144833	1934.013672	64.877190
22949.326968	3270.144833	1933.037109	-145.822769
22949.326968	3270.144833	1932.060547	86.554176
22949.326968	3270.144833	1931.083984	27.658352
22949.326968	3270.144833	1930.107422	157.176208
22949.326968	3270.144833	1929.129883	-19.108067
22949.326968	3270.144833	1928.153320	137.286591
22949.326968	3270.144833	1927.175781	168.925720
22949.326968	3270.144833	1926.198242	-78.138275
22949.326968	3270.144833	1925.219727	46.424641
22949.326968	3270.144833	1924.242188	-85.651726
22949.326968	3270.144833	1923.263672	-53.968872
22949.326968	3270.144833	1922.285156	-46.720604
22949.326968	3270.144833	1921.306641	-198.227554
22949.326968	3270.144833	1920.328125	-56.634590
22949.326968	3270.144833	1919.349609	-44.490898
22949.326968	3270.144833	1918.370117	-247.162857
22949.326968	3270.144833	1917.391602	-122.709869
22949.326968	3270.144833	1916.412109	-112.988396
22949.326968	3270.144833	1915.431641	-42.275211
22949.326968	3270.144833	1914.452148	-61.837833
22949.326968	3270.144833	1913.472656	38.111561
22949.326968	3270.144833	1912.492188	47.805134
22949.326968	3270.144833	1911.511719	3.864212
22949.326968	3270.144833	1910.531250	232.931808
22949.326968	3270.144833	1909.550781	74.435127
22949.326968	3270.144833	1908.569336	-86.439659
22949.326968	3270.144833	1907.588867	-213.149658
22949.326968	3270.144833	1906.607422	40.141941
22949.326968	3270.144833	1905.625977	-32.974915
22949.326968	3270.144833	1904.644531	-106.067245
22949.326968	3270.144833	1903.662109	86.197540
22949.326968	3270.144833	1902.680664	59.345669
22949.326968	3270.144833	1901.698242	-47.801773
22949.326968	3270.144833	1900.715820	-1.643158
22949.326968	3270.144833	1899.733398	-43.075665
22949.326968	3270.144833	1898.750000	127.082832
22949.326968	3270.144833	1897.767578	58.881981
22949.326968	3270.144833	1896.784180	-62.785957
22949.326968	3270.144833	1895.800781	48.920845
22949.326968	3270.144833	1894.817383	-133.471985
22949.326968	3270.144833	1893.833984	-131.149765
22949.326968	3270.144833	1892.850586	-121.551727
22949.326968	3270.144833	1891.866211	16.756052
22949.326968	3270.144833	1890.881836	-97.548645
22949.326968	3270.144833	1889.897461	-17.592577
22949.326968	3270.144833	1888.913086	81.738693
22949.326968	3270.144833	1887.927734	30.544062
22949.326968	3270.144833	1886.943359	18.178005
22949.326968	3270.144833	1885.958008	-13.610125
22949.326968	3270.144833	1884.972656	78.303764
22949.326968	3270.144833	1883.987305	-89.329193
22949.326968	3270.144833	1883.001953	-77.489326
22949.326968	3270.144833	1882.015625	-119.008514
22949.326968	3270.144833	1881.029297	64.880920
22949.326968	3270.144833	1880.042969	-10.619712
22949.326968	3270.144833	1879.056641	27.762192
22949.326968	3270.144833	1878.070313	44.303127
22949.326968	3270.144833	1877.083984	68.080376
22949.326968	3270.144833	1876.096680	67.606606
22949.326968	3270.144833	1875.109375	-24.893347
22949.326968	3270.144833	1874.122070	-35.085373
22949.326968	3270.144833	1873.134766	165.254288
22949.326968	3270.144833	1872.146484	77.541504
22949.326968	3270.144833	1871.159180	127.731964
22949.326968	3270.144833	1870.170898	93.213921
22949.326968	3270.144833	1869.182617	-59.822796
22949.326968	3270.144833	1868.194336	72.478378
22949.326968	3270.144833	1867.205078	107.997032
22949.326968	3270.144833	1866.216797	22.619827
22949.326968	3270.144833	1865.227539	256.222015
22949.326968	3270.144833	1864.238281	112.791397
22949.326968	3270.144833	1863.249023	111.900406
22949.326968	3270.144833	1862.259766	81.989586
22949.326968	3270.144833	1861.269531	102.759621
22949.326968	3270.144833	1860.279297	58.296143
22949.326968	3270.144833	1859.290039	45.191788
22949.326968	3270.144833	1858.298828	12.740503
22949.326968	3270.144833	1857.308594	6.802917
22949.326968	3270.144833	1856.318359	27.362854
22949.326968	3270.144833	1855.327148	62.340504
22949.326968	3270.144833	1854.335938	200.958481
22949.326968	3270.144833	1853.344727	13.979627
22949.326968	3270.144833	1852.353516	157.283997
22949.326968	3270.144833	1851.362305	35.365894
22949.326968	3270.144833	1850.370117	103.813286
22949.326968	3270.144833	1849.377930	179.414444
22949.326968	3270.144833	1848.385742	81.500595
22949.326968	3270.144833	1847.393555	-52.552078
22949.326968	3270.144833	1846.401367	37.332783
22949.326968	3270.144833	1845.408203	117.498787
22949.326968	3270.144833	1844.415039	-33.493073
22949.326968	3270.144833	1843.421875	12.858403
22949.326968	3270.144833	1842.428711	244.408905
22949.326968	3270.144833	1841.435547	-94.326706
22949.326968	3270.144833	1840.441406	163.500824
22949.326968	3270.144833	1839.448242	74.890938
22949.326968	3270.144833	1838.454102	53.575039
22949.326968	3270.144833	1837.459961	0.959268
22949.326968	3270.144833	1836.464844	51.646568
22949.326968	3270.144833	1835.470703	133.497223
22949.326968	3270.144833	1834.475586	30.260767
22949.326968	3270.144833	1833.480469	-12.946444
22949.326968	3270.144833	1832.485352	66.282135
22949.326968	3270.144833	1831.490234	56.574749
22949.326968	3270.144833	1830.495117	-56.420834
22949.326968	3270.144833	1829.499023	-49.430141
22949.326968	3270.144833	1828.502930	15.088322
22949.326968	3270.144833	1827.506836	146.698380
22949.326968	3270.144833	1826.510742	11.916979
22949.326968	3270.144833	1825.513672	49.803532
22949.326968	3270.144833	1824.517578	-154.584930
22949.326968	3270.144833	1823.520508	-71.263817
22949.326968	3270.144833	1822.523438	91.059814
22949.326968	3270.144833	1821.526367	145.404892
22949.326968	3270.144833	1820.529297	65.473999
22949.326968	3270.144833	1819.531250	241.840836
22949.326968	3270.144833	1818.533203	87.523232
22949.326968	3270.144833	1817.535156	213.384918
22949.326968	3270.144833	1816.537109	195.465393
22949.326968	3270.144833	1815.539063	-2.063974
22949.326968	3270.144833	1814.540039	173.783340
22949.326968	3270.144833	1813.541992	148.481949
22949.326968	3270.144833	1812.542969	-1.301291
22949.326968	3270.144833	1811.543945	-7.577313
22949.326968	3270.144833	1810.543945	201.316910
22949.326968	3270.144833	1809.544922	70.511909
22949.326968	3270.144833	1808.544922	-45.981289
22949.326968	3270.144833	1807.544922	322.722229
22949.326968	3270.144833	1806.544922	172.613266
22949.326968	3270.144833	1805.544922	63.102566
22949.326968	3270.144833	1804.544922	82.556915
22949.326968	3270.144833	1803.543945	235.676025
22949.326968	3270.144833	1802.542969	214.331558
22949.326968	3270.144833	1801.541992	-79.269806
22949.326968	3270.144833	1800.541016	-26.705553
22949.326968	3270.144833	1799.539063	133.153458
22949.326968	3270.144833	1798.538086	-41.196243
22949.326968	3270.144833	1797.536133	-31.860363
22949.326968	3270.144833	1796.534180	13.169035
22949.326968	3270.144833	1795.532227	-37.294853
22949.326968	3270.144833	1794.529297	40.930496
22949.326968	3270.144833	1793.527344	18.923504
22949.326968	3270.144833	1792.524414	-31.766977
22949.326968	3270.144833	1791.521484	65.228767
22949.326968	3270.144833	1790.518555	-71.391243
22949.326968	3270.144833	1789.514648	65.898933
22949.326968	3270.144833	1788.511719	-35.112446
22949.326968	3270.144833	1787.507813	113.857117
22949.326968	3270.144833	1786.503906	29.366276
22949.326968	3270.144833	1785.500000	175.717590
22949.326968	3270.144833	1784.496094	12.540825
22949.326968	3270.144833	1783.491211	-17.416819
22949.326968	3270.144833	1782.486328	-23.657848
22949.326968	3270.144833	1781.481445	-25.225340
22949.326968	3270.144833	1780.476563	87.271240
22949.326968	3270.144833	1779.471680	-47.636940
22949.326968	3270.144833	1778.465820	-111.269402
22949.326968	3270.144833	1777.460938	15.181574
22949.326968	3270.144833	1776.455078	-20.095898
22949.326968	3270.144833	1775.449219	84.729324
22949.326968	3270.144833	1774.442383	-43.368603
22949.326968	3270.144833	1773.436523	73.122833
22949.326968	3270.144833	1772.429688	-76.467247
22949.326968	3270.144833	1771.422852	30.309858
22949.326968	3270.144833	1770.416016	-140.750885
22949.326968	3270.144833	1769.409180	-152.833038
22949.326968	3270.144833	1768.402344	69.900375
22949.326968	3270.144833	1767.394531	69.464058
22949.326968	3270.144833	1766.386719	-132.661591
22949.326968	3270.144833	1765.378906	-154.574112
22949.326968	3270.144833	1764.371094	-36.682590
22949.326968	3270.144833	1763.362305	-129.900330
22949.326968	3270.144833	1762.354492	16.208956
22949.326968	3270.144833	1761.345703	124.255974
22949.326968	3270.144833	1760.336914	-30.793932
22949.326968	3270.144833	1759.328125	65.204918
22949.326968	3270.144833	1758.318359	4.773449
22949.326968	3270.144833	1757.308594	-81.767250
22949.326968	3270.144833	1756.299805	-170.717819
22949.326968	3270.144833	1755.290039	-276.297546
22949.326968	3270.144833	1754.279297	81.879311
22949.326968	3270.144833	1753.269531	30.538670
22949.326968	3270.144833	1752.258789	59.548702
22949.326968	3270.144833	1751.249023	15.157153
22949.326968	3270.144833	1750.238281	-116.801300
22949.326968	3270.144833	1749.226563	-208.612717
22949.326968	3270.144833	1748.215820	-68.823799
22949.326968	3270.144833	1747.204102	11.738598
22949.326968	3270.144833	1746.193359	-205.513885
22949.326968	3270.144833	1745.181641	-44.803902
22949.326968	3270.144833	1744.168945	-89.730949
22949.326968	3270.144833	1743.157227	-19.003963
22949.326968	3270.144833	1742.144531	-160.884125
22949.326968	3270.144833	1741.132813	-121.022430
22949.326968	3270.144833	1740.120117	-85.986969
22949.326968	3270.144833	1739.106445	-105.328339
22949.326968	3270.144833	1738.093750	-11.491987
22949.326968	3270.144833	1737.080078	176.565887
22949.326968	3270.144833	1736.067383	76.773224
22949.326968	3270.144833	1735.053711	90.104202
22949.326968	3270.144833	1734.040039	-85.239143
22949.326968	3270.144833	1733.025391	-201.682800
22949.326968	3270.144833	1732.011719	-49.512093
22949.326968	3270.144833	1730.997070	-10.576599
22949.326968	3270.144833	1729.982422	-23.556763
22949.326968	3270.144833	1728.967773	90.567459
22949.326968	3270.144833	1727.952148	32.669598
22949.326968	3270.144833	1726.937500	198.379135
22949.326968	3270.144833	1725.921875	76.779442
22949.326968	3270.144833	1724.906250	86.935608
22949.326968	3270.144833	1723.890625	47.604042
22949.326968	3270.144833	1722.875000	116.423035
22949.326968	3270.144833	1721.858398	-10.080919
22949.326968	3270.144833	1720.841797	133.813812
22949.326968	3270.144833	1719.825195	-60.973217
22949.326968	3270.144833	1718.808594	31.018581
22949.326968	3270.144833	1717.791992	45.347454
22949.326968	3270.144833	1716.774414	61.939037
22949.326968	3270.144833	1715.756836	-60.153603
22949.326968	3270.144833	1714.739258	113.681526
22949.326968	3270.144833	1713.721680	275.640411
22949.326968	3270.144833	1712.704102	146.325256
22949.326968	3270.144833	1711.685547	183.651718
22949.326968	3270.144833	1710.667969	171.620636
22949.326968	3270.144833	1709.649414	-93.914032
22949.326968	3270.144833	1708.630859	461.730164
22949.326968	3270.144833	1707.611328	-43.160259
22949.326968	3270.144833	1706.592773	94.681679
22949.326968	3270.144833	1705.573242	166.741348
22949.326968	3270.144833	1704.553711	32.409462
22949.326968	3270.144833	1703.534180	45.730743
22949.326968	3270.144833	1702.513672	410.486603
22949.326968	3270.144833	1701.494141	222.112549
22949.326968	3270.144833	1700.473633	33.737988
22949.326968	3270.144833	1699.453125	77.241280
22949.326968	3270.144833	1698.432617	207.308762
22949.326968	3270.144833	1697.412109	135.928558
22949.326968	3270.144833	1696.390625	209.629852
22949.326968	3270.144833	1695.369141	159.213120
22949.326968	3270.144833	1694.347656	171.934067
22949.326968	3270.144833	1693.326172	285.189026
22949.326968	3270.144833	1692.304688	87.268898
22949.326968	3270.144833	1691.282227	113.853065
22949.326968	3270.144833	1690.260742	360.162415
22949.326968	3270.144833	1689.238281	400.604645
22949.326968	3270.144833	1688.214844	244.649261
22949.326968	3270.144833	1687.192383	341.078918
22949.326968	3270.144833	1686.168945	388.348022
22949.326968	3270.144833	1685.146484	269.723724
22949.326968	3270.144833	1684.123047	386.952301
22949.326968	3270.144833	1683.099609	198.220535
22949.326968	3270.144833	1682.075195	329.319824
22949.326968	3270.144833	1681.051758	205.932800
22949.326968	3270.144833	1680.027344	301.888367
22949.326968	3270.144833	1679.002930	404.763153
22949.326968	3270.144833	1677.978516	218.309128
22949.326968	3270.144833	1676.953125	372.372192
22949.326968	3270.144833	1675.928711	461.060150
22949.326968	3270.144833	1674.903320	311.870544
22949.326968	3270.144833	1673.877930	496.009155
22949.326968	3270.144833	1672.852539	526.234741
22949.326968	3270.144833	1671.826172	640.274963
22949.326968	3270.144833	1670.800781	691.354126
22949.326968	3270.144833	1669.774414	621.254700
22949.326968	3270.144833	1668.748047	481.292023
22949.326968	3270.144833	1667.721680	639.351807
22949.326968	3270.144833	1666.694336	650.660583
22949.326968	3270.144833	1665.667969	585.149109
22949.326968	3270.144833	1664.640625	787.200134
22949.326968	3270.144833	1663.613281	737.900574
22949.326968	3270.144833	1662.585938	690.916565
22949.326968	3270.144833	1661.557617	953.195190
22949.326968	3270.144833	1660.530273	945.660583
22949.326968	3270.144833	1659.501953	1047.344727
22949.326968	3270.144833	1658.473633	946.768372
22949.326968	3270.144833	1657.444336	1032.086548
22949.326968	3270.144833	1656.416016	1159.180664
22949.326968	3270.144833	1655.386719	1111.985718
22949.326968	3270.144833	1654.358398	1127.504272
22949.326968	3270.144833	1653.328125	1214.947632
22949.326968	3270.144833	1652.298828	1390.567505
22949.326968	3270.144833	1651.269531	1433.807129
22949.326968	3270.144833	1650.239258	1490.924927
22949.326968	3270.144833	1649.208984	1471.442871
22949.326968	3270.144833	1648.178711	1556.337524
22949.326968	3270.144833	1647.148438	1520.590454
22949.326968	3270.144833	1646.117188	1702.790283
22949.326968	3270.144833	1645.086914	1711.052856
22949.326968	3270.144833	1644.055664	1888.490112
22949.326968	3270.144833	1643.024414	1625.551392
22949.326968	3270.144833	1641.992188	1742.666504
22949.326968	3270.144833	1640.960938	1940.819214
22949.326968	3270.144833	1639.928711	1872.535522
22949.326968	3270.144833	1638.896484	2126.137207
22949.326968	3270.144833	1637.864258	2189.798096
22949.326968	3270.144833	1636.832031	2376.108887
22949.326968	3270.144833	1635.798828	2400.338379
22949.326968	3270.144833	1634.766602	2160.802246
22949.326968	3270.144833	1633.733398	2113.350830
22949.326968	3270.144833	1632.699219	2123.729492
22949.326968	3270.144833	1631.666016	2203.493164
22949.326968	3270.144833	1630.632813	2169.943604
22949.326968	3270.144833	1629.598633	2251.974365
22949.326968	3270.144833	1628.564453	2248.470703
22949.326968	3270.144833	1627.530273	2332.779785
22949.326968	3270.144833	1626.495117	2213.754395
22949.326968	3270.144833	1625.460938	2339.630615
22949.326968	3270.144833	1624.425781	2089.042480
22949.326968	3270.144833	1623.390625	2385.756348
22949.326968	3270.144833	1622.355469	2246.083252
22949.326968	3270.144833	1621.319336	2325.719238
22949.326968	3270.144833	1620.284180	2550.724609
22949.326968	3270.144833	1619.248047	2524.177490
22949.326968	3270.144833	1618.211914	2615.293945
22949.326968	3270.144833	1617.174805	2614.133789
22949.326968	3270.144833	1616.138672	2555.365967
22949.326968	3270.144833	1615.101563	2581.921143
22949.326968	3270.144833	1614.065430	2454.079590
22949.326968	3270.144833	1613.027344	2383.892578
22949.326968	3270.144833	1611.990234	2739.990723
22949.326968	3270.144833	1610.953125	2692.871338
22949.326968	3270.144833	1609.915039	2991.232910
22949.326968	3270.144833	1608.876953	2875.045898
22949.326968	3270.144833	1607.838867	2676.057617
22949.326968	3270.144833	1606.800781	2898.376465
22949.326968	3270.144833	1605.761719	2736.326172
22949.326968	3270.144833	1604.723633	2836.668701
22949.326968	3270.144833	1603.684570	3385.550537
22949.326968	3270.144833	1602.644531	3046.494385
22949.326968	3270.144833	1601.605469	3018.038086
22949.326968	3270.144833	1600.566406	3088.483154
22949.326968	3270.144833	1599.526367	3154.327393
22949.326968	3270.144833	1598.486328	3137.453125
22949.326968	3270.144833	1597.446289	3159.683350
22949.326968	3270.144833	1596.405273	3083.153809
22949.326968	3270.144833	1595.365234	3105.465820
22949.326968	3270.144833	1594.324219	3061.206543
22949.326968	3270.144833	1593.283203	3030.782715
22949.326968	3270.144833	1592.242188	3053.208252
22949.326968	3270.144833	1591.200195	2986.154297
22949.326968	3270.144833	1590.159180	3146.338623
22949.326968	3270.144833	1589.117188	3035.799805
22949.326968	3270.144833	1588.075195	2962.049561
22949.326968	3270.144833	1587.032227	2876.898926
22949.326968	3270.144833	1585.990234	2853.745850
22949.326968	3270.144833	1584.947266	2938.375977
22949.326968	3270.144833	1583.904297	2841.973633
22949.326968	3270.144833	1582.861328	2624.221436
22949.326968	3270.144833	1581.818359	2828.132080
22949.326968	3270.144833	1580.775391	2704.485107
22949.326968	3270.144833	1579.731445	2727.489502
22949.326968	3270.144833	1578.687500	2645.223145
22949.326968	3270.144833	1577.643555	2833.159668
22949.326968	3270.144833	1576.598633	2602.249268
22949.326968	3270.144833	1575.554688	2508.791748
22949.326968	3270.144833	1574.509766	2605.302490
22949.326968	3270.144833	1573.464844	2292.412842
22949.326968	3270.144833	1572.419922	2503.395508
22949.326968	3270.144833	1571.374023	2417.116455
22949.326968	3270.144833	1570.329102	2374.380615
22949.326968	3270.144833	1569.283203	2254.009766
22949.326968	3270.144833	1568.237305	2295.990723
22949.326968	3270.144833	1567.191406	2066.154785
22949.326968	3270.144833	1566.144531	1845.602905
22949.326968	3270.144833	1565.098633	1947.221680
22949.326968	3270.144833	1564.051758	1799.984619
22949.326968	3270.144833	1563.004883	1803.542480
22949.326968	3270.144833	1561.957031	1839.113770
22949.326968	3270.144833	1560.910156	1694.483154
22949.326968	3270.144833	1559.862305	1711.957642
22949.326968	3270.144833	1558.814453	1827.584106
22949.326968	3270.144833	1557.766602	1651.327393
22949.326968	3270.144833	1556.718750	1705.510498
22949.326968	3270.144833	1555.669922	1524.931396
22949.326968	3270.144833	1554.621094	1615.731445
22949.326968	3270.144833	1553.573242	1501.495117
22949.326968	3270.144833	1552.523438	1553.681152
22949.326968	3270.144833	1551.474609	1439.652710
22949.326968	3270.144833	1550.424805	1578.536499
22949.326968	3270.144833	1549.375000	1558.060303
22949.326968	3270.144833	1548.325195	1533.121582
22949.326968	3270.144833	1547.275391	1524.211060
22949.326968	3270.144833	1546.225586	1538.145142
22949.326968	3270.144833	1545.174805	1581.727295
22949.326968	3270.144833	1544.124023	1538.939819
22949.326968	3270.144833	1543.073242	1475.788208
22949.326968	3270.144833	1542.022461	1510.525391
22949.326968	3270.144833	1540.970703	1345.269409
22949.326968	3270.144833	1539.919922	1218.819336
22949.326968	3270.144833	1538.868164	1085.682373
22949.326968	3270.144833	1537.815430	1161.710205
22949.326968	3270.144833	1536.763672	1312.772339
22949.326968	3270.144833	1535.710938	1159.524292
22949.326968	3270.144833	1534.659180	1335.692505
22949.326968	3270.144833	1533.606445	1346.147827
22949.326968	3270.144833	1532.552734	1227.305908
22949.326968	3270.144833	1531.500000	1119.963379
22949.326968	3270.144833	1530.446289	1110.314453
22949.326968	3270.144833	1529.393555	980.546814
22949.326968	3270.144833	1528.338867	1118.539185
22949.326968	3270.144833	1527.285156	1054.769531
22949.326968	3270.144833	1526.231445	972.987793
22949.326968	3270.144833	1525.176758	1049.998169
22949.326968	3270.144833	1524.122070	682.898193
22949.326968	3270.144833	1523.067383	948.198364
22949.326968	3270.144833	1522.012695	925.798584
22949.326968	3270.144833	1520.957031	806.112732
22949.326968	3270.144833	1519.901367	890.377625
22949.326968	3270.144833	1518.845703	741.522583
22949.326968	3270.144833	1517.790039	719.589111
22949.326968	3270.144833	1516.734375	851.660706
22949.326968	3270.144833	1515.677734	676.058960
22949.326968	3270.144833	1514.621094	916.877625
22949.326968	3270.144833	1513.564453	1232.346680
22949.326968	3270.144833	1512.507813	930.462708
22949.326968	3270.144833	1511.450195	1010.883545
22949.326968	3270.144833	1510.393555	989.671021
22949.326968	3270.144833	1509.335938	936.929443
22949.326968	3270.144833	1508.278320	947.585938
22949.326968	3270.144833	1507.219727	759.543884
22949.326968	3270.144833	1506.162109	863.055542
22949.326968	3270.144833	1505.103516	948.566956
22949.326968	3270.144833	1504.044922	779.033997
22949.326968	3270.144833	1502.986328	537.447327
22949.326968	3270.144833	1501.926758	505.949066
22949.326968	3270.144833	1500.868164	456.531647
22949.326968	3270.144833	1499.808594	317.004395
22949.326968	3270.144833	1498.749023	441.539398
22949.326968	3270.144833	1497.688477	272.980408
22949.326968	3270.144833	1496.628906	239.883316
22949.326968	3270.144833	1495.568359	328.633575
22949.326968	3270.144833	1494.507813	183.081467
22949.326968	3270.144833	1493.447266	175.152161
22949.326968	3270.144833	1492.386719	205.639877
22949.326968	3270.144833	1491.325195	-72.343483
22949.326968	3270.144833	1490.263672	95.778503
22949.326968	3270.144833	1489.202148	9.537374
22949.326968	3270.144833	1488.140625	101.279091
22949.326968	3270.144833	1487.079102	-13.948222
22949.326968	3270.144833	1486.016602	-174.017532
22949.326968	3270.144833	1484.954102	-12.200654
22949.326968	3270.144833	1483.891602	111.434265
22949.326968	3270.144833	1482.829102	73.231201
22949.326968	3270.144833	1481.765625	23.924063
22949.326968	3270.144833	1480.702148	102.882126
22949.326968	3270.144833	1479.638672	42.595814
22949.326968	3270.144833	1478.575195	-64.709099
22949.326968	3270.144833	1477.511719	302.118927
22949.326968	3270.144833	1476.447266	291.596527
22949.326968	3270.144833	1475.382813	402.454712
22949.326968	3270.144833	1474.318359	623.308777
22949.326968	3270.144833	1473.253906	267.591583
22949.326968	3270.144833	1472.189453	596.350037
22949.326968	3270.144833	1471.124023	548.331848
22949.326968	3270.144833	1470.058594	614.745789
22949.326968	3270.144833	1468.993164	423.760040
22949.326968	3270.144833	1467.927734	629.283752
22949.326968	3270.144833	1466.861328	673.398132
22949.326968	3270.144833	1465.794922	518.718628
22949.326968	3270.144833	1464.728516	635.117432
22949.326968	3270.144833	1463.662109	673.148315
22949.326968	3270.144833	1462.594727	729.057739
22949.326968	3270.144833	1461.528320	890.372498
22949.326968	3270.144833	1460.460938	799.245728
22949.326968	3270.144833	1459.393555	955.900818
22949.326968	3270.144833	1458.326172	687.947083
22949.326968	3270.144833	1457.257813	1043.773071
22949.326968	3270.144833	1456.189453	812.108704
22949.326968	3270.144833	1455.121094	803.731140
22949.326968	3270.144833	1454.052734	912.198914
22949.326968	3270.144833	1452.984375	800.195679
22949.326968	3270.144833	1451.915039	929.991394
22949.326968	3270.144833	1450.845703	785.066101
22949.326968	3270.144833	1449.776367	944.317261
22949.326968	3270.144833	1448.707031	1037.494751
22949.326968	3270.144833	1447.636719	849.075073
22949.326968	3270.144833	1446.567383	885.081543
22949.326968	3270.144833	1445.497070	922.367798
22949.326968	3270.144833	1444.425781	691.585510
22949.326968	3270.144833	1443.355469	825.201477
22949.326968	3270.144833	1442.285156	577.970764
22949.326968	3270.144833	1441.213867	778.321777
22949.326968	3270.144833	1440.142578	512.363159
22949.326968	3270.144833	1439.070313	730.843750
22949.326968	3270.144833	1437.999023	641.162903
22949.326968	3270.144833	1436.926758	496.459198
22949.326968	3270.144833	1435.854492	892.545898
22949.326968	3270.144833	1434.782227	860.846680
22949.326968	3270.144833	1433.709961	998.677612
22949.326968	3270.144833	1432.636719	742.327332
22949.326968	3270.144833	1431.563477	709.413330
22949.326968	3270.144833	1430.490234	706.545593
22949.326968	3270.144833	1429.416992	498.659454
22949.326968	3270.144833	1428.343750	702.613098
22949.326968	3270.144833	1427.269531	680.393738
22949.326968	3270.144833	1426.195313	773.997192
22949.326968	3270.144833	1425.121094	658.779663
22949.326968	3270.144833	1424.046875	591.430176
22949.326968	3270.144833	1422.971680	458.257782
22949.326968	3270.144833	1421.896484	657.963867
22949.326968	3270.144833	1420.821289	620.193481
22949.326968	3270.144833	1419.746094	744.678833
22949.326968	3270.144833	1418.669922	737.164856
22949.326968	3270.144833	1417.594727	878.066833
22949.326968	3270.144833	1416.518555	593.912354
22949.326968	3270.144833	1415.442383	648.125610
22949.326968	3270.144833	1414.365234	671.992004
22949.326968	3270.144833	1413.289063	798.618408
22949.326968	3270.144833	1412.211914	605.988220
22949.326968	3270.144833	1411.134766	732.091553
22949.326968	3270.144833	1410.057617	692.406555
22949.326968	3270.144833	1408.979492	637.344116
22949.326968	3270.144833	1407.902344	702.234619
22949.326968	3270.144833	1406.824219	681.210815
22949.326968	3270.144833	1405.746094	749.065125
22949.326968	3270.144833	1404.666992	605.169739
22949.326968	3270.144833	1403.588867	648.368835
22949.326968	3270.144833	1402.509766	561.188538
22949.326968	3270.144833	1401.430664	631.430603
22949.326968	3270.144833	1400.351563	697.180359
22949.326968	3270.144833	1399.271484	975.296997
22949.326968	3270.144833	1398.192383	780.781555
22949.326968	3270.144833	1397.112305	793.761108
22949.326968	3270.144833	1396.031250	935.925720
22949.326968	3270.144833	1394.951172	818.326782
22949.326968	3270.144833	1393.871094	1002.012939
22949.326968	3270.144833	1392.790039	908.258911
22949.326968	3270.144833	1391.708984	1042.278442
22949.326968	3270.144833	1390.626953	771.395020
22949.326968	3270.144833	1389.545898	1009.387634
22949.326968	3270.144833	1388.463867	1004.917786
22949.326968	3270.144833	1387.381836	988.821960
22949.326968	3270.144833	1386.299805	788.175598
22949.326968	3270.144833	1385.217773	913.760437
22949.326968	3270.144833	1384.134766	923.037292
22949.326968	3270.144833	1383.051758	933.993530
22949.326968	3270.144833	1381.968750	824.082642
22949.326968	3270.144833	1380.885742	769.537292
22949.326968	3270.144833	1379.802734	723.643066
22949.326968	3270.144833	1378.718750	729.115234
22949.326968	3270.144833	1377.634766	762.972778
22949.326968	3270.144833	1376.550781	774.416199
22949.326968	3270.144833	1375.465820	866.690369
22949.326968	3270.144833	1374.381836	845.800720
22949.326968	3270.144833	1373.296875	795.291443
22949.326968	3270.144833	1372.211914	867.042358
22949.326968	3270.144833	1371.126953	1090.442383
22949.326968	3270.144833	1370.041016	1109.477905
22949.326968	3270.144833	1368.955078	1115.353760
22949.326968	3270.144833	1367.869141	1078.387573
22949.326968	3270.144833	1366.783203	1151.907837
22949.326968	3270.144833	1365.697266	1143.441895
22949.326968	3270.144833	1364.610352	1202.918335
22949.326968	3270.144833	1363.523438	1140.541138
22949.326968	3270.144833	1362.436523	992.400513
22949.326968	3270.144833	1361.349609	1118.671509
22949.326968	3270.144833	1360.261719	1080.811035
22949.326968	3270.144833	1359.174805	1042.615845
22949.326968	3270.144833	1358.086914	890.238220
22949.326968	3270.144833	1356.998047	783.109985
22949.326968	3270.144833	1355.910156	767.585266
22949.326968	3270.144833	1354.821289	850.684631
22949.326968	3270.144833	1353.732422	719.084167
22949.326968	3270.144833	1352.643555	700.433472
22949.326968	3270.144833	1351.554688	735.561890
22949.326968	3270.144833	1350.464844	692.049988
22949.326968	3270.144833	1349.375000	596.772766
22949.326968	3270.144833	1348.285156	575.556580
22949.326968	3270.144833	1347.195313	544.912354
22949.326968	3270.144833	1346.105469	451.397858
22949.326968	3270.144833	1345.014648	608.968079
22949.326968	3270.144833	1343.923828	735.703674
22949.326968	3270.144833	1342.833008	721.230774
22949.326968	3270.144833	1341.741211	584.842468
22949.326968	3270.144833	1340.650391	629.967651
22949.326968	3270.144833	1339.558594	890.675964
22949.326968	3270.144833	1338.466797	632.063232
22949.326968	3270.144833	1337.374023	656.232361
22949.326968	3270.144833	1336.282227	619.923218
22949.326968	3270.144833	1335.189453	586.512573
22949.326968	3270.144833	1334.096680	541.353821
22949.326968	3270.144833	1333.003906	892.772156
22949.326968	3270.144833	1331.910156	913.814331
22949.326968	3270.144833	1330.817383	739.531982
22949.326968	3270.144833	1329.723633	878.767273
22949.326968	3270.144833	1328.629883	894.753174
22949.326968	3270.144833	1327.535156	685.366638
22949.326968	3270.144833	1326.441406	707.086548
22949.326968	3270.144833	1325.346680	855.236023
22949.326968	3270.144833	1324.251953	794.389526
22949.326968	3270.144833	1323.156250	785.778809
22949.326968	3270.144833	1322.061523	848.760071
22949.326968	3270.144833	1320.965820	853.505615
22949.326968	3270.144833	1319.870117	794.788879
22949.326968	3270.144833	1318.774414	759.107056
22949.326968	3270.144833	1317.678711	805.464966
22949.326968	3270.144833	1316.582031	822.652344
22949.326968	3270.144833	1315.485352	851.762573
22949.326968	3270.144833	1314.388672	1017.256714
22949.326968	3270.144833	1313.291016	855.732178
22949.326968	3270.144833	1312.194336	982.269714
22949.326968	3270.144833	1311.096680	795.017334
22949.326968	3270.144833	1309.999023	813.560364
22949.326968	3270.144833	1308.901367	918.411499
22949.326968	3270.144833	1307.802734	720.797363
22949.326968	3270.144833	1306.705078	776.912537
22949.326968	3270.144833	1305.606445	736.324280
22949.326968	3270.144833	1304.506836	814.322876
22949.326968	3270.144833	1303.408203	626.178894
22949.326968	3270.144833	1302.308594	717.859192
22949.326968	3270.144833	1301.208984	851.149048
22949.326968	3270.144833	1300.109375	721.530884
22949.326968	3270.144833	1299.009766	640.592651
22949.326968	3270.144833	1297.909180	533.317078
22949.326968	3270.144833	1296.808594	577.398376
22949.326968	3270.144833	1295.708008	681.427429
22949.326968	3270.144833	1294.607422	645.410156
22949.326968	3270.144833	1293.506836	486.647278
22949.326968	3270.144833	1292.405273	569.600403
22949.326968	3270.144833	1291.303711	627.408691
22949.326968	3270.144833	1290.202148	422.157257
22949.326968	3270.144833	1289.099609	327.067383
22949.326968	3270.144833	1287.998047	448.518829
22949.326968	3270.144833	1286.895508	298.401550
22949.326968	3270.144833	1285.792969	184.043091
22949.326968	3270.144833	1284.689453	319.191315
22949.326968	3270.144833	1283.586914	307.391754
22949.326968	3270.144833	1282.483398	438.902710
22949.326968	3270.144833	1281.379883	255.071182
22949.326968	3270.144833	1280.276367	164.759537
22949.326968	3270.144833	1279.171875	295.802673
22949.326968	3270.144833	1278.067383	354.095306
22949.326968	3270.144833	1276.962891	174.691254
22949.326968	3270.144833	1275.858398	137.451843
22949.326968	3270.144833	1274.753906	307.180847
22949.326968	3270.144833	1273.648438	204.641037
22949.326968	3270.144833	1272.542969	246.882294
22949.326968	3270.144833	1271.437500	213.092178
22949.326968	3270.144833	1270.331055	99.514969
22949.326968	3270.144833	1269.225586	255.362503
22949.326968	3270.144833	1268.119141	239.917221
22949.326968	3270.144833	1267.012695	180.587341
22949.326968	3270.144833	1265.906250	162.231293
22949.326968	3270.144833	1264.798828	126.309280
22949.326968	3270.144833	1263.691406	162.064392
22949.326968	3270.144833	1262.583984	111.622696
22949.326968	3270.144833	1261.476563	55.955921
22949.326968	3270.144833	1260.368164	97.564354
22949.326968	3270.144833	1259.260742	-109.374603
22949.326968	3270.144833	1258.152344	24.541903
22949.326968	3270.144833	1257.043945	-92.010483
22949.326968	3270.144833	1255.934570	-61.241379
22949.326968	3270.144833	1254.825195	-168.705627
22949.326968	3270.144833	1253.716797	-94.704208
22949.326968	3270.144833	1252.606445	-85.588745
22949.326968	3270.144833	1251.497070	-37.121689
22949.326968	3270.144833	1250.387695	-159.872986
22949.326968	3270.144833	1249.277344	-25.476013
22949.326968	3270.144833	1248.166992	47.079762
22949.326968	3270.144833	1247.055664	-167.862473
22949.326968	3270.144833	1245.945313	-27.628416
22949.326968	3270.144833	1244.833984	107.050232
22949.326968	3270.144833	1243.722656	28.578556
22949.326968	3270.144833	1242.611328	102.539673
22949.326968	3270.144833	1241.499023	-37.731030
22949.326968	3270.144833	1240.387695	47.450523
22949.326968	3270.144833	1239.275391	-18.127815
22949.326968	3270.144833	1238.162109	168.517487
22949.326968	3270.144833	1237.049805	190.301941
22949.326968	3270.144833	1235.936523	124.883522
22949.326968	3270.144833	1234.823242	65.475945
22949.326968	3270.144833	1233.709961	-27.387449
22949.326968	3270.144833	1232.596680	33.493675
22949.326968	3270.144833	1231.482422	59.294556
22949.326968	3270.144833	1230.369141	-114.504745
22949.326968	3270.144833	1229.253906	-78.804619
22949.326968	3270.144833	1228.139648	-28.260994
22949.326968	3270.144833	1227.025391	-3.652728
22949.326968	3270.144833	1225.910156	160.484451
22949.326968	3270.144833	1224.794922	-7.040924
22949.326968	3270.144833	1223.679688	55.478340
22949.326968	3270.144833	1222.563477	-148.132172
22949.326968	3270.144833	1221.447266	-145.482834
22949.326968	3270.144833	1220.331055	-83.079323
22949.326968	3270.144833	1219.214844	-64.322800
22949.326968	3270.144833	1218.098633	-107.248222
22949.326968	3270.144833	1216.981445	-5.001735
22949.326968	3270.144833	1215.864258	-248.206329
22949.326968	3270.144833	1214.747070	-127.644005
22949.326968	3270.144833	1213.629883	-20.637791
22949.326968	3270.144833	1212.511719	-67.862198
22949.326968	3270.144833	1211.393555	-249.729187
22949.326968	3270.144833	1210.275391	-109.850845
22949.326968	3270.144833	1209.157227	-42.088238
22949.326968	3270.144833	1208.038086	-30.988012
22949.326968	3270.144833	1206.918945	86.211784
22949.326968	3270.144833	1205.799805	6.046568
22949.326968	3270.144833	1204.680664	121.746101
22949.326968	3270.144833	1203.560547	-79.915047
22949.326968	3270.144833	1202.441406	198.422012
22949.326968	3270.144833	1201.321289	248.185028
22949.326968	3270.144833	1200.200195	204.822495
22949.326968	3270.144833	1199.080078	398.723694
22949.326968	3270.144833	1197.958984	295.686371
22949.326968	3270.144833	1196.837891	126.220840
22949.326968	3270.144833	1195.716797	125.898651
22949.326968	3270.144833	1194.594727	105.191505
22949.326968	3270.144833	1193.473633	-3.016854
22949.326968	3270.144833	1192.351563	-11.745317
22949.326968	3270.144833	1191.229492	-70.524475
22949.326968	3270.144833	1190.106445	196.161194
22949.326968	3270.144833	1188.984375	187.147873
22949.326968	3270.144833	1187.861328	126.818771
22949.326968	3270.144833	1186.738281	113.134666
22949.326968	3270.144833	1185.614258	176.738907
22949.326968	3270.144833	1184.491211	263.737457
22949.326968	3270.144833	1183.367188	105.571953
22949.326968	3270.144833	1182.243164	65.156395
22949.326968	3270.144833	1181.119141	167.826157
22949.326968	3270.144833	1179.994141	46.475418
22949.326968	3270.144833	1178.869141	16.852346
22949.326968	3270.144833	1177.744141	60.563789
22949.326968	3270.144833	1176.619141	91.153145
22949.326968	3270.144833	1175.493164	72.140465
22949.326968	3270.144833	1174.368164	31.483963
22949.326968	3270.144833	1173.242188	4.148106
22949.326968	3270.144833	1172.115234	-10.616776
22949.326968	3270.144833	1170.989258	64.963219
22949.326968	3270.144833	1169.862305	-26.753134
22949.326968	3270.144833	1168.735352	60.660442
22949.326968	3270.144833	1167.608398	-6.732101
22949.326968	3270.144833	1166.481445	-49.051373
22949.326968	3270.144833	1165.353516	17.088598
22949.326968	3270.144833	1164.225586	-6.006819
22949.326968	3270.144833	1163.097656	-3.451380
22949.326968	3270.144833	1161.968750	100.152504
22949.326968	3270.144833	1160.840820	35.178150
22949.326968	3270.144833	1159.711914	195.820587
22949.326968	3270.144833	1158.583008	-173.944656
22949.326968	3270.144833	1157.453125	4.622637
22949.326968	3270.144833	1156.324219	28.625656
22949.326968	3270.144833	1155.194336	-103.282890
22949.326968	3270.144833	1154.064453	-137.195633
22949.326968	3270.144833	1152.933594	-3.169373
22949.326968	3270.144833	1151.803711	-71.715767
22949.326968	3270.144833	1150.672852	-169.772293
22949.326968	3270.144833	1149.541992	-124.904984
22949.326968	3270.144833	1148.411133	-34.725552
22949.326968	3270.144833	1147.279297	9.843760
22949.326968	3270.144833	1146.147461	-64.871330
22949.326968	3270.144833	1145.015625	-1.445392
22949.326968	3270.144833	1143.883789	3.324349
22949.326968	3270.144833	1142.750977	-35.782360
22949.326968	3270.144833	1141.619141	140.371201
22949.326968	3270.144833	1140.486328	147.513763
22949.326968	3270.144833	1139.352539	244.723007
22949.326968	3270.144833	1138.219727	191.975800
22949.326968	3270.144833	1137.085938	181.519165
22949.326968	3270.144833	1135.952148	279.151001
22949.326968	3270.144833	1134.818359	220.919830
22949.326968	3270.144833	1133.683594	223.648056
22949.326968	3270.144833	1132.549805	321.340424
22949.326968	3270.144833	1131.415039	372.735687
22949.326968	3270.144833	1130.279297	515.730896
22949.326968	3270.144833	1129.144531	545.376099
22949.326968	3270.144833	1128.008789	521.156738
22949.326968	3270.144833	1126.873047	560.192505
22949.326968	3270.144833	1125.737305	624.291809
22949.326968	3270.144833	1124.601563	744.043274
22949.326968	3270.144833	1123.464844	531.260071
22949.326968	3270.144833	1122.328125	429.776947
22949.326968	3270.144833	1121.191406	526.784119
22949.326968	3270.144833	1120.054688	399.549988
22949.326968	3270.144833	1118.916992	424.201996
22949.326968	3270.144833	1117.779297	301.536072
22949.326968	3270.144833	1116.641602	402.218994
22949.326968	3270.144833	1115.503906	418.407867
22949.326968	3270.144833	1114.365234	484.859863
22949.326968	3270.144833	1113.226563	265.655304
22949.326968	3270.144833	1112.087891	220.508865
22949.326968	3270.144833	1110.949219	72.743713
22949.326968	3270.144833	1109.809570	211.756439
22949.326968	3270.144833	1108.669922	147.760452
22949.326968	3270.144833	1107.530273	12.952897
22949.326968	3270.144833	1106.390625	71.826851
22949.326968	3270.144833	1105.250000	293.259216
22949.326968	3270.144833	1104.109375	183.303467
22949.326968	3270.144833	1102.968750	84.200737
22949.326968	3270.144833	1101.828125	26.533005
22949.326968	3270.144833	1100.686523	129.664276
22949.326968	3270.144833	1099.544922	36.096531
22949.326968	3270.144833	1098.403320	323.637329
22949.326968	3270.144833	1097.261719	233.599152
22949.326968	3270.144833	1096.120117	294.696808
22949.326968	3270.144833	1094.977539	267.845795
22949.326968	3270.144833	1093.834961	218.275009
22949.326968	3270.144833	1092.691406	430.847137
22949.326968	3270.144833	1091.548828	292.472443
22949.326968	3270.144833	1090.405273	223.993469
22949.326968	3270.144833	1089.261719	114.846352
22949.326968	3270.144833	1088.118164	87.912964
22949.326968	3270.144833	1086.973633	-57.036049
22949.326968	3270.144833	1085.829102	238.108490
22949.326968	3270.144833	1084.684570	11.765568
22949.326968	3270.144833	1083.540039	178.234055
22949.326968	3270.144833	1082.395508	-44.545570
22949.326968	3270.144833	1081.250000	166.640488
22949.326968	3270.144833	1080.104492	97.145844
22949.326968	3270.144833	1078.958984	158.669785
22949.326968	3270.144833	1077.812500	232.131027
22949.326968	3270.144833	1076.666016	280.394135
22949.326968	3270.144833	1075.519531	248.062683
22949.326968	3270.144833	1074.373047	95.688568
22949.326968	3270.144833	1073.226563	180.337311
22949.326968	3270.144833	1072.079102	300.545532
22949.326968	3270.144833	1070.931641	247.561920
22949.326968	3270.144833	1069.784180	162.354340
22949.326968	3270.144833	1068.635742	303.752258
22949.326968	3270.144833	1067.487305	207.978165
22949.326968	3270.144833	1066.338867	167.145447
22949.326968	3270.144833	1065.190430	389.918335
22949.326968	3270.144833	1064.041992	348.230560
22949.326968	3270.144833	1062.892578	309.507111
22949.326968	3270.144833	1061.743164	476.049805
22949.326968	3270.144833	1060.593750	486.810974
22949.326968	3270.144833	1059.443359	346.636292
22949.326968	3270.144833	1058.292969	184.055359
22949.326968	3270.144833	1057.142578	164.728516
22949.326968	3270.144833	1055.992188	278.086639
22949.326968	3270.144833	1054.841797	40.862328
22949.326968	3270.144833	1053.690430	30.096378
22949.326968	3270.144833	1052.539063	-0.436231
22949.326968	3270.144833	1051.387695	140.341873
22949.326968	3270.144833	1050.235352	78.944946
22949.326968	3270.144833	1049.083984	13.695693
22949.326968	3270.144833	1047.931641	-40.168644
22949.326968	3270.144833	1046.778320	-12.356960
22949.326968	3270.144833	1045.625977	12.779942
22949.326968	3270.144833	1044.472656	109.003426
22949.326968	3270.144833	1043.319336	4.008857
22949.326968	3270.144833	1042.166016	251.949814
22949.326968	3270.144833	1041.012695	-125.052315
22949.326968	3270.144833	1039.858398	-50.965149
22949.326968	3270.144833	1038.704102	119.528008
22949.326968	3270.144833	1037.549805	123.789742
22949.326968	3270.144833	1036.394531	52.329865
22949.326968	3270.144833	1035.239258	-25.234970
22949.326968	3270.144833	1034.083984	-54.706219
22949.326968	3270.144833	1032.928711	194.668381
22949.326968	3270.144833	1031.773438	222.464310
22949.326968	3270.144833	1030.617188	90.272247
22949.326968	3270.144833	1029.460938	30.387800
22949.326968	3270.144833	1028.304688	101.784935
22949.326968	3270.144833	1027.147461	126.828575
22949.326968	3270.144833	1025.991211	-4.472892
22949.326968	3270.144833	1024.833984	179.072922
22949.326968	3270.144833	1023.675781	198.724991
22949.326968	3270.144833	1022.518555	71.726364
22949.326968	3270.144833	1021.360352	144.195938
22949.326968	3270.144833	1020.202148	39.444378
22949.326968	3270.144833	1019.043945	-56.369743
22949.326968	3270.144833	1017.884766	82.398438
22949.326968	3270.144833	1016.726563	165.427994
22949.326968	3270.144833	1015.567383	94.844193
22949.326968	3270.144833	1014.407227	197.703918
22949.326968	3270.144833	1013.248047	17.893541
22949.326968	3270.144833	1012.087891	64.820320
22949.326968	3270.144833	1010.927734	114.916420
22949.326968	3270.144833	1009.767578	196.298431
22949.326968	3270.144833	1008.606445	-92.592216
22949.326968	3270.144833	1007.446289	-128.545471
22949.326968	3270.144833	1006.285156	36.009579
22949.326968	3270.144833	1005.123047	-120.229538
22949.326968	3270.144833	1003.961914	115.310776
22949.326968	3270.144833	1002.799805	45.602554
22949.326968	3270.144833	1001.637695	-66.895302
22949.326968	3270.144833	1000.475586	33.364479
22949.326968	3270.144833	999.312500	147.496841
22949.326968	3270.144833	998.149414	130.143448
22949.326968	3270.144833	996.986328	-42.900398
22949.326968	3270.144833	995.823242	43.116707
22949.326968	3270.144833	994.659180	-54.795910
22949.326968	3270.144833	993.496094	-67.715271
22949.326968	3270.144833	992.332031	-173.719864
22949.326968	3270.144833	991.166992	-52.965611
22949.326968	3270.144833	990.002930	-177.891617
22949.326968	3270.144833	988.837891	-99.536545
22949.326968	3270.144833	987.672852	-138.270096
22949.326968	3270.144833	986.506836	-3.439624
22949.326968	3270.144833	985.341797	-125.756401
22949.326968	3270.144833	984.175781	4.373452
22949.326968	3270.144833	983.009766	-46.488956
22949.326968	3270.144833	981.843750	-154.728943
22949.326968	3270.144833	980.676758	-110.184273
22949.326968	3270.144833	979.509766	-162.734161
22949.326968	3270.144833	978.342773	-55.257080
22949.326968	3270.144833	977.175781	-170.487946
22949.326968	3270.144833	976.007813	-113.833038
22949.326968	3270.144833	974.839844	69.425270
22949.326968	3270.144833	973.671875	137.907516
22949.326968	3270.144833	972.503906	21.130756
22949.326968	3270.144833	971.334961	-0.060440
22949.326968	3270.144833	970.166016	104.738190
22949.326968	3270.144833	968.997070	160.177490
22949.326968	3270.144833	967.828125	21.790091
22949.326968	3270.144833	966.658203	89.004463
22949.326968	3270.144833	965.488281	109.954483
22949.326968	3270.144833	964.318359	40.411095
22949.326968	3270.144833	963.148438	3.591524
22949.326968	3270.144833	961.977539	224.853790
22949.326968	3270.144833	960.806641	311.956879
22949.326968	3270.144833	959.635742	-63.891708
22949.326968	3270.144833	958.463867	127.338776
22949.326968	3270.144833	957.292969	117.096817
22949.326968	3270.144833	956.121094	85.275574
22949.326968	3270.144833	954.948242	-141.934189
22949.326968	3270.144833	953.776367	30.012850
22949.326968	3270.144833	952.603516	86.832916
22949.326968	3270.144833	951.430664	153.506897
22949.326968	3270.144833	950.257813	134.496155
22949.326968	3270.144833	949.084961	24.095055
22949.326968	3270.144833	947.911133	95.509918
22949.326968	3270.144833	946.737305	24.792051
22949.326968	3270.144833	945.563477	-94.064972
22949.326968	3270.144833	944.388672	-19.846109
22949.326968	3270.144833	943.213867	68.729492
22949.326968	3270.144833	942.039063	-55.007671
22949.326968	3270.144833	940.864258	-70.868721
22949.326968	3270.144833	939.688477	67.990196
22949.326968	3270.144833	938.513672	-43.287350
22949.326968	3270.144833	937.337891	70.449768
22949.326968	3270.144833	936.161133	149.209702
22949.326968	3270.144833	934.985352	298.025818
22949.326968	3270.144833	933.808594	46.912350
22949.326968	3270.144833	932.631836	88.070290
22949.326968	3270.144833	931.454102	129.194870
22949.326968	3270.144833	930.277344	125.376251
22949.326968	3270.144833	929.099609	196.483002
22949.326968	3270.144833	927.921875	187.556015
22949.326968	3270.144833	926.743164	186.134186
22949.326968	3270.144833	925.565430	279.600769
22949.326968	3270.144833	924.386719	178.223633
22949.326968	3270.144833	923.208008	21.926493
22949.326968	3270.144833	922.028320	37.925919
22949.326968	3270.144833	920.849609	-45.936691
22949.326968	3270.144833	919.669922	-43.162209
22949.326968	3270.144833	919.474609	42.881451
22949.326968	3270.144833	918.309570	13.874779
22949.326968	3270.144833	917.143555	-199.745575
22949.326968	3270.144833	915.977539	5.730329
22949.326968	3270.144833	914.810547	-60.707634
22949.326968	3270.144833	913.644531	-114.672005
22949.326968	3270.144833	912.477539	20.814619
22949.326968	3270.144833	911.310547	-45.639309
22949.326968	3270.144833	910.143555	-107.098907
22949.326968	3270.144833	908.975586	-14.094928
22949.326968	3270.144833	907.807617	101.269203
22949.326968	3270.144833	906.639648	-19.993525
22949.326968	3270.144833	905.471680	-96.409180
22949.326968	3270.144833	904.303711	48.723705
22949.326968	3270.144833	903.134766	24.557888
22949.326968	3270.144833	901.965820	246.711655
22949.326968	3270.144833	900.796875	-23.789312
22949.326968	3270.144833	899.626953	-3.200518
22949.326968	3270.144833	898.457031	32.285812
22949.326968	3270.144833	897.287109	110.007835
22949.326968	3270.144833	896.117188	73.346664
22949.326968	3270.144833	894.947266	-147.210129
22949.326968	3270.144833	893.776367	86.991051
22949.326968	3270.144833	892.605469	142.229691
22949.326968	3270.144833	891.434570	-83.209778
22949.326968	3270.144833	890.262695	-204.279282
22949.326968	3270.144833	889.091797	-5.064540
22949.326968	3270.144833	887.919922	47.617290
22949.326968	3270.144833	886.748047	95.303535
22949.326968	3270.144833	885.575195	23.870350
22949.326968	3270.144833	884.403320	-62.429066
22949.326968	3270.144833	883.230469	-56.943218
22949.326968	3270.144833	882.057617	22.915037
22949.326968	3270.144833	880.883789	-179.874680
22949.326968	3270.144833	879.710938	38.750443
22949.326968	3270.144833	878.537109	-20.257408
22949.326968	3270.144833	877.362305	14.893907
22949.326968	3270.144833	876.188477	72.312180
22949.326968	3270.144833	875.013672	-100.612999
22949.326968	3270.144833	873.839844	-8.551144
22949.326968	3270.144833	872.664063	6.726996
22949.326968	3270.144833	871.489258	118.511024
22949.326968	3270.144833	870.313477	24.863293
22949.326968	3270.144833	869.138672	30.199286
22949.326968	3270.144833	867.962891	-28.782940
22949.326968	3270.144833	866.786133	-18.507111
22949.326968	3270.144833	865.610352	-72.528427
22949.326968	3270.144833	864.433594	78.633339
22949.326968	3270.144833	863.256836	71.554642
22949.326968	3270.144833	862.079102	-14.596655
22949.326968	3270.144833	860.902344	-132.838608
22949.326968	3270.144833	859.724609	-78.146149
22949.326968	3270.144833	858.546875	-11.139110
22949.326968	3270.144833	857.368164	107.681374
22949.326968	3270.144833	856.190430	-30.267160
22949.326968	3270.144833	855.011719	-99.066185
22949.326968	3270.144833	853.833008	-130.834549
22949.326968	3270.144833	852.654297	-169.998962
22949.326968	3270.144833	851.474609	-93.235405
22949.326968	3270.144833	850.294922	-1.716449
22949.326968	3270.144833	849.115234	-13.786783
22949.326968	3270.144833	847.935547	85.056557
22949.326968	3270.144833	846.754883	-18.220894
22949.326968	3270.144833	845.575195	63.319958
22949.326968	3270.144833	844.393555	80.776833
22949.326968	3270.144833	843.212891	132.695587
22949.326968	3270.144833	842.032227	-78.879189
22949.326968	3270.144833	840.850586	-12.192934
22949.326968	3270.144833	839.668945	59.380630
22949.326968	3270.144833	838.486328	-51.178398
22949.326968	3270.144833	837.304688	-16.546116
22949.326968	3270.144833	836.122070	-36.049423
22949.326968	3270.144833	834.939453	-102.278839
22949.326968	3270.144833	833.756836	-84.891632
22949.326968	3270.144833	832.573242	-168.306213
22949.326968	3270.144833	831.389648	11.283417
22949.326968	3270.144833	830.206055	-27.904078
22949.326968	3270.144833	829.022461	6.618544
22949.326968	3270.144833	827.838867	31.293589
22949.326968	3270.144833	826.654297	-59.467331
22949.326968	3270.144833	825.469727	-115.826988
22949.326968	3270.144833	824.284180	-56.799572
22949.326968	3270.144833	823.099609	105.268005
22949.326968	3270.144833	821.914063	90.596451
22949.326968	3270.144833	820.728516	26.858936
22949.326968	3270.144833	819.542969	-46.673172
22949.326968	3270.144833	818.356445	127.485863
22949.326968	3270.144833	817.169922	66.204529
22949.326968	3270.144833	815.983398	29.449492
22949.326968	3270.144833	814.796875	39.262592
22949.326968	3270.144833	813.609375	-161.649780
22949.326968	3270.144833	812.422852	-36.689129
22949.326968	3270.144833	811.235352	-53.838066
22949.326968	3270.144833	810.046875	-70.989365
22949.326968	3270.144833	808.859375	14.675241
22949.326968	3270.144833	807.670898	190.856659
22949.326968	3270.144833	806.482422	-78.419380
22949.326968	3270.144833	805.293945	68.326439
22949.326968	3270.144833	804.104492	122.050377
22949.326968	3270.144833	802.915039	-46.808727
22949.326968	3270.144833	801.725586	-32.228619
22949.326968	3270.144833	800.536133	107.007294
22949.326968	3270.144833	799.345703	111.749756
22949.326968	3270.144833	798.155273	16.292095
22949.326968	3270.144833	796.964844	-137.772156
22949.326968	3270.144833	795.774414	-59.743988
22949.326968	3270.144833	794.583008	-52.578415
22949.326968	3270.144833	793.392578	30.255913
22949.326968	3270.144833	792.200195	-26.093838
22949.326968	3270.144833	791.008789	20.067451
22949.326968	3270.144833	789.816406	144.276245
22949.326968	3270.144833	788.625000	43.982891
22949.326968	3270.144833	787.432617	-48.966621
22949.326968	3270.144833	786.239258	-222.361664
22949.326968	3270.144833	785.046875	13.882962
22949.326968	3270.144833	783.853516	-37.609528
22949.326968	3270.144833	782.660156	-8.675577
22949.326968	3270.144833	781.465820	-52.864113
22949.326968	3270.144833	780.272461	73.466774
22949.326968	3270.144833	779.078125	-31.640850
22949.326968	3270.144833	777.883789	77.555695
22949.326968	3270.144833	776.688477	-17.804115
22949.326968	3270.144833	775.494141	-137.483536
22949.326968	3270.144833	774.298828	-137.890854
22949.326968	3270.144833	773.103516	14.958881
22949.326968	3270.144833	771.907227	192.051727
22949.326968	3270.144833	770.711914	74.786644
22949.326968	3270.144833	769.515625	93.712265
22949.326968	3270.144833	768.318359	-35.674713
22949.326968	3270.144833	767.122070	124.189781
22949.326968	3270.144833	765.924805	9.388463
22949.326968	3270.144833	764.727539	234.731522
22949.326968	3270.144833	763.530273	98.052620
22949.326968	3270.144833	762.333008	-70.159325
22949.326968	3270.144833	761.134766	53.023979
22949.326968	3270.144833	759.936523	23.208694
22949.326968	3270.144833	758.738281	126.861275
22949.326968	3270.144833	757.540039	48.469654
22949.326968	3270.144833	756.340820	-88.131699
22949.326968	3270.144833	755.141602	-64.626610
22949.326968	3270.144833	753.942383	135.859573
22949.326968	3270.144833	752.742188	108.348755
22949.326968	3270.144833	751.541992	-47.638733
22949.326968	3270.144833	750.341797	-89.689186
22949.326968	3270.144833	749.141602	-160.821503
22949.326968	3270.144833	747.941406	-86.611244
22949.326968	3270.144833	746.740234	77.150894
22949.326968	3270.144833	745.539063	-228.917984
22949.326968	3270.144833	744.337891	-82.194221
22949.326968	3270.144833	743.135742	-32.369946
22949.326968	3270.144833	741.933594	-33.411003
22949.326968	3270.144833	740.731445	-36.898804
22949.326968	3270.144833	739.529297	49.081333
22949.326968	3270.144833	738.326172	-63.302471
22949.326968	3270.144833	737.124023	-59.615082
22949.326968	3270.144833	735.919922	127.754936
22949.326968	3270.144833	734.716797	-98.251823
22949.326968	3270.144833	733.513672	76.905777
22949.326968	3270.144833	732.309570	20.046129
22949.326968	3270.144833	731.105469	64.620598
22949.326968	3270.144833	729.900391	432.721924
22949.326968	3270.144833	728.696289	197.074692
22949.326968	3270.144833	727.491211	84.594200
22949.326968	3270.144833	726.286133	242.411621
22949.326968	3270.144833	725.080078	202.286575
22949.326968	3270.144833	723.874023	248.984116
22949.326968	3270.144833	722.668945	351.098419
22949.326968	3270.144833	721.461914	101.097435
22949.326968	3270.144833	720.255859	205.541855
22949.326968	3270.144833	719.048828	285.805634
22949.326968	3270.144833	717.841797	194.911713
22949.326968	3270.144833	716.634766	169.067795
22949.326968	3270.144833	715.427734	-1.322160
22949.326968	3270.144833	714.219727	-70.533882
22949.326968	3270.144833	713.011719	2.301421
22949.326968	3270.144833	711.803711	-134.356613
22949.326968	3270.144833	710.594727	44.280678
22949.326968	3270.144833	709.385742	104.902473
22949.326968	3270.144833	708.176758	-14.964171
22949.326968	3270.144833	706.967773	110.508568
22949.326968	3270.144833	705.758789	-93.549728
22949.326968	3270.144833	704.548828	-9.061469
22949.326968	3270.144833	703.338867	130.635361
22949.326968	3270.144833	702.127930	-63.804558
22949.326968	3270.144833	700.917969	-99.626984
22949.326968	3270.144833	699.707031	15.859529
22949.326968	3270.144833	698.496094	30.388433
22949.326968	3270.144833	697.285156	112.102051
22949.326968	3270.144833	696.073242	160.130508
22949.326968	3270.144833	694.861328	40.089222
22949.326968	3270.144833	693.649414	-41.548424
22949.326968	3270.144833	692.436523	78.330040
22949.326968	3270.144833	691.224609	49.403263
22949.326968	3270.144833	690.011719	226.682510
22949.326968	3270.144833	688.798828	60.988480
22949.326968	3270.144833	687.584961	204.544846
22949.326968	3270.144833	686.372070	371.965118
22949.326968	3270.144833	685.158203	258.928314
22949.326968	3270.144833	683.943359	222.553299
22949.326968	3270.144833	682.729492	554.992859
22949.326968	3270.144833	681.514648	410.727539
22949.326968	3270.144833	680.299805	486.732635
22949.326968	3270.144833	679.084961	505.216034
22949.326968	3270.144833	677.869141	437.495911
22949.326968	3270.144833	676.653320	350.618988
22949.326968	3270.144833	675.437500	309.182739
22949.326968	3270.144833	674.221680	329.898987
22949.326968	3270.144833	673.004883	211.879761
22949.326968	3270.144833	671.789063	330.529572
22949.326968	3270.144833	670.571289	346.310638
22949.326968	3270.144833	669.354492	421.778137
22949.326968	3270.144833	668.136719	454.164886
22949.326968	3270.144833	666.919922	379.009491
22949.326968	3270.144833	665.701172	260.852905
22949.326968	3270.144833	664.483398	159.414856
22949.326968	3270.144833	663.264648	122.421059
22949.326968	3270.144833	662.045898	271.544739
22949.326968	3270.144833	660.827148	430.104248
22949.326968	3270.144833	659.608398	256.964813
22949.326968	3270.144833	658.388672	300.885651
22949.326968	3270.144833	657.168945	237.439560
22949.326968	3270.144833	655.949219	107.222260
22949.326968	3270.144833	654.728516	189.143280
22949.326968	3270.144833	653.507813	282.898621
22949.326968	3270.144833	652.287109	71.609428
22949.326968	3270.144833	651.066406	284.356842
22949.326968	3270.144833	649.844727	354.077637
22949.326968	3270.144833	648.623047	266.578339
22949.326968	3270.144833	647.401367	250.485046
22949.326968	3270.144833	646.179688	317.651398
22949.326968	3270.144833	644.957031	372.844147
22949.326968	3270.144833	643.734375	254.304565
22949.326968	3270.144833	642.511719	297.503540
22949.326968	3270.144833	641.289063	266.923706
22949.326968	3270.144833	640.065430	350.426392
22949.326968	3270.144833	638.841797	179.515823
22949.326968	3270.144833	637.618164	260.535950
22949.326968	3270.144833	636.393555	134.767990
22949.326968	3270.144833	635.168945	201.419434
22949.326968	3270.144833	633.944336	85.129181
22949.326968	3270.144833	632.719727	220.533264
22949.326968	3270.144833	631.494141	222.894272
22949.326968	3270.144833	630.269531	89.928078
22949.326968	3270.144833	629.042969	123.075165
22949.326968	3270.144833	627.817383	108.718925
22949.326968	3270.144833	626.590820	125.159561
22949.326968	3270.144833	625.365234	165.266571
22949.326968	3270.144833	624.137695	302.518188
22949.326968	3270.144833	622.911133	88.850983
22949.326968	3270.144833	621.683594	43.494652
22949.326968	3270.144833	620.456055	-37.424839
22949.326968	3270.144833	619.228516	49.842937
22949.326968	3270.144833	618.000977	75.454659
22949.326968	3270.144833	616.772461	124.692253
22949.326968	3270.144833	615.543945	105.215073
22949.326968	3270.144833	614.314453	118.841148
22949.326968	3270.144833	613.085938	125.326454
22949.326968	3270.144833	611.856445	91.549736
22949.326968	3270.144833	610.626953	105.056267
22949.326968	3270.144833	609.397461	80.683479
22949.326968	3270.144833	608.166992	146.127258
22949.326968	3270.144833	606.936523	83.858795
22949.326968	3270.144833	605.706055	7.401111
22949.326968	3270.144833	604.474609	108.153175
22949.326968	3270.144833	603.244141	8.030700
22949.326968	3270.144833	602.012695	70.882805
22949.326968	3270.144833	600.780273	58.108467
22949.326968	3270.144833	599.548828	160.992737
22949.326968	3270.144833	598.316406	282.681488
22949.326968	3270.144833	597.083984	510.481201
22949.326968	3270.144833	595.851563	464.467712
22949.326968	3270.144833	594.618164	465.618011
22949.326968	3270.144833	593.384766	245.054153
22949.326968	3270.144833	592.151367	236.762161
22949.326968	3270.144833	590.917969	226.088455
22949.326968	3270.144833	589.683594	132.898712
22949.326968	3270.144833	588.449219	70.356041
22949.326968	3270.144833	587.214844	106.760048
22949.326968	3270.144833	585.979492	60.682404
22949.326968	3270.144833	584.745117	99.378532
22949.326968	3270.144833	583.509766	25.024246
22949.326968	3270.144833	582.273438	66.012871
22949.326968	3270.144833	581.038086	-163.667618
22949.326968	3270.144833	579.801758	121.996407
22949.326968	3270.144833	578.565430	9.974958
22949.326968	3270.144833	577.329102	46.146805
22949.326968	3270.144833	576.091797	-108.176170
22949.326968	3270.144833	574.854492	12.596227
22949.326968	3270.144833	573.617188	79.242210
22949.326968	3270.144833	572.378906	202.237717
22949.326968	3270.144833	571.141602	-109.456345
22949.326968	3270.144833	569.903320	-71.059868
22949.326968	3270.144833	568.664063	11.921187
22949.326968	3270.144833	567.425781	-292.531708
22949.326968	3270.144833	566.186523	-80.460686
22949.326968	3270.144833	564.947266	-126.638748
22949.326968	3270.144833	563.708008	132.213364
22949.326968	3270.144833	562.467773	41.416336
22949.326968	3270.144833	561.227539	-136.125031
22949.326968	3270.144833	559.987305	-172.908813
22949.326968	3270.144833	558.747070	62.256344
22949.326968	3270.144833	557.505859	-9.724888
22949.326968	3270.144833	556.264648	-69.964264
22949.326968	3270.144833	555.023438	-139.550674
22949.326968	3270.144833	553.781250	-141.186890
22949.326968	3270.144833	552.539063	-79.594025
22949.326968	3270.144833	551.296875	26.456415
22949.326968	3270.144833	550.054688	109.055222
22949.326968	3270.144833	548.811523	219.699844
22949.326968	3270.144833	547.569336	-32.365433
22949.326968	3270.144833	546.325195	-27.002701
22949.326968	3270.144833	545.082031	-183.012039
22949.326968	3270.144833	543.837891	-72.385826
22949.326968	3270.144833	542.593750	-120.770988
22949.326968	3270.144833	541.349609	6.169335
22949.326968	3270.144833	540.105469	44.266148
22949.326968	3270.144833	538.860352	-48.481133
22949.326968	3270.144833	537.615234	199.847885
22949.326968	3270.144833	536.369141	46.408886
22949.326968	3270.144833	535.124023	-193.337265
22949.326968	3270.144833	533.877930	-22.135761
22949.326968	3270.144833	532.631836	-210.397369
22949.326968	3270.144833	531.384766	-71.905838
22949.326968	3270.144833	530.138672	-164.401627
22949.326968	3270.144833	528.891602	-240.518555
22949.326968	3270.144833	527.643555	-246.635635
22949.326968	3270.144833	526.396484	-159.475876
22949.326968	3270.144833	525.148438	132.771255
22949.326968	3270.144833	523.900391	-113.385223
22949.326968	3270.144833	522.652344	-147.403580
22949.326968	3270.144833	521.403320	-118.499222
22949.326968	3270.144833	520.154297	-192.051941
22949.326968	3270.144833	518.905273	67.394989
22949.326968	3270.144833	517.656250	-78.281792
22949.326968	3270.144833	516.406250	-91.219582
22949.326968	3270.144833	515.156250	-87.839378
22949.326968	3270.144833	513.906250	-65.826149
22949.326968	3270.144833	512.655273	2.716982
22949.326968	3270.144833	511.404297	-219.404572
22949.326968	3270.144833	510.153320	-278.668854
22949.326968	3270.144833	508.902344	-131.017761
22949.326968	3270.144833	507.650391	-215.784958
22949.326968	3270.144833	506.398438	-49.572472
22949.326968	3270.144833	505.146484	-59.934635
22949.326968	3270.144833	503.893555	24.947218
22949.326968	3270.144833	502.641602	126.077278
22949.326968	3270.144833	501.388672	-18.866457
22949.326968	3270.144833	500.134766	14.979539
22949.326968	3270.144833	498.881836	106.851616
22949.326968	3270.144833	497.627930	187.111359
22949.326968	3270.144833	496.374023	160.679626
22949.326968	3270.144833	495.119141	83.272430
22949.326968	3270.144833	493.865234	43.024132
22949.326968	3270.144833	492.610352	202.150818
22949.326968	3270.144833	491.355469	101.700951
22949.326968	3270.144833	490.099609	31.440226
22949.326968	3270.144833	488.843750	130.328079
22949.326968	3270.144833	487.587891	87.939362
22949.326968	3270.144833	486.332031	126.632050
22949.326968	3270.144833	485.075195	-19.850801
22949.326968	3270.144833	483.818359	-8.869432
22949.326968	3270.144833	482.561523	-30.259424
22949.326968	3270.144833	481.304688	-197.352524
22949.326968	3270.144833	480.046875	14.950579
22949.326968	3270.144833	478.789063	-71.101379
22949.326968	3270.144833	477.531250	46.347134
22949.326968	3270.144833	476.272461	57.445045
22949.326968	3270.144833	475.013672	170.235718
22949.326968	3270.144833	473.754883	-40.446091
22949.326968	3270.144833	472.496094	58.497982
22949.326968	3270.144833	471.236328	210.529083
22949.326968	3270.144833	469.976563	170.879578
22949.326968	3270.144833	468.716797	299.770599
22949.326968	3270.144833	467.456055	220.912064
22949.326968	3270.144833	466.196289	10.583233
22949.326968	3270.144833	464.935547	54.104797
22949.326968	3270.144833	463.673828	263.669159
22949.326968	3270.144833	462.413086	85.771065
22949.326968	3270.144833	461.151367	334.438873
22949.326968	3270.144833	459.889648	200.397247
22949.326968	3270.144833	458.626953	82.540886
22949.326968	3270.144833	457.364258	197.420334
22949.326968	3270.144833	456.101563	-90.842087
22949.326968	3270.144833	454.838867	65.460823
22949.326968	3270.144833	453.575195	99.657845
22949.326968	3270.144833	452.312500	350.202667
22949.326968	3270.144833	451.047852	20.673054
22949.326968	3270.144833	449.784180	121.528687
22949.326968	3270.144833	448.519531	-67.532524
22949.326968	3270.144833	447.254883	44.742039
22949.326968	3270.144833	445.990234	32.769505
22949.326968	3270.144833	444.725586	87.433655
22949.326968	3270.144833	443.459961	128.240631
22949.326968	3270.144833	442.194336	152.900528
22949.326968	3270.144833	440.927734	90.197418
22949.326968	3270.144833	439.662109	100.970619
22949.326968	3270.144833	438.395508	100.196587
22949.326968	3270.144833	437.127930	237.109528
22949.326968	3270.144833	435.861328	249.946930
22949.326968	3270.144833	434.593750	264.995941
22949.326968	3270.144833	433.326172	360.263550
22949.326968	3270.144833	432.058594	361.354370
22949.326968	3270.144833	430.790039	199.519348
22949.326968	3270.144833	429.521484	200.452530
22949.326968	3270.144833	428.252930	134.801895
22949.326968	3270.144833	426.984375	165.330490
22949.326968	3270.144833	425.714844	255.301727
22949.326968	3270.144833	424.445313	177.872971
22949.326968	3270.144833	423.174805	370.611664
22949.326968	3270.144833	421.905273	105.147194
22949.326968	3270.144833	420.634766	180.772461
22949.326968	3270.144833	419.364258	194.408890
22949.326968	3270.144833	418.092773	434.428192
22949.326968	3270.144833	416.822266	95.326912
22949.326968	3270.144833	415.550781	231.977020
22949.326968	3270.144833	414.278320	334.069427
22949.326968	3270.144833	413.006836	-51.089691
22949.326968	3270.144833	411.734375	123.763519
22949.326968	3270.144833	410.461914	24.069090
22949.326968	3270.144833	409.188477	159.535645
22949.326968	3270.144833	407.916016	54.840622
22949.326968	3270.144833	406.642578	4.752237
22949.326968	3270.144833	405.368164	-63.848339
22949.326968	3270.144833	404.094727	154.971436
22949.326968	3270.144833	402.820313	8.208170
22949.326968	3270.144833	401.545898	153.308853
22949.326968	3270.144833	400.270508	-0.843770
22949.326968	3270.144833	398.996094	38.641350
22949.326968	3270.144833	397.720703	-11.170052
22949.326968	3270.144833	396.444336	121.087082
22949.326968	3270.144833	395.168945	116.162659
22949.326968	3270.144833	393.892578	181.507507
22949.326968	3270.144833	392.616211	387.703644
22949.326968	3270.144833	391.339844	217.531479
22949.326968	3270.144833	390.062500	254.261292
22949.326968	3270.144833	388.785156	204.012909
22949.326968	3270.144833	387.507813	64.550941
22949.326968	3270.144833	386.229492	86.271408
22949.326968	3270.144833	384.951172	100.670868
22949.326968	3270.144833	383.672852	207.840851
22949.326968	3270.144833	382.394531	114.283630
22949.326968	3270.144833	381.115234	177.129272
22949.326968	3270.144833	379.835938	212.108536
22949.326968	3270.144833	378.556641	182.852249
22949.326968	3270.144833	377.277344	46.202732
22949.326968	3270.144833	375.997070	172.547272
22949.326968	3270.144833	374.716797	50.598896
22949.326968	3270.144833	373.435547	136.974396
22949.326968	3270.144833	372.155273	222.649490
22949.326968	3270.144833	370.874023	64.672585
22949.326968	3270.144833	369.591797	-23.616528
22949.326968	3270.144833	368.310547	-51.328335
22949.326968	3270.144833	367.028320	-36.709274
22949.326968	3270.144833	365.746094	2.060174
22949.326968	3270.144833	364.463867	39.996124
22949.326968	3270.144833	363.180664	86.124649
22949.326968	3270.144833	361.897461	13.497818
22949.326968	3270.144833	360.614258	71.446503
22949.326968	3270.144833	359.330078	37.801647
22949.326968	3270.144833	358.045898	-3.573916
22949.326968	3270.144833	356.761719	60.532730
22949.326968	3270.144833	355.477539	205.116150
22949.326968	3270.144833	354.192383	-117.742233
22949.326968	3270.144833	352.907227	63.168537
22949.326968	3270.144833	351.622070	-189.271149
22949.326968	3270.144833	350.336914	45.909332
22949.326968	3270.144833	349.050781	139.576523
22949.326968	3270.144833	347.764648	127.994743
22949.326968	3270.144833	346.477539	153.596695
22949.326968	3270.144833	345.191406	-57.108051
22949.326968	3270.144833	343.904297	-49.849072
22949.326968	3270.144833	342.616211	-14.583670
22949.326968	3270.144833	341.329102	-50.690163
22949.326968	3270.144833	340.041016	-275.652344
22949.326968	3270.144833	338.752930	57.971478
22949.326968	3270.144833	337.463867	-129.240982
22949.326968	3270.144833	336.175781	194.437119
22949.326968	3270.144833	334.886719	-219.174316
22949.326968	3270.144833	333.596680	31.217461
22949.326968	3270.144833	332.307617	-119.291824
22949.326968	3270.144833	331.017578	-109.114479
22949.326968	3270.144833	329.727539	-215.639420
22949.326968	3270.144833	328.436523	-109.820793
22949.326968	3270.144833	327.146484	-136.514938
22949.326968	3270.144833	325.855469	-232.691910
22949.326968	3270.144833	324.563477	-231.682632
22949.326968	3270.144833	323.272461	-174.035019
22949.326968	3270.144833	321.980469	-66.689301
22949.326968	3270.144833	320.688477	-121.261581
22949.326968	3270.144833	319.395508	-29.447147
22949.326968	3270.144833	318.103516	21.974339
22949.326968	3270.144833	316.810547	-5.376338
22949.326968	3270.144833	315.516602	106.640167
22949.326968	3270.144833	314.223633	2.744331
22949.326968	3270.144833	312.929688	78.537987
22949.326968	3270.144833	311.635742	111.409416
22949.326968	3270.144833	310.340820	215.856125
22949.326968	3270.144833	309.045898	324.442627
22949.326968	3270.144833	307.750977	331.545410
22949.326968	3270.144833	306.456055	194.506683
22949.326968	3270.144833	305.160156	382.485657
22949.326968	3270.144833	303.865234	340.964722
22949.326968	3270.144833	302.568359	597.138611
22949.326968	3270.144833	301.272461	612.535156
22949.326968	3270.144833	299.975586	277.175934
22949.326968	3270.144833	298.678711	690.146057
