#X		#Y		#Wave		#Intensity
30889.206170	1189.948333	1999.980469	16.335518
30889.206170	1189.948333	1999.016602	-79.598206
30889.206170	1189.948333	1998.052734	-5.749340
30889.206170	1189.948333	1997.087891	-21.175184
30889.206170	1189.948333	1996.123047	109.554756
30889.206170	1189.948333	1995.158203	-22.380264
30889.206170	1189.948333	1994.193359	28.983139
30889.206170	1189.948333	1993.228516	97.632248
30889.206170	1189.948333	1992.262695	203.366821
30889.206170	1189.948333	1991.297852	54.071938
30889.206170	1189.948333	1990.332031	110.226006
30889.206170	1189.948333	1989.366211	-43.992474
30889.206170	1189.948333	1988.399414	39.327366
30889.206170	1189.948333	1987.433594	-3.555340
30889.206170	1189.948333	1986.466797	-88.484276
30889.206170	1189.948333	1985.500977	29.354401
30889.206170	1189.948333	1984.534180	-23.447599
30889.206170	1189.948333	1983.567383	-44.114185
30889.206170	1189.948333	1982.599609	26.647524
30889.206170	1189.948333	1981.632813	3.478516
30889.206170	1189.948333	1980.665039	-81.453087
30889.206170	1189.948333	1979.697266	46.042316
30889.206170	1189.948333	1978.729492	32.722000
30889.206170	1189.948333	1977.761719	76.182083
30889.206170	1189.948333	1976.792969	-43.303864
30889.206170	1189.948333	1975.825195	-59.097816
30889.206170	1189.948333	1974.856445	144.720474
30889.206170	1189.948333	1973.887695	72.137856
30889.206170	1189.948333	1972.918945	14.375791
30889.206170	1189.948333	1971.949219	-23.640957
30889.206170	1189.948333	1970.980469	216.978989
30889.206170	1189.948333	1970.010742	159.206436
30889.206170	1189.948333	1969.041016	84.197098
30889.206170	1189.948333	1968.071289	-91.827217
30889.206170	1189.948333	1967.101563	22.952425
30889.206170	1189.948333	1966.130859	117.979668
30889.206170	1189.948333	1965.161133	-188.498276
30889.206170	1189.948333	1964.190430	-93.470261
30889.206170	1189.948333	1963.219727	134.474167
30889.206170	1189.948333	1962.249023	54.630417
30889.206170	1189.948333	1961.277344	58.496658
30889.206170	1189.948333	1960.306641	64.822441
30889.206170	1189.948333	1959.334961	4.719882
30889.206170	1189.948333	1958.363281	-161.129700
30889.206170	1189.948333	1957.391602	81.333153
30889.206170	1189.948333	1956.419922	168.798691
30889.206170	1189.948333	1955.447266	30.059416
30889.206170	1189.948333	1954.474609	65.889839
30889.206170	1189.948333	1953.501953	32.899113
30889.206170	1189.948333	1952.529297	61.350662
30889.206170	1189.948333	1951.556641	82.424400
30889.206170	1189.948333	1950.583984	-4.575260
30889.206170	1189.948333	1949.610352	92.636261
30889.206170	1189.948333	1948.636719	42.502773
30889.206170	1189.948333	1947.663086	-39.520016
30889.206170	1189.948333	1946.689453	251.546539
30889.206170	1189.948333	1945.715820	-14.515211
30889.206170	1189.948333	1944.741211	70.361961
30889.206170	1189.948333	1943.767578	32.565334
30889.206170	1189.948333	1942.792969	78.171165
30889.206170	1189.948333	1941.818359	28.136272
30889.206170	1189.948333	1940.842773	-34.133286
30889.206170	1189.948333	1939.868164	-91.473473
30889.206170	1189.948333	1938.892578	-89.971153
30889.206170	1189.948333	1937.916992	46.295746
30889.206170	1189.948333	1936.941406	-69.806602
30889.206170	1189.948333	1935.965820	-92.788490
30889.206170	1189.948333	1934.990234	1.786045
30889.206170	1189.948333	1934.013672	62.052975
30889.206170	1189.948333	1933.037109	-53.948051
30889.206170	1189.948333	1932.060547	128.688629
30889.206170	1189.948333	1931.083984	34.749523
30889.206170	1189.948333	1930.107422	38.711056
30889.206170	1189.948333	1929.129883	142.965500
30889.206170	1189.948333	1928.153320	-43.846348
30889.206170	1189.948333	1927.175781	-32.525757
30889.206170	1189.948333	1926.198242	110.809578
30889.206170	1189.948333	1925.219727	51.220356
30889.206170	1189.948333	1924.242188	52.751602
30889.206170	1189.948333	1923.263672	12.748010
30889.206170	1189.948333	1922.285156	21.619667
30889.206170	1189.948333	1921.306641	-18.358269
30889.206170	1189.948333	1920.328125	-46.109875
30889.206170	1189.948333	1919.349609	-22.576807
30889.206170	1189.948333	1918.370117	-1.491892
30889.206170	1189.948333	1917.391602	-2.379540
30889.206170	1189.948333	1916.412109	-25.226637
30889.206170	1189.948333	1915.431641	-43.185326
30889.206170	1189.948333	1914.452148	-2.594991
30889.206170	1189.948333	1913.472656	-35.184109
30889.206170	1189.948333	1912.492188	98.046875
30889.206170	1189.948333	1911.511719	109.332626
30889.206170	1189.948333	1910.531250	40.177708
30889.206170	1189.948333	1909.550781	-80.128685
30889.206170	1189.948333	1908.569336	1.839730
30889.206170	1189.948333	1907.588867	-28.283827
30889.206170	1189.948333	1906.607422	77.996094
30889.206170	1189.948333	1905.625977	67.346268
30889.206170	1189.948333	1904.644531	168.693558
30889.206170	1189.948333	1903.662109	136.115555
30889.206170	1189.948333	1902.680664	-57.084599
30889.206170	1189.948333	1901.698242	-6.882210
30889.206170	1189.948333	1900.715820	184.404114
30889.206170	1189.948333	1899.733398	-28.170355
30889.206170	1189.948333	1898.750000	-24.223883
30889.206170	1189.948333	1897.767578	-20.285343
30889.206170	1189.948333	1896.784180	-33.372108
30889.206170	1189.948333	1895.800781	-44.029831
30889.206170	1189.948333	1894.817383	154.303070
30889.206170	1189.948333	1893.833984	-53.206341
30889.206170	1189.948333	1892.850586	149.896576
30889.206170	1189.948333	1891.866211	17.742016
30889.206170	1189.948333	1890.881836	24.042646
30889.206170	1189.948333	1889.897461	-61.927563
30889.206170	1189.948333	1888.913086	90.013077
30889.206170	1189.948333	1887.927734	-32.362221
30889.206170	1189.948333	1886.943359	-28.523119
30889.206170	1189.948333	1885.958008	132.998154
30889.206170	1189.948333	1884.972656	44.608612
30889.206170	1189.948333	1883.987305	-0.107219
30889.206170	1189.948333	1883.001953	-27.845604
30889.206170	1189.948333	1882.015625	-65.283607
30889.206170	1189.948333	1881.029297	64.521004
30889.206170	1189.948333	1880.042969	7.665423
30889.206170	1189.948333	1879.056641	11.388930
30889.206170	1189.948333	1878.070313	-91.491066
30889.206170	1189.948333	1877.083984	40.584538
30889.206170	1189.948333	1876.096680	-71.979866
30889.206170	1189.948333	1875.109375	16.430387
30889.206170	1189.948333	1874.122070	-59.811142
30889.206170	1189.948333	1873.134766	-19.873381
30889.206170	1189.948333	1872.146484	46.648483
30889.206170	1189.948333	1871.159180	23.614309
30889.206170	1189.948333	1870.170898	-42.968567
30889.206170	1189.948333	1869.182617	-73.270531
30889.206170	1189.948333	1868.194336	-40.715397
30889.206170	1189.948333	1867.205078	11.146478
30889.206170	1189.948333	1866.216797	-36.128075
30889.206170	1189.948333	1865.227539	107.500320
30889.206170	1189.948333	1864.238281	-38.876919
30889.206170	1189.948333	1863.249023	-62.024406
30889.206170	1189.948333	1862.259766	-12.730685
30889.206170	1189.948333	1861.269531	79.986961
30889.206170	1189.948333	1860.279297	230.588226
30889.206170	1189.948333	1859.290039	137.313629
30889.206170	1189.948333	1858.298828	-11.458690
30889.206170	1189.948333	1857.308594	35.246738
30889.206170	1189.948333	1856.318359	28.834459
30889.206170	1189.948333	1855.327148	138.174759
30889.206170	1189.948333	1854.335938	138.928162
30889.206170	1189.948333	1853.344727	60.087383
30889.206170	1189.948333	1852.353516	210.260880
30889.206170	1189.948333	1851.362305	124.151337
30889.206170	1189.948333	1850.370117	-5.330067
30889.206170	1189.948333	1849.377930	130.230270
30889.206170	1189.948333	1848.385742	-88.388802
30889.206170	1189.948333	1847.393555	3.726868
30889.206170	1189.948333	1846.401367	124.673042
30889.206170	1189.948333	1845.408203	74.611748
30889.206170	1189.948333	1844.415039	212.285843
30889.206170	1189.948333	1843.421875	133.286209
30889.206170	1189.948333	1842.428711	44.659344
30889.206170	1189.948333	1841.435547	37.826698
30889.206170	1189.948333	1840.441406	225.785629
30889.206170	1189.948333	1839.448242	182.784363
30889.206170	1189.948333	1838.454102	67.636330
30889.206170	1189.948333	1837.459961	7.786268
30889.206170	1189.948333	1836.464844	190.666962
30889.206170	1189.948333	1835.470703	104.315002
30889.206170	1189.948333	1834.475586	114.059685
30889.206170	1189.948333	1833.480469	78.126175
30889.206170	1189.948333	1832.485352	198.273880
30889.206170	1189.948333	1831.490234	140.655746
30889.206170	1189.948333	1830.495117	116.632774
30889.206170	1189.948333	1829.499023	104.581848
30889.206170	1189.948333	1828.502930	207.687820
30889.206170	1189.948333	1827.506836	224.340958
30889.206170	1189.948333	1826.510742	80.225037
30889.206170	1189.948333	1825.513672	238.325699
30889.206170	1189.948333	1824.517578	202.093475
30889.206170	1189.948333	1823.520508	-25.967321
30889.206170	1189.948333	1822.523438	-67.010445
30889.206170	1189.948333	1821.526367	129.187897
30889.206170	1189.948333	1820.529297	88.051262
30889.206170	1189.948333	1819.531250	-154.351410
30889.206170	1189.948333	1818.533203	-25.437891
30889.206170	1189.948333	1817.535156	124.939499
30889.206170	1189.948333	1816.537109	38.176960
30889.206170	1189.948333	1815.539063	-22.261425
30889.206170	1189.948333	1814.540039	204.494415
30889.206170	1189.948333	1813.541992	234.897354
30889.206170	1189.948333	1812.542969	215.001236
30889.206170	1189.948333	1811.543945	171.148376
30889.206170	1189.948333	1810.543945	-9.056423
30889.206170	1189.948333	1809.544922	80.970428
30889.206170	1189.948333	1808.544922	41.817623
30889.206170	1189.948333	1807.544922	-21.267056
30889.206170	1189.948333	1806.544922	123.543800
30889.206170	1189.948333	1805.544922	91.440910
30889.206170	1189.948333	1804.544922	267.142822
30889.206170	1189.948333	1803.543945	55.797005
30889.206170	1189.948333	1802.542969	-26.559917
30889.206170	1189.948333	1801.541992	-11.040445
30889.206170	1189.948333	1800.541016	135.719498
30889.206170	1189.948333	1799.539063	146.335526
30889.206170	1189.948333	1798.538086	175.993820
30889.206170	1189.948333	1797.536133	-18.670431
30889.206170	1189.948333	1796.534180	20.454359
30889.206170	1189.948333	1795.532227	178.761597
30889.206170	1189.948333	1794.529297	88.980011
30889.206170	1189.948333	1793.527344	23.027666
30889.206170	1189.948333	1792.524414	54.774712
30889.206170	1189.948333	1791.521484	55.482891
30889.206170	1189.948333	1790.518555	-67.752205
30889.206170	1189.948333	1789.514648	-86.176178
30889.206170	1189.948333	1788.511719	190.694977
30889.206170	1189.948333	1787.507813	53.070816
30889.206170	1189.948333	1786.503906	-48.836460
30889.206170	1189.948333	1785.500000	-10.312576
30889.206170	1189.948333	1784.496094	73.367493
30889.206170	1189.948333	1783.491211	-26.253510
30889.206170	1189.948333	1782.486328	76.330284
30889.206170	1189.948333	1781.481445	228.776520
30889.206170	1189.948333	1780.476563	276.479706
30889.206170	1189.948333	1779.471680	34.042816
30889.206170	1189.948333	1778.465820	74.533302
30889.206170	1189.948333	1777.460938	-103.698044
30889.206170	1189.948333	1776.455078	143.443665
30889.206170	1189.948333	1775.449219	57.824001
30889.206170	1189.948333	1774.442383	109.957558
30889.206170	1189.948333	1773.436523	128.777054
30889.206170	1189.948333	1772.429688	28.812075
30889.206170	1189.948333	1771.422852	87.896706
30889.206170	1189.948333	1770.416016	80.449905
30889.206170	1189.948333	1769.409180	-5.356909
30889.206170	1189.948333	1768.402344	46.436256
30889.206170	1189.948333	1767.394531	34.106884
30889.206170	1189.948333	1766.386719	35.963432
30889.206170	1189.948333	1765.378906	6.943447
30889.206170	1189.948333	1764.371094	103.542603
30889.206170	1189.948333	1763.362305	69.677872
30889.206170	1189.948333	1762.354492	14.451506
30889.206170	1189.948333	1761.345703	-24.219637
30889.206170	1189.948333	1760.336914	-77.139091
30889.206170	1189.948333	1759.328125	142.305542
30889.206170	1189.948333	1758.318359	-22.031952
30889.206170	1189.948333	1757.308594	-136.632675
30889.206170	1189.948333	1756.299805	63.614239
30889.206170	1189.948333	1755.290039	-39.221535
30889.206170	1189.948333	1754.279297	-99.476433
30889.206170	1189.948333	1753.269531	-62.748497
30889.206170	1189.948333	1752.258789	33.049767
30889.206170	1189.948333	1751.249023	140.592957
30889.206170	1189.948333	1750.238281	-194.133148
30889.206170	1189.948333	1749.226563	-1.583122
30889.206170	1189.948333	1748.215820	223.941864
30889.206170	1189.948333	1747.204102	33.400944
30889.206170	1189.948333	1746.193359	-55.510765
30889.206170	1189.948333	1745.181641	23.284861
30889.206170	1189.948333	1744.168945	21.695118
30889.206170	1189.948333	1743.157227	-90.922997
30889.206170	1189.948333	1742.144531	124.625587
30889.206170	1189.948333	1741.132813	2.495921
30889.206170	1189.948333	1740.120117	-13.435444
30889.206170	1189.948333	1739.106445	74.412163
30889.206170	1189.948333	1738.093750	-17.112110
30889.206170	1189.948333	1737.080078	-47.325775
30889.206170	1189.948333	1736.067383	14.405165
30889.206170	1189.948333	1735.053711	-70.123192
30889.206170	1189.948333	1734.040039	-154.664246
30889.206170	1189.948333	1733.025391	76.604614
30889.206170	1189.948333	1732.011719	-130.558243
30889.206170	1189.948333	1730.997070	34.560459
30889.206170	1189.948333	1729.982422	-80.741707
30889.206170	1189.948333	1728.967773	-163.071396
30889.206170	1189.948333	1727.952148	60.688755
30889.206170	1189.948333	1726.937500	-40.557434
30889.206170	1189.948333	1725.921875	-90.030151
30889.206170	1189.948333	1724.906250	-33.627411
30889.206170	1189.948333	1723.890625	60.357651
30889.206170	1189.948333	1722.875000	34.290588
30889.206170	1189.948333	1721.858398	78.745590
30889.206170	1189.948333	1720.841797	76.111458
30889.206170	1189.948333	1719.825195	-22.957176
30889.206170	1189.948333	1718.808594	-16.250502
30889.206170	1189.948333	1717.791992	-63.641212
30889.206170	1189.948333	1716.774414	145.059967
30889.206170	1189.948333	1715.756836	31.790855
30889.206170	1189.948333	1714.739258	17.175858
30889.206170	1189.948333	1713.721680	-70.271965
30889.206170	1189.948333	1712.704102	4.280766
30889.206170	1189.948333	1711.685547	254.821030
30889.206170	1189.948333	1710.667969	31.134777
30889.206170	1189.948333	1709.649414	272.111572
30889.206170	1189.948333	1708.630859	114.117744
30889.206170	1189.948333	1707.611328	-3.982880
30889.206170	1189.948333	1706.592773	-28.259539
30889.206170	1189.948333	1705.573242	69.358734
30889.206170	1189.948333	1704.553711	-107.382179
30889.206170	1189.948333	1703.534180	-40.328049
30889.206170	1189.948333	1702.513672	89.930710
30889.206170	1189.948333	1701.494141	189.652832
30889.206170	1189.948333	1700.473633	62.071106
30889.206170	1189.948333	1699.453125	35.213337
30889.206170	1189.948333	1698.432617	87.948128
30889.206170	1189.948333	1697.412109	-2.182561
30889.206170	1189.948333	1696.390625	162.821030
30889.206170	1189.948333	1695.369141	248.159683
30889.206170	1189.948333	1694.347656	-3.501076
30889.206170	1189.948333	1693.326172	-74.965004
30889.206170	1189.948333	1692.304688	-55.213558
30889.206170	1189.948333	1691.282227	207.694321
30889.206170	1189.948333	1690.260742	75.351059
30889.206170	1189.948333	1689.238281	73.926849
30889.206170	1189.948333	1688.214844	-16.343508
30889.206170	1189.948333	1687.192383	-22.480721
30889.206170	1189.948333	1686.168945	48.445049
30889.206170	1189.948333	1685.146484	49.249142
30889.206170	1189.948333	1684.123047	-55.070820
30889.206170	1189.948333	1683.099609	53.096962
30889.206170	1189.948333	1682.075195	25.792486
30889.206170	1189.948333	1681.051758	182.864502
30889.206170	1189.948333	1680.027344	104.157127
30889.206170	1189.948333	1679.002930	149.108459
30889.206170	1189.948333	1677.978516	187.020279
30889.206170	1189.948333	1676.953125	189.904175
30889.206170	1189.948333	1675.928711	73.852287
30889.206170	1189.948333	1674.903320	230.575760
30889.206170	1189.948333	1673.877930	161.125076
30889.206170	1189.948333	1672.852539	196.547165
30889.206170	1189.948333	1671.826172	103.780800
30889.206170	1189.948333	1670.800781	13.366055
30889.206170	1189.948333	1669.774414	162.849854
30889.206170	1189.948333	1668.748047	142.269592
30889.206170	1189.948333	1667.721680	107.709351
30889.206170	1189.948333	1666.694336	301.250397
30889.206170	1189.948333	1665.667969	208.455429
30889.206170	1189.948333	1664.640625	252.952301
30889.206170	1189.948333	1663.613281	108.981140
30889.206170	1189.948333	1662.585938	230.201202
30889.206170	1189.948333	1661.557617	214.150299
30889.206170	1189.948333	1660.530273	379.447388
30889.206170	1189.948333	1659.501953	268.037598
30889.206170	1189.948333	1658.473633	182.221680
30889.206170	1189.948333	1657.444336	326.459259
30889.206170	1189.948333	1656.416016	470.635559
30889.206170	1189.948333	1655.386719	403.366516
30889.206170	1189.948333	1654.358398	440.621796
30889.206170	1189.948333	1653.328125	412.825500
30889.206170	1189.948333	1652.298828	466.285706
30889.206170	1189.948333	1651.269531	519.714905
30889.206170	1189.948333	1650.239258	505.812012
30889.206170	1189.948333	1649.208984	461.745026
30889.206170	1189.948333	1648.178711	589.337280
30889.206170	1189.948333	1647.148438	438.573792
30889.206170	1189.948333	1646.117188	357.415558
30889.206170	1189.948333	1645.086914	617.073181
30889.206170	1189.948333	1644.055664	614.704407
30889.206170	1189.948333	1643.024414	658.678589
30889.206170	1189.948333	1641.992188	563.609009
30889.206170	1189.948333	1640.960938	470.895752
30889.206170	1189.948333	1639.928711	519.484253
30889.206170	1189.948333	1638.896484	841.287170
30889.206170	1189.948333	1637.864258	716.146423
30889.206170	1189.948333	1636.832031	783.169617
30889.206170	1189.948333	1635.798828	857.099976
30889.206170	1189.948333	1634.766602	780.613953
30889.206170	1189.948333	1633.733398	664.824341
30889.206170	1189.948333	1632.699219	821.991638
30889.206170	1189.948333	1631.666016	738.614380
30889.206170	1189.948333	1630.632813	1101.481934
30889.206170	1189.948333	1629.598633	689.843201
30889.206170	1189.948333	1628.564453	735.960205
30889.206170	1189.948333	1627.530273	687.327698
30889.206170	1189.948333	1626.495117	795.802185
30889.206170	1189.948333	1625.460938	1008.185059
30889.206170	1189.948333	1624.425781	1047.288452
30889.206170	1189.948333	1623.390625	1054.057983
30889.206170	1189.948333	1622.355469	869.237122
30889.206170	1189.948333	1621.319336	1023.752991
30889.206170	1189.948333	1620.284180	959.014282
30889.206170	1189.948333	1619.248047	1120.390869
30889.206170	1189.948333	1618.211914	1196.369995
30889.206170	1189.948333	1617.174805	1014.035156
30889.206170	1189.948333	1616.138672	1036.994873
30889.206170	1189.948333	1615.101563	1103.749146
30889.206170	1189.948333	1614.065430	1223.506348
30889.206170	1189.948333	1613.027344	1255.649902
30889.206170	1189.948333	1611.990234	1292.408813
30889.206170	1189.948333	1610.953125	1283.097900
30889.206170	1189.948333	1609.915039	1181.678467
30889.206170	1189.948333	1608.876953	1333.592651
30889.206170	1189.948333	1607.838867	1407.191895
30889.206170	1189.948333	1606.800781	1259.820313
30889.206170	1189.948333	1605.761719	1262.092773
30889.206170	1189.948333	1604.723633	1252.886108
30889.206170	1189.948333	1603.684570	1241.392090
30889.206170	1189.948333	1602.644531	1521.996948
30889.206170	1189.948333	1601.605469	1285.150879
30889.206170	1189.948333	1600.566406	1225.437256
30889.206170	1189.948333	1599.526367	1193.342163
30889.206170	1189.948333	1598.486328	1308.356323
30889.206170	1189.948333	1597.446289	1035.049683
30889.206170	1189.948333	1596.405273	1462.501099
30889.206170	1189.948333	1595.365234	1391.426880
30889.206170	1189.948333	1594.324219	1341.063965
30889.206170	1189.948333	1593.283203	1192.024292
30889.206170	1189.948333	1592.242188	1311.625854
30889.206170	1189.948333	1591.200195	1277.438721
30889.206170	1189.948333	1590.159180	1369.493286
30889.206170	1189.948333	1589.117188	1195.425537
30889.206170	1189.948333	1588.075195	1042.093994
30889.206170	1189.948333	1587.032227	930.119812
30889.206170	1189.948333	1585.990234	1130.028320
30889.206170	1189.948333	1584.947266	1178.593140
30889.206170	1189.948333	1583.904297	1052.993408
30889.206170	1189.948333	1582.861328	1161.188477
30889.206170	1189.948333	1581.818359	1278.534546
30889.206170	1189.948333	1580.775391	1192.017334
30889.206170	1189.948333	1579.731445	1213.188843
30889.206170	1189.948333	1578.687500	1305.358643
30889.206170	1189.948333	1577.643555	1253.313477
30889.206170	1189.948333	1576.598633	1265.397339
30889.206170	1189.948333	1575.554688	1323.280396
30889.206170	1189.948333	1574.509766	1108.927246
30889.206170	1189.948333	1573.464844	1278.959106
30889.206170	1189.948333	1572.419922	1330.043457
30889.206170	1189.948333	1571.374023	1138.779175
30889.206170	1189.948333	1570.329102	1029.928101
30889.206170	1189.948333	1569.283203	1142.843750
30889.206170	1189.948333	1568.237305	1200.911621
30889.206170	1189.948333	1567.191406	932.295532
30889.206170	1189.948333	1566.144531	933.349304
30889.206170	1189.948333	1565.098633	1085.173218
30889.206170	1189.948333	1564.051758	1045.177002
30889.206170	1189.948333	1563.004883	843.157898
30889.206170	1189.948333	1561.957031	832.971191
30889.206170	1189.948333	1560.910156	861.628845
30889.206170	1189.948333	1559.862305	1072.829834
30889.206170	1189.948333	1558.814453	907.621521
30889.206170	1189.948333	1557.766602	956.894897
30889.206170	1189.948333	1556.718750	826.062622
30889.206170	1189.948333	1555.669922	859.457581
30889.206170	1189.948333	1554.621094	815.390564
30889.206170	1189.948333	1553.573242	857.984497
30889.206170	1189.948333	1552.523438	814.020691
30889.206170	1189.948333	1551.474609	758.736389
30889.206170	1189.948333	1550.424805	676.185913
30889.206170	1189.948333	1549.375000	787.258850
30889.206170	1189.948333	1548.325195	711.659790
30889.206170	1189.948333	1547.275391	665.727966
30889.206170	1189.948333	1546.225586	617.587952
30889.206170	1189.948333	1545.174805	715.122803
30889.206170	1189.948333	1544.124023	580.644714
30889.206170	1189.948333	1543.073242	398.509644
30889.206170	1189.948333	1542.022461	566.670105
30889.206170	1189.948333	1540.970703	568.852295
30889.206170	1189.948333	1539.919922	539.268311
30889.206170	1189.948333	1538.868164	309.762573
30889.206170	1189.948333	1537.815430	405.299591
30889.206170	1189.948333	1536.763672	432.709351
30889.206170	1189.948333	1535.710938	423.817047
30889.206170	1189.948333	1534.659180	449.048187
30889.206170	1189.948333	1533.606445	288.156891
30889.206170	1189.948333	1532.552734	547.296021
30889.206170	1189.948333	1531.500000	361.596863
30889.206170	1189.948333	1530.446289	409.720032
30889.206170	1189.948333	1529.393555	398.904968
30889.206170	1189.948333	1528.338867	528.758606
30889.206170	1189.948333	1527.285156	336.626831
30889.206170	1189.948333	1526.231445	414.417023
30889.206170	1189.948333	1525.176758	621.430237
30889.206170	1189.948333	1524.122070	379.706055
30889.206170	1189.948333	1523.067383	511.989960
30889.206170	1189.948333	1522.012695	449.460999
30889.206170	1189.948333	1520.957031	357.569885
30889.206170	1189.948333	1519.901367	297.476074
30889.206170	1189.948333	1518.845703	300.858612
30889.206170	1189.948333	1517.790039	397.104523
30889.206170	1189.948333	1516.734375	373.429993
30889.206170	1189.948333	1515.677734	467.479309
30889.206170	1189.948333	1514.621094	407.724152
30889.206170	1189.948333	1513.564453	377.456818
30889.206170	1189.948333	1512.507813	53.293793
30889.206170	1189.948333	1511.450195	290.011475
30889.206170	1189.948333	1510.393555	108.524841
30889.206170	1189.948333	1509.335938	114.747734
30889.206170	1189.948333	1508.278320	-28.095654
30889.206170	1189.948333	1507.219727	77.674599
30889.206170	1189.948333	1506.162109	176.695648
30889.206170	1189.948333	1505.103516	34.114182
30889.206170	1189.948333	1504.044922	0.024279
30889.206170	1189.948333	1502.986328	160.139084
30889.206170	1189.948333	1501.926758	-9.244032
30889.206170	1189.948333	1500.868164	78.737038
30889.206170	1189.948333	1499.808594	74.252045
30889.206170	1189.948333	1498.749023	-24.894337
30889.206170	1189.948333	1497.688477	-33.736538
30889.206170	1189.948333	1496.628906	2.587021
30889.206170	1189.948333	1495.568359	-10.631350
30889.206170	1189.948333	1494.507813	97.923485
30889.206170	1189.948333	1493.447266	168.197037
30889.206170	1189.948333	1492.386719	218.235413
30889.206170	1189.948333	1491.325195	0.290677
30889.206170	1189.948333	1490.263672	16.699162
30889.206170	1189.948333	1489.202148	69.192505
30889.206170	1189.948333	1488.140625	27.191772
30889.206170	1189.948333	1487.079102	-127.251091
30889.206170	1189.948333	1486.016602	-211.811478
30889.206170	1189.948333	1484.954102	-24.059629
30889.206170	1189.948333	1483.891602	-182.691696
30889.206170	1189.948333	1482.829102	-107.316879
30889.206170	1189.948333	1481.765625	6.317399
30889.206170	1189.948333	1480.702148	169.425766
30889.206170	1189.948333	1479.638672	20.155798
30889.206170	1189.948333	1478.575195	-155.920090
30889.206170	1189.948333	1477.511719	47.734344
30889.206170	1189.948333	1476.447266	219.970642
30889.206170	1189.948333	1475.382813	73.355598
30889.206170	1189.948333	1474.318359	153.621735
30889.206170	1189.948333	1473.253906	294.462524
30889.206170	1189.948333	1472.189453	49.486427
30889.206170	1189.948333	1471.124023	248.750397
30889.206170	1189.948333	1470.058594	364.998596
30889.206170	1189.948333	1468.993164	387.155884
30889.206170	1189.948333	1467.927734	492.403015
30889.206170	1189.948333	1466.861328	485.500275
30889.206170	1189.948333	1465.794922	666.687622
30889.206170	1189.948333	1464.728516	686.739563
30889.206170	1189.948333	1463.662109	626.578918
30889.206170	1189.948333	1462.594727	396.407745
30889.206170	1189.948333	1461.528320	631.406250
30889.206170	1189.948333	1460.460938	741.201965
30889.206170	1189.948333	1459.393555	681.344055
30889.206170	1189.948333	1458.326172	782.338318
30889.206170	1189.948333	1457.257813	635.081421
30889.206170	1189.948333	1456.189453	680.490356
30889.206170	1189.948333	1455.121094	611.937256
30889.206170	1189.948333	1454.052734	706.708130
30889.206170	1189.948333	1452.984375	479.385132
30889.206170	1189.948333	1451.915039	462.594574
30889.206170	1189.948333	1450.845703	519.653564
30889.206170	1189.948333	1449.776367	576.893127
30889.206170	1189.948333	1448.707031	407.495850
30889.206170	1189.948333	1447.636719	418.010223
30889.206170	1189.948333	1446.567383	287.064789
30889.206170	1189.948333	1445.497070	397.656067
30889.206170	1189.948333	1444.425781	275.072266
30889.206170	1189.948333	1443.355469	290.290161
30889.206170	1189.948333	1442.285156	160.460876
30889.206170	1189.948333	1441.213867	153.904785
30889.206170	1189.948333	1440.142578	346.581787
30889.206170	1189.948333	1439.070313	327.100464
30889.206170	1189.948333	1437.999023	219.369446
30889.206170	1189.948333	1436.926758	223.889221
30889.206170	1189.948333	1435.854492	219.928009
30889.206170	1189.948333	1434.782227	256.518890
30889.206170	1189.948333	1433.709961	281.505524
30889.206170	1189.948333	1432.636719	241.206787
30889.206170	1189.948333	1431.563477	143.027328
30889.206170	1189.948333	1430.490234	84.751205
30889.206170	1189.948333	1429.416992	249.110687
30889.206170	1189.948333	1428.343750	58.631050
30889.206170	1189.948333	1427.269531	51.557274
30889.206170	1189.948333	1426.195313	22.861010
30889.206170	1189.948333	1425.121094	74.430779
30889.206170	1189.948333	1424.046875	116.896294
30889.206170	1189.948333	1422.971680	57.931522
30889.206170	1189.948333	1421.896484	135.037109
30889.206170	1189.948333	1420.821289	180.150375
30889.206170	1189.948333	1419.746094	51.380527
30889.206170	1189.948333	1418.669922	-125.878525
30889.206170	1189.948333	1417.594727	111.174744
30889.206170	1189.948333	1416.518555	53.299095
30889.206170	1189.948333	1415.442383	101.332657
30889.206170	1189.948333	1414.365234	-214.638519
30889.206170	1189.948333	1413.289063	-72.508278
30889.206170	1189.948333	1412.211914	-44.220974
30889.206170	1189.948333	1411.134766	-192.365997
30889.206170	1189.948333	1410.057617	67.876724
30889.206170	1189.948333	1408.979492	-49.771202
30889.206170	1189.948333	1407.902344	0.281553
30889.206170	1189.948333	1406.824219	-115.184624
30889.206170	1189.948333	1405.746094	27.278114
30889.206170	1189.948333	1404.666992	95.943359
30889.206170	1189.948333	1403.588867	273.657776
30889.206170	1189.948333	1402.509766	231.270584
30889.206170	1189.948333	1401.430664	339.438354
30889.206170	1189.948333	1400.351563	285.891296
30889.206170	1189.948333	1399.271484	242.951111
30889.206170	1189.948333	1398.192383	314.915009
30889.206170	1189.948333	1397.112305	341.648407
30889.206170	1189.948333	1396.031250	330.453979
30889.206170	1189.948333	1394.951172	382.621704
30889.206170	1189.948333	1393.871094	332.143280
30889.206170	1189.948333	1392.790039	238.442337
30889.206170	1189.948333	1391.708984	252.528381
30889.206170	1189.948333	1390.626953	315.799744
30889.206170	1189.948333	1389.545898	167.440277
30889.206170	1189.948333	1388.463867	176.862305
30889.206170	1189.948333	1387.381836	421.231262
30889.206170	1189.948333	1386.299805	465.220673
30889.206170	1189.948333	1385.217773	208.059692
30889.206170	1189.948333	1384.134766	342.272949
30889.206170	1189.948333	1383.051758	241.623322
30889.206170	1189.948333	1381.968750	187.432739
30889.206170	1189.948333	1380.885742	169.784805
30889.206170	1189.948333	1379.802734	210.533691
30889.206170	1189.948333	1378.718750	256.401520
30889.206170	1189.948333	1377.634766	111.749550
30889.206170	1189.948333	1376.550781	127.297104
30889.206170	1189.948333	1375.465820	221.243073
30889.206170	1189.948333	1374.381836	89.402481
30889.206170	1189.948333	1373.296875	227.088562
30889.206170	1189.948333	1372.211914	257.114380
30889.206170	1189.948333	1371.126953	281.025421
30889.206170	1189.948333	1370.041016	154.901688
30889.206170	1189.948333	1368.955078	234.473038
30889.206170	1189.948333	1367.869141	190.755707
30889.206170	1189.948333	1366.783203	309.986572
30889.206170	1189.948333	1365.697266	246.890793
30889.206170	1189.948333	1364.610352	303.188293
30889.206170	1189.948333	1363.523438	231.404526
30889.206170	1189.948333	1362.436523	440.191437
30889.206170	1189.948333	1361.349609	251.240967
30889.206170	1189.948333	1360.261719	313.510498
30889.206170	1189.948333	1359.174805	146.477615
30889.206170	1189.948333	1358.086914	395.773346
30889.206170	1189.948333	1356.998047	88.679626
30889.206170	1189.948333	1355.910156	193.603409
30889.206170	1189.948333	1354.821289	177.602783
30889.206170	1189.948333	1353.732422	342.428345
30889.206170	1189.948333	1352.643555	234.595230
30889.206170	1189.948333	1351.554688	238.615707
30889.206170	1189.948333	1350.464844	239.023743
30889.206170	1189.948333	1349.375000	237.147827
30889.206170	1189.948333	1348.285156	190.346863
30889.206170	1189.948333	1347.195313	216.260056
30889.206170	1189.948333	1346.105469	131.534378
30889.206170	1189.948333	1345.014648	92.120018
30889.206170	1189.948333	1343.923828	258.954620
30889.206170	1189.948333	1342.833008	201.905853
30889.206170	1189.948333	1341.741211	199.408417
30889.206170	1189.948333	1340.650391	176.738007
30889.206170	1189.948333	1339.558594	240.700089
30889.206170	1189.948333	1338.466797	179.857025
30889.206170	1189.948333	1337.374023	220.963013
30889.206170	1189.948333	1336.282227	97.264107
30889.206170	1189.948333	1335.189453	137.990402
30889.206170	1189.948333	1334.096680	264.139160
30889.206170	1189.948333	1333.003906	282.702545
30889.206170	1189.948333	1331.910156	138.272369
30889.206170	1189.948333	1330.817383	255.428223
30889.206170	1189.948333	1329.723633	294.792664
30889.206170	1189.948333	1328.629883	202.376953
30889.206170	1189.948333	1327.535156	335.702179
30889.206170	1189.948333	1326.441406	305.082031
30889.206170	1189.948333	1325.346680	248.679382
30889.206170	1189.948333	1324.251953	191.966766
30889.206170	1189.948333	1323.156250	181.710510
30889.206170	1189.948333	1322.061523	327.124420
30889.206170	1189.948333	1320.965820	309.643158
30889.206170	1189.948333	1319.870117	226.412842
30889.206170	1189.948333	1318.774414	240.935440
30889.206170	1189.948333	1317.678711	193.419373
30889.206170	1189.948333	1316.582031	251.201050
30889.206170	1189.948333	1315.485352	125.664253
30889.206170	1189.948333	1314.388672	337.358765
30889.206170	1189.948333	1313.291016	138.956497
30889.206170	1189.948333	1312.194336	304.048553
30889.206170	1189.948333	1311.096680	110.776726
30889.206170	1189.948333	1309.999023	74.576385
30889.206170	1189.948333	1308.901367	168.976303
30889.206170	1189.948333	1307.802734	237.264267
30889.206170	1189.948333	1306.705078	128.653137
30889.206170	1189.948333	1305.606445	230.266434
30889.206170	1189.948333	1304.506836	130.837097
30889.206170	1189.948333	1303.408203	297.954742
30889.206170	1189.948333	1302.308594	156.828049
30889.206170	1189.948333	1301.208984	243.168991
30889.206170	1189.948333	1300.109375	102.290985
30889.206170	1189.948333	1299.009766	225.914200
30889.206170	1189.948333	1297.909180	296.752930
30889.206170	1189.948333	1296.808594	312.679230
30889.206170	1189.948333	1295.708008	241.797043
30889.206170	1189.948333	1294.607422	228.142426
30889.206170	1189.948333	1293.506836	356.767059
30889.206170	1189.948333	1292.405273	165.208145
30889.206170	1189.948333	1291.303711	301.480652
30889.206170	1189.948333	1290.202148	259.995667
30889.206170	1189.948333	1289.099609	227.622925
30889.206170	1189.948333	1287.998047	282.734558
30889.206170	1189.948333	1286.895508	157.477875
30889.206170	1189.948333	1285.792969	-12.778237
30889.206170	1189.948333	1284.689453	155.305298
30889.206170	1189.948333	1283.586914	233.220551
30889.206170	1189.948333	1282.483398	87.284912
30889.206170	1189.948333	1281.379883	122.401375
30889.206170	1189.948333	1280.276367	174.001495
30889.206170	1189.948333	1279.171875	213.038223
30889.206170	1189.948333	1278.067383	115.540451
30889.206170	1189.948333	1276.962891	156.958786
30889.206170	1189.948333	1275.858398	153.164276
30889.206170	1189.948333	1274.753906	114.920013
30889.206170	1189.948333	1273.648438	138.298660
30889.206170	1189.948333	1272.542969	-51.611416
30889.206170	1189.948333	1271.437500	76.991005
30889.206170	1189.948333	1270.331055	201.421280
30889.206170	1189.948333	1269.225586	55.443531
30889.206170	1189.948333	1268.119141	20.776440
30889.206170	1189.948333	1267.012695	57.351105
30889.206170	1189.948333	1265.906250	147.775375
30889.206170	1189.948333	1264.798828	-0.476644
30889.206170	1189.948333	1263.691406	105.595451
30889.206170	1189.948333	1262.583984	141.268463
30889.206170	1189.948333	1261.476563	83.274734
30889.206170	1189.948333	1260.368164	168.569382
30889.206170	1189.948333	1259.260742	105.879745
30889.206170	1189.948333	1258.152344	93.478867
30889.206170	1189.948333	1257.043945	60.990650
30889.206170	1189.948333	1255.934570	-94.426651
30889.206170	1189.948333	1254.825195	11.387954
30889.206170	1189.948333	1253.716797	151.602737
30889.206170	1189.948333	1252.606445	-22.625237
30889.206170	1189.948333	1251.497070	13.070799
30889.206170	1189.948333	1250.387695	-72.876457
30889.206170	1189.948333	1249.277344	-47.723259
30889.206170	1189.948333	1248.166992	31.610296
30889.206170	1189.948333	1247.055664	3.561328
30889.206170	1189.948333	1245.945313	26.607038
30889.206170	1189.948333	1244.833984	-56.583363
30889.206170	1189.948333	1243.722656	24.603704
30889.206170	1189.948333	1242.611328	146.850342
30889.206170	1189.948333	1241.499023	-38.195393
30889.206170	1189.948333	1240.387695	37.285503
30889.206170	1189.948333	1239.275391	-62.816547
30889.206170	1189.948333	1238.162109	41.960823
30889.206170	1189.948333	1237.049805	-0.109281
30889.206170	1189.948333	1235.936523	89.294228
30889.206170	1189.948333	1234.823242	36.706810
30889.206170	1189.948333	1233.709961	-17.249475
30889.206170	1189.948333	1232.596680	-29.406193
30889.206170	1189.948333	1231.482422	-67.302277
30889.206170	1189.948333	1230.369141	-75.467316
30889.206170	1189.948333	1229.253906	59.813923
30889.206170	1189.948333	1228.139648	64.571304
30889.206170	1189.948333	1227.025391	69.148705
30889.206170	1189.948333	1225.910156	112.882187
30889.206170	1189.948333	1224.794922	28.484011
30889.206170	1189.948333	1223.679688	-7.219155
30889.206170	1189.948333	1222.563477	69.351410
30889.206170	1189.948333	1221.447266	81.916298
30889.206170	1189.948333	1220.331055	-11.781315
30889.206170	1189.948333	1219.214844	81.764442
30889.206170	1189.948333	1218.098633	87.932991
30889.206170	1189.948333	1216.981445	-27.210180
30889.206170	1189.948333	1215.864258	40.296310
30889.206170	1189.948333	1214.747070	104.956879
30889.206170	1189.948333	1213.629883	13.160719
30889.206170	1189.948333	1212.511719	28.536289
30889.206170	1189.948333	1211.393555	33.832611
30889.206170	1189.948333	1210.275391	86.687416
30889.206170	1189.948333	1209.157227	191.488922
30889.206170	1189.948333	1208.038086	226.821625
30889.206170	1189.948333	1206.918945	270.964386
30889.206170	1189.948333	1205.799805	363.261932
30889.206170	1189.948333	1204.680664	287.834991
30889.206170	1189.948333	1203.560547	72.955002
30889.206170	1189.948333	1202.441406	52.207115
30889.206170	1189.948333	1201.321289	125.216217
30889.206170	1189.948333	1200.200195	113.710861
30889.206170	1189.948333	1199.080078	-8.696360
30889.206170	1189.948333	1197.958984	-150.948013
30889.206170	1189.948333	1196.837891	-47.686966
30889.206170	1189.948333	1195.716797	-136.943909
30889.206170	1189.948333	1194.594727	58.203907
30889.206170	1189.948333	1193.473633	-66.747452
30889.206170	1189.948333	1192.351563	58.376003
30889.206170	1189.948333	1191.229492	-99.693016
30889.206170	1189.948333	1190.106445	82.319740
30889.206170	1189.948333	1188.984375	29.277691
30889.206170	1189.948333	1187.861328	-22.036915
30889.206170	1189.948333	1186.738281	102.782562
30889.206170	1189.948333	1185.614258	115.966347
30889.206170	1189.948333	1184.491211	24.762308
30889.206170	1189.948333	1183.367188	83.788017
30889.206170	1189.948333	1182.243164	24.578114
30889.206170	1189.948333	1181.119141	-98.493729
30889.206170	1189.948333	1179.994141	69.485748
30889.206170	1189.948333	1178.869141	-76.244148
30889.206170	1189.948333	1177.744141	22.120434
30889.206170	1189.948333	1176.619141	-73.802681
30889.206170	1189.948333	1175.493164	39.513939
30889.206170	1189.948333	1174.368164	-52.650658
30889.206170	1189.948333	1173.242188	52.624458
30889.206170	1189.948333	1172.115234	-34.048805
30889.206170	1189.948333	1170.989258	55.190769
30889.206170	1189.948333	1169.862305	29.552076
30889.206170	1189.948333	1168.735352	-66.843010
30889.206170	1189.948333	1167.608398	16.209784
30889.206170	1189.948333	1166.481445	46.907909
30889.206170	1189.948333	1165.353516	-18.324883
30889.206170	1189.948333	1164.225586	-70.621002
30889.206170	1189.948333	1163.097656	-86.812775
30889.206170	1189.948333	1161.968750	-257.039490
30889.206170	1189.948333	1160.840820	-49.205589
30889.206170	1189.948333	1159.711914	-72.566429
30889.206170	1189.948333	1158.583008	-101.047256
30889.206170	1189.948333	1157.453125	-34.150234
30889.206170	1189.948333	1156.324219	-91.749298
30889.206170	1189.948333	1155.194336	-163.574127
30889.206170	1189.948333	1154.064453	-100.125526
30889.206170	1189.948333	1152.933594	-57.063957
30889.206170	1189.948333	1151.803711	-38.807060
30889.206170	1189.948333	1150.672852	-20.462648
30889.206170	1189.948333	1149.541992	-76.966942
30889.206170	1189.948333	1148.411133	-114.436378
30889.206170	1189.948333	1147.279297	-11.836248
30889.206170	1189.948333	1146.147461	-66.843872
30889.206170	1189.948333	1145.015625	-86.254875
30889.206170	1189.948333	1143.883789	-81.352203
30889.206170	1189.948333	1142.750977	-42.799961
30889.206170	1189.948333	1141.619141	-122.753502
30889.206170	1189.948333	1140.486328	-154.007156
30889.206170	1189.948333	1139.352539	-22.576355
30889.206170	1189.948333	1138.219727	-71.414116
30889.206170	1189.948333	1137.085938	-49.109364
30889.206170	1189.948333	1135.952148	-61.232681
30889.206170	1189.948333	1134.818359	-146.895569
30889.206170	1189.948333	1133.683594	-94.250145
30889.206170	1189.948333	1132.549805	-130.424881
30889.206170	1189.948333	1131.415039	48.929504
30889.206170	1189.948333	1130.279297	-7.281490
30889.206170	1189.948333	1129.144531	107.993538
30889.206170	1189.948333	1128.008789	-16.161440
30889.206170	1189.948333	1126.873047	4.815110
30889.206170	1189.948333	1125.737305	-38.555473
30889.206170	1189.948333	1124.601563	176.732040
30889.206170	1189.948333	1123.464844	67.654236
30889.206170	1189.948333	1122.328125	-46.603695
30889.206170	1189.948333	1121.191406	77.843391
30889.206170	1189.948333	1120.054688	60.212650
30889.206170	1189.948333	1118.916992	-41.074623
30889.206170	1189.948333	1117.779297	52.525318
30889.206170	1189.948333	1116.641602	57.362476
30889.206170	1189.948333	1115.503906	105.753639
30889.206170	1189.948333	1114.365234	191.303574
30889.206170	1189.948333	1113.226563	203.037140
30889.206170	1189.948333	1112.087891	108.024559
30889.206170	1189.948333	1110.949219	41.790668
30889.206170	1189.948333	1109.809570	-120.190750
30889.206170	1189.948333	1108.669922	-113.640778
30889.206170	1189.948333	1107.530273	-18.372955
30889.206170	1189.948333	1106.390625	-77.567528
30889.206170	1189.948333	1105.250000	63.866871
30889.206170	1189.948333	1104.109375	120.224922
30889.206170	1189.948333	1102.968750	82.167717
30889.206170	1189.948333	1101.828125	67.394913
30889.206170	1189.948333	1100.686523	112.605171
30889.206170	1189.948333	1099.544922	15.629481
30889.206170	1189.948333	1098.403320	95.955109
30889.206170	1189.948333	1097.261719	66.848129
30889.206170	1189.948333	1096.120117	173.239700
30889.206170	1189.948333	1094.977539	101.711121
30889.206170	1189.948333	1093.834961	11.688789
30889.206170	1189.948333	1092.691406	38.338940
30889.206170	1189.948333	1091.548828	125.508247
30889.206170	1189.948333	1090.405273	203.942734
30889.206170	1189.948333	1089.261719	180.733505
30889.206170	1189.948333	1088.118164	58.294594
30889.206170	1189.948333	1086.973633	154.995239
30889.206170	1189.948333	1085.829102	149.669815
30889.206170	1189.948333	1084.684570	119.592728
30889.206170	1189.948333	1083.540039	58.406109
30889.206170	1189.948333	1082.395508	66.097298
30889.206170	1189.948333	1081.250000	61.067581
30889.206170	1189.948333	1080.104492	87.110008
30889.206170	1189.948333	1078.958984	53.773945
30889.206170	1189.948333	1077.812500	100.024071
30889.206170	1189.948333	1076.666016	-31.008566
30889.206170	1189.948333	1075.519531	51.533516
30889.206170	1189.948333	1074.373047	157.331039
30889.206170	1189.948333	1073.226563	135.076950
30889.206170	1189.948333	1072.079102	188.034103
30889.206170	1189.948333	1070.931641	86.060814
30889.206170	1189.948333	1069.784180	195.725021
30889.206170	1189.948333	1068.635742	145.901321
30889.206170	1189.948333	1067.487305	127.470100
30889.206170	1189.948333	1066.338867	40.725384
30889.206170	1189.948333	1065.190430	177.268356
30889.206170	1189.948333	1064.041992	113.771935
30889.206170	1189.948333	1062.892578	135.645767
30889.206170	1189.948333	1061.743164	155.614151
30889.206170	1189.948333	1060.593750	152.627396
30889.206170	1189.948333	1059.443359	53.928524
30889.206170	1189.948333	1058.292969	168.953873
30889.206170	1189.948333	1057.142578	-34.896065
30889.206170	1189.948333	1055.992188	89.623970
30889.206170	1189.948333	1054.841797	32.396912
30889.206170	1189.948333	1053.690430	168.742310
30889.206170	1189.948333	1052.539063	109.881332
30889.206170	1189.948333	1051.387695	242.150070
30889.206170	1189.948333	1050.235352	62.318176
30889.206170	1189.948333	1049.083984	181.326202
30889.206170	1189.948333	1047.931641	123.550247
30889.206170	1189.948333	1046.778320	177.277451
30889.206170	1189.948333	1045.625977	191.790878
30889.206170	1189.948333	1044.472656	103.888779
30889.206170	1189.948333	1043.319336	162.029419
30889.206170	1189.948333	1042.166016	319.538177
30889.206170	1189.948333	1041.012695	204.808762
30889.206170	1189.948333	1039.858398	189.224838
30889.206170	1189.948333	1038.704102	129.152054
30889.206170	1189.948333	1037.549805	203.782471
30889.206170	1189.948333	1036.394531	-14.799625
30889.206170	1189.948333	1035.239258	169.920898
30889.206170	1189.948333	1034.083984	76.443764
30889.206170	1189.948333	1032.928711	177.783783
30889.206170	1189.948333	1031.773438	-14.646239
30889.206170	1189.948333	1030.617188	149.961456
30889.206170	1189.948333	1029.460938	196.202774
30889.206170	1189.948333	1028.304688	271.462158
30889.206170	1189.948333	1027.147461	27.919392
30889.206170	1189.948333	1025.991211	63.288769
30889.206170	1189.948333	1024.833984	77.107323
30889.206170	1189.948333	1023.675781	-26.979799
30889.206170	1189.948333	1022.518555	152.275070
30889.206170	1189.948333	1021.360352	96.611946
30889.206170	1189.948333	1020.202148	16.347168
30889.206170	1189.948333	1019.043945	116.713371
30889.206170	1189.948333	1017.884766	18.344223
30889.206170	1189.948333	1016.726563	21.599501
30889.206170	1189.948333	1015.567383	89.963081
30889.206170	1189.948333	1014.407227	-12.880305
30889.206170	1189.948333	1013.248047	92.295975
30889.206170	1189.948333	1012.087891	-18.330996
30889.206170	1189.948333	1010.927734	-115.764946
30889.206170	1189.948333	1009.767578	84.429428
30889.206170	1189.948333	1008.606445	0.536950
30889.206170	1189.948333	1007.446289	-38.535770
30889.206170	1189.948333	1006.285156	61.012119
30889.206170	1189.948333	1005.123047	110.288216
30889.206170	1189.948333	1003.961914	-6.952089
30889.206170	1189.948333	1002.799805	22.295038
30889.206170	1189.948333	1001.637695	83.370323
30889.206170	1189.948333	1000.475586	127.980080
30889.206170	1189.948333	999.312500	76.889900
30889.206170	1189.948333	998.149414	18.298025
30889.206170	1189.948333	996.986328	37.506458
30889.206170	1189.948333	995.823242	-79.976242
30889.206170	1189.948333	994.659180	32.969444
30889.206170	1189.948333	993.496094	116.684319
30889.206170	1189.948333	992.332031	9.398854
30889.206170	1189.948333	991.166992	121.154259
30889.206170	1189.948333	990.002930	50.130817
30889.206170	1189.948333	988.837891	-14.216998
30889.206170	1189.948333	987.672852	78.059738
30889.206170	1189.948333	986.506836	72.358727
30889.206170	1189.948333	985.341797	-65.692299
30889.206170	1189.948333	984.175781	237.112900
30889.206170	1189.948333	983.009766	68.948952
30889.206170	1189.948333	981.843750	128.459656
30889.206170	1189.948333	980.676758	148.646622
30889.206170	1189.948333	979.509766	97.968704
30889.206170	1189.948333	978.342773	72.568245
30889.206170	1189.948333	977.175781	31.402075
30889.206170	1189.948333	976.007813	31.248554
30889.206170	1189.948333	974.839844	165.042694
30889.206170	1189.948333	973.671875	26.373646
30889.206170	1189.948333	972.503906	61.218224
30889.206170	1189.948333	971.334961	28.322992
30889.206170	1189.948333	970.166016	45.448238
30889.206170	1189.948333	968.997070	-2.491219
30889.206170	1189.948333	967.828125	103.237801
30889.206170	1189.948333	966.658203	194.975037
30889.206170	1189.948333	965.488281	181.316299
30889.206170	1189.948333	964.318359	110.698883
30889.206170	1189.948333	963.148438	-4.345226
30889.206170	1189.948333	961.977539	51.744358
30889.206170	1189.948333	960.806641	-68.085403
30889.206170	1189.948333	959.635742	26.918180
30889.206170	1189.948333	958.463867	94.781273
30889.206170	1189.948333	957.292969	17.353710
30889.206170	1189.948333	956.121094	106.932144
30889.206170	1189.948333	954.948242	32.502129
30889.206170	1189.948333	953.776367	69.725143
30889.206170	1189.948333	952.603516	191.255142
30889.206170	1189.948333	951.430664	31.222809
30889.206170	1189.948333	950.257813	127.862282
30889.206170	1189.948333	949.084961	143.170898
30889.206170	1189.948333	947.911133	56.558430
30889.206170	1189.948333	946.737305	85.707382
30889.206170	1189.948333	945.563477	80.216148
30889.206170	1189.948333	944.388672	-5.774092
30889.206170	1189.948333	943.213867	54.238049
30889.206170	1189.948333	942.039063	32.874886
30889.206170	1189.948333	940.864258	18.633253
30889.206170	1189.948333	939.688477	175.692841
30889.206170	1189.948333	938.513672	19.368330
30889.206170	1189.948333	937.337891	34.298630
30889.206170	1189.948333	936.161133	171.126526
30889.206170	1189.948333	934.985352	100.351807
30889.206170	1189.948333	933.808594	56.697300
30889.206170	1189.948333	932.631836	-36.565487
30889.206170	1189.948333	931.454102	68.596565
30889.206170	1189.948333	930.277344	58.725319
30889.206170	1189.948333	929.099609	87.122612
30889.206170	1189.948333	927.921875	11.851484
30889.206170	1189.948333	926.743164	33.486015
30889.206170	1189.948333	925.565430	55.140919
30889.206170	1189.948333	924.386719	9.177000
30889.206170	1189.948333	923.208008	-70.565315
30889.206170	1189.948333	922.028320	201.011444
30889.206170	1189.948333	920.849609	13.172931
30889.206170	1189.948333	919.669922	15.611901
30889.206170	1189.948333	919.474609	134.197327
30889.206170	1189.948333	918.309570	7.162166
30889.206170	1189.948333	917.143555	-7.322847
30889.206170	1189.948333	915.977539	36.678455
30889.206170	1189.948333	914.810547	103.145782
30889.206170	1189.948333	913.644531	79.623207
30889.206170	1189.948333	912.477539	29.122192
30889.206170	1189.948333	911.310547	25.836256
30889.206170	1189.948333	910.143555	-78.590378
30889.206170	1189.948333	908.975586	16.994789
30889.206170	1189.948333	907.807617	72.095360
30889.206170	1189.948333	906.639648	-137.866623
30889.206170	1189.948333	905.471680	-154.633667
30889.206170	1189.948333	904.303711	37.392052
30889.206170	1189.948333	903.134766	-4.111139
30889.206170	1189.948333	901.965820	-162.303680
30889.206170	1189.948333	900.796875	-147.673203
30889.206170	1189.948333	899.626953	-101.648842
30889.206170	1189.948333	898.457031	-42.194736
30889.206170	1189.948333	897.287109	-65.740417
30889.206170	1189.948333	896.117188	-134.122665
30889.206170	1189.948333	894.947266	-23.168482
30889.206170	1189.948333	893.776367	-127.401283
30889.206170	1189.948333	892.605469	-54.596233
30889.206170	1189.948333	891.434570	42.812241
30889.206170	1189.948333	890.262695	70.746971
30889.206170	1189.948333	889.091797	9.095071
30889.206170	1189.948333	887.919922	-61.491768
30889.206170	1189.948333	886.748047	-26.859484
30889.206170	1189.948333	885.575195	-28.050606
30889.206170	1189.948333	884.403320	31.157948
30889.206170	1189.948333	883.230469	-19.269207
30889.206170	1189.948333	882.057617	-118.884048
30889.206170	1189.948333	880.883789	-142.440094
30889.206170	1189.948333	879.710938	-76.574081
30889.206170	1189.948333	878.537109	-109.081711
30889.206170	1189.948333	877.362305	-27.616728
30889.206170	1189.948333	876.188477	-113.752869
30889.206170	1189.948333	875.013672	-39.033428
30889.206170	1189.948333	873.839844	-80.479408
30889.206170	1189.948333	872.664063	-8.040117
30889.206170	1189.948333	871.489258	30.876959
30889.206170	1189.948333	870.313477	-17.268124
30889.206170	1189.948333	869.138672	-29.698475
30889.206170	1189.948333	867.962891	58.264683
30889.206170	1189.948333	866.786133	14.589154
30889.206170	1189.948333	865.610352	-33.536045
30889.206170	1189.948333	864.433594	123.474564
30889.206170	1189.948333	863.256836	44.130043
30889.206170	1189.948333	862.079102	-48.558117
30889.206170	1189.948333	860.902344	-52.087402
30889.206170	1189.948333	859.724609	-55.618977
30889.206170	1189.948333	858.546875	76.709259
30889.206170	1189.948333	857.368164	-7.022405
30889.206170	1189.948333	856.190430	-23.935936
30889.206170	1189.948333	855.011719	-132.109070
30889.206170	1189.948333	853.833008	-51.079094
30889.206170	1189.948333	852.654297	-154.763031
30889.206170	1189.948333	851.474609	-31.504923
30889.206170	1189.948333	850.294922	44.991398
30889.206170	1189.948333	849.115234	21.387547
30889.206170	1189.948333	847.935547	-155.611420
30889.206170	1189.948333	846.754883	-134.719727
30889.206170	1189.948333	845.575195	-120.510963
30889.206170	1189.948333	844.393555	-19.660007
30889.206170	1189.948333	843.212891	178.881485
30889.206170	1189.948333	842.032227	-93.492821
30889.206170	1189.948333	840.850586	-68.221321
30889.206170	1189.948333	839.668945	81.352036
30889.206170	1189.948333	838.486328	-15.506565
30889.206170	1189.948333	837.304688	69.629814
30889.206170	1189.948333	836.122070	10.517695
30889.206170	1189.948333	834.939453	0.222802
30889.206170	1189.948333	833.756836	-92.128960
30889.206170	1189.948333	832.573242	-244.312485
30889.206170	1189.948333	831.389648	9.231138
30889.206170	1189.948333	830.206055	127.467628
30889.206170	1189.948333	829.022461	-64.571846
30889.206170	1189.948333	827.838867	117.864571
30889.206170	1189.948333	826.654297	123.024887
30889.206170	1189.948333	825.469727	-64.485123
30889.206170	1189.948333	824.284180	-63.729961
30889.206170	1189.948333	823.099609	-82.906143
30889.206170	1189.948333	821.914063	-26.833513
30889.206170	1189.948333	820.728516	-99.126503
30889.206170	1189.948333	819.542969	32.126392
30889.206170	1189.948333	818.356445	4.072999
30889.206170	1189.948333	817.169922	24.671654
30889.206170	1189.948333	815.983398	155.795746
30889.206170	1189.948333	814.796875	233.808426
30889.206170	1189.948333	813.609375	42.170963
30889.206170	1189.948333	812.422852	84.807037
30889.206170	1189.948333	811.235352	72.192551
30889.206170	1189.948333	810.046875	83.870285
30889.206170	1189.948333	808.859375	27.081833
30889.206170	1189.948333	807.670898	-5.406927
30889.206170	1189.948333	806.482422	-46.720158
30889.206170	1189.948333	805.293945	73.066284
30889.206170	1189.948333	804.104492	47.180172
30889.206170	1189.948333	802.915039	94.087204
30889.206170	1189.948333	801.725586	39.518143
30889.206170	1189.948333	800.536133	121.665680
30889.206170	1189.948333	799.345703	-34.310822
30889.206170	1189.948333	798.155273	61.022610
30889.206170	1189.948333	796.964844	114.438240
30889.206170	1189.948333	795.774414	181.039368
30889.206170	1189.948333	794.583008	205.752914
30889.206170	1189.948333	793.392578	3.619924
30889.206170	1189.948333	792.200195	30.540142
30889.206170	1189.948333	791.008789	-96.652702
30889.206170	1189.948333	789.816406	42.493950
30889.206170	1189.948333	788.625000	-14.261949
30889.206170	1189.948333	787.432617	52.188858
30889.206170	1189.948333	786.239258	-28.762289
30889.206170	1189.948333	785.046875	15.647972
30889.206170	1189.948333	783.853516	11.660178
30889.206170	1189.948333	782.660156	-40.697376
30889.206170	1189.948333	781.465820	95.949318
30889.206170	1189.948333	780.272461	61.145435
30889.206170	1189.948333	779.078125	76.866768
30889.206170	1189.948333	777.883789	44.250042
30889.206170	1189.948333	776.688477	37.982193
30889.206170	1189.948333	775.494141	-40.745522
30889.206170	1189.948333	774.298828	-11.905172
30889.206170	1189.948333	773.103516	163.932968
30889.206170	1189.948333	771.907227	-26.708771
30889.206170	1189.948333	770.711914	118.318481
30889.206170	1189.948333	769.515625	-13.055117
30889.206170	1189.948333	768.318359	37.595898
30889.206170	1189.948333	767.122070	9.290590
30889.206170	1189.948333	765.924805	130.015182
30889.206170	1189.948333	764.727539	0.871839
30889.206170	1189.948333	763.530273	-5.552310
30889.206170	1189.948333	762.333008	93.142845
30889.206170	1189.948333	761.134766	110.754372
30889.206170	1189.948333	759.936523	14.490472
30889.206170	1189.948333	758.738281	198.433365
30889.206170	1189.948333	757.540039	56.194584
30889.206170	1189.948333	756.340820	-7.235011
30889.206170	1189.948333	755.141602	139.349884
30889.206170	1189.948333	753.942383	-20.343987
30889.206170	1189.948333	752.742188	71.475449
30889.206170	1189.948333	751.541992	42.994015
30889.206170	1189.948333	750.341797	1.388172
30889.206170	1189.948333	749.141602	60.302158
30889.206170	1189.948333	747.941406	42.700035
30889.206170	1189.948333	746.740234	149.593994
30889.206170	1189.948333	745.539063	11.819853
30889.206170	1189.948333	744.337891	-16.745741
30889.206170	1189.948333	743.135742	120.588066
30889.206170	1189.948333	741.933594	-10.614837
30889.206170	1189.948333	740.731445	54.603260
30889.206170	1189.948333	739.529297	-22.038214
30889.206170	1189.948333	738.326172	-39.778664
30889.206170	1189.948333	737.124023	-24.826223
30889.206170	1189.948333	735.919922	125.274277
30889.206170	1189.948333	734.716797	151.035339
30889.206170	1189.948333	733.513672	181.118896
30889.206170	1189.948333	732.309570	82.607231
30889.206170	1189.948333	731.105469	169.280716
30889.206170	1189.948333	729.900391	186.195236
30889.206170	1189.948333	728.696289	85.486664
30889.206170	1189.948333	727.491211	143.722107
30889.206170	1189.948333	726.286133	251.968155
30889.206170	1189.948333	725.080078	233.922668
30889.206170	1189.948333	723.874023	224.559067
30889.206170	1189.948333	722.668945	247.799515
30889.206170	1189.948333	721.461914	201.407532
30889.206170	1189.948333	720.255859	146.308502
30889.206170	1189.948333	719.048828	173.811401
30889.206170	1189.948333	717.841797	173.018646
30889.206170	1189.948333	716.634766	28.777115
30889.206170	1189.948333	715.427734	97.476189
30889.206170	1189.948333	714.219727	81.403885
30889.206170	1189.948333	713.011719	28.389278
30889.206170	1189.948333	711.803711	-113.652855
30889.206170	1189.948333	710.594727	-95.032715
30889.206170	1189.948333	709.385742	-37.386959
30889.206170	1189.948333	708.176758	-73.100121
30889.206170	1189.948333	706.967773	27.839275
30889.206170	1189.948333	705.758789	-40.471371
30889.206170	1189.948333	704.548828	-24.216394
30889.206170	1189.948333	703.338867	59.206463
30889.206170	1189.948333	702.127930	86.205101
30889.206170	1189.948333	700.917969	121.826271
30889.206170	1189.948333	699.707031	59.900150
30889.206170	1189.948333	698.496094	160.429504
30889.206170	1189.948333	697.285156	120.109932
30889.206170	1189.948333	696.073242	77.607010
30889.206170	1189.948333	694.861328	104.361115
30889.206170	1189.948333	693.649414	72.630829
30889.206170	1189.948333	692.436523	107.959610
30889.206170	1189.948333	691.224609	199.487457
30889.206170	1189.948333	690.011719	154.672073
30889.206170	1189.948333	688.798828	235.266983
30889.206170	1189.948333	687.584961	276.873657
30889.206170	1189.948333	686.372070	322.749512
30889.206170	1189.948333	685.158203	338.313019
30889.206170	1189.948333	683.943359	347.350037
30889.206170	1189.948333	682.729492	388.751007
30889.206170	1189.948333	681.514648	389.059662
30889.206170	1189.948333	680.299805	546.964417
30889.206170	1189.948333	679.084961	501.827850
30889.206170	1189.948333	677.869141	411.344543
30889.206170	1189.948333	676.653320	504.290833
30889.206170	1189.948333	675.437500	515.173462
30889.206170	1189.948333	674.221680	390.116730
30889.206170	1189.948333	673.004883	588.568604
30889.206170	1189.948333	671.789063	278.040710
30889.206170	1189.948333	670.571289	327.609192
30889.206170	1189.948333	669.354492	381.429657
30889.206170	1189.948333	668.136719	301.589264
30889.206170	1189.948333	666.919922	327.308380
30889.206170	1189.948333	665.701172	305.589600
30889.206170	1189.948333	664.483398	225.698318
30889.206170	1189.948333	663.264648	300.816650
30889.206170	1189.948333	662.045898	337.118347
30889.206170	1189.948333	660.827148	231.327545
30889.206170	1189.948333	659.608398	267.549683
30889.206170	1189.948333	658.388672	174.645401
30889.206170	1189.948333	657.168945	215.086029
30889.206170	1189.948333	655.949219	287.724579
30889.206170	1189.948333	654.728516	250.650711
30889.206170	1189.948333	653.507813	303.826019
30889.206170	1189.948333	652.287109	232.303284
30889.206170	1189.948333	651.066406	162.919479
30889.206170	1189.948333	649.844727	140.780258
30889.206170	1189.948333	648.623047	159.414307
30889.206170	1189.948333	647.401367	227.384689
30889.206170	1189.948333	646.179688	190.101151
30889.206170	1189.948333	644.957031	270.833344
30889.206170	1189.948333	643.734375	291.411865
30889.206170	1189.948333	642.511719	185.371002
30889.206170	1189.948333	641.289063	57.888149
30889.206170	1189.948333	640.065430	267.084412
30889.206170	1189.948333	638.841797	169.573761
30889.206170	1189.948333	637.618164	187.812897
30889.206170	1189.948333	636.393555	347.442413
30889.206170	1189.948333	635.168945	314.136475
30889.206170	1189.948333	633.944336	49.459229
30889.206170	1189.948333	632.719727	221.752182
30889.206170	1189.948333	631.494141	372.520599
30889.206170	1189.948333	630.269531	161.404495
30889.206170	1189.948333	629.042969	264.958679
30889.206170	1189.948333	627.817383	235.764084
30889.206170	1189.948333	626.590820	262.166840
30889.206170	1189.948333	625.365234	134.521088
30889.206170	1189.948333	624.137695	212.182648
30889.206170	1189.948333	622.911133	150.805557
30889.206170	1189.948333	621.683594	138.580505
30889.206170	1189.948333	620.456055	85.719719
30889.206170	1189.948333	619.228516	86.262611
30889.206170	1189.948333	618.000977	82.498085
30889.206170	1189.948333	616.772461	104.327194
30889.206170	1189.948333	615.543945	23.618097
30889.206170	1189.948333	614.314453	83.807472
30889.206170	1189.948333	613.085938	88.444954
30889.206170	1189.948333	611.856445	82.375679
30889.206170	1189.948333	610.626953	50.674011
30889.206170	1189.948333	609.397461	87.210495
30889.206170	1189.948333	608.166992	2.139994
30889.206170	1189.948333	606.936523	96.172729
30889.206170	1189.948333	605.706055	-44.350018
30889.206170	1189.948333	604.474609	-1.561502
30889.206170	1189.948333	603.244141	-31.265121
30889.206170	1189.948333	602.012695	-63.118458
30889.206170	1189.948333	600.780273	-73.691391
30889.206170	1189.948333	599.548828	-88.545448
30889.206170	1189.948333	598.316406	117.987373
30889.206170	1189.948333	597.083984	128.581909
30889.206170	1189.948333	595.851563	-3.434119
30889.206170	1189.948333	594.618164	-109.892288
30889.206170	1189.948333	593.384766	-48.287575
30889.206170	1189.948333	592.151367	-110.082275
30889.206170	1189.948333	590.917969	-74.069260
30889.206170	1189.948333	589.683594	-8.337436
30889.206170	1189.948333	588.449219	-34.047184
30889.206170	1189.948333	587.214844	-44.894657
30889.206170	1189.948333	585.979492	46.208954
30889.206170	1189.948333	584.745117	-85.762619
30889.206170	1189.948333	583.509766	88.085358
30889.206170	1189.948333	582.273438	64.389748
30889.206170	1189.948333	581.038086	-54.830185
30889.206170	1189.948333	579.801758	12.728448
30889.206170	1189.948333	578.565430	-44.941193
30889.206170	1189.948333	577.329102	-41.087910
30889.206170	1189.948333	576.091797	32.730106
30889.206170	1189.948333	574.854492	61.972874
30889.206170	1189.948333	573.617188	-38.126923
30889.206170	1189.948333	572.378906	-80.976608
30889.206170	1189.948333	571.141602	-134.414551
30889.206170	1189.948333	569.903320	-20.481232
30889.206170	1189.948333	568.664063	34.081421
30889.206170	1189.948333	567.425781	-32.094177
30889.206170	1189.948333	566.186523	130.400681
30889.206170	1189.948333	564.947266	89.609200
30889.206170	1189.948333	563.708008	-10.430725
30889.206170	1189.948333	562.467773	18.626537
30889.206170	1189.948333	561.227539	121.701172
30889.206170	1189.948333	559.987305	68.219788
30889.206170	1189.948333	558.747070	-74.052612
30889.206170	1189.948333	557.505859	-6.984260
30889.206170	1189.948333	556.264648	93.867531
30889.206170	1189.948333	555.023438	8.717975
30889.206170	1189.948333	553.781250	79.936638
30889.206170	1189.948333	552.539063	15.940850
30889.206170	1189.948333	551.296875	21.659216
30889.206170	1189.948333	550.054688	4.150229
30889.206170	1189.948333	548.811523	-28.129114
30889.206170	1189.948333	547.569336	72.565125
30889.206170	1189.948333	546.325195	25.515753
30889.206170	1189.948333	545.082031	88.187347
30889.206170	1189.948333	543.837891	85.452515
30889.206170	1189.948333	542.593750	38.442951
30889.206170	1189.948333	541.349609	-19.081177
30889.206170	1189.948333	540.105469	-21.773754
30889.206170	1189.948333	538.860352	-1.280268
30889.206170	1189.948333	537.615234	-73.486145
30889.206170	1189.948333	536.369141	-17.167213
30889.206170	1189.948333	535.124023	60.199638
30889.206170	1189.948333	533.877930	-16.155437
30889.206170	1189.948333	532.631836	-14.580794
30889.206170	1189.948333	531.384766	-19.309761
30889.206170	1189.948333	530.138672	-51.373508
30889.206170	1189.948333	528.891602	42.806816
30889.206170	1189.948333	527.643555	-56.533012
30889.206170	1189.948333	526.396484	50.256897
30889.206170	1189.948333	525.148438	89.743248
30889.206170	1189.948333	523.900391	7.324642
30889.206170	1189.948333	522.652344	69.955536
30889.206170	1189.948333	521.403320	23.329428
30889.206170	1189.948333	520.154297	20.853634
30889.206170	1189.948333	518.905273	-113.900230
30889.206170	1189.948333	517.656250	-133.097382
30889.206170	1189.948333	516.406250	-26.317709
30889.206170	1189.948333	515.156250	-53.875225
30889.206170	1189.948333	513.906250	-33.136341
30889.206170	1189.948333	512.655273	46.354698
30889.206170	1189.948333	511.404297	-81.797249
30889.206170	1189.948333	510.153320	-138.572433
30889.206170	1189.948333	508.902344	-29.678644
30889.206170	1189.948333	507.650391	-6.739679
30889.206170	1189.948333	506.398438	-99.034645
30889.206170	1189.948333	505.146484	-52.985744
30889.206170	1189.948333	503.893555	-78.144997
30889.206170	1189.948333	502.641602	-36.246346
30889.206170	1189.948333	501.388672	-132.520920
30889.206170	1189.948333	500.134766	7.814617
30889.206170	1189.948333	498.881836	-15.114051
30889.206170	1189.948333	497.627930	74.986450
30889.206170	1189.948333	496.374023	-115.234673
30889.206170	1189.948333	495.119141	-58.548645
30889.206170	1189.948333	493.865234	-158.675842
30889.206170	1189.948333	492.610352	-58.032257
30889.206170	1189.948333	491.355469	48.874355
30889.206170	1189.948333	490.099609	-88.721886
30889.206170	1189.948333	488.843750	-17.300545
30889.206170	1189.948333	487.587891	-48.223206
30889.206170	1189.948333	486.332031	-58.211826
30889.206170	1189.948333	485.075195	-34.755470
30889.206170	1189.948333	483.818359	9.602553
30889.206170	1189.948333	482.561523	-23.238758
30889.206170	1189.948333	481.304688	-76.893623
30889.206170	1189.948333	480.046875	48.912025
30889.206170	1189.948333	478.789063	-6.747745
30889.206170	1189.948333	477.531250	64.849121
30889.206170	1189.948333	476.272461	-9.478925
30889.206170	1189.948333	475.013672	12.137835
30889.206170	1189.948333	473.754883	-49.569912
30889.206170	1189.948333	472.496094	151.289612
30889.206170	1189.948333	471.236328	108.396072
30889.206170	1189.948333	469.976563	157.185257
30889.206170	1189.948333	468.716797	139.364182
30889.206170	1189.948333	467.456055	165.296997
30889.206170	1189.948333	466.196289	143.388947
30889.206170	1189.948333	464.935547	59.102184
30889.206170	1189.948333	463.673828	45.610832
30889.206170	1189.948333	462.413086	-69.750076
30889.206170	1189.948333	461.151367	43.694473
30889.206170	1189.948333	459.889648	-11.268475
30889.206170	1189.948333	458.626953	79.309891
30889.206170	1189.948333	457.364258	-56.622456
30889.206170	1189.948333	456.101563	129.548019
30889.206170	1189.948333	454.838867	76.800018
30889.206170	1189.948333	453.575195	19.943884
30889.206170	1189.948333	452.312500	-70.081848
30889.206170	1189.948333	451.047852	26.765945
30889.206170	1189.948333	449.784180	109.065437
30889.206170	1189.948333	448.519531	-146.851563
30889.206170	1189.948333	447.254883	-20.954472
30889.206170	1189.948333	445.990234	-2.942970
30889.206170	1189.948333	444.725586	27.514389
30889.206170	1189.948333	443.459961	14.433366
30889.206170	1189.948333	442.194336	92.559921
30889.206170	1189.948333	440.927734	38.039970
30889.206170	1189.948333	439.662109	149.282959
30889.206170	1189.948333	438.395508	115.490082
30889.206170	1189.948333	437.127930	272.221619
30889.206170	1189.948333	435.861328	215.635193
30889.206170	1189.948333	434.593750	92.827141
30889.206170	1189.948333	433.326172	123.200272
30889.206170	1189.948333	432.058594	45.957909
30889.206170	1189.948333	430.790039	53.540367
30889.206170	1189.948333	429.521484	183.117172
30889.206170	1189.948333	428.252930	39.680767
30889.206170	1189.948333	426.984375	82.327499
30889.206170	1189.948333	425.714844	29.850534
30889.206170	1189.948333	424.445313	119.935486
30889.206170	1189.948333	423.174805	218.202301
30889.206170	1189.948333	421.905273	138.755661
30889.206170	1189.948333	420.634766	84.072235
30889.206170	1189.948333	419.364258	208.971405
30889.206170	1189.948333	418.092773	176.884796
30889.206170	1189.948333	416.822266	91.094490
30889.206170	1189.948333	415.550781	52.723602
30889.206170	1189.948333	414.278320	255.631821
30889.206170	1189.948333	413.006836	50.039463
30889.206170	1189.948333	411.734375	104.239174
30889.206170	1189.948333	410.461914	90.296974
30889.206170	1189.948333	409.188477	94.807831
30889.206170	1189.948333	407.916016	146.604630
30889.206170	1189.948333	406.642578	239.465973
30889.206170	1189.948333	405.368164	78.834068
30889.206170	1189.948333	404.094727	245.553909
30889.206170	1189.948333	402.820313	109.435158
30889.206170	1189.948333	401.545898	119.371529
30889.206170	1189.948333	400.270508	170.308868
30889.206170	1189.948333	398.996094	128.488113
30889.206170	1189.948333	397.720703	90.631676
30889.206170	1189.948333	396.444336	159.552673
30889.206170	1189.948333	395.168945	69.950066
30889.206170	1189.948333	393.892578	154.917343
30889.206170	1189.948333	392.616211	15.637415
30889.206170	1189.948333	391.339844	137.154221
30889.206170	1189.948333	390.062500	133.086288
30889.206170	1189.948333	388.785156	71.284637
30889.206170	1189.948333	387.507813	-11.263252
30889.206170	1189.948333	386.229492	267.281464
30889.206170	1189.948333	384.951172	155.476990
30889.206170	1189.948333	383.672852	174.777740
30889.206170	1189.948333	382.394531	372.272583
30889.206170	1189.948333	381.115234	282.224640
30889.206170	1189.948333	379.835938	206.262527
30889.206170	1189.948333	378.556641	246.877060
30889.206170	1189.948333	377.277344	164.153931
30889.206170	1189.948333	375.997070	136.447754
30889.206170	1189.948333	374.716797	188.301376
30889.206170	1189.948333	373.435547	108.652153
30889.206170	1189.948333	372.155273	77.809608
30889.206170	1189.948333	370.874023	107.999252
30889.206170	1189.948333	369.591797	66.102676
30889.206170	1189.948333	368.310547	-115.372078
30889.206170	1189.948333	367.028320	3.570974
30889.206170	1189.948333	365.746094	74.946915
30889.206170	1189.948333	364.463867	-5.541417
30889.206170	1189.948333	363.180664	-90.589195
30889.206170	1189.948333	361.897461	-30.957838
30889.206170	1189.948333	360.614258	93.524055
30889.206170	1189.948333	359.330078	27.343954
30889.206170	1189.948333	358.045898	-37.331406
30889.206170	1189.948333	356.761719	-78.052567
30889.206170	1189.948333	355.477539	-15.207902
30889.206170	1189.948333	354.192383	18.387749
30889.206170	1189.948333	352.907227	-77.278572
30889.206170	1189.948333	351.622070	81.540176
30889.206170	1189.948333	350.336914	-74.621819
30889.206170	1189.948333	349.050781	-68.239029
30889.206170	1189.948333	347.764648	-31.996161
30889.206170	1189.948333	346.477539	131.926117
30889.206170	1189.948333	345.191406	-2.625890
30889.206170	1189.948333	343.904297	59.770973
30889.206170	1189.948333	342.616211	-3.002751
30889.206170	1189.948333	341.329102	-56.393612
30889.206170	1189.948333	340.041016	13.597378
30889.206170	1189.948333	338.752930	-21.198854
30889.206170	1189.948333	337.463867	-69.140984
30889.206170	1189.948333	336.175781	-67.105469
30889.206170	1189.948333	334.886719	94.702278
30889.206170	1189.948333	333.596680	-106.758339
30889.206170	1189.948333	332.307617	-162.681412
30889.206170	1189.948333	331.017578	-95.609131
30889.206170	1189.948333	329.727539	-11.360974
30889.206170	1189.948333	328.436523	-46.207451
30889.206170	1189.948333	327.146484	-19.163740
30889.206170	1189.948333	325.855469	33.069977
30889.206170	1189.948333	324.563477	4.801938
30889.206170	1189.948333	323.272461	-2.337511
30889.206170	1189.948333	321.980469	-98.107704
30889.206170	1189.948333	320.688477	44.406864
30889.206170	1189.948333	319.395508	-72.310287
30889.206170	1189.948333	318.103516	-11.755505
30889.206170	1189.948333	316.810547	79.772385
30889.206170	1189.948333	315.516602	222.498276
30889.206170	1189.948333	314.223633	-7.430246
30889.206170	1189.948333	312.929688	-84.744049
30889.206170	1189.948333	311.635742	118.161186
30889.206170	1189.948333	310.340820	147.048035
30889.206170	1189.948333	309.045898	174.257401
30889.206170	1189.948333	307.750977	246.341568
30889.206170	1189.948333	306.456055	268.037140
30889.206170	1189.948333	305.160156	59.073532
30889.206170	1189.948333	303.865234	192.567368
30889.206170	1189.948333	302.568359	194.490631
30889.206170	1189.948333	301.272461	261.310089
30889.206170	1189.948333	299.975586	350.353058
30889.206170	1189.948333	298.678711	269.451263
