#X		#Y		#Wave		#Intensity
30867.515213	1181.379167	1999.980469	58.010967
30867.515213	1181.379167	1999.016602	-69.686317
30867.515213	1181.379167	1998.052734	-67.636269
30867.515213	1181.379167	1997.087891	-33.586235
30867.515213	1181.379167	1996.123047	20.060614
30867.515213	1181.379167	1995.158203	-97.445511
30867.515213	1181.379167	1994.193359	-12.013705
30867.515213	1181.379167	1993.228516	-119.956505
30867.515213	1181.379167	1992.262695	111.144608
30867.515213	1181.379167	1991.297852	42.457165
30867.515213	1181.379167	1990.332031	-122.899818
30867.515213	1181.379167	1989.366211	134.767258
30867.515213	1181.379167	1988.399414	38.394787
30867.515213	1181.379167	1987.433594	38.366085
30867.515213	1181.379167	1986.466797	-132.456528
30867.515213	1181.379167	1985.500977	-6.650270
30867.515213	1181.379167	1984.534180	86.829445
30867.515213	1181.379167	1983.567383	-126.353752
30867.515213	1181.379167	1982.599609	-8.443196
30867.515213	1181.379167	1981.632813	74.704300
30867.515213	1181.379167	1980.665039	83.588844
30867.515213	1181.379167	1979.697266	18.255079
30867.515213	1181.379167	1978.729492	100.996689
30867.515213	1181.379167	1977.761719	89.778168
30867.515213	1181.379167	1976.792969	29.088743
30867.515213	1181.379167	1975.825195	42.362438
30867.515213	1181.379167	1974.856445	134.496338
30867.515213	1181.379167	1973.887695	135.220718
30867.515213	1181.379167	1972.918945	-49.143482
30867.515213	1181.379167	1971.949219	42.690361
30867.515213	1181.379167	1970.980469	112.217773
30867.515213	1181.379167	1970.010742	78.099625
30867.515213	1181.379167	1969.041016	137.583755
30867.515213	1181.379167	1968.071289	-12.495197
30867.515213	1181.379167	1967.101563	32.063538
30867.515213	1181.379167	1966.130859	-110.680435
30867.515213	1181.379167	1965.161133	-76.095039
30867.515213	1181.379167	1964.190430	-76.055397
30867.515213	1181.379167	1963.219727	42.110043
30867.515213	1181.379167	1962.249023	118.333580
30867.515213	1181.379167	1961.277344	-29.485527
30867.515213	1181.379167	1960.306641	149.980240
30867.515213	1181.379167	1959.334961	107.913452
30867.515213	1181.379167	1958.363281	-5.510077
30867.515213	1181.379167	1957.391602	131.923294
30867.515213	1181.379167	1956.419922	6.172216
30867.515213	1181.379167	1955.447266	72.191948
30867.515213	1181.379167	1954.474609	5.427703
30867.515213	1181.379167	1953.501953	49.250050
30867.515213	1181.379167	1952.529297	36.519230
30867.515213	1181.379167	1951.556641	131.861038
30867.515213	1181.379167	1950.583984	-55.307796
30867.515213	1181.379167	1949.610352	-31.238138
30867.515213	1181.379167	1948.636719	29.635582
30867.515213	1181.379167	1947.663086	9.465260
30867.515213	1181.379167	1946.689453	-81.884384
30867.515213	1181.379167	1945.715820	-30.886091
30867.515213	1181.379167	1944.741211	-68.239357
30867.515213	1181.379167	1943.767578	71.028503
30867.515213	1181.379167	1942.792969	28.754374
30867.515213	1181.379167	1941.818359	84.573296
30867.515213	1181.379167	1940.842773	-75.368759
30867.515213	1181.379167	1939.868164	83.393837
30867.515213	1181.379167	1938.892578	63.199680
30867.515213	1181.379167	1937.916992	62.617687
30867.515213	1181.379167	1936.941406	-175.585175
30867.515213	1181.379167	1935.965820	49.220779
30867.515213	1181.379167	1934.990234	149.059753
30867.515213	1181.379167	1934.013672	-20.453390
30867.515213	1181.379167	1933.037109	150.366165
30867.515213	1181.379167	1932.060547	135.125000
30867.515213	1181.379167	1931.083984	-46.495716
30867.515213	1181.379167	1930.107422	45.977196
30867.515213	1181.379167	1929.129883	-62.153114
30867.515213	1181.379167	1928.153320	-106.640579
30867.515213	1181.379167	1927.175781	-23.948736
30867.515213	1181.379167	1926.198242	48.948620
30867.515213	1181.379167	1925.219727	4.508834
30867.515213	1181.379167	1924.242188	43.193977
30867.515213	1181.379167	1923.263672	74.550720
30867.515213	1181.379167	1922.285156	240.273972
30867.515213	1181.379167	1921.306641	-70.322174
30867.515213	1181.379167	1920.328125	27.028912
30867.515213	1181.379167	1919.349609	-19.686411
30867.515213	1181.379167	1918.370117	-15.102260
30867.515213	1181.379167	1917.391602	118.855179
30867.515213	1181.379167	1916.412109	55.129566
30867.515213	1181.379167	1915.431641	71.958618
30867.515213	1181.379167	1914.452148	64.412010
30867.515213	1181.379167	1913.472656	173.953156
30867.515213	1181.379167	1912.492188	37.202229
30867.515213	1181.379167	1911.511719	-77.533676
30867.515213	1181.379167	1910.531250	-75.207016
30867.515213	1181.379167	1909.550781	-97.227310
30867.515213	1181.379167	1908.569336	-138.709732
30867.515213	1181.379167	1907.588867	-14.498756
30867.515213	1181.379167	1906.607422	53.669231
30867.515213	1181.379167	1905.625977	2.512594
30867.515213	1181.379167	1904.644531	-24.254309
30867.515213	1181.379167	1903.662109	-209.214462
30867.515213	1181.379167	1902.680664	-63.084782
30867.515213	1181.379167	1901.698242	-2.153807
30867.515213	1181.379167	1900.715820	102.569519
30867.515213	1181.379167	1899.733398	-11.641499
30867.515213	1181.379167	1898.750000	-55.259987
30867.515213	1181.379167	1897.767578	-42.913399
30867.515213	1181.379167	1896.784180	13.209947
30867.515213	1181.379167	1895.800781	35.306431
30867.515213	1181.379167	1894.817383	-66.521164
30867.515213	1181.379167	1893.833984	-75.959152
30867.515213	1181.379167	1892.850586	9.368636
30867.515213	1181.379167	1891.866211	126.260071
30867.515213	1181.379167	1890.881836	138.710144
30867.515213	1181.379167	1889.897461	-84.327888
30867.515213	1181.379167	1888.913086	95.691490
30867.515213	1181.379167	1887.927734	76.651115
30867.515213	1181.379167	1886.943359	55.211403
30867.515213	1181.379167	1885.958008	-9.870404
30867.515213	1181.379167	1884.972656	65.776909
30867.515213	1181.379167	1883.987305	-40.472599
30867.515213	1181.379167	1883.001953	1.242890
30867.515213	1181.379167	1882.015625	52.656815
30867.515213	1181.379167	1881.029297	150.121201
30867.515213	1181.379167	1880.042969	-6.885966
30867.515213	1181.379167	1879.056641	51.819359
30867.515213	1181.379167	1878.070313	-66.320015
30867.515213	1181.379167	1877.083984	19.046904
30867.515213	1181.379167	1876.096680	5.113042
30867.515213	1181.379167	1875.109375	54.146259
30867.515213	1181.379167	1874.122070	-102.578651
30867.515213	1181.379167	1873.134766	-72.879204
30867.515213	1181.379167	1872.146484	-2.043904
30867.515213	1181.379167	1871.159180	-13.478540
30867.515213	1181.379167	1870.170898	-80.530533
30867.515213	1181.379167	1869.182617	111.216759
30867.515213	1181.379167	1868.194336	73.200668
30867.515213	1181.379167	1867.205078	-114.673965
30867.515213	1181.379167	1866.216797	-159.867279
30867.515213	1181.379167	1865.227539	-113.208069
30867.515213	1181.379167	1864.238281	-97.968277
30867.515213	1181.379167	1863.249023	-111.715973
30867.515213	1181.379167	1862.259766	-33.675991
30867.515213	1181.379167	1861.269531	63.657093
30867.515213	1181.379167	1860.279297	-138.412521
30867.515213	1181.379167	1859.290039	-135.228134
30867.515213	1181.379167	1858.298828	-28.267656
30867.515213	1181.379167	1857.308594	-8.210396
30867.515213	1181.379167	1856.318359	-58.121262
30867.515213	1181.379167	1855.327148	-202.081268
30867.515213	1181.379167	1854.335938	78.446136
30867.515213	1181.379167	1853.344727	98.468033
30867.515213	1181.379167	1852.353516	-64.729240
30867.515213	1181.379167	1851.362305	5.921451
30867.515213	1181.379167	1850.370117	153.654007
30867.515213	1181.379167	1849.377930	-14.290454
30867.515213	1181.379167	1848.385742	102.065842
30867.515213	1181.379167	1847.393555	71.461395
30867.515213	1181.379167	1846.401367	-50.639240
30867.515213	1181.379167	1845.408203	99.343513
30867.515213	1181.379167	1844.415039	6.152273
30867.515213	1181.379167	1843.421875	158.457657
30867.515213	1181.379167	1842.428711	-38.191284
30867.515213	1181.379167	1841.435547	22.629969
30867.515213	1181.379167	1840.441406	145.952606
30867.515213	1181.379167	1839.448242	-45.807095
30867.515213	1181.379167	1838.454102	-71.609924
30867.515213	1181.379167	1837.459961	-114.242996
30867.515213	1181.379167	1836.464844	-106.403671
30867.515213	1181.379167	1835.470703	-117.805458
30867.515213	1181.379167	1834.475586	67.786064
30867.515213	1181.379167	1833.480469	133.188828
30867.515213	1181.379167	1832.485352	97.682854
30867.515213	1181.379167	1831.490234	81.381149
30867.515213	1181.379167	1830.495117	-28.559784
30867.515213	1181.379167	1829.499023	137.547821
30867.515213	1181.379167	1828.502930	97.190948
30867.515213	1181.379167	1827.506836	23.237997
30867.515213	1181.379167	1826.510742	74.032486
30867.515213	1181.379167	1825.513672	79.214760
30867.515213	1181.379167	1824.517578	-35.526390
30867.515213	1181.379167	1823.520508	-44.757698
30867.515213	1181.379167	1822.523438	-75.583839
30867.515213	1181.379167	1821.526367	104.478859
30867.515213	1181.379167	1820.529297	238.919937
30867.515213	1181.379167	1819.531250	193.604218
30867.515213	1181.379167	1818.533203	138.697174
30867.515213	1181.379167	1817.535156	67.018440
30867.515213	1181.379167	1816.537109	93.506783
30867.515213	1181.379167	1815.539063	210.924225
30867.515213	1181.379167	1814.540039	21.903582
30867.515213	1181.379167	1813.541992	86.582497
30867.515213	1181.379167	1812.542969	22.006521
30867.515213	1181.379167	1811.543945	72.243202
30867.515213	1181.379167	1810.543945	79.377876
30867.515213	1181.379167	1809.544922	50.608540
30867.515213	1181.379167	1808.544922	62.457561
30867.515213	1181.379167	1807.544922	2.558563
30867.515213	1181.379167	1806.544922	19.121384
30867.515213	1181.379167	1805.544922	54.756752
30867.515213	1181.379167	1804.544922	1.950890
30867.515213	1181.379167	1803.543945	104.378311
30867.515213	1181.379167	1802.542969	49.118145
30867.515213	1181.379167	1801.541992	213.497955
30867.515213	1181.379167	1800.541016	110.418068
30867.515213	1181.379167	1799.539063	93.255989
30867.515213	1181.379167	1798.538086	138.103149
30867.515213	1181.379167	1797.536133	58.830833
30867.515213	1181.379167	1796.534180	120.281143
30867.515213	1181.379167	1795.532227	186.435989
30867.515213	1181.379167	1794.529297	211.986221
30867.515213	1181.379167	1793.527344	-65.279060
30867.515213	1181.379167	1792.524414	119.917839
30867.515213	1181.379167	1791.521484	135.802567
30867.515213	1181.379167	1790.518555	80.158333
30867.515213	1181.379167	1789.514648	57.838421
30867.515213	1181.379167	1788.511719	273.654388
30867.515213	1181.379167	1787.507813	34.519283
30867.515213	1181.379167	1786.503906	-6.964043
30867.515213	1181.379167	1785.500000	194.317276
30867.515213	1181.379167	1784.496094	288.379425
30867.515213	1181.379167	1783.491211	-34.049553
30867.515213	1181.379167	1782.486328	112.259422
30867.515213	1181.379167	1781.481445	258.464661
30867.515213	1181.379167	1780.476563	109.679535
30867.515213	1181.379167	1779.471680	189.156128
30867.515213	1181.379167	1778.465820	116.409447
30867.515213	1181.379167	1777.460938	57.903027
30867.515213	1181.379167	1776.455078	-83.804993
30867.515213	1181.379167	1775.449219	-16.436335
30867.515213	1181.379167	1774.442383	-41.787197
30867.515213	1181.379167	1773.436523	11.195270
30867.515213	1181.379167	1772.429688	140.086914
30867.515213	1181.379167	1771.422852	83.701408
30867.515213	1181.379167	1770.416016	-53.417568
30867.515213	1181.379167	1769.409180	58.642319
30867.515213	1181.379167	1768.402344	23.499464
30867.515213	1181.379167	1767.394531	95.064430
30867.515213	1181.379167	1766.386719	140.458313
30867.515213	1181.379167	1765.378906	117.011948
30867.515213	1181.379167	1764.371094	112.486855
30867.515213	1181.379167	1763.362305	126.869583
30867.515213	1181.379167	1762.354492	183.854355
30867.515213	1181.379167	1761.345703	143.608307
30867.515213	1181.379167	1760.336914	134.120575
30867.515213	1181.379167	1759.328125	86.682518
30867.515213	1181.379167	1758.318359	53.412334
30867.515213	1181.379167	1757.308594	169.266632
30867.515213	1181.379167	1756.299805	29.357044
30867.515213	1181.379167	1755.290039	-79.789993
30867.515213	1181.379167	1754.279297	-65.903244
30867.515213	1181.379167	1753.269531	-85.198120
30867.515213	1181.379167	1752.258789	186.408173
30867.515213	1181.379167	1751.249023	-100.289261
30867.515213	1181.379167	1750.238281	22.134460
30867.515213	1181.379167	1749.226563	-94.326241
30867.515213	1181.379167	1748.215820	-7.519484
30867.515213	1181.379167	1747.204102	109.914886
30867.515213	1181.379167	1746.193359	26.415606
30867.515213	1181.379167	1745.181641	96.437851
30867.515213	1181.379167	1744.168945	19.936056
30867.515213	1181.379167	1743.157227	-92.011040
30867.515213	1181.379167	1742.144531	29.759451
30867.515213	1181.379167	1741.132813	-56.296051
30867.515213	1181.379167	1740.120117	-59.777538
30867.515213	1181.379167	1739.106445	-72.757385
30867.515213	1181.379167	1738.093750	-107.018082
30867.515213	1181.379167	1737.080078	103.979736
30867.515213	1181.379167	1736.067383	62.508984
30867.515213	1181.379167	1735.053711	-7.300829
30867.515213	1181.379167	1734.040039	-216.226486
30867.515213	1181.379167	1733.025391	20.324242
30867.515213	1181.379167	1732.011719	233.167694
30867.515213	1181.379167	1730.997070	108.957420
30867.515213	1181.379167	1729.982422	64.827042
30867.515213	1181.379167	1728.967773	-123.005508
30867.515213	1181.379167	1727.952148	-77.714821
30867.515213	1181.379167	1726.937500	19.299232
30867.515213	1181.379167	1725.921875	-25.010481
30867.515213	1181.379167	1724.906250	67.133049
30867.515213	1181.379167	1723.890625	-130.217728
30867.515213	1181.379167	1722.875000	-68.782333
30867.515213	1181.379167	1721.858398	173.670181
30867.515213	1181.379167	1720.841797	105.574753
30867.515213	1181.379167	1719.825195	25.694342
30867.515213	1181.379167	1718.808594	-82.418068
30867.515213	1181.379167	1717.791992	-162.341324
30867.515213	1181.379167	1716.774414	-75.463821
30867.515213	1181.379167	1715.756836	67.708755
30867.515213	1181.379167	1714.739258	-61.690952
30867.515213	1181.379167	1713.721680	-31.405336
30867.515213	1181.379167	1712.704102	-144.408203
30867.515213	1181.379167	1711.685547	-6.246859
30867.515213	1181.379167	1710.667969	-27.783291
30867.515213	1181.379167	1709.649414	-225.362946
30867.515213	1181.379167	1708.630859	-129.653198
30867.515213	1181.379167	1707.611328	-179.470062
30867.515213	1181.379167	1706.592773	-72.183884
30867.515213	1181.379167	1705.573242	63.141750
30867.515213	1181.379167	1704.553711	-57.167118
30867.515213	1181.379167	1703.534180	-100.132080
30867.515213	1181.379167	1702.513672	39.649414
30867.515213	1181.379167	1701.494141	-59.649040
30867.515213	1181.379167	1700.473633	-46.524536
30867.515213	1181.379167	1699.453125	-63.900764
30867.515213	1181.379167	1698.432617	-158.593231
30867.515213	1181.379167	1697.412109	-66.003334
30867.515213	1181.379167	1696.390625	-151.398193
30867.515213	1181.379167	1695.369141	11.261120
30867.515213	1181.379167	1694.347656	-53.151909
30867.515213	1181.379167	1693.326172	97.635666
30867.515213	1181.379167	1692.304688	-22.996790
30867.515213	1181.379167	1691.282227	29.412464
30867.515213	1181.379167	1690.260742	93.453094
30867.515213	1181.379167	1689.238281	-31.926546
30867.515213	1181.379167	1688.214844	-56.812016
30867.515213	1181.379167	1687.192383	-11.625106
30867.515213	1181.379167	1686.168945	119.934860
30867.515213	1181.379167	1685.146484	136.954071
30867.515213	1181.379167	1684.123047	30.146137
30867.515213	1181.379167	1683.099609	159.159927
30867.515213	1181.379167	1682.075195	145.675644
30867.515213	1181.379167	1681.051758	10.794442
30867.515213	1181.379167	1680.027344	158.276550
30867.515213	1181.379167	1679.002930	81.685074
30867.515213	1181.379167	1677.978516	163.704163
30867.515213	1181.379167	1676.953125	122.039276
30867.515213	1181.379167	1675.928711	194.614212
30867.515213	1181.379167	1674.903320	101.595154
30867.515213	1181.379167	1673.877930	43.537563
30867.515213	1181.379167	1672.852539	225.495773
30867.515213	1181.379167	1671.826172	272.204376
30867.515213	1181.379167	1670.800781	237.334625
30867.515213	1181.379167	1669.774414	188.461578
30867.515213	1181.379167	1668.748047	172.174088
30867.515213	1181.379167	1667.721680	174.484512
30867.515213	1181.379167	1666.694336	258.223053
30867.515213	1181.379167	1665.667969	223.214569
30867.515213	1181.379167	1664.640625	150.951843
30867.515213	1181.379167	1663.613281	211.287582
30867.515213	1181.379167	1662.585938	111.082787
30867.515213	1181.379167	1661.557617	75.991783
30867.515213	1181.379167	1660.530273	236.192245
30867.515213	1181.379167	1659.501953	389.321259
30867.515213	1181.379167	1658.473633	216.989487
30867.515213	1181.379167	1657.444336	323.526978
30867.515213	1181.379167	1656.416016	423.035400
30867.515213	1181.379167	1655.386719	273.936890
30867.515213	1181.379167	1654.358398	454.645691
30867.515213	1181.379167	1653.328125	405.380859
30867.515213	1181.379167	1652.298828	284.155212
30867.515213	1181.379167	1651.269531	485.566345
30867.515213	1181.379167	1650.239258	445.536896
30867.515213	1181.379167	1649.208984	477.421967
30867.515213	1181.379167	1648.178711	439.686066
30867.515213	1181.379167	1647.148438	534.135620
30867.515213	1181.379167	1646.117188	545.047791
30867.515213	1181.379167	1645.086914	481.760986
30867.515213	1181.379167	1644.055664	573.764343
30867.515213	1181.379167	1643.024414	498.865173
30867.515213	1181.379167	1641.992188	451.773193
30867.515213	1181.379167	1640.960938	654.868958
30867.515213	1181.379167	1639.928711	596.153259
30867.515213	1181.379167	1638.896484	713.427551
30867.515213	1181.379167	1637.864258	758.874207
30867.515213	1181.379167	1636.832031	568.194214
30867.515213	1181.379167	1635.798828	613.617737
30867.515213	1181.379167	1634.766602	781.649475
30867.515213	1181.379167	1633.733398	544.765686
30867.515213	1181.379167	1632.699219	657.198547
30867.515213	1181.379167	1631.666016	642.403015
30867.515213	1181.379167	1630.632813	902.729370
30867.515213	1181.379167	1629.598633	813.899048
30867.515213	1181.379167	1628.564453	759.760437
30867.515213	1181.379167	1627.530273	853.517517
30867.515213	1181.379167	1626.495117	827.094727
30867.515213	1181.379167	1625.460938	599.738159
30867.515213	1181.379167	1624.425781	799.673889
30867.515213	1181.379167	1623.390625	921.028809
30867.515213	1181.379167	1622.355469	896.905212
30867.515213	1181.379167	1621.319336	757.384888
30867.515213	1181.379167	1620.284180	790.985291
30867.515213	1181.379167	1619.248047	810.722656
30867.515213	1181.379167	1618.211914	1017.286316
30867.515213	1181.379167	1617.174805	859.391846
30867.515213	1181.379167	1616.138672	851.438538
30867.515213	1181.379167	1615.101563	921.860596
30867.515213	1181.379167	1614.065430	900.075012
30867.515213	1181.379167	1613.027344	843.720947
30867.515213	1181.379167	1611.990234	969.409790
30867.515213	1181.379167	1610.953125	1042.074829
30867.515213	1181.379167	1609.915039	1045.619995
30867.515213	1181.379167	1608.876953	1069.893921
30867.515213	1181.379167	1607.838867	1061.936279
30867.515213	1181.379167	1606.800781	1226.614258
30867.515213	1181.379167	1605.761719	1147.302368
30867.515213	1181.379167	1604.723633	1272.806274
30867.515213	1181.379167	1603.684570	1297.050537
30867.515213	1181.379167	1602.644531	1316.689209
30867.515213	1181.379167	1601.605469	1196.076538
30867.515213	1181.379167	1600.566406	1114.606812
30867.515213	1181.379167	1599.526367	1134.309326
30867.515213	1181.379167	1598.486328	1064.393555
30867.515213	1181.379167	1597.446289	1116.294922
30867.515213	1181.379167	1596.405273	1115.349365
30867.515213	1181.379167	1595.365234	1160.362915
30867.515213	1181.379167	1594.324219	1278.849243
30867.515213	1181.379167	1593.283203	1273.333618
30867.515213	1181.379167	1592.242188	1194.387817
30867.515213	1181.379167	1591.200195	1030.572510
30867.515213	1181.379167	1590.159180	1123.830322
30867.515213	1181.379167	1589.117188	1329.473145
30867.515213	1181.379167	1588.075195	1188.727905
30867.515213	1181.379167	1587.032227	1160.416016
30867.515213	1181.379167	1585.990234	987.708435
30867.515213	1181.379167	1584.947266	1133.704346
30867.515213	1181.379167	1583.904297	1029.863892
30867.515213	1181.379167	1582.861328	1058.988892
30867.515213	1181.379167	1581.818359	1076.673462
30867.515213	1181.379167	1580.775391	1034.826782
30867.515213	1181.379167	1579.731445	1100.647217
30867.515213	1181.379167	1578.687500	946.675049
30867.515213	1181.379167	1577.643555	950.740173
30867.515213	1181.379167	1576.598633	812.930786
30867.515213	1181.379167	1575.554688	1212.938721
30867.515213	1181.379167	1574.509766	1001.987671
30867.515213	1181.379167	1573.464844	912.377502
30867.515213	1181.379167	1572.419922	1090.396973
30867.515213	1181.379167	1571.374023	1005.437317
30867.515213	1181.379167	1570.329102	1069.140015
30867.515213	1181.379167	1569.283203	1032.283936
30867.515213	1181.379167	1568.237305	1029.753784
30867.515213	1181.379167	1567.191406	963.292114
30867.515213	1181.379167	1566.144531	919.728943
30867.515213	1181.379167	1565.098633	1141.139160
30867.515213	1181.379167	1564.051758	1047.403198
30867.515213	1181.379167	1563.004883	885.259277
30867.515213	1181.379167	1561.957031	892.107422
30867.515213	1181.379167	1560.910156	949.202881
30867.515213	1181.379167	1559.862305	951.554565
30867.515213	1181.379167	1558.814453	821.649292
30867.515213	1181.379167	1557.766602	881.125244
30867.515213	1181.379167	1556.718750	993.064209
30867.515213	1181.379167	1555.669922	945.419434
30867.515213	1181.379167	1554.621094	806.669617
30867.515213	1181.379167	1553.573242	861.722107
30867.515213	1181.379167	1552.523438	834.766663
30867.515213	1181.379167	1551.474609	835.209412
30867.515213	1181.379167	1550.424805	810.641113
30867.515213	1181.379167	1549.375000	761.084167
30867.515213	1181.379167	1548.325195	563.620239
30867.515213	1181.379167	1547.275391	389.043945
30867.515213	1181.379167	1546.225586	487.663391
30867.515213	1181.379167	1545.174805	520.308228
30867.515213	1181.379167	1544.124023	578.013367
30867.515213	1181.379167	1543.073242	431.061584
30867.515213	1181.379167	1542.022461	563.902649
30867.515213	1181.379167	1540.970703	530.780457
30867.515213	1181.379167	1539.919922	700.023438
30867.515213	1181.379167	1538.868164	592.002563
30867.515213	1181.379167	1537.815430	645.390442
30867.515213	1181.379167	1536.763672	476.198700
30867.515213	1181.379167	1535.710938	588.748962
30867.515213	1181.379167	1534.659180	626.383606
30867.515213	1181.379167	1533.606445	693.567993
30867.515213	1181.379167	1532.552734	810.713928
30867.515213	1181.379167	1531.500000	671.437927
30867.515213	1181.379167	1530.446289	822.692993
30867.515213	1181.379167	1529.393555	985.294556
30867.515213	1181.379167	1528.338867	939.223938
30867.515213	1181.379167	1527.285156	890.967651
30867.515213	1181.379167	1526.231445	806.518127
30867.515213	1181.379167	1525.176758	733.492065
30867.515213	1181.379167	1524.122070	533.646851
30867.515213	1181.379167	1523.067383	587.710449
30867.515213	1181.379167	1522.012695	560.264343
30867.515213	1181.379167	1520.957031	426.437286
30867.515213	1181.379167	1519.901367	666.360352
30867.515213	1181.379167	1518.845703	577.973389
30867.515213	1181.379167	1517.790039	306.338409
30867.515213	1181.379167	1516.734375	249.870819
30867.515213	1181.379167	1515.677734	372.235718
30867.515213	1181.379167	1514.621094	261.612671
30867.515213	1181.379167	1513.564453	169.193542
30867.515213	1181.379167	1512.507813	196.726746
30867.515213	1181.379167	1511.450195	172.313126
30867.515213	1181.379167	1510.393555	80.168205
30867.515213	1181.379167	1509.335938	-68.374809
30867.515213	1181.379167	1508.278320	15.940425
30867.515213	1181.379167	1507.219727	55.105610
30867.515213	1181.379167	1506.162109	-142.826385
30867.515213	1181.379167	1505.103516	25.210571
30867.515213	1181.379167	1504.044922	-215.396622
30867.515213	1181.379167	1502.986328	-56.299973
30867.515213	1181.379167	1501.926758	-107.084625
30867.515213	1181.379167	1500.868164	29.506674
30867.515213	1181.379167	1499.808594	-75.273781
30867.515213	1181.379167	1498.749023	-184.450577
30867.515213	1181.379167	1497.688477	4.149195
30867.515213	1181.379167	1496.628906	80.021477
30867.515213	1181.379167	1495.568359	54.498192
30867.515213	1181.379167	1494.507813	15.534917
30867.515213	1181.379167	1493.447266	78.057693
30867.515213	1181.379167	1492.386719	-17.066021
30867.515213	1181.379167	1491.325195	86.127098
30867.515213	1181.379167	1490.263672	47.483921
30867.515213	1181.379167	1489.202148	274.602356
30867.515213	1181.379167	1488.140625	19.991400
30867.515213	1181.379167	1487.079102	123.395432
30867.515213	1181.379167	1486.016602	-31.930876
30867.515213	1181.379167	1484.954102	78.341377
30867.515213	1181.379167	1483.891602	166.153793
30867.515213	1181.379167	1482.829102	249.510483
30867.515213	1181.379167	1481.765625	224.992538
30867.515213	1181.379167	1480.702148	191.566238
30867.515213	1181.379167	1479.638672	266.108734
30867.515213	1181.379167	1478.575195	268.801819
30867.515213	1181.379167	1477.511719	289.548950
30867.515213	1181.379167	1476.447266	117.207947
30867.515213	1181.379167	1475.382813	248.148010
30867.515213	1181.379167	1474.318359	-29.473484
30867.515213	1181.379167	1473.253906	245.182449
30867.515213	1181.379167	1472.189453	194.576859
30867.515213	1181.379167	1471.124023	222.524902
30867.515213	1181.379167	1470.058594	293.212799
30867.515213	1181.379167	1468.993164	211.254868
30867.515213	1181.379167	1467.927734	105.003769
30867.515213	1181.379167	1466.861328	245.314957
30867.515213	1181.379167	1465.794922	226.776627
30867.515213	1181.379167	1464.728516	257.506042
30867.515213	1181.379167	1463.662109	283.743530
30867.515213	1181.379167	1462.594727	336.976624
30867.515213	1181.379167	1461.528320	177.652313
30867.515213	1181.379167	1460.460938	367.229126
30867.515213	1181.379167	1459.393555	248.418808
30867.515213	1181.379167	1458.326172	355.182343
30867.515213	1181.379167	1457.257813	321.728302
30867.515213	1181.379167	1456.189453	258.463531
30867.515213	1181.379167	1455.121094	247.756180
30867.515213	1181.379167	1454.052734	194.621872
30867.515213	1181.379167	1452.984375	232.908264
30867.515213	1181.379167	1451.915039	567.987366
30867.515213	1181.379167	1450.845703	421.098633
30867.515213	1181.379167	1449.776367	343.842560
30867.515213	1181.379167	1448.707031	333.156677
30867.515213	1181.379167	1447.636719	298.682739
30867.515213	1181.379167	1446.567383	313.648804
30867.515213	1181.379167	1445.497070	341.954834
30867.515213	1181.379167	1444.425781	73.530640
30867.515213	1181.379167	1443.355469	278.511963
30867.515213	1181.379167	1442.285156	119.690193
30867.515213	1181.379167	1441.213867	385.676300
30867.515213	1181.379167	1440.142578	277.274261
30867.515213	1181.379167	1439.070313	209.401917
30867.515213	1181.379167	1437.999023	262.865051
30867.515213	1181.379167	1436.926758	400.723022
30867.515213	1181.379167	1435.854492	429.638855
30867.515213	1181.379167	1434.782227	223.839020
30867.515213	1181.379167	1433.709961	141.370239
30867.515213	1181.379167	1432.636719	201.029602
30867.515213	1181.379167	1431.563477	202.625336
30867.515213	1181.379167	1430.490234	168.178802
30867.515213	1181.379167	1429.416992	283.003296
30867.515213	1181.379167	1428.343750	167.796875
30867.515213	1181.379167	1427.269531	133.363815
30867.515213	1181.379167	1426.195313	138.485580
30867.515213	1181.379167	1425.121094	99.969612
30867.515213	1181.379167	1424.046875	84.699486
30867.515213	1181.379167	1422.971680	325.240448
30867.515213	1181.379167	1421.896484	50.576828
30867.515213	1181.379167	1420.821289	151.582397
30867.515213	1181.379167	1419.746094	168.915131
30867.515213	1181.379167	1418.669922	240.375931
30867.515213	1181.379167	1417.594727	365.685669
30867.515213	1181.379167	1416.518555	334.092834
30867.515213	1181.379167	1415.442383	240.833206
30867.515213	1181.379167	1414.365234	339.087799
30867.515213	1181.379167	1413.289063	385.590576
30867.515213	1181.379167	1412.211914	426.441162
30867.515213	1181.379167	1411.134766	371.751984
30867.515213	1181.379167	1410.057617	245.611649
30867.515213	1181.379167	1408.979492	482.496338
30867.515213	1181.379167	1407.902344	399.543671
30867.515213	1181.379167	1406.824219	343.711304
30867.515213	1181.379167	1405.746094	391.866180
30867.515213	1181.379167	1404.666992	393.747467
30867.515213	1181.379167	1403.588867	436.011719
30867.515213	1181.379167	1402.509766	579.414978
30867.515213	1181.379167	1401.430664	515.783813
30867.515213	1181.379167	1400.351563	607.607178
30867.515213	1181.379167	1399.271484	323.323792
30867.515213	1181.379167	1398.192383	574.750610
30867.515213	1181.379167	1397.112305	513.941162
30867.515213	1181.379167	1396.031250	494.872894
30867.515213	1181.379167	1394.951172	508.044922
30867.515213	1181.379167	1393.871094	436.457581
30867.515213	1181.379167	1392.790039	357.889801
30867.515213	1181.379167	1391.708984	566.396057
30867.515213	1181.379167	1390.626953	391.007263
30867.515213	1181.379167	1389.545898	366.736603
30867.515213	1181.379167	1388.463867	364.942352
30867.515213	1181.379167	1387.381836	340.395508
30867.515213	1181.379167	1386.299805	389.974518
30867.515213	1181.379167	1385.217773	406.133118
30867.515213	1181.379167	1384.134766	378.737610
30867.515213	1181.379167	1383.051758	462.332092
30867.515213	1181.379167	1381.968750	368.783356
30867.515213	1181.379167	1380.885742	293.769653
30867.515213	1181.379167	1379.802734	272.918518
30867.515213	1181.379167	1378.718750	453.957855
30867.515213	1181.379167	1377.634766	372.638489
30867.515213	1181.379167	1376.550781	485.602509
30867.515213	1181.379167	1375.465820	421.566345
30867.515213	1181.379167	1374.381836	456.059784
30867.515213	1181.379167	1373.296875	413.409637
30867.515213	1181.379167	1372.211914	334.458191
30867.515213	1181.379167	1371.126953	368.306519
30867.515213	1181.379167	1370.041016	343.355835
30867.515213	1181.379167	1368.955078	387.943359
30867.515213	1181.379167	1367.869141	344.594025
30867.515213	1181.379167	1366.783203	447.027008
30867.515213	1181.379167	1365.697266	483.932312
30867.515213	1181.379167	1364.610352	427.139099
30867.515213	1181.379167	1363.523438	375.907166
30867.515213	1181.379167	1362.436523	394.600220
30867.515213	1181.379167	1361.349609	429.328125
30867.515213	1181.379167	1360.261719	215.353882
30867.515213	1181.379167	1359.174805	378.960571
30867.515213	1181.379167	1358.086914	291.473572
30867.515213	1181.379167	1356.998047	273.461823
30867.515213	1181.379167	1355.910156	344.851654
30867.515213	1181.379167	1354.821289	188.656219
30867.515213	1181.379167	1353.732422	366.946320
30867.515213	1181.379167	1352.643555	338.284882
30867.515213	1181.379167	1351.554688	419.030701
30867.515213	1181.379167	1350.464844	370.541016
30867.515213	1181.379167	1349.375000	478.233002
30867.515213	1181.379167	1348.285156	240.060226
30867.515213	1181.379167	1347.195313	486.626648
30867.515213	1181.379167	1346.105469	591.420959
30867.515213	1181.379167	1345.014648	648.819092
30867.515213	1181.379167	1343.923828	756.698975
30867.515213	1181.379167	1342.833008	938.995544
30867.515213	1181.379167	1341.741211	930.028320
30867.515213	1181.379167	1340.650391	1042.840332
30867.515213	1181.379167	1339.558594	1029.645264
30867.515213	1181.379167	1338.466797	742.613708
30867.515213	1181.379167	1337.374023	526.361206
30867.515213	1181.379167	1336.282227	579.274231
30867.515213	1181.379167	1335.189453	422.593170
30867.515213	1181.379167	1334.096680	356.653503
30867.515213	1181.379167	1333.003906	418.206573
30867.515213	1181.379167	1331.910156	367.846649
30867.515213	1181.379167	1330.817383	501.527069
30867.515213	1181.379167	1329.723633	390.640015
30867.515213	1181.379167	1328.629883	377.823547
30867.515213	1181.379167	1327.535156	487.880951
30867.515213	1181.379167	1326.441406	365.128601
30867.515213	1181.379167	1325.346680	407.633789
30867.515213	1181.379167	1324.251953	277.856598
30867.515213	1181.379167	1323.156250	295.959930
30867.515213	1181.379167	1322.061523	191.429703
30867.515213	1181.379167	1320.965820	217.752457
30867.515213	1181.379167	1319.870117	241.751434
30867.515213	1181.379167	1318.774414	334.635986
30867.515213	1181.379167	1317.678711	220.238464
30867.515213	1181.379167	1316.582031	332.571594
30867.515213	1181.379167	1315.485352	312.524811
30867.515213	1181.379167	1314.388672	358.106323
30867.515213	1181.379167	1313.291016	304.942169
30867.515213	1181.379167	1312.194336	371.005005
30867.515213	1181.379167	1311.096680	313.362000
30867.515213	1181.379167	1309.999023	285.634888
30867.515213	1181.379167	1308.901367	226.068192
30867.515213	1181.379167	1307.802734	468.951172
30867.515213	1181.379167	1306.705078	403.563782
30867.515213	1181.379167	1305.606445	348.728424
30867.515213	1181.379167	1304.506836	440.853699
30867.515213	1181.379167	1303.408203	447.470367
30867.515213	1181.379167	1302.308594	625.546509
30867.515213	1181.379167	1301.208984	447.362732
30867.515213	1181.379167	1300.109375	428.637238
30867.515213	1181.379167	1299.009766	422.813690
30867.515213	1181.379167	1297.909180	521.901367
30867.515213	1181.379167	1296.808594	595.856506
30867.515213	1181.379167	1295.708008	549.220642
30867.515213	1181.379167	1294.607422	424.123901
30867.515213	1181.379167	1293.506836	400.859589
30867.515213	1181.379167	1292.405273	240.676376
30867.515213	1181.379167	1291.303711	313.988464
30867.515213	1181.379167	1290.202148	268.036469
30867.515213	1181.379167	1289.099609	415.740906
30867.515213	1181.379167	1287.998047	245.196320
30867.515213	1181.379167	1286.895508	293.043304
30867.515213	1181.379167	1285.792969	270.018219
30867.515213	1181.379167	1284.689453	213.851318
30867.515213	1181.379167	1283.586914	-32.274166
30867.515213	1181.379167	1282.483398	101.457283
30867.515213	1181.379167	1281.379883	206.262466
30867.515213	1181.379167	1280.276367	160.584137
30867.515213	1181.379167	1279.171875	166.118378
30867.515213	1181.379167	1278.067383	136.198166
30867.515213	1181.379167	1276.962891	83.084579
30867.515213	1181.379167	1275.858398	140.861984
30867.515213	1181.379167	1274.753906	101.730919
30867.515213	1181.379167	1273.648438	64.727394
30867.515213	1181.379167	1272.542969	137.148193
30867.515213	1181.379167	1271.437500	94.803230
30867.515213	1181.379167	1270.331055	69.089882
30867.515213	1181.379167	1269.225586	30.444992
30867.515213	1181.379167	1268.119141	-17.929836
30867.515213	1181.379167	1267.012695	-85.843346
30867.515213	1181.379167	1265.906250	-71.621338
30867.515213	1181.379167	1264.798828	40.393372
30867.515213	1181.379167	1263.691406	-134.119705
30867.515213	1181.379167	1262.583984	-10.909206
30867.515213	1181.379167	1261.476563	45.611172
30867.515213	1181.379167	1260.368164	-51.238270
30867.515213	1181.379167	1259.260742	-52.917294
30867.515213	1181.379167	1258.152344	-49.293484
30867.515213	1181.379167	1257.043945	-68.765480
30867.515213	1181.379167	1255.934570	-172.981705
30867.515213	1181.379167	1254.825195	-138.691391
30867.515213	1181.379167	1253.716797	-80.324440
30867.515213	1181.379167	1252.606445	-64.307343
30867.515213	1181.379167	1251.497070	-69.169853
30867.515213	1181.379167	1250.387695	-7.889476
30867.515213	1181.379167	1249.277344	-58.093128
30867.515213	1181.379167	1248.166992	-28.300549
30867.515213	1181.379167	1247.055664	-22.440405
30867.515213	1181.379167	1245.945313	128.465973
30867.515213	1181.379167	1244.833984	-39.901062
30867.515213	1181.379167	1243.722656	-29.064173
30867.515213	1181.379167	1242.611328	82.028816
30867.515213	1181.379167	1241.499023	96.298843
30867.515213	1181.379167	1240.387695	57.262707
30867.515213	1181.379167	1239.275391	102.270660
30867.515213	1181.379167	1238.162109	72.738174
30867.515213	1181.379167	1237.049805	101.919357
30867.515213	1181.379167	1235.936523	44.116619
30867.515213	1181.379167	1234.823242	44.985065
30867.515213	1181.379167	1233.709961	-80.832283
30867.515213	1181.379167	1232.596680	-79.998062
30867.515213	1181.379167	1231.482422	37.334435
30867.515213	1181.379167	1230.369141	13.264144
30867.515213	1181.379167	1229.253906	-50.016411
30867.515213	1181.379167	1228.139648	61.584366
30867.515213	1181.379167	1227.025391	84.829201
30867.515213	1181.379167	1225.910156	-8.205739
30867.515213	1181.379167	1224.794922	-46.172855
30867.515213	1181.379167	1223.679688	-33.357815
30867.515213	1181.379167	1222.563477	47.383896
30867.515213	1181.379167	1221.447266	22.531744
30867.515213	1181.379167	1220.331055	94.061798
30867.515213	1181.379167	1219.214844	52.065369
30867.515213	1181.379167	1218.098633	56.621067
30867.515213	1181.379167	1216.981445	35.342110
30867.515213	1181.379167	1215.864258	53.484409
30867.515213	1181.379167	1214.747070	22.730112
30867.515213	1181.379167	1213.629883	4.296516
30867.515213	1181.379167	1212.511719	-58.282303
30867.515213	1181.379167	1211.393555	-201.457397
30867.515213	1181.379167	1210.275391	-57.916710
30867.515213	1181.379167	1209.157227	-85.641182
30867.515213	1181.379167	1208.038086	38.137592
30867.515213	1181.379167	1206.918945	-146.599716
30867.515213	1181.379167	1205.799805	-117.897980
30867.515213	1181.379167	1204.680664	56.350273
30867.515213	1181.379167	1203.560547	-69.244820
30867.515213	1181.379167	1202.441406	-16.464424
30867.515213	1181.379167	1201.321289	-40.031189
30867.515213	1181.379167	1200.200195	-48.964142
30867.515213	1181.379167	1199.080078	4.450292
30867.515213	1181.379167	1197.958984	-19.890514
30867.515213	1181.379167	1196.837891	58.592453
30867.515213	1181.379167	1195.716797	-0.827287
30867.515213	1181.379167	1194.594727	69.449554
30867.515213	1181.379167	1193.473633	55.153858
30867.515213	1181.379167	1192.351563	55.999722
30867.515213	1181.379167	1191.229492	29.681509
30867.515213	1181.379167	1190.106445	-50.077053
30867.515213	1181.379167	1188.984375	0.107951
30867.515213	1181.379167	1187.861328	67.052986
30867.515213	1181.379167	1186.738281	-24.947855
30867.515213	1181.379167	1185.614258	158.032684
30867.515213	1181.379167	1184.491211	34.372379
30867.515213	1181.379167	1183.367188	85.124352
30867.515213	1181.379167	1182.243164	41.047630
30867.515213	1181.379167	1181.119141	-71.178429
30867.515213	1181.379167	1179.994141	31.242970
30867.515213	1181.379167	1178.869141	-10.272797
30867.515213	1181.379167	1177.744141	13.130879
30867.515213	1181.379167	1176.619141	-82.005798
30867.515213	1181.379167	1175.493164	-197.424683
30867.515213	1181.379167	1174.368164	-67.454552
30867.515213	1181.379167	1173.242188	-16.890833
30867.515213	1181.379167	1172.115234	-93.790550
30867.515213	1181.379167	1170.989258	-35.792362
30867.515213	1181.379167	1169.862305	-139.276794
30867.515213	1181.379167	1168.735352	-52.505463
30867.515213	1181.379167	1167.608398	-119.854118
30867.515213	1181.379167	1166.481445	-12.646276
30867.515213	1181.379167	1165.353516	-44.160137
30867.515213	1181.379167	1164.225586	-21.868584
30867.515213	1181.379167	1163.097656	-182.424713
30867.515213	1181.379167	1161.968750	-146.976898
30867.515213	1181.379167	1160.840820	-82.027992
30867.515213	1181.379167	1159.711914	-76.592789
30867.515213	1181.379167	1158.583008	5.336463
30867.515213	1181.379167	1157.453125	83.129356
30867.515213	1181.379167	1156.324219	-175.396881
30867.515213	1181.379167	1155.194336	-28.697695
30867.515213	1181.379167	1154.064453	-123.720261
30867.515213	1181.379167	1152.933594	-155.675171
30867.515213	1181.379167	1151.803711	-62.766422
30867.515213	1181.379167	1150.672852	-14.444295
30867.515213	1181.379167	1149.541992	-117.555740
30867.515213	1181.379167	1148.411133	52.162720
30867.515213	1181.379167	1147.279297	28.687380
30867.515213	1181.379167	1146.147461	15.284682
30867.515213	1181.379167	1145.015625	152.264999
30867.515213	1181.379167	1143.883789	230.476791
30867.515213	1181.379167	1142.750977	395.920654
30867.515213	1181.379167	1141.619141	265.889313
30867.515213	1181.379167	1140.486328	155.882172
30867.515213	1181.379167	1139.352539	198.568375
30867.515213	1181.379167	1138.219727	8.273580
30867.515213	1181.379167	1137.085938	79.898857
30867.515213	1181.379167	1135.952148	10.915088
30867.515213	1181.379167	1134.818359	71.233757
30867.515213	1181.379167	1133.683594	52.461208
30867.515213	1181.379167	1132.549805	218.274017
30867.515213	1181.379167	1131.415039	200.860550
30867.515213	1181.379167	1130.279297	356.500854
30867.515213	1181.379167	1129.144531	268.661804
30867.515213	1181.379167	1128.008789	325.970490
30867.515213	1181.379167	1126.873047	363.193542
30867.515213	1181.379167	1125.737305	188.962692
30867.515213	1181.379167	1124.601563	318.535217
30867.515213	1181.379167	1123.464844	222.131882
30867.515213	1181.379167	1122.328125	204.580536
30867.515213	1181.379167	1121.191406	351.416229
30867.515213	1181.379167	1120.054688	298.099396
30867.515213	1181.379167	1118.916992	400.581665
30867.515213	1181.379167	1117.779297	297.027405
30867.515213	1181.379167	1116.641602	242.229080
30867.515213	1181.379167	1115.503906	229.510361
30867.515213	1181.379167	1114.365234	291.267151
30867.515213	1181.379167	1113.226563	35.201057
30867.515213	1181.379167	1112.087891	62.275955
30867.515213	1181.379167	1110.949219	112.875603
30867.515213	1181.379167	1109.809570	192.170670
30867.515213	1181.379167	1108.669922	182.751633
30867.515213	1181.379167	1107.530273	152.743973
30867.515213	1181.379167	1106.390625	349.635468
30867.515213	1181.379167	1105.250000	219.959976
30867.515213	1181.379167	1104.109375	278.357910
30867.515213	1181.379167	1102.968750	176.957703
30867.515213	1181.379167	1101.828125	199.260864
30867.515213	1181.379167	1100.686523	162.220993
30867.515213	1181.379167	1099.544922	297.949432
30867.515213	1181.379167	1098.403320	250.393906
30867.515213	1181.379167	1097.261719	190.441223
30867.515213	1181.379167	1096.120117	281.815033
30867.515213	1181.379167	1094.977539	224.108994
30867.515213	1181.379167	1093.834961	197.522446
30867.515213	1181.379167	1092.691406	185.169495
30867.515213	1181.379167	1091.548828	145.396332
30867.515213	1181.379167	1090.405273	102.483276
30867.515213	1181.379167	1089.261719	187.307602
30867.515213	1181.379167	1088.118164	128.841064
30867.515213	1181.379167	1086.973633	122.435371
30867.515213	1181.379167	1085.829102	168.823395
30867.515213	1181.379167	1084.684570	18.650221
30867.515213	1181.379167	1083.540039	232.810013
30867.515213	1181.379167	1082.395508	260.887817
30867.515213	1181.379167	1081.250000	37.541832
30867.515213	1181.379167	1080.104492	129.919189
30867.515213	1181.379167	1078.958984	46.348114
30867.515213	1181.379167	1077.812500	-0.720783
30867.515213	1181.379167	1076.666016	154.860199
30867.515213	1181.379167	1075.519531	155.147354
30867.515213	1181.379167	1074.373047	130.492828
30867.515213	1181.379167	1073.226563	160.554993
30867.515213	1181.379167	1072.079102	279.693481
30867.515213	1181.379167	1070.931641	246.214355
30867.515213	1181.379167	1069.784180	81.186165
30867.515213	1181.379167	1068.635742	171.000183
30867.515213	1181.379167	1067.487305	171.148651
30867.515213	1181.379167	1066.338867	135.500381
30867.515213	1181.379167	1065.190430	176.678101
30867.515213	1181.379167	1064.041992	165.869461
30867.515213	1181.379167	1062.892578	294.445099
30867.515213	1181.379167	1061.743164	141.718262
30867.515213	1181.379167	1060.593750	286.784790
30867.515213	1181.379167	1059.443359	81.671059
30867.515213	1181.379167	1058.292969	140.395432
30867.515213	1181.379167	1057.142578	101.937607
30867.515213	1181.379167	1055.992188	190.554596
30867.515213	1181.379167	1054.841797	234.284195
30867.515213	1181.379167	1053.690430	200.533936
30867.515213	1181.379167	1052.539063	224.400528
30867.515213	1181.379167	1051.387695	91.401741
30867.515213	1181.379167	1050.235352	0.628133
30867.515213	1181.379167	1049.083984	65.510025
30867.515213	1181.379167	1047.931641	32.169216
30867.515213	1181.379167	1046.778320	73.932976
30867.515213	1181.379167	1045.625977	128.497437
30867.515213	1181.379167	1044.472656	122.412445
30867.515213	1181.379167	1043.319336	170.486404
30867.515213	1181.379167	1042.166016	-16.245790
30867.515213	1181.379167	1041.012695	80.446556
30867.515213	1181.379167	1039.858398	120.339302
30867.515213	1181.379167	1038.704102	49.786396
30867.515213	1181.379167	1037.549805	151.990204
30867.515213	1181.379167	1036.394531	80.834450
30867.515213	1181.379167	1035.239258	221.818649
30867.515213	1181.379167	1034.083984	121.965996
30867.515213	1181.379167	1032.928711	120.876350
30867.515213	1181.379167	1031.773438	128.389801
30867.515213	1181.379167	1030.617188	190.920685
30867.515213	1181.379167	1029.460938	122.225044
30867.515213	1181.379167	1028.304688	22.099020
30867.515213	1181.379167	1027.147461	153.036957
30867.515213	1181.379167	1025.991211	208.723770
30867.515213	1181.379167	1024.833984	49.645897
30867.515213	1181.379167	1023.675781	106.673660
30867.515213	1181.379167	1022.518555	77.797295
30867.515213	1181.379167	1021.360352	-12.907533
30867.515213	1181.379167	1020.202148	76.398926
30867.515213	1181.379167	1019.043945	169.109039
30867.515213	1181.379167	1017.884766	122.777496
30867.515213	1181.379167	1016.726563	-51.485065
30867.515213	1181.379167	1015.567383	-108.632538
30867.515213	1181.379167	1014.407227	184.400726
30867.515213	1181.379167	1013.248047	78.474510
30867.515213	1181.379167	1012.087891	89.074738
30867.515213	1181.379167	1010.927734	78.917358
30867.515213	1181.379167	1009.767578	87.382538
30867.515213	1181.379167	1008.606445	105.637085
30867.515213	1181.379167	1007.446289	49.565960
30867.515213	1181.379167	1006.285156	124.447327
30867.515213	1181.379167	1005.123047	152.229645
30867.515213	1181.379167	1003.961914	181.939606
30867.515213	1181.379167	1002.799805	108.406502
30867.515213	1181.379167	1001.637695	167.202438
30867.515213	1181.379167	1000.475586	14.809644
30867.515213	1181.379167	999.312500	115.343002
30867.515213	1181.379167	998.149414	131.762863
30867.515213	1181.379167	996.986328	-33.326008
30867.515213	1181.379167	995.823242	51.562531
30867.515213	1181.379167	994.659180	17.033049
30867.515213	1181.379167	993.496094	108.399712
30867.515213	1181.379167	992.332031	-51.974358
30867.515213	1181.379167	991.166992	-23.890680
30867.515213	1181.379167	990.002930	-64.283997
30867.515213	1181.379167	988.837891	-123.012474
30867.515213	1181.379167	987.672852	100.804314
30867.515213	1181.379167	986.506836	-98.216011
30867.515213	1181.379167	985.341797	51.236603
30867.515213	1181.379167	984.175781	-34.108772
30867.515213	1181.379167	983.009766	-66.359421
30867.515213	1181.379167	981.843750	45.174404
30867.515213	1181.379167	980.676758	35.343632
30867.515213	1181.379167	979.509766	86.940453
30867.515213	1181.379167	978.342773	77.046204
30867.515213	1181.379167	977.175781	19.368689
30867.515213	1181.379167	976.007813	56.252918
30867.515213	1181.379167	974.839844	-70.268143
30867.515213	1181.379167	973.671875	96.835587
30867.515213	1181.379167	972.503906	53.749931
30867.515213	1181.379167	971.334961	-29.192867
30867.515213	1181.379167	970.166016	12.089540
30867.515213	1181.379167	968.997070	-162.740936
30867.515213	1181.379167	967.828125	-129.968704
30867.515213	1181.379167	966.658203	10.160305
30867.515213	1181.379167	965.488281	74.971176
30867.515213	1181.379167	964.318359	-31.205750
30867.515213	1181.379167	963.148438	-106.576729
30867.515213	1181.379167	961.977539	87.047768
30867.515213	1181.379167	960.806641	54.474323
30867.515213	1181.379167	959.635742	-152.097565
30867.515213	1181.379167	958.463867	-96.212303
30867.515213	1181.379167	957.292969	-80.605026
30867.515213	1181.379167	956.121094	86.505814
30867.515213	1181.379167	954.948242	120.790359
30867.515213	1181.379167	953.776367	-42.445934
30867.515213	1181.379167	952.603516	10.633574
30867.515213	1181.379167	951.430664	29.653419
30867.515213	1181.379167	950.257813	51.631439
30867.515213	1181.379167	949.084961	7.773446
30867.515213	1181.379167	947.911133	23.496357
30867.515213	1181.379167	946.737305	62.707947
30867.515213	1181.379167	945.563477	54.266376
30867.515213	1181.379167	944.388672	14.455218
30867.515213	1181.379167	943.213867	-77.556984
30867.515213	1181.379167	942.039063	36.051300
30867.515213	1181.379167	940.864258	72.911652
30867.515213	1181.379167	939.688477	-9.652369
30867.515213	1181.379167	938.513672	-92.356544
30867.515213	1181.379167	937.337891	222.107147
30867.515213	1181.379167	936.161133	-64.059914
30867.515213	1181.379167	934.985352	-94.210693
30867.515213	1181.379167	933.808594	141.288940
30867.515213	1181.379167	932.631836	309.689636
30867.515213	1181.379167	931.454102	234.179138
30867.515213	1181.379167	930.277344	70.110107
30867.515213	1181.379167	929.099609	228.936432
30867.515213	1181.379167	927.921875	198.773026
30867.515213	1181.379167	926.743164	266.627411
30867.515213	1181.379167	925.565430	241.260529
30867.515213	1181.379167	924.386719	139.415222
30867.515213	1181.379167	923.208008	238.282120
30867.515213	1181.379167	922.028320	203.355042
30867.515213	1181.379167	920.849609	158.878830
30867.515213	1181.379167	919.669922	161.193939
30867.515213	1181.379167	919.474609	152.997467
30867.515213	1181.379167	918.309570	65.541039
30867.515213	1181.379167	917.143555	-69.615715
30867.515213	1181.379167	915.977539	-154.617615
30867.515213	1181.379167	914.810547	68.147255
30867.515213	1181.379167	913.644531	-45.481964
30867.515213	1181.379167	912.477539	-49.378307
30867.515213	1181.379167	911.310547	-77.120659
30867.515213	1181.379167	910.143555	-128.693741
30867.515213	1181.379167	908.975586	103.342445
30867.515213	1181.379167	907.807617	104.161446
30867.515213	1181.379167	906.639648	-30.808872
30867.515213	1181.379167	905.471680	-122.859390
30867.515213	1181.379167	904.303711	-14.857661
30867.515213	1181.379167	903.134766	9.771514
30867.515213	1181.379167	901.965820	-60.823204
30867.515213	1181.379167	900.796875	-0.509376
30867.515213	1181.379167	899.626953	-123.425209
30867.515213	1181.379167	898.457031	-10.798018
30867.515213	1181.379167	897.287109	30.429920
30867.515213	1181.379167	896.117188	-125.720795
30867.515213	1181.379167	894.947266	-20.308657
30867.515213	1181.379167	893.776367	-40.913818
30867.515213	1181.379167	892.605469	-85.278229
30867.515213	1181.379167	891.434570	-120.125938
30867.515213	1181.379167	890.262695	-40.943848
30867.515213	1181.379167	889.091797	-80.544548
30867.515213	1181.379167	887.919922	133.929596
30867.515213	1181.379167	886.748047	15.963205
30867.515213	1181.379167	885.575195	-59.235359
30867.515213	1181.379167	884.403320	12.713705
30867.515213	1181.379167	883.230469	39.554230
30867.515213	1181.379167	882.057617	21.312319
30867.515213	1181.379167	880.883789	-68.068825
30867.515213	1181.379167	879.710938	-34.127350
30867.515213	1181.379167	878.537109	-0.201022
30867.515213	1181.379167	877.362305	-77.683380
30867.515213	1181.379167	876.188477	43.903545
30867.515213	1181.379167	875.013672	32.770782
30867.515213	1181.379167	873.839844	16.899725
30867.515213	1181.379167	872.664063	-110.265930
30867.515213	1181.379167	871.489258	1.743708
30867.515213	1181.379167	870.313477	9.552219
30867.515213	1181.379167	869.138672	-3.947864
30867.515213	1181.379167	867.962891	-78.965012
30867.515213	1181.379167	866.786133	32.935322
30867.515213	1181.379167	865.610352	-98.830887
30867.515213	1181.379167	864.433594	-31.909647
30867.515213	1181.379167	863.256836	-128.151337
30867.515213	1181.379167	862.079102	-94.350174
30867.515213	1181.379167	860.902344	97.769684
30867.515213	1181.379167	859.724609	-14.989092
30867.515213	1181.379167	858.546875	-130.068192
30867.515213	1181.379167	857.368164	-6.560197
30867.515213	1181.379167	856.190430	-55.485168
30867.515213	1181.379167	855.011719	-76.062439
30867.515213	1181.379167	853.833008	-143.842606
30867.515213	1181.379167	852.654297	-91.246605
30867.515213	1181.379167	851.474609	-8.002855
30867.515213	1181.379167	850.294922	-45.101376
30867.515213	1181.379167	849.115234	64.031960
30867.515213	1181.379167	847.935547	142.462982
30867.515213	1181.379167	846.754883	197.283600
30867.515213	1181.379167	845.575195	98.873184
30867.515213	1181.379167	844.393555	-60.766319
30867.515213	1181.379167	843.212891	137.762360
30867.515213	1181.379167	842.032227	22.922689
30867.515213	1181.379167	840.850586	47.072132
30867.515213	1181.379167	839.668945	-27.684141
30867.515213	1181.379167	838.486328	-114.183983
30867.515213	1181.379167	837.304688	-45.319935
30867.515213	1181.379167	836.122070	37.629368
30867.515213	1181.379167	834.939453	57.019104
30867.515213	1181.379167	833.756836	-45.916008
30867.515213	1181.379167	832.573242	-42.989952
30867.515213	1181.379167	831.389648	-21.262100
30867.515213	1181.379167	830.206055	-4.251654
30867.515213	1181.379167	829.022461	62.098846
30867.515213	1181.379167	827.838867	36.776543
30867.515213	1181.379167	826.654297	-131.842178
30867.515213	1181.379167	825.469727	-4.459733
30867.515213	1181.379167	824.284180	-67.342827
30867.515213	1181.379167	823.099609	111.608765
30867.515213	1181.379167	821.914063	15.850110
30867.515213	1181.379167	820.728516	-56.409603
30867.515213	1181.379167	819.542969	-65.297516
30867.515213	1181.379167	818.356445	-36.655575
30867.515213	1181.379167	817.169922	-47.905430
30867.515213	1181.379167	815.983398	-47.434986
30867.515213	1181.379167	814.796875	-117.305000
30867.515213	1181.379167	813.609375	-62.928261
30867.515213	1181.379167	812.422852	12.505516
30867.515213	1181.379167	811.235352	78.528366
30867.515213	1181.379167	810.046875	8.654197
30867.515213	1181.379167	808.859375	23.106907
30867.515213	1181.379167	807.670898	-53.771961
30867.515213	1181.379167	806.482422	-34.650112
30867.515213	1181.379167	805.293945	-48.313927
30867.515213	1181.379167	804.104492	-94.742203
30867.515213	1181.379167	802.915039	-52.261333
30867.515213	1181.379167	801.725586	-194.593246
30867.515213	1181.379167	800.536133	-154.471603
30867.515213	1181.379167	799.345703	-93.334221
30867.515213	1181.379167	798.155273	-90.674965
30867.515213	1181.379167	796.964844	42.848186
30867.515213	1181.379167	795.774414	-73.715210
30867.515213	1181.379167	794.583008	-1.015476
30867.515213	1181.379167	793.392578	59.960567
30867.515213	1181.379167	792.200195	-75.254097
30867.515213	1181.379167	791.008789	-51.669567
30867.515213	1181.379167	789.816406	-2.431956
30867.515213	1181.379167	788.625000	88.776192
30867.515213	1181.379167	787.432617	-60.390518
30867.515213	1181.379167	786.239258	194.055878
30867.515213	1181.379167	785.046875	51.894810
30867.515213	1181.379167	783.853516	47.352585
30867.515213	1181.379167	782.660156	91.753349
30867.515213	1181.379167	781.465820	152.435883
30867.515213	1181.379167	780.272461	87.237350
30867.515213	1181.379167	779.078125	47.677872
30867.515213	1181.379167	777.883789	-31.481840
30867.515213	1181.379167	776.688477	87.328873
30867.515213	1181.379167	775.494141	68.695801
30867.515213	1181.379167	774.298828	52.380661
30867.515213	1181.379167	773.103516	89.584633
30867.515213	1181.379167	771.907227	29.022842
30867.515213	1181.379167	770.711914	-126.919487
30867.515213	1181.379167	769.515625	38.169605
30867.515213	1181.379167	768.318359	47.362522
30867.515213	1181.379167	767.122070	51.880024
30867.515213	1181.379167	765.924805	195.847839
30867.515213	1181.379167	764.727539	158.458481
30867.515213	1181.379167	763.530273	39.738491
30867.515213	1181.379167	762.333008	18.615276
30867.515213	1181.379167	761.134766	-0.197678
30867.515213	1181.379167	759.936523	13.483905
30867.515213	1181.379167	758.738281	103.750519
30867.515213	1181.379167	757.540039	57.009075
30867.515213	1181.379167	756.340820	40.432941
30867.515213	1181.379167	755.141602	-20.244223
30867.515213	1181.379167	753.942383	58.261929
30867.515213	1181.379167	752.742188	27.708200
30867.515213	1181.379167	751.541992	-2.857721
30867.515213	1181.379167	750.341797	133.477417
30867.515213	1181.379167	749.141602	232.645905
30867.515213	1181.379167	747.941406	371.141083
30867.515213	1181.379167	746.740234	217.636124
30867.515213	1181.379167	745.539063	54.903473
30867.515213	1181.379167	744.337891	1.055092
30867.515213	1181.379167	743.135742	-78.265656
30867.515213	1181.379167	741.933594	11.403627
30867.515213	1181.379167	740.731445	1.488901
30867.515213	1181.379167	739.529297	-26.960836
30867.515213	1181.379167	738.326172	108.825127
30867.515213	1181.379167	737.124023	-19.149208
30867.515213	1181.379167	735.919922	19.397602
30867.515213	1181.379167	734.716797	57.898335
30867.515213	1181.379167	733.513672	66.303368
30867.515213	1181.379167	732.309570	90.852058
30867.515213	1181.379167	731.105469	89.944046
30867.515213	1181.379167	729.900391	12.774684
30867.515213	1181.379167	728.696289	143.465027
30867.515213	1181.379167	727.491211	24.690243
30867.515213	1181.379167	726.286133	-34.043465
30867.515213	1181.379167	725.080078	1.847353
30867.515213	1181.379167	723.874023	153.071091
30867.515213	1181.379167	722.668945	186.534485
30867.515213	1181.379167	721.461914	12.352603
30867.515213	1181.379167	720.255859	29.621729
30867.515213	1181.379167	719.048828	118.325790
30867.515213	1181.379167	717.841797	22.542461
30867.515213	1181.379167	716.634766	136.494629
30867.515213	1181.379167	715.427734	77.546272
30867.515213	1181.379167	714.219727	182.153671
30867.515213	1181.379167	713.011719	88.600708
30867.515213	1181.379167	711.803711	75.649323
30867.515213	1181.379167	710.594727	-34.029930
30867.515213	1181.379167	709.385742	-42.419193
30867.515213	1181.379167	708.176758	22.801600
30867.515213	1181.379167	706.967773	0.525278
30867.515213	1181.379167	705.758789	47.233051
30867.515213	1181.379167	704.548828	-0.411961
30867.515213	1181.379167	703.338867	64.596046
30867.515213	1181.379167	702.127930	14.592985
30867.515213	1181.379167	700.917969	-40.024319
30867.515213	1181.379167	699.707031	171.906891
30867.515213	1181.379167	698.496094	-2.266135
30867.515213	1181.379167	697.285156	7.354846
30867.515213	1181.379167	696.073242	69.752594
30867.515213	1181.379167	694.861328	178.004944
30867.515213	1181.379167	693.649414	203.533112
30867.515213	1181.379167	692.436523	217.535095
30867.515213	1181.379167	691.224609	-16.323662
30867.515213	1181.379167	690.011719	181.166992
30867.515213	1181.379167	688.798828	142.291122
30867.515213	1181.379167	687.584961	247.858475
30867.515213	1181.379167	686.372070	220.367752
30867.515213	1181.379167	685.158203	286.825775
30867.515213	1181.379167	683.943359	383.006714
30867.515213	1181.379167	682.729492	385.167297
30867.515213	1181.379167	681.514648	499.530029
30867.515213	1181.379167	680.299805	364.166809
30867.515213	1181.379167	679.084961	462.374878
30867.515213	1181.379167	677.869141	324.703583
30867.515213	1181.379167	676.653320	253.423157
30867.515213	1181.379167	675.437500	296.546753
30867.515213	1181.379167	674.221680	273.263245
30867.515213	1181.379167	673.004883	270.532440
30867.515213	1181.379167	671.789063	315.786072
30867.515213	1181.379167	670.571289	331.253265
30867.515213	1181.379167	669.354492	230.091522
30867.515213	1181.379167	668.136719	275.196014
30867.515213	1181.379167	666.919922	178.573914
30867.515213	1181.379167	665.701172	-34.560162
30867.515213	1181.379167	664.483398	42.420479
30867.515213	1181.379167	663.264648	62.236942
30867.515213	1181.379167	662.045898	173.323105
30867.515213	1181.379167	660.827148	154.215622
30867.515213	1181.379167	659.608398	281.124969
30867.515213	1181.379167	658.388672	1.817291
30867.515213	1181.379167	657.168945	144.586044
30867.515213	1181.379167	655.949219	77.436668
30867.515213	1181.379167	654.728516	115.157204
30867.515213	1181.379167	653.507813	166.497284
30867.515213	1181.379167	652.287109	128.885696
30867.515213	1181.379167	651.066406	129.985611
30867.515213	1181.379167	649.844727	140.153885
30867.515213	1181.379167	648.623047	198.108047
30867.515213	1181.379167	647.401367	142.133408
30867.515213	1181.379167	646.179688	17.837976
30867.515213	1181.379167	644.957031	23.299219
30867.515213	1181.379167	643.734375	106.092766
30867.515213	1181.379167	642.511719	27.263208
30867.515213	1181.379167	641.289063	64.442078
30867.515213	1181.379167	640.065430	181.163757
30867.515213	1181.379167	638.841797	11.287754
30867.515213	1181.379167	637.618164	-8.513866
30867.515213	1181.379167	636.393555	-53.351307
30867.515213	1181.379167	635.168945	199.476364
30867.515213	1181.379167	633.944336	-43.126324
30867.515213	1181.379167	632.719727	-17.634211
30867.515213	1181.379167	631.494141	141.793091
30867.515213	1181.379167	630.269531	62.712883
30867.515213	1181.379167	629.042969	101.663307
30867.515213	1181.379167	627.817383	65.665382
30867.515213	1181.379167	626.590820	31.911245
30867.515213	1181.379167	625.365234	102.488731
30867.515213	1181.379167	624.137695	34.640278
30867.515213	1181.379167	622.911133	89.235931
30867.515213	1181.379167	621.683594	55.349957
30867.515213	1181.379167	620.456055	-1.225404
30867.515213	1181.379167	619.228516	-119.000038
30867.515213	1181.379167	618.000977	-7.927172
30867.515213	1181.379167	616.772461	-39.648083
30867.515213	1181.379167	615.543945	-5.714606
30867.515213	1181.379167	614.314453	-32.968243
30867.515213	1181.379167	613.085938	95.956863
30867.515213	1181.379167	611.856445	21.094591
30867.515213	1181.379167	610.626953	-76.398262
30867.515213	1181.379167	609.397461	18.413338
30867.515213	1181.379167	608.166992	6.842598
30867.515213	1181.379167	606.936523	94.743217
30867.515213	1181.379167	605.706055	-70.644585
30867.515213	1181.379167	604.474609	84.979691
30867.515213	1181.379167	603.244141	39.376404
30867.515213	1181.379167	602.012695	50.244659
30867.515213	1181.379167	600.780273	115.289505
30867.515213	1181.379167	599.548828	-59.119141
30867.515213	1181.379167	598.316406	32.957947
30867.515213	1181.379167	597.083984	45.953342
30867.515213	1181.379167	595.851563	70.200134
30867.515213	1181.379167	594.618164	24.452322
30867.515213	1181.379167	593.384766	-12.278816
30867.515213	1181.379167	592.151367	-35.487801
30867.515213	1181.379167	590.917969	63.062794
30867.515213	1181.379167	589.683594	62.339321
30867.515213	1181.379167	588.449219	-51.117031
30867.515213	1181.379167	587.214844	-18.060022
30867.515213	1181.379167	585.979492	51.006462
30867.515213	1181.379167	584.745117	74.969543
30867.515213	1181.379167	583.509766	62.860844
30867.515213	1181.379167	582.273438	-14.568516
30867.515213	1181.379167	581.038086	81.365570
30867.515213	1181.379167	579.801758	-7.330727
30867.515213	1181.379167	578.565430	-62.254192
30867.515213	1181.379167	577.329102	22.316565
30867.515213	1181.379167	576.091797	100.081223
30867.515213	1181.379167	574.854492	256.505554
30867.515213	1181.379167	573.617188	41.860786
30867.515213	1181.379167	572.378906	229.664444
30867.515213	1181.379167	571.141602	104.982254
30867.515213	1181.379167	569.903320	142.115662
30867.515213	1181.379167	568.664063	-9.487858
30867.515213	1181.379167	567.425781	88.268265
30867.515213	1181.379167	566.186523	31.026247
30867.515213	1181.379167	564.947266	-32.938927
30867.515213	1181.379167	563.708008	123.079071
30867.515213	1181.379167	562.467773	103.978111
30867.515213	1181.379167	561.227539	123.016617
30867.515213	1181.379167	559.987305	130.822800
30867.515213	1181.379167	558.747070	-141.712921
30867.515213	1181.379167	557.505859	-115.935829
30867.515213	1181.379167	556.264648	86.916908
30867.515213	1181.379167	555.023438	83.485725
30867.515213	1181.379167	553.781250	32.992706
30867.515213	1181.379167	552.539063	54.204624
30867.515213	1181.379167	551.296875	-11.946589
30867.515213	1181.379167	550.054688	45.087700
30867.515213	1181.379167	548.811523	-5.370328
30867.515213	1181.379167	547.569336	-82.664368
30867.515213	1181.379167	546.325195	-242.733215
30867.515213	1181.379167	545.082031	-78.311340
30867.515213	1181.379167	543.837891	5.510007
30867.515213	1181.379167	542.593750	-73.960907
30867.515213	1181.379167	541.349609	-104.204773
30867.515213	1181.379167	540.105469	-24.894646
30867.515213	1181.379167	538.860352	-88.656586
30867.515213	1181.379167	537.615234	-103.227280
30867.515213	1181.379167	536.369141	-263.000366
30867.515213	1181.379167	535.124023	-206.042267
30867.515213	1181.379167	533.877930	-178.134689
30867.515213	1181.379167	532.631836	-255.162292
30867.515213	1181.379167	531.384766	-62.067051
30867.515213	1181.379167	530.138672	-141.300293
30867.515213	1181.379167	528.891602	-155.789627
30867.515213	1181.379167	527.643555	-163.573425
30867.515213	1181.379167	526.396484	-166.878937
30867.515213	1181.379167	525.148438	-83.215347
30867.515213	1181.379167	523.900391	-151.162766
30867.515213	1181.379167	522.652344	-163.348969
30867.515213	1181.379167	521.403320	-249.051865
30867.515213	1181.379167	520.154297	-136.429794
30867.515213	1181.379167	518.905273	-117.387909
30867.515213	1181.379167	517.656250	-154.009628
30867.515213	1181.379167	516.406250	-83.736458
30867.515213	1181.379167	515.156250	-37.961681
30867.515213	1181.379167	513.906250	-45.598858
30867.515213	1181.379167	512.655273	0.180537
30867.515213	1181.379167	511.404297	41.509937
30867.515213	1181.379167	510.153320	-41.701992
30867.515213	1181.379167	508.902344	10.774676
30867.515213	1181.379167	507.650391	27.677132
30867.515213	1181.379167	506.398438	111.268532
30867.515213	1181.379167	505.146484	68.187920
30867.515213	1181.379167	503.893555	45.137783
30867.515213	1181.379167	502.641602	-44.511456
30867.515213	1181.379167	501.388672	-5.306839
30867.515213	1181.379167	500.134766	-77.107925
30867.515213	1181.379167	498.881836	28.720642
30867.515213	1181.379167	497.627930	-114.025879
30867.515213	1181.379167	496.374023	-25.942614
30867.515213	1181.379167	495.119141	-135.300293
30867.515213	1181.379167	493.865234	-5.067389
30867.515213	1181.379167	492.610352	-12.341671
30867.515213	1181.379167	491.355469	-94.961662
30867.515213	1181.379167	490.099609	46.322819
30867.515213	1181.379167	488.843750	-42.878616
30867.515213	1181.379167	487.587891	-43.403976
30867.515213	1181.379167	486.332031	-26.187994
30867.515213	1181.379167	485.075195	-95.321396
30867.515213	1181.379167	483.818359	41.493153
30867.515213	1181.379167	482.561523	87.519028
30867.515213	1181.379167	481.304688	84.860374
30867.515213	1181.379167	480.046875	148.597229
30867.515213	1181.379167	478.789063	263.203430
30867.515213	1181.379167	477.531250	103.548088
30867.515213	1181.379167	476.272461	255.740448
30867.515213	1181.379167	475.013672	102.823433
30867.515213	1181.379167	473.754883	53.866695
30867.515213	1181.379167	472.496094	117.640480
30867.515213	1181.379167	471.236328	157.100540
30867.515213	1181.379167	469.976563	112.629333
30867.515213	1181.379167	468.716797	85.858269
30867.515213	1181.379167	467.456055	-110.885994
30867.515213	1181.379167	466.196289	202.348572
30867.515213	1181.379167	464.935547	160.164902
30867.515213	1181.379167	463.673828	-25.403015
30867.515213	1181.379167	462.413086	144.261093
30867.515213	1181.379167	461.151367	69.062737
30867.515213	1181.379167	459.889648	117.376892
30867.515213	1181.379167	458.626953	33.409164
30867.515213	1181.379167	457.364258	-2.032554
30867.515213	1181.379167	456.101563	90.343513
30867.515213	1181.379167	454.838867	149.634720
30867.515213	1181.379167	453.575195	21.684025
30867.515213	1181.379167	452.312500	276.940002
30867.515213	1181.379167	451.047852	52.137669
30867.515213	1181.379167	449.784180	-11.894786
30867.515213	1181.379167	448.519531	-42.903080
30867.515213	1181.379167	447.254883	11.894544
30867.515213	1181.379167	445.990234	130.443893
30867.515213	1181.379167	444.725586	-6.179905
30867.515213	1181.379167	443.459961	107.884781
30867.515213	1181.379167	442.194336	186.705948
30867.515213	1181.379167	440.927734	113.820282
30867.515213	1181.379167	439.662109	236.497269
30867.515213	1181.379167	438.395508	203.114655
30867.515213	1181.379167	437.127930	202.653519
30867.515213	1181.379167	435.861328	300.969574
30867.515213	1181.379167	434.593750	61.112854
30867.515213	1181.379167	433.326172	69.336731
30867.515213	1181.379167	432.058594	-82.684288
30867.515213	1181.379167	430.790039	94.395805
30867.515213	1181.379167	429.521484	-127.868187
30867.515213	1181.379167	428.252930	33.676346
30867.515213	1181.379167	426.984375	-78.979225
30867.515213	1181.379167	425.714844	213.868271
30867.515213	1181.379167	424.445313	103.266884
30867.515213	1181.379167	423.174805	64.936951
30867.515213	1181.379167	421.905273	225.888367
30867.515213	1181.379167	420.634766	163.283401
30867.515213	1181.379167	419.364258	218.852814
30867.515213	1181.379167	418.092773	145.132935
30867.515213	1181.379167	416.822266	104.173615
30867.515213	1181.379167	415.550781	249.118301
30867.515213	1181.379167	414.278320	81.028809
30867.515213	1181.379167	413.006836	26.631239
30867.515213	1181.379167	411.734375	90.213005
30867.515213	1181.379167	410.461914	81.481277
30867.515213	1181.379167	409.188477	116.324486
30867.515213	1181.379167	407.916016	249.350159
30867.515213	1181.379167	406.642578	119.967186
30867.515213	1181.379167	405.368164	88.772087
30867.515213	1181.379167	404.094727	166.622528
30867.515213	1181.379167	402.820313	132.897232
30867.515213	1181.379167	401.545898	136.111343
30867.515213	1181.379167	400.270508	-2.741087
30867.515213	1181.379167	398.996094	216.128998
30867.515213	1181.379167	397.720703	72.541695
30867.515213	1181.379167	396.444336	22.579241
30867.515213	1181.379167	395.168945	164.311768
30867.515213	1181.379167	393.892578	44.117237
30867.515213	1181.379167	392.616211	91.564034
30867.515213	1181.379167	391.339844	130.015686
30867.515213	1181.379167	390.062500	227.003479
30867.515213	1181.379167	388.785156	97.128807
30867.515213	1181.379167	387.507813	97.690964
30867.515213	1181.379167	386.229492	43.512802
30867.515213	1181.379167	384.951172	39.115955
30867.515213	1181.379167	383.672852	58.339966
30867.515213	1181.379167	382.394531	118.564644
30867.515213	1181.379167	381.115234	-15.204675
30867.515213	1181.379167	379.835938	-86.198456
30867.515213	1181.379167	378.556641	-5.316533
30867.515213	1181.379167	377.277344	-48.771534
30867.515213	1181.379167	375.997070	129.090469
30867.515213	1181.379167	374.716797	100.023788
30867.515213	1181.379167	373.435547	77.055122
30867.515213	1181.379167	372.155273	31.948862
30867.515213	1181.379167	370.874023	201.395294
30867.515213	1181.379167	369.591797	111.920113
30867.515213	1181.379167	368.310547	11.160872
30867.515213	1181.379167	367.028320	57.514725
30867.515213	1181.379167	365.746094	33.903980
30867.515213	1181.379167	364.463867	85.701721
30867.515213	1181.379167	363.180664	102.219574
30867.515213	1181.379167	361.897461	72.633362
30867.515213	1181.379167	360.614258	25.139320
30867.515213	1181.379167	359.330078	83.259575
30867.515213	1181.379167	358.045898	-15.278627
30867.515213	1181.379167	356.761719	-6.082418
30867.515213	1181.379167	355.477539	69.605461
30867.515213	1181.379167	354.192383	-54.652374
30867.515213	1181.379167	352.907227	-123.254356
30867.515213	1181.379167	351.622070	-140.585022
30867.515213	1181.379167	350.336914	-22.298386
30867.515213	1181.379167	349.050781	-19.503574
30867.515213	1181.379167	347.764648	1.987850
30867.515213	1181.379167	346.477539	61.585690
30867.515213	1181.379167	345.191406	-63.426140
30867.515213	1181.379167	343.904297	-295.166565
30867.515213	1181.379167	342.616211	-127.851151
30867.515213	1181.379167	341.329102	-71.673096
30867.515213	1181.379167	340.041016	-210.879089
30867.515213	1181.379167	338.752930	-163.048630
30867.515213	1181.379167	337.463867	-19.047821
30867.515213	1181.379167	336.175781	-240.925568
30867.515213	1181.379167	334.886719	-133.497650
30867.515213	1181.379167	333.596680	-89.759216
30867.515213	1181.379167	332.307617	110.422073
30867.515213	1181.379167	331.017578	0.943550
30867.515213	1181.379167	329.727539	-202.337616
30867.515213	1181.379167	328.436523	-167.379669
30867.515213	1181.379167	327.146484	-64.602882
30867.515213	1181.379167	325.855469	49.825073
30867.515213	1181.379167	324.563477	-22.368528
30867.515213	1181.379167	323.272461	-115.152443
30867.515213	1181.379167	321.980469	90.143654
30867.515213	1181.379167	320.688477	-132.328339
30867.515213	1181.379167	319.395508	-190.336594
30867.515213	1181.379167	318.103516	32.276783
30867.515213	1181.379167	316.810547	-30.719835
30867.515213	1181.379167	315.516602	87.674103
30867.515213	1181.379167	314.223633	-25.590879
30867.515213	1181.379167	312.929688	-110.277260
30867.515213	1181.379167	311.635742	50.749302
30867.515213	1181.379167	310.340820	154.164505
30867.515213	1181.379167	309.045898	118.347801
30867.515213	1181.379167	307.750977	254.894821
30867.515213	1181.379167	306.456055	168.402542
30867.515213	1181.379167	305.160156	342.145325
30867.515213	1181.379167	303.865234	196.276352
30867.515213	1181.379167	302.568359	458.540833
30867.515213	1181.379167	301.272461	502.083801
30867.515213	1181.379167	299.975586	661.638062
30867.515213	1181.379167	298.678711	666.830933
