#X		#Y		#Wave		#Intensity
30888.001117	1188.969000	1999.980469	8.284346
30888.001117	1188.969000	1999.016602	-64.307594
30888.001117	1188.969000	1998.052734	-11.722972
30888.001117	1188.969000	1997.087891	35.880943
30888.001117	1188.969000	1996.123047	33.909813
30888.001117	1188.969000	1995.158203	44.322758
30888.001117	1188.969000	1994.193359	-34.434288
30888.001117	1188.969000	1993.228516	-41.351456
30888.001117	1188.969000	1992.262695	97.805481
30888.001117	1188.969000	1991.297852	-50.231979
30888.001117	1188.969000	1990.332031	81.449326
30888.001117	1188.969000	1989.366211	-2.195264
30888.001117	1188.969000	1988.399414	-21.485292
30888.001117	1188.969000	1987.433594	45.807255
30888.001117	1188.969000	1986.466797	58.668705
30888.001117	1188.969000	1985.500977	-64.465935
30888.001117	1188.969000	1984.534180	32.468742
30888.001117	1188.969000	1983.567383	-63.421631
30888.001117	1188.969000	1982.599609	-6.057271
30888.001117	1188.969000	1981.632813	-27.774263
30888.001117	1188.969000	1980.665039	-59.361240
30888.001117	1188.969000	1979.697266	-46.474361
30888.001117	1188.969000	1978.729492	28.147455
30888.001117	1188.969000	1977.761719	-62.672218
30888.001117	1188.969000	1976.792969	-113.957672
30888.001117	1188.969000	1975.825195	0.140409
30888.001117	1188.969000	1974.856445	-70.866348
30888.001117	1188.969000	1973.887695	-20.952097
30888.001117	1188.969000	1972.918945	-0.649299
30888.001117	1188.969000	1971.949219	4.855120
30888.001117	1188.969000	1970.980469	86.803391
30888.001117	1188.969000	1970.010742	45.463501
30888.001117	1188.969000	1969.041016	58.372410
30888.001117	1188.969000	1968.071289	-39.611786
30888.001117	1188.969000	1967.101563	47.241062
30888.001117	1188.969000	1966.130859	89.726906
30888.001117	1188.969000	1965.161133	23.834373
30888.001117	1188.969000	1964.190430	169.751877
30888.001117	1188.969000	1963.219727	-48.763519
30888.001117	1188.969000	1962.249023	38.051453
30888.001117	1188.969000	1961.277344	36.240295
30888.001117	1188.969000	1960.306641	98.417458
30888.001117	1188.969000	1959.334961	-73.143654
30888.001117	1188.969000	1958.363281	97.278740
30888.001117	1188.969000	1957.391602	174.192001
30888.001117	1188.969000	1956.419922	125.683090
30888.001117	1188.969000	1955.447266	50.157768
30888.001117	1188.969000	1954.474609	26.286480
30888.001117	1188.969000	1953.501953	-149.931763
30888.001117	1188.969000	1952.529297	-28.772860
30888.001117	1188.969000	1951.556641	28.478500
30888.001117	1188.969000	1950.583984	-14.983880
30888.001117	1188.969000	1949.610352	-24.042313
30888.001117	1188.969000	1948.636719	3.740112
30888.001117	1188.969000	1947.663086	60.977581
30888.001117	1188.969000	1946.689453	199.194916
30888.001117	1188.969000	1945.715820	15.914481
30888.001117	1188.969000	1944.741211	-29.898869
30888.001117	1188.969000	1943.767578	17.524572
30888.001117	1188.969000	1942.792969	87.011070
30888.001117	1188.969000	1941.818359	-51.942532
30888.001117	1188.969000	1940.842773	110.706238
30888.001117	1188.969000	1939.868164	91.920341
30888.001117	1188.969000	1938.892578	-68.989052
30888.001117	1188.969000	1937.916992	103.396210
30888.001117	1188.969000	1936.941406	-86.837631
30888.001117	1188.969000	1935.965820	-5.122389
30888.001117	1188.969000	1934.990234	-143.825455
30888.001117	1188.969000	1934.013672	-145.360886
30888.001117	1188.969000	1933.037109	-39.181217
30888.001117	1188.969000	1932.060547	57.175240
30888.001117	1188.969000	1931.083984	104.562271
30888.001117	1188.969000	1930.107422	12.484524
30888.001117	1188.969000	1929.129883	10.951756
30888.001117	1188.969000	1928.153320	14.316302
30888.001117	1188.969000	1927.175781	-11.656984
30888.001117	1188.969000	1926.198242	84.619789
30888.001117	1188.969000	1925.219727	48.875603
30888.001117	1188.969000	1924.242188	76.687828
30888.001117	1188.969000	1923.263672	-76.314423
30888.001117	1188.969000	1922.285156	-53.367023
30888.001117	1188.969000	1921.306641	-71.945862
30888.001117	1188.969000	1920.328125	77.982468
30888.001117	1188.969000	1919.349609	-138.372391
30888.001117	1188.969000	1918.370117	70.104271
30888.001117	1188.969000	1917.391602	-16.810085
30888.001117	1188.969000	1916.412109	-32.925282
30888.001117	1188.969000	1915.431641	-144.181580
30888.001117	1188.969000	1914.452148	-109.039360
30888.001117	1188.969000	1913.472656	-86.103165
30888.001117	1188.969000	1912.492188	-63.175289
30888.001117	1188.969000	1911.511719	52.384254
30888.001117	1188.969000	1910.531250	-66.092850
30888.001117	1188.969000	1909.550781	83.541954
30888.001117	1188.969000	1908.569336	-0.787077
30888.001117	1188.969000	1907.588867	-12.002764
30888.001117	1188.969000	1906.607422	-6.166913
30888.001117	1188.969000	1905.625977	87.331139
30888.001117	1188.969000	1904.644531	-9.115420
30888.001117	1188.969000	1903.662109	-51.974964
30888.001117	1188.969000	1902.680664	60.941509
30888.001117	1188.969000	1901.698242	25.378305
30888.001117	1188.969000	1900.715820	157.694122
30888.001117	1188.969000	1899.733398	-77.340904
30888.001117	1188.969000	1898.750000	-134.758667
30888.001117	1188.969000	1897.767578	53.424274
30888.001117	1188.969000	1896.784180	0.855510
30888.001117	1188.969000	1895.800781	-27.393366
30888.001117	1188.969000	1894.817383	48.858879
30888.001117	1188.969000	1893.833984	23.028824
30888.001117	1188.969000	1892.850586	-170.417145
30888.001117	1188.969000	1891.866211	97.673119
30888.001117	1188.969000	1890.881836	35.400528
30888.001117	1188.969000	1889.897461	-51.136219
30888.001117	1188.969000	1888.913086	-8.994670
30888.001117	1188.969000	1887.927734	-97.935799
30888.001117	1188.969000	1886.943359	38.814480
30888.001117	1188.969000	1885.958008	97.868416
30888.001117	1188.969000	1884.972656	-5.626169
30888.001117	1188.969000	1883.987305	-7.236109
30888.001117	1188.969000	1883.001953	10.541095
30888.001117	1188.969000	1882.015625	52.541565
30888.001117	1188.969000	1881.029297	-75.151299
30888.001117	1188.969000	1880.042969	-54.985184
30888.001117	1188.969000	1879.056641	-44.531338
30888.001117	1188.969000	1878.070313	21.621437
30888.001117	1188.969000	1877.083984	-101.179642
30888.001117	1188.969000	1876.096680	42.419048
30888.001117	1188.969000	1875.109375	93.948242
30888.001117	1188.969000	1874.122070	97.030067
30888.001117	1188.969000	1873.134766	-66.896461
30888.001117	1188.969000	1872.146484	-51.719479
30888.001117	1188.969000	1871.159180	152.138214
30888.001117	1188.969000	1870.170898	5.174699
30888.001117	1188.969000	1869.182617	-37.761833
30888.001117	1188.969000	1868.194336	74.044991
30888.001117	1188.969000	1867.205078	9.317297
30888.001117	1188.969000	1866.216797	79.947403
30888.001117	1188.969000	1865.227539	-54.874405
30888.001117	1188.969000	1864.238281	-102.687042
30888.001117	1188.969000	1863.249023	30.671171
30888.001117	1188.969000	1862.259766	-195.903214
30888.001117	1188.969000	1861.269531	21.895309
30888.001117	1188.969000	1860.279297	256.490326
30888.001117	1188.969000	1859.290039	-18.340029
30888.001117	1188.969000	1858.298828	105.114502
30888.001117	1188.969000	1857.308594	-51.397705
30888.001117	1188.969000	1856.318359	28.546999
30888.001117	1188.969000	1855.327148	33.665142
30888.001117	1188.969000	1854.335938	58.049377
30888.001117	1188.969000	1853.344727	183.666092
30888.001117	1188.969000	1852.353516	72.967506
30888.001117	1188.969000	1851.362305	155.100189
30888.001117	1188.969000	1850.370117	107.049095
30888.001117	1188.969000	1849.377930	-10.879101
30888.001117	1188.969000	1848.385742	44.645752
30888.001117	1188.969000	1847.393555	350.594940
30888.001117	1188.969000	1846.401367	-118.951874
30888.001117	1188.969000	1845.408203	131.484329
30888.001117	1188.969000	1844.415039	114.618515
30888.001117	1188.969000	1843.421875	30.345827
30888.001117	1188.969000	1842.428711	61.569675
30888.001117	1188.969000	1841.435547	-116.540886
30888.001117	1188.969000	1840.441406	66.166344
30888.001117	1188.969000	1839.448242	87.656792
30888.001117	1188.969000	1838.454102	-30.342903
30888.001117	1188.969000	1837.459961	58.402000
30888.001117	1188.969000	1836.464844	-47.594585
30888.001117	1188.969000	1835.470703	-2.196088
30888.001117	1188.969000	1834.475586	-4.898749
30888.001117	1188.969000	1833.480469	59.624588
30888.001117	1188.969000	1832.485352	-39.218224
30888.001117	1188.969000	1831.490234	32.424026
30888.001117	1188.969000	1830.495117	84.799530
30888.001117	1188.969000	1829.499023	60.312626
30888.001117	1188.969000	1828.502930	-60.191769
30888.001117	1188.969000	1827.506836	73.643921
30888.001117	1188.969000	1826.510742	75.455597
30888.001117	1188.969000	1825.513672	98.814964
30888.001117	1188.969000	1824.517578	-31.339394
30888.001117	1188.969000	1823.520508	-32.016102
30888.001117	1188.969000	1822.523438	39.182217
30888.001117	1188.969000	1821.526367	172.629272
30888.001117	1188.969000	1820.529297	75.956619
30888.001117	1188.969000	1819.531250	63.130768
30888.001117	1188.969000	1818.533203	90.991165
30888.001117	1188.969000	1817.535156	56.537525
30888.001117	1188.969000	1816.537109	96.283707
30888.001117	1188.969000	1815.539063	102.460884
30888.001117	1188.969000	1814.540039	-30.225794
30888.001117	1188.969000	1813.541992	279.805664
30888.001117	1188.969000	1812.542969	-226.182129
30888.001117	1188.969000	1811.543945	31.061190
30888.001117	1188.969000	1810.543945	-6.008397
30888.001117	1188.969000	1809.544922	86.022011
30888.001117	1188.969000	1808.544922	72.781898
30888.001117	1188.969000	1807.544922	-48.057766
30888.001117	1188.969000	1806.544922	110.718094
30888.001117	1188.969000	1805.544922	142.754761
30888.001117	1188.969000	1804.544922	186.681412
30888.001117	1188.969000	1803.543945	34.691566
30888.001117	1188.969000	1802.542969	-16.986456
30888.001117	1188.969000	1801.541992	213.046539
30888.001117	1188.969000	1800.541016	-36.863464
30888.001117	1188.969000	1799.539063	-0.322865
30888.001117	1188.969000	1798.538086	21.844852
30888.001117	1188.969000	1797.536133	3.400203
30888.001117	1188.969000	1796.534180	149.505356
30888.001117	1188.969000	1795.532227	-24.061562
30888.001117	1188.969000	1794.529297	52.754017
30888.001117	1188.969000	1793.527344	-54.066757
30888.001117	1188.969000	1792.524414	-8.349692
30888.001117	1188.969000	1791.521484	-93.763443
30888.001117	1188.969000	1790.518555	-12.406802
30888.001117	1188.969000	1789.514648	16.462595
30888.001117	1188.969000	1788.511719	-135.731262
30888.001117	1188.969000	1787.507813	-4.546512
30888.001117	1188.969000	1786.503906	52.738075
30888.001117	1188.969000	1785.500000	140.899231
30888.001117	1188.969000	1784.496094	36.208328
30888.001117	1188.969000	1783.491211	-4.247294
30888.001117	1188.969000	1782.486328	-25.701767
30888.001117	1188.969000	1781.481445	33.675861
30888.001117	1188.969000	1780.476563	116.765381
30888.001117	1188.969000	1779.471680	-21.344917
30888.001117	1188.969000	1778.465820	94.907219
30888.001117	1188.969000	1777.460938	-121.673805
30888.001117	1188.969000	1776.455078	-164.752991
30888.001117	1188.969000	1775.449219	129.507187
30888.001117	1188.969000	1774.442383	15.035995
30888.001117	1188.969000	1773.436523	-63.810997
30888.001117	1188.969000	1772.429688	78.148544
30888.001117	1188.969000	1771.422852	87.059937
30888.001117	1188.969000	1770.416016	-46.495304
30888.001117	1188.969000	1769.409180	50.147331
30888.001117	1188.969000	1768.402344	-47.854946
30888.001117	1188.969000	1767.394531	-34.376831
30888.001117	1188.969000	1766.386719	-68.387985
30888.001117	1188.969000	1765.378906	-192.544662
30888.001117	1188.969000	1764.371094	-1.373721
30888.001117	1188.969000	1763.362305	47.445797
30888.001117	1188.969000	1762.354492	39.323231
30888.001117	1188.969000	1761.345703	-125.238213
30888.001117	1188.969000	1760.336914	-33.923725
30888.001117	1188.969000	1759.328125	-113.233757
30888.001117	1188.969000	1758.318359	70.302361
30888.001117	1188.969000	1757.308594	-11.465255
30888.001117	1188.969000	1756.299805	-62.470955
30888.001117	1188.969000	1755.290039	-167.946899
30888.001117	1188.969000	1754.279297	57.857815
30888.001117	1188.969000	1753.269531	-52.428841
30888.001117	1188.969000	1752.258789	-68.106659
30888.001117	1188.969000	1751.249023	67.539917
30888.001117	1188.969000	1750.238281	-187.073242
30888.001117	1188.969000	1749.226563	33.547966
30888.001117	1188.969000	1748.215820	-230.511978
30888.001117	1188.969000	1747.204102	-97.501495
30888.001117	1188.969000	1746.193359	-165.420395
30888.001117	1188.969000	1745.181641	2.866516
30888.001117	1188.969000	1744.168945	102.542328
30888.001117	1188.969000	1743.157227	-95.401253
30888.001117	1188.969000	1742.144531	-45.419624
30888.001117	1188.969000	1741.132813	-130.048737
30888.001117	1188.969000	1740.120117	66.150894
30888.001117	1188.969000	1739.106445	-32.729420
30888.001117	1188.969000	1738.093750	-79.712158
30888.001117	1188.969000	1737.080078	94.991516
30888.001117	1188.969000	1736.067383	137.524338
30888.001117	1188.969000	1735.053711	184.704285
30888.001117	1188.969000	1734.040039	19.656538
30888.001117	1188.969000	1733.025391	97.383072
30888.001117	1188.969000	1732.011719	144.405869
30888.001117	1188.969000	1730.997070	87.693985
30888.001117	1188.969000	1729.982422	235.892807
30888.001117	1188.969000	1728.967773	129.636826
30888.001117	1188.969000	1727.952148	89.301353
30888.001117	1188.969000	1726.937500	-80.540863
30888.001117	1188.969000	1725.921875	-64.420212
30888.001117	1188.969000	1724.906250	-45.997200
30888.001117	1188.969000	1723.890625	-27.626080
30888.001117	1188.969000	1722.875000	143.601593
30888.001117	1188.969000	1721.858398	6.605366
30888.001117	1188.969000	1720.841797	22.466606
30888.001117	1188.969000	1719.825195	52.384792
30888.001117	1188.969000	1718.808594	61.092617
30888.001117	1188.969000	1717.791992	-43.054188
30888.001117	1188.969000	1716.774414	111.258781
30888.001117	1188.969000	1715.756836	115.117027
30888.001117	1188.969000	1714.739258	100.140465
30888.001117	1188.969000	1713.721680	141.489044
30888.001117	1188.969000	1712.704102	79.471184
30888.001117	1188.969000	1711.685547	125.412834
30888.001117	1188.969000	1710.667969	93.849968
30888.001117	1188.969000	1709.649414	299.255951
30888.001117	1188.969000	1708.630859	101.009560
30888.001117	1188.969000	1707.611328	78.717377
30888.001117	1188.969000	1706.592773	16.531420
30888.001117	1188.969000	1705.573242	12.942357
30888.001117	1188.969000	1704.553711	77.300316
30888.001117	1188.969000	1703.534180	-6.069168
30888.001117	1188.969000	1702.513672	-30.866770
30888.001117	1188.969000	1701.494141	23.973953
30888.001117	1188.969000	1700.473633	38.926262
30888.001117	1188.969000	1699.453125	-44.532074
30888.001117	1188.969000	1698.432617	-137.362610
30888.001117	1188.969000	1697.412109	-33.536144
30888.001117	1188.969000	1696.390625	-37.466434
30888.001117	1188.969000	1695.369141	-64.834251
30888.001117	1188.969000	1694.347656	139.414993
30888.001117	1188.969000	1693.326172	-70.519577
30888.001117	1188.969000	1692.304688	40.024052
30888.001117	1188.969000	1691.282227	-41.272282
30888.001117	1188.969000	1690.260742	-22.029364
30888.001117	1188.969000	1689.238281	-30.885908
30888.001117	1188.969000	1688.214844	-0.049106
30888.001117	1188.969000	1687.192383	299.467377
30888.001117	1188.969000	1686.168945	40.469994
30888.001117	1188.969000	1685.146484	122.570198
30888.001117	1188.969000	1684.123047	190.587997
30888.001117	1188.969000	1683.099609	127.794189
30888.001117	1188.969000	1682.075195	172.369446
30888.001117	1188.969000	1681.051758	100.205215
30888.001117	1188.969000	1680.027344	63.033443
30888.001117	1188.969000	1679.002930	63.175346
30888.001117	1188.969000	1677.978516	56.289585
30888.001117	1188.969000	1676.953125	-32.256779
30888.001117	1188.969000	1675.928711	142.696075
30888.001117	1188.969000	1674.903320	210.306107
30888.001117	1188.969000	1673.877930	154.327789
30888.001117	1188.969000	1672.852539	329.052124
30888.001117	1188.969000	1671.826172	217.092194
30888.001117	1188.969000	1670.800781	230.948853
30888.001117	1188.969000	1669.774414	261.069427
30888.001117	1188.969000	1668.748047	256.224640
30888.001117	1188.969000	1667.721680	237.387131
30888.001117	1188.969000	1666.694336	34.637192
30888.001117	1188.969000	1665.667969	183.362640
30888.001117	1188.969000	1664.640625	327.345062
30888.001117	1188.969000	1663.613281	296.773743
30888.001117	1188.969000	1662.585938	245.258102
30888.001117	1188.969000	1661.557617	277.448639
30888.001117	1188.969000	1660.530273	330.537567
30888.001117	1188.969000	1659.501953	246.428894
30888.001117	1188.969000	1658.473633	218.109863
30888.001117	1188.969000	1657.444336	463.964783
30888.001117	1188.969000	1656.416016	296.183167
30888.001117	1188.969000	1655.386719	372.328461
30888.001117	1188.969000	1654.358398	336.962799
30888.001117	1188.969000	1653.328125	248.174530
30888.001117	1188.969000	1652.298828	493.692261
30888.001117	1188.969000	1651.269531	513.966248
30888.001117	1188.969000	1650.239258	640.950989
30888.001117	1188.969000	1649.208984	296.899170
30888.001117	1188.969000	1648.178711	430.803406
30888.001117	1188.969000	1647.148438	379.109131
30888.001117	1188.969000	1646.117188	580.151245
30888.001117	1188.969000	1645.086914	516.828430
30888.001117	1188.969000	1644.055664	518.407166
30888.001117	1188.969000	1643.024414	686.822754
30888.001117	1188.969000	1641.992188	500.665314
30888.001117	1188.969000	1640.960938	787.135010
30888.001117	1188.969000	1639.928711	786.288757
30888.001117	1188.969000	1638.896484	996.148682
30888.001117	1188.969000	1637.864258	847.073853
30888.001117	1188.969000	1636.832031	1001.269836
30888.001117	1188.969000	1635.798828	889.252686
30888.001117	1188.969000	1634.766602	791.162964
30888.001117	1188.969000	1633.733398	1065.539063
30888.001117	1188.969000	1632.699219	789.330566
30888.001117	1188.969000	1631.666016	901.717285
30888.001117	1188.969000	1630.632813	974.750427
30888.001117	1188.969000	1629.598633	902.116760
30888.001117	1188.969000	1628.564453	797.151184
30888.001117	1188.969000	1627.530273	957.943115
30888.001117	1188.969000	1626.495117	873.783936
30888.001117	1188.969000	1625.460938	967.509644
30888.001117	1188.969000	1624.425781	811.787292
30888.001117	1188.969000	1623.390625	796.962524
30888.001117	1188.969000	1622.355469	879.093506
30888.001117	1188.969000	1621.319336	785.781250
30888.001117	1188.969000	1620.284180	770.968079
30888.001117	1188.969000	1619.248047	943.022400
30888.001117	1188.969000	1618.211914	875.125732
30888.001117	1188.969000	1617.174805	1058.618164
30888.001117	1188.969000	1616.138672	958.450134
30888.001117	1188.969000	1615.101563	856.010315
30888.001117	1188.969000	1614.065430	1046.330933
30888.001117	1188.969000	1613.027344	865.565613
30888.001117	1188.969000	1611.990234	1081.153687
30888.001117	1188.969000	1610.953125	1146.938477
30888.001117	1188.969000	1609.915039	1198.878418
30888.001117	1188.969000	1608.876953	1342.905884
30888.001117	1188.969000	1607.838867	1008.046997
30888.001117	1188.969000	1606.800781	1080.719116
30888.001117	1188.969000	1605.761719	1259.218872
30888.001117	1188.969000	1604.723633	1343.335083
30888.001117	1188.969000	1603.684570	1236.493774
30888.001117	1188.969000	1602.644531	1297.586426
30888.001117	1188.969000	1601.605469	1400.062866
30888.001117	1188.969000	1600.566406	1323.192261
30888.001117	1188.969000	1599.526367	1255.549316
30888.001117	1188.969000	1598.486328	1185.647461
30888.001117	1188.969000	1597.446289	1207.691284
30888.001117	1188.969000	1596.405273	1121.764526
30888.001117	1188.969000	1595.365234	1201.257324
30888.001117	1188.969000	1594.324219	1177.394043
30888.001117	1188.969000	1593.283203	1378.546265
30888.001117	1188.969000	1592.242188	1295.009521
30888.001117	1188.969000	1591.200195	1342.325439
30888.001117	1188.969000	1590.159180	1401.120605
30888.001117	1188.969000	1589.117188	1352.083252
30888.001117	1188.969000	1588.075195	1305.376831
30888.001117	1188.969000	1587.032227	1327.494507
30888.001117	1188.969000	1585.990234	1338.167847
30888.001117	1188.969000	1584.947266	1376.356812
30888.001117	1188.969000	1583.904297	1107.452393
30888.001117	1188.969000	1582.861328	1118.216919
30888.001117	1188.969000	1581.818359	1156.490845
30888.001117	1188.969000	1580.775391	1332.198486
30888.001117	1188.969000	1579.731445	1262.824341
30888.001117	1188.969000	1578.687500	1257.608887
30888.001117	1188.969000	1577.643555	1245.552490
30888.001117	1188.969000	1576.598633	1247.250122
30888.001117	1188.969000	1575.554688	1333.643921
30888.001117	1188.969000	1574.509766	1273.607178
30888.001117	1188.969000	1573.464844	1199.896118
30888.001117	1188.969000	1572.419922	1361.787598
30888.001117	1188.969000	1571.374023	936.031799
30888.001117	1188.969000	1570.329102	1299.131958
30888.001117	1188.969000	1569.283203	1227.865356
30888.001117	1188.969000	1568.237305	1213.783691
30888.001117	1188.969000	1567.191406	1281.984131
30888.001117	1188.969000	1566.144531	1318.203491
30888.001117	1188.969000	1565.098633	1084.968994
30888.001117	1188.969000	1564.051758	1276.537598
30888.001117	1188.969000	1563.004883	1232.934692
30888.001117	1188.969000	1561.957031	1219.045288
30888.001117	1188.969000	1560.910156	1152.718872
30888.001117	1188.969000	1559.862305	999.749817
30888.001117	1188.969000	1558.814453	1090.944336
30888.001117	1188.969000	1557.766602	997.413391
30888.001117	1188.969000	1556.718750	837.831238
30888.001117	1188.969000	1555.669922	894.910522
30888.001117	1188.969000	1554.621094	755.991577
30888.001117	1188.969000	1553.573242	968.103943
30888.001117	1188.969000	1552.523438	735.882629
30888.001117	1188.969000	1551.474609	761.199524
30888.001117	1188.969000	1550.424805	804.758911
30888.001117	1188.969000	1549.375000	864.280640
30888.001117	1188.969000	1548.325195	791.778992
30888.001117	1188.969000	1547.275391	814.943848
30888.001117	1188.969000	1546.225586	733.461365
30888.001117	1188.969000	1545.174805	736.228027
30888.001117	1188.969000	1544.124023	789.081726
30888.001117	1188.969000	1543.073242	785.100159
30888.001117	1188.969000	1542.022461	640.185120
30888.001117	1188.969000	1540.970703	618.128906
30888.001117	1188.969000	1539.919922	855.248901
30888.001117	1188.969000	1538.868164	721.896729
30888.001117	1188.969000	1537.815430	922.628662
30888.001117	1188.969000	1536.763672	771.234497
30888.001117	1188.969000	1535.710938	604.043579
30888.001117	1188.969000	1534.659180	793.472473
30888.001117	1188.969000	1533.606445	903.410400
30888.001117	1188.969000	1532.552734	888.506348
30888.001117	1188.969000	1531.500000	823.738098
30888.001117	1188.969000	1530.446289	856.601563
30888.001117	1188.969000	1529.393555	903.118164
30888.001117	1188.969000	1528.338867	924.707275
30888.001117	1188.969000	1527.285156	742.262939
30888.001117	1188.969000	1526.231445	770.783936
30888.001117	1188.969000	1525.176758	708.673523
30888.001117	1188.969000	1524.122070	728.223755
30888.001117	1188.969000	1523.067383	598.276794
30888.001117	1188.969000	1522.012695	762.927795
30888.001117	1188.969000	1520.957031	843.761902
30888.001117	1188.969000	1519.901367	598.537720
30888.001117	1188.969000	1518.845703	405.537781
30888.001117	1188.969000	1517.790039	527.300659
30888.001117	1188.969000	1516.734375	436.340393
30888.001117	1188.969000	1515.677734	691.651489
30888.001117	1188.969000	1514.621094	426.612427
30888.001117	1188.969000	1513.564453	424.097565
30888.001117	1188.969000	1512.507813	444.253754
30888.001117	1188.969000	1511.450195	462.193939
30888.001117	1188.969000	1510.393555	509.574310
30888.001117	1188.969000	1509.335938	367.153564
30888.001117	1188.969000	1508.278320	299.411285
30888.001117	1188.969000	1507.219727	342.445007
30888.001117	1188.969000	1506.162109	3.818675
30888.001117	1188.969000	1505.103516	191.536499
30888.001117	1188.969000	1504.044922	187.333740
30888.001117	1188.969000	1502.986328	13.897250
30888.001117	1188.969000	1501.926758	224.246628
30888.001117	1188.969000	1500.868164	14.891576
30888.001117	1188.969000	1499.808594	150.834869
30888.001117	1188.969000	1498.749023	113.114197
30888.001117	1188.969000	1497.688477	-59.834618
30888.001117	1188.969000	1496.628906	71.721268
30888.001117	1188.969000	1495.568359	140.167908
30888.001117	1188.969000	1494.507813	109.488037
30888.001117	1188.969000	1493.447266	0.020808
30888.001117	1188.969000	1492.386719	-39.501068
30888.001117	1188.969000	1491.325195	-191.565262
30888.001117	1188.969000	1490.263672	-30.488111
30888.001117	1188.969000	1489.202148	-76.544754
30888.001117	1188.969000	1488.140625	-23.473198
30888.001117	1188.969000	1487.079102	135.419189
30888.001117	1188.969000	1486.016602	-36.454575
30888.001117	1188.969000	1484.954102	-88.961960
30888.001117	1188.969000	1483.891602	70.044731
30888.001117	1188.969000	1482.829102	82.886055
30888.001117	1188.969000	1481.765625	136.255524
30888.001117	1188.969000	1480.702148	-44.100342
30888.001117	1188.969000	1479.638672	-141.154953
30888.001117	1188.969000	1478.575195	42.756931
30888.001117	1188.969000	1477.511719	170.507599
30888.001117	1188.969000	1476.447266	134.291840
30888.001117	1188.969000	1475.382813	165.527710
30888.001117	1188.969000	1474.318359	44.214397
30888.001117	1188.969000	1473.253906	75.724174
30888.001117	1188.969000	1472.189453	259.680267
30888.001117	1188.969000	1471.124023	228.414490
30888.001117	1188.969000	1470.058594	338.403107
30888.001117	1188.969000	1468.993164	264.752747
30888.001117	1188.969000	1467.927734	184.513382
30888.001117	1188.969000	1466.861328	339.269989
30888.001117	1188.969000	1465.794922	288.428223
30888.001117	1188.969000	1464.728516	528.642517
30888.001117	1188.969000	1463.662109	388.108368
30888.001117	1188.969000	1462.594727	493.921722
30888.001117	1188.969000	1461.528320	418.405762
30888.001117	1188.969000	1460.460938	450.889984
30888.001117	1188.969000	1459.393555	471.840240
30888.001117	1188.969000	1458.326172	479.640442
30888.001117	1188.969000	1457.257813	529.358459
30888.001117	1188.969000	1456.189453	550.968750
30888.001117	1188.969000	1455.121094	745.928406
30888.001117	1188.969000	1454.052734	809.472839
30888.001117	1188.969000	1452.984375	735.606079
30888.001117	1188.969000	1451.915039	1021.901245
30888.001117	1188.969000	1450.845703	705.980774
30888.001117	1188.969000	1449.776367	823.400391
30888.001117	1188.969000	1448.707031	873.217712
30888.001117	1188.969000	1447.636719	811.219177
30888.001117	1188.969000	1446.567383	1060.956299
30888.001117	1188.969000	1445.497070	963.746887
30888.001117	1188.969000	1444.425781	896.351807
30888.001117	1188.969000	1443.355469	693.905396
30888.001117	1188.969000	1442.285156	575.930298
30888.001117	1188.969000	1441.213867	761.190796
30888.001117	1188.969000	1440.142578	741.963806
30888.001117	1188.969000	1439.070313	718.315430
30888.001117	1188.969000	1437.999023	721.497375
30888.001117	1188.969000	1436.926758	586.654480
30888.001117	1188.969000	1435.854492	820.219788
30888.001117	1188.969000	1434.782227	642.592651
30888.001117	1188.969000	1433.709961	457.891144
30888.001117	1188.969000	1432.636719	291.738464
30888.001117	1188.969000	1431.563477	621.054504
30888.001117	1188.969000	1430.490234	704.642883
30888.001117	1188.969000	1429.416992	495.477234
30888.001117	1188.969000	1428.343750	329.234283
30888.001117	1188.969000	1427.269531	502.923157
30888.001117	1188.969000	1426.195313	262.271027
30888.001117	1188.969000	1425.121094	306.436005
30888.001117	1188.969000	1424.046875	382.858521
30888.001117	1188.969000	1422.971680	315.321350
30888.001117	1188.969000	1421.896484	434.444946
30888.001117	1188.969000	1420.821289	517.643250
30888.001117	1188.969000	1419.746094	193.058838
30888.001117	1188.969000	1418.669922	312.051849
30888.001117	1188.969000	1417.594727	360.554901
30888.001117	1188.969000	1416.518555	441.517120
30888.001117	1188.969000	1415.442383	382.431610
30888.001117	1188.969000	1414.365234	529.711548
30888.001117	1188.969000	1413.289063	375.220642
30888.001117	1188.969000	1412.211914	407.903625
30888.001117	1188.969000	1411.134766	569.301147
30888.001117	1188.969000	1410.057617	327.052673
30888.001117	1188.969000	1408.979492	407.894989
30888.001117	1188.969000	1407.902344	596.892212
30888.001117	1188.969000	1406.824219	613.087463
30888.001117	1188.969000	1405.746094	567.899841
30888.001117	1188.969000	1404.666992	738.321350
30888.001117	1188.969000	1403.588867	769.701538
30888.001117	1188.969000	1402.509766	992.604675
30888.001117	1188.969000	1401.430664	840.560852
30888.001117	1188.969000	1400.351563	867.126526
30888.001117	1188.969000	1399.271484	725.958923
30888.001117	1188.969000	1398.192383	797.374878
30888.001117	1188.969000	1397.112305	743.807251
30888.001117	1188.969000	1396.031250	724.599792
30888.001117	1188.969000	1394.951172	783.872620
30888.001117	1188.969000	1393.871094	752.679565
30888.001117	1188.969000	1392.790039	763.443787
30888.001117	1188.969000	1391.708984	782.848206
30888.001117	1188.969000	1390.626953	626.705811
30888.001117	1188.969000	1389.545898	661.227844
30888.001117	1188.969000	1388.463867	694.731873
30888.001117	1188.969000	1387.381836	756.399658
30888.001117	1188.969000	1386.299805	786.539490
30888.001117	1188.969000	1385.217773	786.168579
30888.001117	1188.969000	1384.134766	767.742981
30888.001117	1188.969000	1383.051758	753.766174
30888.001117	1188.969000	1381.968750	739.865906
30888.001117	1188.969000	1380.885742	664.116028
30888.001117	1188.969000	1379.802734	761.472290
30888.001117	1188.969000	1378.718750	740.487610
30888.001117	1188.969000	1377.634766	549.240479
30888.001117	1188.969000	1376.550781	757.253967
30888.001117	1188.969000	1375.465820	734.336975
30888.001117	1188.969000	1374.381836	661.107117
30888.001117	1188.969000	1373.296875	658.270508
30888.001117	1188.969000	1372.211914	673.820313
30888.001117	1188.969000	1371.126953	907.099976
30888.001117	1188.969000	1370.041016	921.160767
30888.001117	1188.969000	1368.955078	859.868774
30888.001117	1188.969000	1367.869141	636.804688
30888.001117	1188.969000	1366.783203	775.897888
30888.001117	1188.969000	1365.697266	827.571777
30888.001117	1188.969000	1364.610352	644.904358
30888.001117	1188.969000	1363.523438	648.150085
30888.001117	1188.969000	1362.436523	504.658112
30888.001117	1188.969000	1361.349609	515.297241
30888.001117	1188.969000	1360.261719	593.382996
30888.001117	1188.969000	1359.174805	445.907288
30888.001117	1188.969000	1358.086914	622.359924
30888.001117	1188.969000	1356.998047	476.243622
30888.001117	1188.969000	1355.910156	508.515778
30888.001117	1188.969000	1354.821289	532.797424
30888.001117	1188.969000	1353.732422	556.162659
30888.001117	1188.969000	1352.643555	456.137512
30888.001117	1188.969000	1351.554688	663.263550
30888.001117	1188.969000	1350.464844	642.672119
30888.001117	1188.969000	1349.375000	603.018250
30888.001117	1188.969000	1348.285156	606.028015
30888.001117	1188.969000	1347.195313	492.744995
30888.001117	1188.969000	1346.105469	654.256592
30888.001117	1188.969000	1345.014648	546.235535
30888.001117	1188.969000	1343.923828	653.139160
30888.001117	1188.969000	1342.833008	691.793213
30888.001117	1188.969000	1341.741211	511.611725
30888.001117	1188.969000	1340.650391	599.570129
30888.001117	1188.969000	1339.558594	432.349335
30888.001117	1188.969000	1338.466797	433.700531
30888.001117	1188.969000	1337.374023	490.054474
30888.001117	1188.969000	1336.282227	492.516052
30888.001117	1188.969000	1335.189453	510.525452
30888.001117	1188.969000	1334.096680	689.868713
30888.001117	1188.969000	1333.003906	553.925232
30888.001117	1188.969000	1331.910156	657.990234
30888.001117	1188.969000	1330.817383	605.519775
30888.001117	1188.969000	1329.723633	534.318665
30888.001117	1188.969000	1328.629883	551.352417
30888.001117	1188.969000	1327.535156	458.162567
30888.001117	1188.969000	1326.441406	709.242737
30888.001117	1188.969000	1325.346680	685.821106
30888.001117	1188.969000	1324.251953	599.651917
30888.001117	1188.969000	1323.156250	618.104980
30888.001117	1188.969000	1322.061523	519.532166
30888.001117	1188.969000	1320.965820	651.894104
30888.001117	1188.969000	1319.870117	507.300568
30888.001117	1188.969000	1318.774414	589.226624
30888.001117	1188.969000	1317.678711	415.594604
30888.001117	1188.969000	1316.582031	372.139709
30888.001117	1188.969000	1315.485352	521.073059
30888.001117	1188.969000	1314.388672	306.012268
30888.001117	1188.969000	1313.291016	502.583344
30888.001117	1188.969000	1312.194336	619.394043
30888.001117	1188.969000	1311.096680	661.048523
30888.001117	1188.969000	1309.999023	611.602295
30888.001117	1188.969000	1308.901367	567.865479
30888.001117	1188.969000	1307.802734	718.434814
30888.001117	1188.969000	1306.705078	505.358215
30888.001117	1188.969000	1305.606445	585.746033
30888.001117	1188.969000	1304.506836	472.661224
30888.001117	1188.969000	1303.408203	538.047974
30888.001117	1188.969000	1302.308594	488.023621
30888.001117	1188.969000	1301.208984	341.512604
30888.001117	1188.969000	1300.109375	338.171539
30888.001117	1188.969000	1299.009766	418.221588
30888.001117	1188.969000	1297.909180	329.998169
30888.001117	1188.969000	1296.808594	373.742981
30888.001117	1188.969000	1295.708008	335.599945
30888.001117	1188.969000	1294.607422	320.975739
30888.001117	1188.969000	1293.506836	252.105164
30888.001117	1188.969000	1292.405273	240.998627
30888.001117	1188.969000	1291.303711	224.196426
30888.001117	1188.969000	1290.202148	153.069077
30888.001117	1188.969000	1289.099609	234.006958
30888.001117	1188.969000	1287.998047	274.174957
30888.001117	1188.969000	1286.895508	201.345566
30888.001117	1188.969000	1285.792969	112.162483
30888.001117	1188.969000	1284.689453	243.663605
30888.001117	1188.969000	1283.586914	56.399380
30888.001117	1188.969000	1282.483398	182.832932
30888.001117	1188.969000	1281.379883	192.296295
30888.001117	1188.969000	1280.276367	257.751831
30888.001117	1188.969000	1279.171875	145.544159
30888.001117	1188.969000	1278.067383	83.911537
30888.001117	1188.969000	1276.962891	81.053574
30888.001117	1188.969000	1275.858398	38.903294
30888.001117	1188.969000	1274.753906	77.732590
30888.001117	1188.969000	1273.648438	92.646011
30888.001117	1188.969000	1272.542969	49.128731
30888.001117	1188.969000	1271.437500	16.226070
30888.001117	1188.969000	1270.331055	-26.537439
30888.001117	1188.969000	1269.225586	41.231781
30888.001117	1188.969000	1268.119141	-66.104111
30888.001117	1188.969000	1267.012695	33.754395
30888.001117	1188.969000	1265.906250	33.395599
30888.001117	1188.969000	1264.798828	2.299206
30888.001117	1188.969000	1263.691406	138.493195
30888.001117	1188.969000	1262.583984	131.033630
30888.001117	1188.969000	1261.476563	74.988297
30888.001117	1188.969000	1260.368164	37.765678
30888.001117	1188.969000	1259.260742	171.386002
30888.001117	1188.969000	1258.152344	160.066208
30888.001117	1188.969000	1257.043945	35.224808
30888.001117	1188.969000	1255.934570	-1.103687
30888.001117	1188.969000	1254.825195	134.605652
30888.001117	1188.969000	1253.716797	-90.341042
30888.001117	1188.969000	1252.606445	39.454414
30888.001117	1188.969000	1251.497070	-78.463928
30888.001117	1188.969000	1250.387695	-51.737328
30888.001117	1188.969000	1249.277344	-46.538715
30888.001117	1188.969000	1248.166992	-90.502899
30888.001117	1188.969000	1247.055664	-46.003971
30888.001117	1188.969000	1245.945313	-32.273930
30888.001117	1188.969000	1244.833984	-148.104340
30888.001117	1188.969000	1243.722656	90.406586
30888.001117	1188.969000	1242.611328	32.812489
30888.001117	1188.969000	1241.499023	72.122131
30888.001117	1188.969000	1240.387695	48.962822
30888.001117	1188.969000	1239.275391	-92.570694
30888.001117	1188.969000	1238.162109	75.841370
30888.001117	1188.969000	1237.049805	102.266220
30888.001117	1188.969000	1235.936523	101.817200
30888.001117	1188.969000	1234.823242	115.166557
30888.001117	1188.969000	1233.709961	105.504669
30888.001117	1188.969000	1232.596680	171.913513
30888.001117	1188.969000	1231.482422	49.939991
30888.001117	1188.969000	1230.369141	130.915451
30888.001117	1188.969000	1229.253906	150.381577
30888.001117	1188.969000	1228.139648	201.479691
30888.001117	1188.969000	1227.025391	121.277702
30888.001117	1188.969000	1225.910156	164.705826
30888.001117	1188.969000	1224.794922	215.133575
30888.001117	1188.969000	1223.679688	254.464233
30888.001117	1188.969000	1222.563477	151.058197
30888.001117	1188.969000	1221.447266	233.721512
30888.001117	1188.969000	1220.331055	307.328156
30888.001117	1188.969000	1219.214844	161.555832
30888.001117	1188.969000	1218.098633	195.121826
30888.001117	1188.969000	1216.981445	127.744438
30888.001117	1188.969000	1215.864258	105.031960
30888.001117	1188.969000	1214.747070	31.723639
30888.001117	1188.969000	1213.629883	81.404427
30888.001117	1188.969000	1212.511719	29.356583
30888.001117	1188.969000	1211.393555	75.931114
30888.001117	1188.969000	1210.275391	47.483006
30888.001117	1188.969000	1209.157227	14.042517
30888.001117	1188.969000	1208.038086	-28.417669
30888.001117	1188.969000	1206.918945	-43.244267
30888.001117	1188.969000	1205.799805	19.362541
30888.001117	1188.969000	1204.680664	97.468681
30888.001117	1188.969000	1203.560547	58.060474
30888.001117	1188.969000	1202.441406	-49.216530
30888.001117	1188.969000	1201.321289	-61.426804
30888.001117	1188.969000	1200.200195	-16.439495
30888.001117	1188.969000	1199.080078	-45.618271
30888.001117	1188.969000	1197.958984	-60.670715
30888.001117	1188.969000	1196.837891	-11.135334
30888.001117	1188.969000	1195.716797	-45.510620
30888.001117	1188.969000	1194.594727	-88.205811
30888.001117	1188.969000	1193.473633	-10.419906
30888.001117	1188.969000	1192.351563	-59.887432
30888.001117	1188.969000	1191.229492	-122.208832
30888.001117	1188.969000	1190.106445	-96.564377
30888.001117	1188.969000	1188.984375	-26.668564
30888.001117	1188.969000	1187.861328	60.054523
30888.001117	1188.969000	1186.738281	-5.503781
30888.001117	1188.969000	1185.614258	-101.751335
30888.001117	1188.969000	1184.491211	-36.702312
30888.001117	1188.969000	1183.367188	-75.240372
30888.001117	1188.969000	1182.243164	-55.118145
30888.001117	1188.969000	1181.119141	-103.086037
30888.001117	1188.969000	1179.994141	-73.132050
30888.001117	1188.969000	1178.869141	-99.201141
30888.001117	1188.969000	1177.744141	-87.993408
30888.001117	1188.969000	1176.619141	-163.542923
30888.001117	1188.969000	1175.493164	-85.640480
30888.001117	1188.969000	1174.368164	-147.691513
30888.001117	1188.969000	1173.242188	-221.751328
30888.001117	1188.969000	1172.115234	-43.598686
30888.001117	1188.969000	1170.989258	14.925082
30888.001117	1188.969000	1169.862305	-85.128021
30888.001117	1188.969000	1168.735352	-166.970840
30888.001117	1188.969000	1167.608398	-193.167664
30888.001117	1188.969000	1166.481445	-129.324341
30888.001117	1188.969000	1165.353516	-131.299637
30888.001117	1188.969000	1164.225586	-109.475250
30888.001117	1188.969000	1163.097656	-169.287048
30888.001117	1188.969000	1161.968750	-65.146133
30888.001117	1188.969000	1160.840820	-170.236694
30888.001117	1188.969000	1159.711914	-2.046610
30888.001117	1188.969000	1158.583008	-52.068760
30888.001117	1188.969000	1157.453125	-24.924267
30888.001117	1188.969000	1156.324219	-41.511974
30888.001117	1188.969000	1155.194336	48.065823
30888.001117	1188.969000	1154.064453	-0.321835
30888.001117	1188.969000	1152.933594	15.801026
30888.001117	1188.969000	1151.803711	4.457647
30888.001117	1188.969000	1150.672852	122.961571
30888.001117	1188.969000	1149.541992	107.270332
30888.001117	1188.969000	1148.411133	112.747932
30888.001117	1188.969000	1147.279297	83.168076
30888.001117	1188.969000	1146.147461	83.537712
30888.001117	1188.969000	1145.015625	-11.482274
30888.001117	1188.969000	1143.883789	4.698675
30888.001117	1188.969000	1142.750977	-11.180470
30888.001117	1188.969000	1141.619141	77.262917
30888.001117	1188.969000	1140.486328	-86.237137
30888.001117	1188.969000	1139.352539	-60.408489
30888.001117	1188.969000	1138.219727	-115.876633
30888.001117	1188.969000	1137.085938	-62.110329
30888.001117	1188.969000	1135.952148	67.607124
30888.001117	1188.969000	1134.818359	-165.008667
30888.001117	1188.969000	1133.683594	-17.209629
30888.001117	1188.969000	1132.549805	-41.182983
30888.001117	1188.969000	1131.415039	75.510468
30888.001117	1188.969000	1130.279297	138.538910
30888.001117	1188.969000	1129.144531	149.291977
30888.001117	1188.969000	1128.008789	120.625679
30888.001117	1188.969000	1126.873047	211.997742
30888.001117	1188.969000	1125.737305	105.520744
30888.001117	1188.969000	1124.601563	132.543671
30888.001117	1188.969000	1123.464844	140.444733
30888.001117	1188.969000	1122.328125	62.702267
30888.001117	1188.969000	1121.191406	24.259966
30888.001117	1188.969000	1120.054688	14.396979
30888.001117	1188.969000	1118.916992	-58.019794
30888.001117	1188.969000	1117.779297	3.943682
30888.001117	1188.969000	1116.641602	28.187174
30888.001117	1188.969000	1115.503906	91.300400
30888.001117	1188.969000	1114.365234	89.281029
30888.001117	1188.969000	1113.226563	105.188217
30888.001117	1188.969000	1112.087891	226.765518
30888.001117	1188.969000	1110.949219	107.439590
30888.001117	1188.969000	1109.809570	-3.590366
30888.001117	1188.969000	1108.669922	51.323357
30888.001117	1188.969000	1107.530273	39.661617
30888.001117	1188.969000	1106.390625	14.095724
30888.001117	1188.969000	1105.250000	329.517670
30888.001117	1188.969000	1104.109375	130.123611
30888.001117	1188.969000	1102.968750	81.707924
30888.001117	1188.969000	1101.828125	147.259811
30888.001117	1188.969000	1100.686523	10.631099
30888.001117	1188.969000	1099.544922	43.531796
30888.001117	1188.969000	1098.403320	76.899834
30888.001117	1188.969000	1097.261719	106.244934
30888.001117	1188.969000	1096.120117	-23.114088
30888.001117	1188.969000	1094.977539	47.667152
30888.001117	1188.969000	1093.834961	20.436035
30888.001117	1188.969000	1092.691406	58.718052
30888.001117	1188.969000	1091.548828	29.865450
30888.001117	1188.969000	1090.405273	101.271004
30888.001117	1188.969000	1089.261719	135.756363
30888.001117	1188.969000	1088.118164	218.588120
30888.001117	1188.969000	1086.973633	141.899063
30888.001117	1188.969000	1085.829102	63.709183
30888.001117	1188.969000	1084.684570	15.478945
30888.001117	1188.969000	1083.540039	200.269409
30888.001117	1188.969000	1082.395508	19.153816
30888.001117	1188.969000	1081.250000	45.047546
30888.001117	1188.969000	1080.104492	169.235916
30888.001117	1188.969000	1078.958984	170.356155
30888.001117	1188.969000	1077.812500	84.827957
30888.001117	1188.969000	1076.666016	107.023651
30888.001117	1188.969000	1075.519531	227.155212
30888.001117	1188.969000	1074.373047	189.768570
30888.001117	1188.969000	1073.226563	113.337448
30888.001117	1188.969000	1072.079102	117.551392
30888.001117	1188.969000	1070.931641	66.842003
30888.001117	1188.969000	1069.784180	219.364151
30888.001117	1188.969000	1068.635742	154.745285
30888.001117	1188.969000	1067.487305	190.312164
30888.001117	1188.969000	1066.338867	217.403244
30888.001117	1188.969000	1065.190430	179.206589
30888.001117	1188.969000	1064.041992	251.595367
30888.001117	1188.969000	1062.892578	145.621704
30888.001117	1188.969000	1061.743164	141.795624
30888.001117	1188.969000	1060.593750	299.550354
30888.001117	1188.969000	1059.443359	179.677658
30888.001117	1188.969000	1058.292969	203.572464
30888.001117	1188.969000	1057.142578	169.997574
30888.001117	1188.969000	1055.992188	69.429695
30888.001117	1188.969000	1054.841797	64.432404
30888.001117	1188.969000	1053.690430	41.433147
30888.001117	1188.969000	1052.539063	123.786934
30888.001117	1188.969000	1051.387695	145.353775
30888.001117	1188.969000	1050.235352	14.828588
30888.001117	1188.969000	1049.083984	154.941086
30888.001117	1188.969000	1047.931641	93.624893
30888.001117	1188.969000	1046.778320	-90.576950
30888.001117	1188.969000	1045.625977	-61.970676
30888.001117	1188.969000	1044.472656	105.664276
30888.001117	1188.969000	1043.319336	20.527927
30888.001117	1188.969000	1042.166016	-24.055822
30888.001117	1188.969000	1041.012695	40.999634
30888.001117	1188.969000	1039.858398	-62.094406
30888.001117	1188.969000	1038.704102	-170.756943
30888.001117	1188.969000	1037.549805	36.284191
30888.001117	1188.969000	1036.394531	139.073715
30888.001117	1188.969000	1035.239258	-42.394680
30888.001117	1188.969000	1034.083984	84.883606
30888.001117	1188.969000	1032.928711	-40.970135
30888.001117	1188.969000	1031.773438	4.688348
30888.001117	1188.969000	1030.617188	68.820648
30888.001117	1188.969000	1029.460938	281.740448
30888.001117	1188.969000	1028.304688	77.850273
30888.001117	1188.969000	1027.147461	138.702988
30888.001117	1188.969000	1025.991211	60.997269
30888.001117	1188.969000	1024.833984	35.620266
30888.001117	1188.969000	1023.675781	130.314316
30888.001117	1188.969000	1022.518555	38.361774
30888.001117	1188.969000	1021.360352	70.360573
30888.001117	1188.969000	1020.202148	43.447388
30888.001117	1188.969000	1019.043945	2.498431
30888.001117	1188.969000	1017.884766	-80.371147
30888.001117	1188.969000	1016.726563	-13.027673
30888.001117	1188.969000	1015.567383	88.629509
30888.001117	1188.969000	1014.407227	-71.648949
30888.001117	1188.969000	1013.248047	107.365028
30888.001117	1188.969000	1012.087891	59.608372
30888.001117	1188.969000	1010.927734	90.910835
30888.001117	1188.969000	1009.767578	127.074928
30888.001117	1188.969000	1008.606445	-7.305376
30888.001117	1188.969000	1007.446289	71.201859
30888.001117	1188.969000	1006.285156	170.638809
30888.001117	1188.969000	1005.123047	-64.479698
30888.001117	1188.969000	1003.961914	133.090942
30888.001117	1188.969000	1002.799805	208.825378
30888.001117	1188.969000	1001.637695	219.592133
30888.001117	1188.969000	1000.475586	157.941299
30888.001117	1188.969000	999.312500	134.255737
30888.001117	1188.969000	998.149414	355.244873
30888.001117	1188.969000	996.986328	133.703918
30888.001117	1188.969000	995.823242	195.047684
30888.001117	1188.969000	994.659180	130.691208
30888.001117	1188.969000	993.496094	61.674877
30888.001117	1188.969000	992.332031	75.031570
30888.001117	1188.969000	991.166992	193.657501
30888.001117	1188.969000	990.002930	112.828056
30888.001117	1188.969000	988.837891	108.141426
30888.001117	1188.969000	987.672852	86.449326
30888.001117	1188.969000	986.506836	93.965469
30888.001117	1188.969000	985.341797	125.538155
30888.001117	1188.969000	984.175781	115.679489
30888.001117	1188.969000	983.009766	75.175331
30888.001117	1188.969000	981.843750	228.528915
30888.001117	1188.969000	980.676758	71.304947
30888.001117	1188.969000	979.509766	71.062294
30888.001117	1188.969000	978.342773	141.824203
30888.001117	1188.969000	977.175781	80.602180
30888.001117	1188.969000	976.007813	87.430122
30888.001117	1188.969000	974.839844	-62.588596
30888.001117	1188.969000	973.671875	-37.914627
30888.001117	1188.969000	972.503906	-27.055004
30888.001117	1188.969000	971.334961	-37.112633
30888.001117	1188.969000	970.166016	102.073067
30888.001117	1188.969000	968.997070	-42.436092
30888.001117	1188.969000	967.828125	-185.707703
30888.001117	1188.969000	966.658203	-145.531250
30888.001117	1188.969000	965.488281	-115.119629
30888.001117	1188.969000	964.318359	40.564064
30888.001117	1188.969000	963.148438	-56.975006
30888.001117	1188.969000	961.977539	-23.860859
30888.001117	1188.969000	960.806641	-147.356140
30888.001117	1188.969000	959.635742	-243.521606
30888.001117	1188.969000	958.463867	-15.638545
30888.001117	1188.969000	957.292969	-58.237785
30888.001117	1188.969000	956.121094	43.244255
30888.001117	1188.969000	954.948242	-21.323044
30888.001117	1188.969000	953.776367	-155.956268
30888.001117	1188.969000	952.603516	-4.655890
30888.001117	1188.969000	951.430664	-26.998413
30888.001117	1188.969000	950.257813	-250.256027
30888.001117	1188.969000	949.084961	-245.942642
30888.001117	1188.969000	947.911133	-49.375774
30888.001117	1188.969000	946.737305	9.616128
30888.001117	1188.969000	945.563477	-9.589224
30888.001117	1188.969000	944.388672	20.103670
30888.001117	1188.969000	943.213867	-72.338669
30888.001117	1188.969000	942.039063	53.061565
30888.001117	1188.969000	940.864258	165.065857
30888.001117	1188.969000	939.688477	86.150009
30888.001117	1188.969000	938.513672	99.306503
30888.001117	1188.969000	937.337891	38.909077
30888.001117	1188.969000	936.161133	-46.650452
30888.001117	1188.969000	934.985352	124.685371
30888.001117	1188.969000	933.808594	89.572929
30888.001117	1188.969000	932.631836	3.994936
30888.001117	1188.969000	931.454102	28.490120
30888.001117	1188.969000	930.277344	140.054474
30888.001117	1188.969000	929.099609	6.302786
30888.001117	1188.969000	927.921875	-47.195770
30888.001117	1188.969000	926.743164	-29.639330
30888.001117	1188.969000	925.565430	8.577520
30888.001117	1188.969000	924.386719	-70.110664
30888.001117	1188.969000	923.208008	-135.012634
30888.001117	1188.969000	922.028320	-9.820230
30888.001117	1188.969000	920.849609	9.987553
30888.001117	1188.969000	919.669922	12.754371
30888.001117	1188.969000	919.474609	43.978287
30888.001117	1188.969000	918.309570	29.392139
30888.001117	1188.969000	917.143555	65.148918
30888.001117	1188.969000	915.977539	-130.181702
30888.001117	1188.969000	914.810547	1.649295
30888.001117	1188.969000	913.644531	-28.948372
30888.001117	1188.969000	912.477539	-137.274704
30888.001117	1188.969000	911.310547	-62.689213
30888.001117	1188.969000	910.143555	39.285805
30888.001117	1188.969000	908.975586	70.380768
30888.001117	1188.969000	907.807617	16.930017
30888.001117	1188.969000	906.639648	235.299423
30888.001117	1188.969000	905.471680	31.108294
30888.001117	1188.969000	904.303711	7.363101
30888.001117	1188.969000	903.134766	11.016884
30888.001117	1188.969000	901.965820	94.541679
30888.001117	1188.969000	900.796875	159.773560
30888.001117	1188.969000	899.626953	104.068848
30888.001117	1188.969000	898.457031	192.072922
30888.001117	1188.969000	897.287109	209.346466
30888.001117	1188.969000	896.117188	-44.696869
30888.001117	1188.969000	894.947266	123.050957
30888.001117	1188.969000	893.776367	163.106873
30888.001117	1188.969000	892.605469	102.889694
30888.001117	1188.969000	891.434570	222.656342
30888.001117	1188.969000	890.262695	219.384644
30888.001117	1188.969000	889.091797	129.578690
30888.001117	1188.969000	887.919922	167.299484
30888.001117	1188.969000	886.748047	2.422401
30888.001117	1188.969000	885.575195	115.246529
30888.001117	1188.969000	884.403320	125.633835
30888.001117	1188.969000	883.230469	249.753235
30888.001117	1188.969000	882.057617	107.725662
30888.001117	1188.969000	880.883789	-61.530663
30888.001117	1188.969000	879.710938	142.109406
30888.001117	1188.969000	878.537109	47.914333
30888.001117	1188.969000	877.362305	-134.868774
30888.001117	1188.969000	876.188477	80.014137
30888.001117	1188.969000	875.013672	108.543907
30888.001117	1188.969000	873.839844	78.009277
30888.001117	1188.969000	872.664063	86.088486
30888.001117	1188.969000	871.489258	-23.887417
30888.001117	1188.969000	870.313477	-22.606100
30888.001117	1188.969000	869.138672	-66.713882
30888.001117	1188.969000	867.962891	-49.549831
30888.001117	1188.969000	866.786133	-104.977730
30888.001117	1188.969000	865.610352	-90.086784
30888.001117	1188.969000	864.433594	15.490466
30888.001117	1188.969000	863.256836	-194.073807
30888.001117	1188.969000	862.079102	-43.195034
30888.001117	1188.969000	860.902344	-1.148442
30888.001117	1188.969000	859.724609	106.577896
30888.001117	1188.969000	858.546875	-21.304291
30888.001117	1188.969000	857.368164	124.874474
30888.001117	1188.969000	856.190430	-0.702037
30888.001117	1188.969000	855.011719	-17.575174
30888.001117	1188.969000	853.833008	62.870094
30888.001117	1188.969000	852.654297	102.550179
30888.001117	1188.969000	851.474609	74.345459
30888.001117	1188.969000	850.294922	32.577984
30888.001117	1188.969000	849.115234	-11.438389
30888.001117	1188.969000	847.935547	86.991539
30888.001117	1188.969000	846.754883	-27.096138
30888.001117	1188.969000	845.575195	-68.826233
30888.001117	1188.969000	844.393555	-115.058990
30888.001117	1188.969000	843.212891	-57.367058
30888.001117	1188.969000	842.032227	-92.302254
30888.001117	1188.969000	840.850586	-66.259697
30888.001117	1188.969000	839.668945	131.342911
30888.001117	1188.969000	838.486328	-120.304123
30888.001117	1188.969000	837.304688	-288.359772
30888.001117	1188.969000	836.122070	-97.617058
30888.001117	1188.969000	834.939453	-164.110916
30888.001117	1188.969000	833.756836	60.344032
30888.001117	1188.969000	832.573242	-220.370560
30888.001117	1188.969000	831.389648	-20.804731
30888.001117	1188.969000	830.206055	-159.407425
30888.001117	1188.969000	829.022461	-47.833149
30888.001117	1188.969000	827.838867	2.858793
30888.001117	1188.969000	826.654297	-169.470016
30888.001117	1188.969000	825.469727	68.128922
30888.001117	1188.969000	824.284180	114.243233
30888.001117	1188.969000	823.099609	43.272118
30888.001117	1188.969000	821.914063	125.365181
30888.001117	1188.969000	820.728516	94.908417
30888.001117	1188.969000	819.542969	-41.280083
30888.001117	1188.969000	818.356445	-118.940384
30888.001117	1188.969000	817.169922	181.212921
30888.001117	1188.969000	815.983398	285.630737
30888.001117	1188.969000	814.796875	-216.917725
30888.001117	1188.969000	813.609375	42.588657
30888.001117	1188.969000	812.422852	-1.356585
30888.001117	1188.969000	811.235352	105.218216
30888.001117	1188.969000	810.046875	110.671112
30888.001117	1188.969000	808.859375	39.760822
30888.001117	1188.969000	807.670898	-42.356014
30888.001117	1188.969000	806.482422	61.848728
30888.001117	1188.969000	805.293945	-22.508104
30888.001117	1188.969000	804.104492	-160.688736
30888.001117	1188.969000	802.915039	30.922359
30888.001117	1188.969000	801.725586	-127.424187
30888.001117	1188.969000	800.536133	140.309357
30888.001117	1188.969000	799.345703	103.035492
30888.001117	1188.969000	798.155273	-86.648293
30888.001117	1188.969000	796.964844	68.824532
30888.001117	1188.969000	795.774414	136.841278
30888.001117	1188.969000	794.583008	-115.495667
30888.001117	1188.969000	793.392578	51.035030
30888.001117	1188.969000	792.200195	-8.656270
30888.001117	1188.969000	791.008789	90.594482
30888.001117	1188.969000	789.816406	12.979629
30888.001117	1188.969000	788.625000	114.386620
30888.001117	1188.969000	787.432617	43.473549
30888.001117	1188.969000	786.239258	6.122760
30888.001117	1188.969000	785.046875	53.742790
30888.001117	1188.969000	783.853516	-41.763752
30888.001117	1188.969000	782.660156	128.749573
30888.001117	1188.969000	781.465820	89.098282
30888.001117	1188.969000	780.272461	20.393677
30888.001117	1188.969000	779.078125	146.047470
30888.001117	1188.969000	777.883789	224.724731
30888.001117	1188.969000	776.688477	-38.297703
30888.001117	1188.969000	775.494141	38.106735
30888.001117	1188.969000	774.298828	201.507324
30888.001117	1188.969000	773.103516	59.088215
30888.001117	1188.969000	771.907227	148.742386
30888.001117	1188.969000	770.711914	117.876793
30888.001117	1188.969000	769.515625	287.717804
30888.001117	1188.969000	768.318359	205.503601
30888.001117	1188.969000	767.122070	18.520227
30888.001117	1188.969000	765.924805	21.037315
30888.001117	1188.969000	764.727539	72.549194
30888.001117	1188.969000	763.530273	224.266312
30888.001117	1188.969000	762.333008	253.384003
30888.001117	1188.969000	761.134766	351.497650
30888.001117	1188.969000	759.936523	460.672913
30888.001117	1188.969000	758.738281	262.580750
30888.001117	1188.969000	757.540039	349.412994
30888.001117	1188.969000	756.340820	393.902191
30888.001117	1188.969000	755.141602	273.717590
30888.001117	1188.969000	753.942383	255.863602
30888.001117	1188.969000	752.742188	311.367035
30888.001117	1188.969000	751.541992	248.982758
30888.001117	1188.969000	750.341797	226.600372
30888.001117	1188.969000	749.141602	177.525024
30888.001117	1188.969000	747.941406	159.541901
30888.001117	1188.969000	746.740234	372.556061
30888.001117	1188.969000	745.539063	476.620331
30888.001117	1188.969000	744.337891	243.093613
30888.001117	1188.969000	743.135742	211.648926
30888.001117	1188.969000	741.933594	335.547211
30888.001117	1188.969000	740.731445	297.363159
30888.001117	1188.969000	739.529297	241.407761
30888.001117	1188.969000	738.326172	285.253906
30888.001117	1188.969000	737.124023	271.381714
30888.001117	1188.969000	735.919922	197.610840
30888.001117	1188.969000	734.716797	292.303741
30888.001117	1188.969000	733.513672	373.617767
30888.001117	1188.969000	732.309570	253.215881
30888.001117	1188.969000	731.105469	310.051697
30888.001117	1188.969000	729.900391	333.597260
30888.001117	1188.969000	728.696289	253.010452
30888.001117	1188.969000	727.491211	307.466797
30888.001117	1188.969000	726.286133	293.236908
30888.001117	1188.969000	725.080078	276.754578
30888.001117	1188.969000	723.874023	235.895523
30888.001117	1188.969000	722.668945	334.371460
30888.001117	1188.969000	721.461914	185.052979
30888.001117	1188.969000	720.255859	179.478210
30888.001117	1188.969000	719.048828	78.796783
30888.001117	1188.969000	717.841797	75.361107
30888.001117	1188.969000	716.634766	162.480774
30888.001117	1188.969000	715.427734	209.746140
30888.001117	1188.969000	714.219727	139.871460
30888.001117	1188.969000	713.011719	52.307980
30888.001117	1188.969000	711.803711	132.536194
30888.001117	1188.969000	710.594727	2.966541
30888.001117	1188.969000	709.385742	56.583599
30888.001117	1188.969000	708.176758	101.300003
30888.001117	1188.969000	706.967773	48.876057
30888.001117	1188.969000	705.758789	108.908981
30888.001117	1188.969000	704.548828	65.219208
30888.001117	1188.969000	703.338867	268.422882
30888.001117	1188.969000	702.127930	235.629868
30888.001117	1188.969000	700.917969	176.351059
30888.001117	1188.969000	699.707031	209.581024
30888.001117	1188.969000	698.496094	125.989349
30888.001117	1188.969000	697.285156	132.674744
30888.001117	1188.969000	696.073242	55.626308
30888.001117	1188.969000	694.861328	95.232033
30888.001117	1188.969000	693.649414	189.788422
30888.001117	1188.969000	692.436523	211.628204
30888.001117	1188.969000	691.224609	211.400223
30888.001117	1188.969000	690.011719	270.503174
30888.001117	1188.969000	688.798828	289.936646
30888.001117	1188.969000	687.584961	186.173355
30888.001117	1188.969000	686.372070	238.470947
30888.001117	1188.969000	685.158203	240.135986
30888.001117	1188.969000	683.943359	314.250061
30888.001117	1188.969000	682.729492	315.777161
30888.001117	1188.969000	681.514648	424.864441
30888.001117	1188.969000	680.299805	386.715973
30888.001117	1188.969000	679.084961	484.641541
30888.001117	1188.969000	677.869141	470.516388
30888.001117	1188.969000	676.653320	445.362152
30888.001117	1188.969000	675.437500	310.451050
30888.001117	1188.969000	674.221680	528.707153
30888.001117	1188.969000	673.004883	444.150116
30888.001117	1188.969000	671.789063	405.613037
30888.001117	1188.969000	670.571289	395.524750
30888.001117	1188.969000	669.354492	293.323242
30888.001117	1188.969000	668.136719	316.003845
30888.001117	1188.969000	666.919922	270.695587
30888.001117	1188.969000	665.701172	238.480423
30888.001117	1188.969000	664.483398	247.824432
30888.001117	1188.969000	663.264648	397.223541
30888.001117	1188.969000	662.045898	255.356857
30888.001117	1188.969000	660.827148	411.126129
30888.001117	1188.969000	659.608398	400.470245
30888.001117	1188.969000	658.388672	363.499695
30888.001117	1188.969000	657.168945	304.607208
30888.001117	1188.969000	655.949219	383.435822
30888.001117	1188.969000	654.728516	250.098297
30888.001117	1188.969000	653.507813	156.095047
30888.001117	1188.969000	652.287109	298.078888
30888.001117	1188.969000	651.066406	376.576202
30888.001117	1188.969000	649.844727	365.412079
30888.001117	1188.969000	648.623047	338.899109
30888.001117	1188.969000	647.401367	255.561325
30888.001117	1188.969000	646.179688	185.290894
30888.001117	1188.969000	644.957031	206.648071
30888.001117	1188.969000	643.734375	339.216278
30888.001117	1188.969000	642.511719	375.671448
30888.001117	1188.969000	641.289063	228.828629
30888.001117	1188.969000	640.065430	265.157654
30888.001117	1188.969000	638.841797	137.888672
30888.001117	1188.969000	637.618164	191.529221
30888.001117	1188.969000	636.393555	275.589050
30888.001117	1188.969000	635.168945	320.329254
30888.001117	1188.969000	633.944336	297.455658
30888.001117	1188.969000	632.719727	307.196106
30888.001117	1188.969000	631.494141	221.056778
30888.001117	1188.969000	630.269531	221.973404
30888.001117	1188.969000	629.042969	327.292450
30888.001117	1188.969000	627.817383	214.899582
30888.001117	1188.969000	626.590820	161.229050
30888.001117	1188.969000	625.365234	303.286407
30888.001117	1188.969000	624.137695	292.984985
30888.001117	1188.969000	622.911133	232.622253
30888.001117	1188.969000	621.683594	448.288910
30888.001117	1188.969000	620.456055	298.686310
30888.001117	1188.969000	619.228516	186.024933
30888.001117	1188.969000	618.000977	218.901474
30888.001117	1188.969000	616.772461	303.826141
30888.001117	1188.969000	615.543945	204.080719
30888.001117	1188.969000	614.314453	93.459534
30888.001117	1188.969000	613.085938	158.645065
30888.001117	1188.969000	611.856445	147.788467
30888.001117	1188.969000	610.626953	63.111675
30888.001117	1188.969000	609.397461	56.504017
30888.001117	1188.969000	608.166992	138.755829
30888.001117	1188.969000	606.936523	-26.261818
30888.001117	1188.969000	605.706055	25.513788
30888.001117	1188.969000	604.474609	-52.830681
30888.001117	1188.969000	603.244141	85.495491
30888.001117	1188.969000	602.012695	-31.929312
30888.001117	1188.969000	600.780273	47.739819
30888.001117	1188.969000	599.548828	14.723583
30888.001117	1188.969000	598.316406	48.781837
30888.001117	1188.969000	597.083984	15.675300
30888.001117	1188.969000	595.851563	-13.138132
30888.001117	1188.969000	594.618164	-117.718895
30888.001117	1188.969000	593.384766	-118.469666
30888.001117	1188.969000	592.151367	-8.968128
30888.001117	1188.969000	590.917969	-55.240681
30888.001117	1188.969000	589.683594	15.194675
30888.001117	1188.969000	588.449219	9.909600
30888.001117	1188.969000	587.214844	6.745928
30888.001117	1188.969000	585.979492	150.444901
30888.001117	1188.969000	584.745117	255.167755
30888.001117	1188.969000	583.509766	165.448181
30888.001117	1188.969000	582.273438	49.815540
30888.001117	1188.969000	581.038086	-85.227417
30888.001117	1188.969000	579.801758	60.300186
30888.001117	1188.969000	578.565430	-7.876262
30888.001117	1188.969000	577.329102	31.802517
30888.001117	1188.969000	576.091797	172.792572
30888.001117	1188.969000	574.854492	33.376045
30888.001117	1188.969000	573.617188	118.192863
30888.001117	1188.969000	572.378906	239.580414
30888.001117	1188.969000	571.141602	54.899891
30888.001117	1188.969000	569.903320	206.356598
30888.001117	1188.969000	568.664063	310.331635
30888.001117	1188.969000	567.425781	269.958405
30888.001117	1188.969000	566.186523	164.983124
30888.001117	1188.969000	564.947266	150.440231
30888.001117	1188.969000	563.708008	90.689003
30888.001117	1188.969000	562.467773	125.613251
30888.001117	1188.969000	561.227539	63.701107
30888.001117	1188.969000	559.987305	12.553619
30888.001117	1188.969000	558.747070	144.188354
30888.001117	1188.969000	557.505859	56.466175
30888.001117	1188.969000	556.264648	230.993515
30888.001117	1188.969000	555.023438	89.546761
30888.001117	1188.969000	553.781250	-38.962391
30888.001117	1188.969000	552.539063	-100.835663
30888.001117	1188.969000	551.296875	-48.868385
30888.001117	1188.969000	550.054688	-3.368091
30888.001117	1188.969000	548.811523	59.278149
30888.001117	1188.969000	547.569336	-43.351482
30888.001117	1188.969000	546.325195	-51.535572
30888.001117	1188.969000	545.082031	-23.239397
30888.001117	1188.969000	543.837891	75.821449
30888.001117	1188.969000	542.593750	-61.029175
30888.001117	1188.969000	541.349609	-47.743244
30888.001117	1188.969000	540.105469	-66.604752
30888.001117	1188.969000	538.860352	-42.593891
30888.001117	1188.969000	537.615234	-59.287678
30888.001117	1188.969000	536.369141	-65.255119
30888.001117	1188.969000	535.124023	-233.957153
30888.001117	1188.969000	533.877930	-59.997803
30888.001117	1188.969000	532.631836	-125.846199
30888.001117	1188.969000	531.384766	-5.454064
30888.001117	1188.969000	530.138672	-122.594955
30888.001117	1188.969000	528.891602	-68.524590
30888.001117	1188.969000	527.643555	-42.260723
30888.001117	1188.969000	526.396484	-35.220581
30888.001117	1188.969000	525.148438	-32.434155
30888.001117	1188.969000	523.900391	105.040939
30888.001117	1188.969000	522.652344	80.080429
30888.001117	1188.969000	521.403320	-132.852646
30888.001117	1188.969000	520.154297	-46.609943
30888.001117	1188.969000	518.905273	82.346375
30888.001117	1188.969000	517.656250	74.638603
30888.001117	1188.969000	516.406250	197.186935
30888.001117	1188.969000	515.156250	277.041901
30888.001117	1188.969000	513.906250	205.410263
30888.001117	1188.969000	512.655273	131.718658
30888.001117	1188.969000	511.404297	354.573639
30888.001117	1188.969000	510.153320	432.380646
30888.001117	1188.969000	508.902344	448.380096
30888.001117	1188.969000	507.650391	400.478241
30888.001117	1188.969000	506.398438	288.721832
30888.001117	1188.969000	505.146484	255.901031
30888.001117	1188.969000	503.893555	263.620453
30888.001117	1188.969000	502.641602	162.789886
30888.001117	1188.969000	501.388672	138.710709
30888.001117	1188.969000	500.134766	131.730759
30888.001117	1188.969000	498.881836	31.179445
30888.001117	1188.969000	497.627930	-216.084534
30888.001117	1188.969000	496.374023	19.733599
30888.001117	1188.969000	495.119141	-108.182289
30888.001117	1188.969000	493.865234	-59.474529
30888.001117	1188.969000	492.610352	-53.238182
30888.001117	1188.969000	491.355469	-36.303837
30888.001117	1188.969000	490.099609	16.820618
30888.001117	1188.969000	488.843750	-57.477333
30888.001117	1188.969000	487.587891	-72.189651
30888.001117	1188.969000	486.332031	97.943611
30888.001117	1188.969000	485.075195	6.923452
30888.001117	1188.969000	483.818359	-52.135029
30888.001117	1188.969000	482.561523	-174.754715
30888.001117	1188.969000	481.304688	-27.762774
30888.001117	1188.969000	480.046875	-71.679108
30888.001117	1188.969000	478.789063	-121.853912
30888.001117	1188.969000	477.531250	-93.462639
30888.001117	1188.969000	476.272461	7.080794
30888.001117	1188.969000	475.013672	103.430214
30888.001117	1188.969000	473.754883	-22.680323
30888.001117	1188.969000	472.496094	109.828384
30888.001117	1188.969000	471.236328	-9.698277
30888.001117	1188.969000	469.976563	-44.373119
30888.001117	1188.969000	468.716797	113.730507
30888.001117	1188.969000	467.456055	227.401367
30888.001117	1188.969000	466.196289	97.734261
30888.001117	1188.969000	464.935547	99.399582
30888.001117	1188.969000	463.673828	77.883469
30888.001117	1188.969000	462.413086	187.601349
30888.001117	1188.969000	461.151367	191.634430
30888.001117	1188.969000	459.889648	28.744663
30888.001117	1188.969000	458.626953	-11.394014
30888.001117	1188.969000	457.364258	77.479523
30888.001117	1188.969000	456.101563	-30.077080
30888.001117	1188.969000	454.838867	80.066483
30888.001117	1188.969000	453.575195	50.871628
30888.001117	1188.969000	452.312500	-35.225666
30888.001117	1188.969000	451.047852	-40.986778
30888.001117	1188.969000	449.784180	-143.736191
30888.001117	1188.969000	448.519531	-5.818546
30888.001117	1188.969000	447.254883	102.592247
30888.001117	1188.969000	445.990234	46.532440
30888.001117	1188.969000	444.725586	22.209541
30888.001117	1188.969000	443.459961	128.682220
30888.001117	1188.969000	442.194336	-17.735418
30888.001117	1188.969000	440.927734	-41.792488
30888.001117	1188.969000	439.662109	-21.519939
30888.001117	1188.969000	438.395508	70.431877
30888.001117	1188.969000	437.127930	128.720505
30888.001117	1188.969000	435.861328	98.626175
30888.001117	1188.969000	434.593750	93.870018
30888.001117	1188.969000	433.326172	167.046875
30888.001117	1188.969000	432.058594	135.050293
30888.001117	1188.969000	430.790039	54.742180
30888.001117	1188.969000	429.521484	123.846588
30888.001117	1188.969000	428.252930	134.096878
30888.001117	1188.969000	426.984375	-59.525726
30888.001117	1188.969000	425.714844	37.023201
30888.001117	1188.969000	424.445313	13.795443
30888.001117	1188.969000	423.174805	-26.194199
30888.001117	1188.969000	421.905273	68.291122
30888.001117	1188.969000	420.634766	59.864449
30888.001117	1188.969000	419.364258	-26.218307
30888.001117	1188.969000	418.092773	-11.492902
30888.001117	1188.969000	416.822266	17.927874
30888.001117	1188.969000	415.550781	156.444397
30888.001117	1188.969000	414.278320	47.374676
30888.001117	1188.969000	413.006836	-32.291290
30888.001117	1188.969000	411.734375	22.257790
30888.001117	1188.969000	410.461914	7.586687
30888.001117	1188.969000	409.188477	66.251694
30888.001117	1188.969000	407.916016	7.516794
30888.001117	1188.969000	406.642578	149.882568
30888.001117	1188.969000	405.368164	-103.719124
30888.001117	1188.969000	404.094727	180.902313
30888.001117	1188.969000	402.820313	124.082825
30888.001117	1188.969000	401.545898	86.054901
30888.001117	1188.969000	400.270508	37.500008
30888.001117	1188.969000	398.996094	57.920986
30888.001117	1188.969000	397.720703	82.417770
30888.001117	1188.969000	396.444336	106.795029
30888.001117	1188.969000	395.168945	-32.041595
30888.001117	1188.969000	393.892578	102.895058
30888.001117	1188.969000	392.616211	131.047623
30888.001117	1188.969000	391.339844	16.952566
30888.001117	1188.969000	390.062500	122.093201
30888.001117	1188.969000	388.785156	87.080360
30888.001117	1188.969000	387.507813	187.626205
30888.001117	1188.969000	386.229492	244.088013
30888.001117	1188.969000	384.951172	195.953293
30888.001117	1188.969000	383.672852	-40.192852
30888.001117	1188.969000	382.394531	270.140961
30888.001117	1188.969000	381.115234	244.262390
30888.001117	1188.969000	379.835938	324.484650
30888.001117	1188.969000	378.556641	277.209595
30888.001117	1188.969000	377.277344	329.715057
30888.001117	1188.969000	375.997070	281.848114
30888.001117	1188.969000	374.716797	229.506546
30888.001117	1188.969000	373.435547	310.160004
30888.001117	1188.969000	372.155273	457.066254
30888.001117	1188.969000	370.874023	603.524475
30888.001117	1188.969000	369.591797	610.037048
30888.001117	1188.969000	368.310547	616.134399
30888.001117	1188.969000	367.028320	463.642273
30888.001117	1188.969000	365.746094	491.757355
30888.001117	1188.969000	364.463867	359.227386
30888.001117	1188.969000	363.180664	313.591156
30888.001117	1188.969000	361.897461	454.573090
30888.001117	1188.969000	360.614258	297.712738
30888.001117	1188.969000	359.330078	15.661271
30888.001117	1188.969000	358.045898	24.025888
30888.001117	1188.969000	356.761719	38.009533
30888.001117	1188.969000	355.477539	78.352676
30888.001117	1188.969000	354.192383	97.247673
30888.001117	1188.969000	352.907227	1.276715
30888.001117	1188.969000	351.622070	-41.400158
30888.001117	1188.969000	350.336914	162.128922
30888.001117	1188.969000	349.050781	107.552612
30888.001117	1188.969000	347.764648	4.503916
30888.001117	1188.969000	346.477539	78.998978
30888.001117	1188.969000	345.191406	-40.180084
30888.001117	1188.969000	343.904297	36.707703
30888.001117	1188.969000	342.616211	-142.253586
30888.001117	1188.969000	341.329102	-168.749695
30888.001117	1188.969000	340.041016	68.910652
30888.001117	1188.969000	338.752930	11.388831
30888.001117	1188.969000	337.463867	6.664144
30888.001117	1188.969000	336.175781	11.233556
30888.001117	1188.969000	334.886719	-86.738373
30888.001117	1188.969000	333.596680	-88.588326
30888.001117	1188.969000	332.307617	-143.319138
30888.001117	1188.969000	331.017578	-37.950085
30888.001117	1188.969000	329.727539	30.958132
30888.001117	1188.969000	328.436523	-29.662722
30888.001117	1188.969000	327.146484	-209.385056
30888.001117	1188.969000	325.855469	-18.485754
30888.001117	1188.969000	324.563477	-54.312870
30888.001117	1188.969000	323.272461	-85.369316
30888.001117	1188.969000	321.980469	-126.215019
30888.001117	1188.969000	320.688477	29.598894
30888.001117	1188.969000	319.395508	-41.283798
30888.001117	1188.969000	318.103516	-165.348328
30888.001117	1188.969000	316.810547	39.027489
30888.001117	1188.969000	315.516602	-51.389606
30888.001117	1188.969000	314.223633	7.020414
30888.001117	1188.969000	312.929688	-16.897741
30888.001117	1188.969000	311.635742	-55.077847
30888.001117	1188.969000	310.340820	-60.203205
30888.001117	1188.969000	309.045898	41.868687
30888.001117	1188.969000	307.750977	172.730301
30888.001117	1188.969000	306.456055	62.491116
30888.001117	1188.969000	305.160156	15.964475
30888.001117	1188.969000	303.865234	123.730370
30888.001117	1188.969000	302.568359	457.516357
30888.001117	1188.969000	301.272461	319.656433
30888.001117	1188.969000	299.975586	411.861145
30888.001117	1188.969000	298.678711	483.021667
