#X		#Y		#Wave		#Intensity
31180.951117	1123.063667	1999.980469	228.179184
31180.951117	1123.063667	1999.016602	-307.861359
31180.951117	1123.063667	1998.052734	-13.814669
31180.951117	1123.063667	1997.087891	-44.681469
31180.951117	1123.063667	1996.123047	-16.239487
31180.951117	1123.063667	1995.158203	-161.372620
31180.951117	1123.063667	1994.193359	129.301697
31180.951117	1123.063667	1993.228516	35.896332
31180.951117	1123.063667	1992.262695	-50.184662
31180.951117	1123.063667	1991.297852	19.575815
31180.951117	1123.063667	1990.332031	-98.909508
31180.951117	1123.063667	1989.366211	57.190132
31180.951117	1123.063667	1988.399414	262.597046
31180.951117	1123.063667	1987.433594	215.511429
31180.951117	1123.063667	1986.466797	-4.775624
31180.951117	1123.063667	1985.500977	205.149139
31180.951117	1123.063667	1984.534180	53.966728
31180.951117	1123.063667	1983.567383	-23.099604
31180.951117	1123.063667	1982.599609	18.396662
31180.951117	1123.063667	1981.632813	148.742081
31180.951117	1123.063667	1980.665039	-148.403091
31180.951117	1123.063667	1979.697266	36.113953
31180.951117	1123.063667	1978.729492	166.165802
31180.951117	1123.063667	1977.761719	86.245056
31180.951117	1123.063667	1976.792969	77.881065
31180.951117	1123.063667	1975.825195	15.165214
31180.951117	1123.063667	1974.856445	-32.771114
31180.951117	1123.063667	1973.887695	-162.154312
31180.951117	1123.063667	1972.918945	-158.334152
31180.951117	1123.063667	1971.949219	35.341938
31180.951117	1123.063667	1970.980469	-94.105042
31180.951117	1123.063667	1970.010742	57.506077
31180.951117	1123.063667	1969.041016	191.775742
31180.951117	1123.063667	1968.071289	150.997177
31180.951117	1123.063667	1967.101563	43.683273
31180.951117	1123.063667	1966.130859	-144.904831
31180.951117	1123.063667	1965.161133	102.506531
31180.951117	1123.063667	1964.190430	128.183533
31180.951117	1123.063667	1963.219727	-77.599014
31180.951117	1123.063667	1962.249023	58.850960
31180.951117	1123.063667	1961.277344	281.382935
31180.951117	1123.063667	1960.306641	-47.373348
31180.951117	1123.063667	1959.334961	91.437584
31180.951117	1123.063667	1958.363281	23.572552
31180.951117	1123.063667	1957.391602	54.107929
31180.951117	1123.063667	1956.419922	288.720581
31180.951117	1123.063667	1955.447266	48.778030
31180.951117	1123.063667	1954.474609	81.764290
31180.951117	1123.063667	1953.501953	-248.963348
31180.951117	1123.063667	1952.529297	-95.519356
31180.951117	1123.063667	1951.556641	-8.448965
31180.951117	1123.063667	1950.583984	90.884163
31180.951117	1123.063667	1949.610352	-77.473198
31180.951117	1123.063667	1948.636719	-44.422298
31180.951117	1123.063667	1947.663086	18.089962
31180.951117	1123.063667	1946.689453	21.695709
31180.951117	1123.063667	1945.715820	165.189117
31180.951117	1123.063667	1944.741211	90.300270
31180.951117	1123.063667	1943.767578	-65.486290
31180.951117	1123.063667	1942.792969	9.343096
31180.951117	1123.063667	1941.818359	57.196102
31180.951117	1123.063667	1940.842773	136.929611
31180.951117	1123.063667	1939.868164	-204.934219
31180.951117	1123.063667	1938.892578	68.472694
31180.951117	1123.063667	1937.916992	-123.732361
31180.951117	1123.063667	1936.941406	100.618202
31180.951117	1123.063667	1935.965820	16.304228
31180.951117	1123.063667	1934.990234	115.711937
31180.951117	1123.063667	1934.013672	82.903053
31180.951117	1123.063667	1933.037109	-37.988968
31180.951117	1123.063667	1932.060547	88.387749
31180.951117	1123.063667	1931.083984	-76.445068
31180.951117	1123.063667	1930.107422	47.506931
31180.951117	1123.063667	1929.129883	205.691101
31180.951117	1123.063667	1928.153320	87.488525
31180.951117	1123.063667	1927.175781	101.402122
31180.951117	1123.063667	1926.198242	7.774694
31180.951117	1123.063667	1925.219727	46.205875
31180.951117	1123.063667	1924.242188	-123.072113
31180.951117	1123.063667	1923.263672	125.559875
31180.951117	1123.063667	1922.285156	217.784210
31180.951117	1123.063667	1921.306641	19.353580
31180.951117	1123.063667	1920.328125	-44.662964
31180.951117	1123.063667	1919.349609	40.307503
31180.951117	1123.063667	1918.370117	30.076412
31180.951117	1123.063667	1917.391602	-11.851304
31180.951117	1123.063667	1916.412109	-36.651291
31180.951117	1123.063667	1915.431641	-66.291718
31180.951117	1123.063667	1914.452148	-120.286499
31180.951117	1123.063667	1913.472656	23.308479
31180.951117	1123.063667	1912.492188	-8.682717
31180.951117	1123.063667	1911.511719	130.018188
31180.951117	1123.063667	1910.531250	-50.612904
31180.951117	1123.063667	1909.550781	-60.562042
31180.951117	1123.063667	1908.569336	-97.282539
31180.951117	1123.063667	1907.588867	43.865387
31180.951117	1123.063667	1906.607422	-85.368927
31180.951117	1123.063667	1905.625977	-136.606949
31180.951117	1123.063667	1904.644531	-260.846619
31180.951117	1123.063667	1903.662109	111.570045
31180.951117	1123.063667	1902.680664	-73.474373
31180.951117	1123.063667	1901.698242	213.638672
31180.951117	1123.063667	1900.715820	140.595078
31180.951117	1123.063667	1899.733398	-170.782898
31180.951117	1123.063667	1898.750000	-170.733810
31180.951117	1123.063667	1897.767578	-41.802132
31180.951117	1123.063667	1896.784180	174.616074
31180.951117	1123.063667	1895.800781	-7.654822
31180.951117	1123.063667	1894.817383	41.017868
31180.951117	1123.063667	1893.833984	-73.107201
31180.951117	1123.063667	1892.850586	-90.009682
31180.951117	1123.063667	1891.866211	29.115738
31180.951117	1123.063667	1890.881836	41.356945
31180.951117	1123.063667	1889.897461	-60.510883
31180.951117	1123.063667	1888.913086	264.890930
31180.951117	1123.063667	1887.927734	-84.522995
31180.951117	1123.063667	1886.943359	32.085312
31180.951117	1123.063667	1885.958008	214.157623
31180.951117	1123.063667	1884.972656	-67.132339
31180.951117	1123.063667	1883.987305	-195.532959
31180.951117	1123.063667	1883.001953	-93.541595
31180.951117	1123.063667	1882.015625	-71.591377
31180.951117	1123.063667	1881.029297	15.788227
31180.951117	1123.063667	1880.042969	326.075378
31180.951117	1123.063667	1879.056641	15.976738
31180.951117	1123.063667	1878.070313	3.945075
31180.951117	1123.063667	1877.083984	-73.487770
31180.951117	1123.063667	1876.096680	-121.841934
31180.951117	1123.063667	1875.109375	-145.981888
31180.951117	1123.063667	1874.122070	-24.891401
31180.951117	1123.063667	1873.134766	-7.930280
31180.951117	1123.063667	1872.146484	100.958389
31180.951117	1123.063667	1871.159180	158.979843
31180.951117	1123.063667	1870.170898	79.088104
31180.951117	1123.063667	1869.182617	-211.192535
31180.951117	1123.063667	1868.194336	-153.210159
31180.951117	1123.063667	1867.205078	301.188690
31180.951117	1123.063667	1866.216797	-5.965386
31180.951117	1123.063667	1865.227539	15.619309
31180.951117	1123.063667	1864.238281	-59.477180
31180.951117	1123.063667	1863.249023	-64.522881
31180.951117	1123.063667	1862.259766	-38.201824
31180.951117	1123.063667	1861.269531	106.399002
31180.951117	1123.063667	1860.279297	316.095123
31180.951117	1123.063667	1859.290039	117.738297
31180.951117	1123.063667	1858.298828	-49.204174
31180.951117	1123.063667	1857.308594	61.359112
31180.951117	1123.063667	1856.318359	89.815720
31180.951117	1123.063667	1855.327148	84.452469
31180.951117	1123.063667	1854.335938	59.755989
31180.951117	1123.063667	1853.344727	-215.732147
31180.951117	1123.063667	1852.353516	-52.426426
31180.951117	1123.063667	1851.362305	103.539909
31180.951117	1123.063667	1850.370117	300.364594
31180.951117	1123.063667	1849.377930	285.047211
31180.951117	1123.063667	1848.385742	74.565857
31180.951117	1123.063667	1847.393555	95.315651
31180.951117	1123.063667	1846.401367	75.066704
31180.951117	1123.063667	1845.408203	33.102436
31180.951117	1123.063667	1844.415039	390.661987
31180.951117	1123.063667	1843.421875	283.558441
31180.951117	1123.063667	1842.428711	243.806091
31180.951117	1123.063667	1841.435547	278.581329
31180.951117	1123.063667	1840.441406	229.098007
31180.951117	1123.063667	1839.448242	76.162674
31180.951117	1123.063667	1838.454102	81.903519
31180.951117	1123.063667	1837.459961	109.209549
31180.951117	1123.063667	1836.464844	295.060944
31180.951117	1123.063667	1835.470703	403.876221
31180.951117	1123.063667	1834.475586	209.864075
31180.951117	1123.063667	1833.480469	47.078861
31180.951117	1123.063667	1832.485352	-26.860552
31180.951117	1123.063667	1831.490234	357.770203
31180.951117	1123.063667	1830.495117	-4.435411
31180.951117	1123.063667	1829.499023	226.274872
31180.951117	1123.063667	1828.502930	132.848389
31180.951117	1123.063667	1827.506836	168.940201
31180.951117	1123.063667	1826.510742	221.727859
31180.951117	1123.063667	1825.513672	195.265060
31180.951117	1123.063667	1824.517578	-47.091412
31180.951117	1123.063667	1823.520508	202.051178
31180.951117	1123.063667	1822.523438	125.009857
31180.951117	1123.063667	1821.526367	189.310867
31180.951117	1123.063667	1820.529297	311.005859
31180.951117	1123.063667	1819.531250	63.623684
31180.951117	1123.063667	1818.533203	233.019882
31180.951117	1123.063667	1817.535156	311.255890
31180.951117	1123.063667	1816.537109	185.847290
31180.951117	1123.063667	1815.539063	417.084076
31180.951117	1123.063667	1814.540039	9.084553
31180.951117	1123.063667	1813.541992	254.432236
31180.951117	1123.063667	1812.542969	68.928200
31180.951117	1123.063667	1811.543945	194.369141
31180.951117	1123.063667	1810.543945	47.012707
31180.951117	1123.063667	1809.544922	224.815308
31180.951117	1123.063667	1808.544922	129.901505
31180.951117	1123.063667	1807.544922	6.237424
31180.951117	1123.063667	1806.544922	178.855377
31180.951117	1123.063667	1805.544922	160.152939
31180.951117	1123.063667	1804.544922	365.911499
31180.951117	1123.063667	1803.543945	74.678169
31180.951117	1123.063667	1802.542969	196.577835
31180.951117	1123.063667	1801.541992	416.212250
31180.951117	1123.063667	1800.541016	299.069885
31180.951117	1123.063667	1799.539063	105.484627
31180.951117	1123.063667	1798.538086	267.412354
31180.951117	1123.063667	1797.536133	216.830093
31180.951117	1123.063667	1796.534180	278.264832
31180.951117	1123.063667	1795.532227	177.390656
31180.951117	1123.063667	1794.529297	300.573242
31180.951117	1123.063667	1793.527344	-26.972517
31180.951117	1123.063667	1792.524414	41.151241
31180.951117	1123.063667	1791.521484	152.026840
31180.951117	1123.063667	1790.518555	250.831406
31180.951117	1123.063667	1789.514648	239.897919
31180.951117	1123.063667	1788.511719	233.616272
31180.951117	1123.063667	1787.507813	203.401901
31180.951117	1123.063667	1786.503906	-219.754044
31180.951117	1123.063667	1785.500000	240.243652
31180.951117	1123.063667	1784.496094	-49.724621
31180.951117	1123.063667	1783.491211	-75.588196
31180.951117	1123.063667	1782.486328	195.810623
31180.951117	1123.063667	1781.481445	50.738049
31180.951117	1123.063667	1780.476563	81.577454
31180.951117	1123.063667	1779.471680	152.701508
31180.951117	1123.063667	1778.465820	104.810287
31180.951117	1123.063667	1777.460938	-142.829544
31180.951117	1123.063667	1776.455078	137.033997
31180.951117	1123.063667	1775.449219	-37.120132
31180.951117	1123.063667	1774.442383	42.828632
31180.951117	1123.063667	1773.436523	51.378475
31180.951117	1123.063667	1772.429688	-182.405060
31180.951117	1123.063667	1771.422852	-0.769025
31180.951117	1123.063667	1770.416016	209.155548
31180.951117	1123.063667	1769.409180	105.617477
31180.951117	1123.063667	1768.402344	87.409592
31180.951117	1123.063667	1767.394531	-163.403915
31180.951117	1123.063667	1766.386719	121.773399
31180.951117	1123.063667	1765.378906	29.672869
31180.951117	1123.063667	1764.371094	-34.069839
31180.951117	1123.063667	1763.362305	-55.256161
31180.951117	1123.063667	1762.354492	37.203804
31180.951117	1123.063667	1761.345703	226.644653
31180.951117	1123.063667	1760.336914	271.370697
31180.951117	1123.063667	1759.328125	-74.872917
31180.951117	1123.063667	1758.318359	277.493683
31180.951117	1123.063667	1757.308594	-42.839016
31180.951117	1123.063667	1756.299805	-5.712270
31180.951117	1123.063667	1755.290039	69.134918
31180.951117	1123.063667	1754.279297	84.657387
31180.951117	1123.063667	1753.269531	-58.464718
31180.951117	1123.063667	1752.258789	245.406860
31180.951117	1123.063667	1751.249023	-87.149734
31180.951117	1123.063667	1750.238281	-100.498642
31180.951117	1123.063667	1749.226563	82.244751
31180.951117	1123.063667	1748.215820	-18.843571
31180.951117	1123.063667	1747.204102	43.032730
31180.951117	1123.063667	1746.193359	10.255816
31180.951117	1123.063667	1745.181641	208.862793
31180.951117	1123.063667	1744.168945	-147.782135
31180.951117	1123.063667	1743.157227	107.199089
31180.951117	1123.063667	1742.144531	232.093887
31180.951117	1123.063667	1741.132813	90.083572
31180.951117	1123.063667	1740.120117	30.594769
31180.951117	1123.063667	1739.106445	-95.075592
31180.951117	1123.063667	1738.093750	69.363914
31180.951117	1123.063667	1737.080078	148.691833
31180.951117	1123.063667	1736.067383	27.419817
31180.951117	1123.063667	1735.053711	56.961716
31180.951117	1123.063667	1734.040039	-22.071823
31180.951117	1123.063667	1733.025391	-186.057510
31180.951117	1123.063667	1732.011719	-81.456299
31180.951117	1123.063667	1730.997070	20.616468
31180.951117	1123.063667	1729.982422	-207.253418
31180.951117	1123.063667	1728.967773	123.006912
31180.951117	1123.063667	1727.952148	85.679436
31180.951117	1123.063667	1726.937500	-36.496365
31180.951117	1123.063667	1725.921875	-74.019676
31180.951117	1123.063667	1724.906250	168.396149
31180.951117	1123.063667	1723.890625	-36.445488
31180.951117	1123.063667	1722.875000	-79.009720
31180.951117	1123.063667	1721.858398	-128.743622
31180.951117	1123.063667	1720.841797	-53.944992
31180.951117	1123.063667	1719.825195	-56.876778
31180.951117	1123.063667	1718.808594	5.893418
31180.951117	1123.063667	1717.791992	-189.993988
31180.951117	1123.063667	1716.774414	-183.856613
31180.951117	1123.063667	1715.756836	-58.022911
31180.951117	1123.063667	1714.739258	20.671991
31180.951117	1123.063667	1713.721680	113.315849
31180.951117	1123.063667	1712.704102	13.282563
31180.951117	1123.063667	1711.685547	14.105632
31180.951117	1123.063667	1710.667969	-13.334122
31180.951117	1123.063667	1709.649414	-83.122971
31180.951117	1123.063667	1708.630859	-63.840492
31180.951117	1123.063667	1707.611328	147.658783
31180.951117	1123.063667	1706.592773	-173.382126
31180.951117	1123.063667	1705.573242	-62.980888
31180.951117	1123.063667	1704.553711	80.093910
31180.951117	1123.063667	1703.534180	-257.483887
31180.951117	1123.063667	1702.513672	14.241364
31180.951117	1123.063667	1701.494141	53.818348
31180.951117	1123.063667	1700.473633	-61.340794
31180.951117	1123.063667	1699.453125	-64.135925
31180.951117	1123.063667	1698.432617	-15.514237
31180.951117	1123.063667	1697.412109	-264.337921
31180.951117	1123.063667	1696.390625	88.389168
31180.951117	1123.063667	1695.369141	-15.469690
31180.951117	1123.063667	1694.347656	-60.888004
31180.951117	1123.063667	1693.326172	38.657806
31180.951117	1123.063667	1692.304688	-39.685612
31180.951117	1123.063667	1691.282227	-181.244690
31180.951117	1123.063667	1690.260742	-196.572189
31180.951117	1123.063667	1689.238281	147.989380
31180.951117	1123.063667	1688.214844	-52.235825
31180.951117	1123.063667	1687.192383	-121.602753
31180.951117	1123.063667	1686.168945	-109.276649
31180.951117	1123.063667	1685.146484	-1.258643
31180.951117	1123.063667	1684.123047	-56.853893
31180.951117	1123.063667	1683.099609	104.633018
31180.951117	1123.063667	1682.075195	-161.240143
31180.951117	1123.063667	1681.051758	189.094482
31180.951117	1123.063667	1680.027344	163.502090
31180.951117	1123.063667	1679.002930	56.183331
31180.951117	1123.063667	1677.978516	70.124847
31180.951117	1123.063667	1676.953125	153.936844
31180.951117	1123.063667	1675.928711	165.373489
31180.951117	1123.063667	1674.903320	248.986832
31180.951117	1123.063667	1673.877930	248.586319
31180.951117	1123.063667	1672.852539	187.524857
31180.951117	1123.063667	1671.826172	252.219040
31180.951117	1123.063667	1670.800781	410.015472
31180.951117	1123.063667	1669.774414	257.907104
31180.951117	1123.063667	1668.748047	122.091354
31180.951117	1123.063667	1667.721680	298.235687
31180.951117	1123.063667	1666.694336	362.504486
31180.951117	1123.063667	1665.667969	138.124832
31180.951117	1123.063667	1664.640625	386.095032
31180.951117	1123.063667	1663.613281	138.399994
31180.951117	1123.063667	1662.585938	614.095825
31180.951117	1123.063667	1661.557617	410.507843
31180.951117	1123.063667	1660.530273	427.833435
31180.951117	1123.063667	1659.501953	570.609436
31180.951117	1123.063667	1658.473633	555.240112
31180.951117	1123.063667	1657.444336	679.230225
31180.951117	1123.063667	1656.416016	580.111450
31180.951117	1123.063667	1655.386719	664.465454
31180.951117	1123.063667	1654.358398	804.492981
31180.951117	1123.063667	1653.328125	614.686829
31180.951117	1123.063667	1652.298828	814.922485
31180.951117	1123.063667	1651.269531	866.497620
31180.951117	1123.063667	1650.239258	491.025391
31180.951117	1123.063667	1649.208984	660.872192
31180.951117	1123.063667	1648.178711	628.812073
31180.951117	1123.063667	1647.148438	988.663818
31180.951117	1123.063667	1646.117188	886.904846
31180.951117	1123.063667	1645.086914	722.577271
31180.951117	1123.063667	1644.055664	926.796204
31180.951117	1123.063667	1643.024414	1119.319946
31180.951117	1123.063667	1641.992188	980.406860
31180.951117	1123.063667	1640.960938	1133.411987
31180.951117	1123.063667	1639.928711	1323.373901
31180.951117	1123.063667	1638.896484	1249.264038
31180.951117	1123.063667	1637.864258	962.169678
31180.951117	1123.063667	1636.832031	1348.735229
31180.951117	1123.063667	1635.798828	1288.470825
31180.951117	1123.063667	1634.766602	1205.092896
31180.951117	1123.063667	1633.733398	1283.646118
31180.951117	1123.063667	1632.699219	1551.794067
31180.951117	1123.063667	1631.666016	1466.042114
31180.951117	1123.063667	1630.632813	1470.480957
31180.951117	1123.063667	1629.598633	1421.726318
31180.951117	1123.063667	1628.564453	1419.204468
31180.951117	1123.063667	1627.530273	1543.760986
31180.951117	1123.063667	1626.495117	1411.820068
31180.951117	1123.063667	1625.460938	1781.152954
31180.951117	1123.063667	1624.425781	1753.130371
31180.951117	1123.063667	1623.390625	1628.147461
31180.951117	1123.063667	1622.355469	1648.643188
31180.951117	1123.063667	1621.319336	1643.729736
31180.951117	1123.063667	1620.284180	1708.064819
31180.951117	1123.063667	1619.248047	1871.568115
31180.951117	1123.063667	1618.211914	2023.484131
31180.951117	1123.063667	1617.174805	1963.167358
31180.951117	1123.063667	1616.138672	2038.939331
31180.951117	1123.063667	1615.101563	1971.753052
31180.951117	1123.063667	1614.065430	2236.512451
31180.951117	1123.063667	1613.027344	2358.284424
31180.951117	1123.063667	1611.990234	2438.573730
31180.951117	1123.063667	1610.953125	2534.974365
31180.951117	1123.063667	1609.915039	2562.251221
31180.951117	1123.063667	1608.876953	2723.090088
31180.951117	1123.063667	1607.838867	2789.502197
31180.951117	1123.063667	1606.800781	2706.307373
31180.951117	1123.063667	1605.761719	2871.686768
31180.951117	1123.063667	1604.723633	2668.926025
31180.951117	1123.063667	1603.684570	2742.294922
31180.951117	1123.063667	1602.644531	2972.041748
31180.951117	1123.063667	1601.605469	2863.737061
31180.951117	1123.063667	1600.566406	2783.096924
31180.951117	1123.063667	1599.526367	2700.208252
31180.951117	1123.063667	1598.486328	2801.237061
31180.951117	1123.063667	1597.446289	2679.398193
31180.951117	1123.063667	1596.405273	2635.735596
31180.951117	1123.063667	1595.365234	2325.731934
31180.951117	1123.063667	1594.324219	2684.089355
31180.951117	1123.063667	1593.283203	2576.303955
31180.951117	1123.063667	1592.242188	2764.711182
31180.951117	1123.063667	1591.200195	2643.263672
31180.951117	1123.063667	1590.159180	2579.292969
31180.951117	1123.063667	1589.117188	2336.449219
31180.951117	1123.063667	1588.075195	2511.185303
31180.951117	1123.063667	1587.032227	2410.719482
31180.951117	1123.063667	1585.990234	2523.583984
31180.951117	1123.063667	1584.947266	2730.427734
31180.951117	1123.063667	1583.904297	2270.345215
31180.951117	1123.063667	1582.861328	2493.320801
31180.951117	1123.063667	1581.818359	2358.892822
31180.951117	1123.063667	1580.775391	2350.559082
31180.951117	1123.063667	1579.731445	2447.618164
31180.951117	1123.063667	1578.687500	2240.198242
31180.951117	1123.063667	1577.643555	2062.687500
31180.951117	1123.063667	1576.598633	2217.154541
31180.951117	1123.063667	1575.554688	2458.601074
31180.951117	1123.063667	1574.509766	2400.317627
31180.951117	1123.063667	1573.464844	2218.616943
31180.951117	1123.063667	1572.419922	2345.789795
31180.951117	1123.063667	1571.374023	1967.682617
31180.951117	1123.063667	1570.329102	2428.762939
31180.951117	1123.063667	1569.283203	1973.241699
31180.951117	1123.063667	1568.237305	2137.230469
31180.951117	1123.063667	1567.191406	2068.211182
31180.951117	1123.063667	1566.144531	2012.995361
31180.951117	1123.063667	1565.098633	2033.262695
31180.951117	1123.063667	1564.051758	1752.207642
31180.951117	1123.063667	1563.004883	1786.380371
31180.951117	1123.063667	1561.957031	1587.817749
31180.951117	1123.063667	1560.910156	2007.837158
31180.951117	1123.063667	1559.862305	1802.649292
31180.951117	1123.063667	1558.814453	1636.415405
31180.951117	1123.063667	1557.766602	1771.381104
31180.951117	1123.063667	1556.718750	1491.406982
31180.951117	1123.063667	1555.669922	1740.514404
31180.951117	1123.063667	1554.621094	1768.540283
31180.951117	1123.063667	1553.573242	2051.895020
31180.951117	1123.063667	1552.523438	1508.180298
31180.951117	1123.063667	1551.474609	1477.320190
31180.951117	1123.063667	1550.424805	1412.404297
31180.951117	1123.063667	1549.375000	1923.700317
31180.951117	1123.063667	1548.325195	1601.691772
31180.951117	1123.063667	1547.275391	1502.975464
31180.951117	1123.063667	1546.225586	1308.832153
31180.951117	1123.063667	1545.174805	1280.954102
31180.951117	1123.063667	1544.124023	1589.864380
31180.951117	1123.063667	1543.073242	1368.856934
31180.951117	1123.063667	1542.022461	1427.735962
31180.951117	1123.063667	1540.970703	1691.303345
31180.951117	1123.063667	1539.919922	1348.020874
31180.951117	1123.063667	1538.868164	1325.402100
31180.951117	1123.063667	1537.815430	1405.147461
31180.951117	1123.063667	1536.763672	1223.759033
31180.951117	1123.063667	1535.710938	1583.090820
31180.951117	1123.063667	1534.659180	1299.804199
31180.951117	1123.063667	1533.606445	1400.419800
31180.951117	1123.063667	1532.552734	1328.607178
31180.951117	1123.063667	1531.500000	1254.688843
31180.951117	1123.063667	1530.446289	1214.955688
31180.951117	1123.063667	1529.393555	1220.745728
31180.951117	1123.063667	1528.338867	963.555115
31180.951117	1123.063667	1527.285156	1355.135620
31180.951117	1123.063667	1526.231445	1100.562256
31180.951117	1123.063667	1525.176758	955.015808
31180.951117	1123.063667	1524.122070	1265.175049
31180.951117	1123.063667	1523.067383	925.068054
31180.951117	1123.063667	1522.012695	1135.709595
31180.951117	1123.063667	1520.957031	1015.724365
31180.951117	1123.063667	1519.901367	945.743530
31180.951117	1123.063667	1518.845703	964.226990
31180.951117	1123.063667	1517.790039	851.560364
31180.951117	1123.063667	1516.734375	539.926147
31180.951117	1123.063667	1515.677734	1063.469116
31180.951117	1123.063667	1514.621094	933.173462
31180.951117	1123.063667	1513.564453	895.807434
31180.951117	1123.063667	1512.507813	842.772278
31180.951117	1123.063667	1511.450195	830.592163
31180.951117	1123.063667	1510.393555	766.584412
31180.951117	1123.063667	1509.335938	890.320251
31180.951117	1123.063667	1508.278320	788.204712
31180.951117	1123.063667	1507.219727	616.243042
31180.951117	1123.063667	1506.162109	862.350830
31180.951117	1123.063667	1505.103516	724.618103
31180.951117	1123.063667	1504.044922	1056.701050
31180.951117	1123.063667	1502.986328	551.356384
31180.951117	1123.063667	1501.926758	468.384796
31180.951117	1123.063667	1500.868164	590.940674
31180.951117	1123.063667	1499.808594	442.886871
31180.951117	1123.063667	1498.749023	434.886658
31180.951117	1123.063667	1497.688477	544.303955
31180.951117	1123.063667	1496.628906	739.516418
31180.951117	1123.063667	1495.568359	709.391968
31180.951117	1123.063667	1494.507813	474.351074
31180.951117	1123.063667	1493.447266	257.591553
31180.951117	1123.063667	1492.386719	372.240845
31180.951117	1123.063667	1491.325195	68.062126
31180.951117	1123.063667	1490.263672	99.701752
31180.951117	1123.063667	1489.202148	-21.607367
31180.951117	1123.063667	1488.140625	215.203583
31180.951117	1123.063667	1487.079102	137.008118
31180.951117	1123.063667	1486.016602	-89.504189
31180.951117	1123.063667	1484.954102	-36.801060
31180.951117	1123.063667	1483.891602	-44.682861
31180.951117	1123.063667	1482.829102	55.546104
31180.951117	1123.063667	1481.765625	198.615051
31180.951117	1123.063667	1480.702148	213.663010
31180.951117	1123.063667	1479.638672	-54.286259
31180.951117	1123.063667	1478.575195	-182.656235
31180.951117	1123.063667	1477.511719	8.213564
31180.951117	1123.063667	1476.447266	93.572578
31180.951117	1123.063667	1475.382813	210.459366
31180.951117	1123.063667	1474.318359	80.583183
31180.951117	1123.063667	1473.253906	130.530228
31180.951117	1123.063667	1472.189453	230.007767
31180.951117	1123.063667	1471.124023	123.146843
31180.951117	1123.063667	1470.058594	260.867950
31180.951117	1123.063667	1468.993164	495.489624
31180.951117	1123.063667	1467.927734	413.871460
31180.951117	1123.063667	1466.861328	410.637268
31180.951117	1123.063667	1465.794922	692.339600
31180.951117	1123.063667	1464.728516	647.111450
31180.951117	1123.063667	1463.662109	890.743958
31180.951117	1123.063667	1462.594727	582.504089
31180.951117	1123.063667	1461.528320	855.153259
31180.951117	1123.063667	1460.460938	860.028198
31180.951117	1123.063667	1459.393555	853.594543
31180.951117	1123.063667	1458.326172	849.959656
31180.951117	1123.063667	1457.257813	848.924622
31180.951117	1123.063667	1456.189453	548.427002
31180.951117	1123.063667	1455.121094	781.293091
31180.951117	1123.063667	1454.052734	888.147827
31180.951117	1123.063667	1452.984375	895.604431
31180.951117	1123.063667	1451.915039	843.620850
31180.951117	1123.063667	1450.845703	957.112488
31180.951117	1123.063667	1449.776367	967.676819
31180.951117	1123.063667	1448.707031	947.546265
31180.951117	1123.063667	1447.636719	1055.653931
31180.951117	1123.063667	1446.567383	1030.119629
31180.951117	1123.063667	1445.497070	1008.474060
31180.951117	1123.063667	1444.425781	938.850281
31180.951117	1123.063667	1443.355469	862.707092
31180.951117	1123.063667	1442.285156	1024.737549
31180.951117	1123.063667	1441.213867	882.944153
31180.951117	1123.063667	1440.142578	1114.730591
31180.951117	1123.063667	1439.070313	1117.911987
31180.951117	1123.063667	1437.999023	1201.691650
31180.951117	1123.063667	1436.926758	1023.993042
31180.951117	1123.063667	1435.854492	1043.012329
31180.951117	1123.063667	1434.782227	1079.618408
31180.951117	1123.063667	1433.709961	1114.318848
31180.951117	1123.063667	1432.636719	1140.777100
31180.951117	1123.063667	1431.563477	1135.934814
31180.951117	1123.063667	1430.490234	1085.639282
31180.951117	1123.063667	1429.416992	1042.661621
31180.951117	1123.063667	1428.343750	1208.327759
31180.951117	1123.063667	1427.269531	844.147583
31180.951117	1123.063667	1426.195313	940.591125
31180.951117	1123.063667	1425.121094	742.521240
31180.951117	1123.063667	1424.046875	785.744141
31180.951117	1123.063667	1422.971680	824.930664
31180.951117	1123.063667	1421.896484	667.262939
31180.951117	1123.063667	1420.821289	1055.351807
31180.951117	1123.063667	1419.746094	623.114807
31180.951117	1123.063667	1418.669922	674.977173
31180.951117	1123.063667	1417.594727	541.784302
31180.951117	1123.063667	1416.518555	706.951843
31180.951117	1123.063667	1415.442383	551.988953
31180.951117	1123.063667	1414.365234	571.595032
31180.951117	1123.063667	1413.289063	675.512512
31180.951117	1123.063667	1412.211914	837.271545
31180.951117	1123.063667	1411.134766	1151.935425
31180.951117	1123.063667	1410.057617	743.985901
31180.951117	1123.063667	1408.979492	875.425598
31180.951117	1123.063667	1407.902344	704.655884
31180.951117	1123.063667	1406.824219	953.149414
31180.951117	1123.063667	1405.746094	1031.664185
31180.951117	1123.063667	1404.666992	726.097717
31180.951117	1123.063667	1403.588867	1116.521973
31180.951117	1123.063667	1402.509766	942.033936
31180.951117	1123.063667	1401.430664	1224.191650
31180.951117	1123.063667	1400.351563	1076.463013
31180.951117	1123.063667	1399.271484	1015.471008
31180.951117	1123.063667	1398.192383	1115.899414
31180.951117	1123.063667	1397.112305	1104.213623
31180.951117	1123.063667	1396.031250	972.348999
31180.951117	1123.063667	1394.951172	1092.708862
31180.951117	1123.063667	1393.871094	1024.768066
31180.951117	1123.063667	1392.790039	1002.099670
31180.951117	1123.063667	1391.708984	853.162354
31180.951117	1123.063667	1390.626953	913.242432
31180.951117	1123.063667	1389.545898	787.249573
31180.951117	1123.063667	1388.463867	969.782471
31180.951117	1123.063667	1387.381836	827.572754
31180.951117	1123.063667	1386.299805	868.654785
31180.951117	1123.063667	1385.217773	662.467102
31180.951117	1123.063667	1384.134766	594.714600
31180.951117	1123.063667	1383.051758	841.397827
31180.951117	1123.063667	1381.968750	669.805115
31180.951117	1123.063667	1380.885742	1135.152222
31180.951117	1123.063667	1379.802734	723.207703
31180.951117	1123.063667	1378.718750	814.300232
31180.951117	1123.063667	1377.634766	706.783142
31180.951117	1123.063667	1376.550781	688.844910
31180.951117	1123.063667	1375.465820	796.880920
31180.951117	1123.063667	1374.381836	1019.146545
31180.951117	1123.063667	1373.296875	832.171753
31180.951117	1123.063667	1372.211914	1010.317139
31180.951117	1123.063667	1371.126953	849.485840
31180.951117	1123.063667	1370.041016	784.995789
31180.951117	1123.063667	1368.955078	802.462830
31180.951117	1123.063667	1367.869141	1047.134033
31180.951117	1123.063667	1366.783203	866.721313
31180.951117	1123.063667	1365.697266	810.787964
31180.951117	1123.063667	1364.610352	875.185486
31180.951117	1123.063667	1363.523438	936.458984
31180.951117	1123.063667	1362.436523	984.738159
31180.951117	1123.063667	1361.349609	999.566833
31180.951117	1123.063667	1360.261719	766.439575
31180.951117	1123.063667	1359.174805	758.272339
31180.951117	1123.063667	1358.086914	763.940125
31180.951117	1123.063667	1356.998047	766.770264
31180.951117	1123.063667	1355.910156	851.728760
31180.951117	1123.063667	1354.821289	843.581970
31180.951117	1123.063667	1353.732422	579.041687
31180.951117	1123.063667	1352.643555	696.542297
31180.951117	1123.063667	1351.554688	585.217468
31180.951117	1123.063667	1350.464844	819.963013
31180.951117	1123.063667	1349.375000	1008.701172
31180.951117	1123.063667	1348.285156	847.303955
31180.951117	1123.063667	1347.195313	841.590332
31180.951117	1123.063667	1346.105469	980.115845
31180.951117	1123.063667	1345.014648	952.184937
31180.951117	1123.063667	1343.923828	772.881531
31180.951117	1123.063667	1342.833008	1023.317627
31180.951117	1123.063667	1341.741211	1016.653564
31180.951117	1123.063667	1340.650391	985.406982
31180.951117	1123.063667	1339.558594	1055.591064
31180.951117	1123.063667	1338.466797	956.773682
31180.951117	1123.063667	1337.374023	998.607483
31180.951117	1123.063667	1336.282227	884.214905
31180.951117	1123.063667	1335.189453	769.654846
31180.951117	1123.063667	1334.096680	935.502380
31180.951117	1123.063667	1333.003906	946.367615
31180.951117	1123.063667	1331.910156	763.075562
31180.951117	1123.063667	1330.817383	817.700928
31180.951117	1123.063667	1329.723633	753.436096
31180.951117	1123.063667	1328.629883	644.055115
31180.951117	1123.063667	1327.535156	794.162537
31180.951117	1123.063667	1326.441406	647.941711
31180.951117	1123.063667	1325.346680	624.829956
31180.951117	1123.063667	1324.251953	770.854736
31180.951117	1123.063667	1323.156250	563.111206
31180.951117	1123.063667	1322.061523	724.635498
31180.951117	1123.063667	1320.965820	494.900787
31180.951117	1123.063667	1319.870117	738.693909
31180.951117	1123.063667	1318.774414	592.267395
31180.951117	1123.063667	1317.678711	679.391418
31180.951117	1123.063667	1316.582031	788.722168
31180.951117	1123.063667	1315.485352	787.942688
31180.951117	1123.063667	1314.388672	941.286072
31180.951117	1123.063667	1313.291016	634.562866
31180.951117	1123.063667	1312.194336	820.140015
31180.951117	1123.063667	1311.096680	774.386292
31180.951117	1123.063667	1309.999023	785.207092
31180.951117	1123.063667	1308.901367	840.474182
31180.951117	1123.063667	1307.802734	760.203430
31180.951117	1123.063667	1306.705078	685.819763
31180.951117	1123.063667	1305.606445	674.432861
31180.951117	1123.063667	1304.506836	751.570862
31180.951117	1123.063667	1303.408203	466.546692
31180.951117	1123.063667	1302.308594	612.453003
31180.951117	1123.063667	1301.208984	745.016785
31180.951117	1123.063667	1300.109375	797.769958
31180.951117	1123.063667	1299.009766	473.773529
31180.951117	1123.063667	1297.909180	583.444519
31180.951117	1123.063667	1296.808594	707.519531
31180.951117	1123.063667	1295.708008	749.760925
31180.951117	1123.063667	1294.607422	689.210144
31180.951117	1123.063667	1293.506836	854.863953
31180.951117	1123.063667	1292.405273	687.366089
31180.951117	1123.063667	1291.303711	557.113037
31180.951117	1123.063667	1290.202148	473.812439
31180.951117	1123.063667	1289.099609	342.604248
31180.951117	1123.063667	1287.998047	405.591156
31180.951117	1123.063667	1286.895508	356.962646
31180.951117	1123.063667	1285.792969	346.710815
31180.951117	1123.063667	1284.689453	374.971863
31180.951117	1123.063667	1283.586914	176.668442
31180.951117	1123.063667	1282.483398	579.027527
31180.951117	1123.063667	1281.379883	446.281250
31180.951117	1123.063667	1280.276367	490.826630
31180.951117	1123.063667	1279.171875	315.800079
31180.951117	1123.063667	1278.067383	280.101563
31180.951117	1123.063667	1276.962891	271.113464
31180.951117	1123.063667	1275.858398	192.349121
31180.951117	1123.063667	1274.753906	387.555145
31180.951117	1123.063667	1273.648438	278.780182
31180.951117	1123.063667	1272.542969	253.787384
31180.951117	1123.063667	1271.437500	357.740387
31180.951117	1123.063667	1270.331055	111.091202
31180.951117	1123.063667	1269.225586	134.976685
31180.951117	1123.063667	1268.119141	151.887177
31180.951117	1123.063667	1267.012695	123.167763
31180.951117	1123.063667	1265.906250	61.913765
31180.951117	1123.063667	1264.798828	86.397591
31180.951117	1123.063667	1263.691406	-22.066973
31180.951117	1123.063667	1262.583984	169.590012
31180.951117	1123.063667	1261.476563	-24.999996
31180.951117	1123.063667	1260.368164	-48.194393
31180.951117	1123.063667	1259.260742	70.490089
31180.951117	1123.063667	1258.152344	50.797997
31180.951117	1123.063667	1257.043945	96.271576
31180.951117	1123.063667	1255.934570	107.285866
31180.951117	1123.063667	1254.825195	74.071587
31180.951117	1123.063667	1253.716797	23.995180
31180.951117	1123.063667	1252.606445	-107.788177
31180.951117	1123.063667	1251.497070	-51.307377
31180.951117	1123.063667	1250.387695	-164.048676
31180.951117	1123.063667	1249.277344	-107.803955
31180.951117	1123.063667	1248.166992	-64.059311
31180.951117	1123.063667	1247.055664	80.599411
31180.951117	1123.063667	1245.945313	-35.539837
31180.951117	1123.063667	1244.833984	-103.732422
31180.951117	1123.063667	1243.722656	-27.836451
31180.951117	1123.063667	1242.611328	-97.573906
31180.951117	1123.063667	1241.499023	-78.154655
31180.951117	1123.063667	1240.387695	-99.637344
31180.951117	1123.063667	1239.275391	-8.822298
31180.951117	1123.063667	1238.162109	-141.845566
31180.951117	1123.063667	1237.049805	72.174728
31180.951117	1123.063667	1235.936523	81.700897
31180.951117	1123.063667	1234.823242	-49.000057
31180.951117	1123.063667	1233.709961	-131.933258
31180.951117	1123.063667	1232.596680	-5.285472
31180.951117	1123.063667	1231.482422	-143.417038
31180.951117	1123.063667	1230.369141	-11.532762
31180.951117	1123.063667	1229.253906	-148.345123
31180.951117	1123.063667	1228.139648	-270.478973
31180.951117	1123.063667	1227.025391	-177.944061
31180.951117	1123.063667	1225.910156	-33.624249
31180.951117	1123.063667	1224.794922	181.633423
31180.951117	1123.063667	1223.679688	28.463547
31180.951117	1123.063667	1222.563477	93.189232
31180.951117	1123.063667	1221.447266	37.086597
31180.951117	1123.063667	1220.331055	160.043182
31180.951117	1123.063667	1219.214844	128.963150
31180.951117	1123.063667	1218.098633	110.143211
31180.951117	1123.063667	1216.981445	64.565567
31180.951117	1123.063667	1215.864258	57.889317
31180.951117	1123.063667	1214.747070	60.415134
31180.951117	1123.063667	1213.629883	-36.288719
31180.951117	1123.063667	1212.511719	-71.308548
31180.951117	1123.063667	1211.393555	-255.299530
31180.951117	1123.063667	1210.275391	-134.566406
31180.951117	1123.063667	1209.157227	-8.781126
31180.951117	1123.063667	1208.038086	-7.781098
31180.951117	1123.063667	1206.918945	124.474014
31180.951117	1123.063667	1205.799805	-11.596883
31180.951117	1123.063667	1204.680664	38.136059
31180.951117	1123.063667	1203.560547	77.275734
31180.951117	1123.063667	1202.441406	-79.341751
31180.951117	1123.063667	1201.321289	-95.765503
31180.951117	1123.063667	1200.200195	-17.750517
31180.951117	1123.063667	1199.080078	-30.216276
31180.951117	1123.063667	1197.958984	42.187305
31180.951117	1123.063667	1196.837891	44.307671
31180.951117	1123.063667	1195.716797	17.557947
31180.951117	1123.063667	1194.594727	-44.149693
31180.951117	1123.063667	1193.473633	5.198428
31180.951117	1123.063667	1192.351563	-26.197464
31180.951117	1123.063667	1191.229492	-23.869513
31180.951117	1123.063667	1190.106445	38.298382
31180.951117	1123.063667	1188.984375	78.325241
31180.951117	1123.063667	1187.861328	-65.167213
31180.951117	1123.063667	1186.738281	-259.243103
31180.951117	1123.063667	1185.614258	-66.788475
31180.951117	1123.063667	1184.491211	-111.279900
31180.951117	1123.063667	1183.367188	113.117805
31180.951117	1123.063667	1182.243164	-11.794969
31180.951117	1123.063667	1181.119141	-165.395966
31180.951117	1123.063667	1179.994141	63.605305
31180.951117	1123.063667	1178.869141	60.117847
31180.951117	1123.063667	1177.744141	-36.651093
31180.951117	1123.063667	1176.619141	-131.555786
31180.951117	1123.063667	1175.493164	-89.993439
31180.951117	1123.063667	1174.368164	-82.039085
31180.951117	1123.063667	1173.242188	-68.238411
31180.951117	1123.063667	1172.115234	49.147919
31180.951117	1123.063667	1170.989258	-96.982040
31180.951117	1123.063667	1169.862305	-41.370628
31180.951117	1123.063667	1168.735352	-116.443130
31180.951117	1123.063667	1167.608398	-178.413101
31180.951117	1123.063667	1166.481445	11.671951
31180.951117	1123.063667	1165.353516	6.995356
31180.951117	1123.063667	1164.225586	64.954407
31180.951117	1123.063667	1163.097656	51.963531
31180.951117	1123.063667	1161.968750	-178.698395
31180.951117	1123.063667	1160.840820	-14.121261
31180.951117	1123.063667	1159.711914	31.239571
31180.951117	1123.063667	1158.583008	122.840385
31180.951117	1123.063667	1157.453125	65.727402
31180.951117	1123.063667	1156.324219	-32.138851
31180.951117	1123.063667	1155.194336	143.141205
31180.951117	1123.063667	1154.064453	-108.723846
31180.951117	1123.063667	1152.933594	-86.956596
31180.951117	1123.063667	1151.803711	-16.096851
31180.951117	1123.063667	1150.672852	16.772978
31180.951117	1123.063667	1149.541992	146.620590
31180.951117	1123.063667	1148.411133	76.686760
31180.951117	1123.063667	1147.279297	166.317902
31180.951117	1123.063667	1146.147461	141.875565
31180.951117	1123.063667	1145.015625	195.270432
31180.951117	1123.063667	1143.883789	196.468903
31180.951117	1123.063667	1142.750977	179.032974
31180.951117	1123.063667	1141.619141	418.659668
31180.951117	1123.063667	1140.486328	517.540710
31180.951117	1123.063667	1139.352539	316.683350
31180.951117	1123.063667	1138.219727	213.551636
31180.951117	1123.063667	1137.085938	262.187531
31180.951117	1123.063667	1135.952148	354.173004
31180.951117	1123.063667	1134.818359	448.398438
31180.951117	1123.063667	1133.683594	512.570801
31180.951117	1123.063667	1132.549805	639.479248
31180.951117	1123.063667	1131.415039	748.411987
31180.951117	1123.063667	1130.279297	861.463318
31180.951117	1123.063667	1129.144531	851.686584
31180.951117	1123.063667	1128.008789	769.529724
31180.951117	1123.063667	1126.873047	714.458252
31180.951117	1123.063667	1125.737305	751.157654
31180.951117	1123.063667	1124.601563	758.325867
31180.951117	1123.063667	1123.464844	782.823608
31180.951117	1123.063667	1122.328125	573.570923
31180.951117	1123.063667	1121.191406	581.227844
31180.951117	1123.063667	1120.054688	619.272644
31180.951117	1123.063667	1118.916992	505.803131
31180.951117	1123.063667	1117.779297	479.506256
31180.951117	1123.063667	1116.641602	593.811646
31180.951117	1123.063667	1115.503906	537.388123
31180.951117	1123.063667	1114.365234	396.300934
31180.951117	1123.063667	1113.226563	427.668091
31180.951117	1123.063667	1112.087891	339.147736
31180.951117	1123.063667	1110.949219	292.646149
31180.951117	1123.063667	1109.809570	365.710571
31180.951117	1123.063667	1108.669922	370.164551
31180.951117	1123.063667	1107.530273	292.461273
31180.951117	1123.063667	1106.390625	488.421967
31180.951117	1123.063667	1105.250000	347.436432
31180.951117	1123.063667	1104.109375	232.050323
31180.951117	1123.063667	1102.968750	255.102509
31180.951117	1123.063667	1101.828125	330.045197
31180.951117	1123.063667	1100.686523	526.931946
31180.951117	1123.063667	1099.544922	475.311737
31180.951117	1123.063667	1098.403320	542.137756
31180.951117	1123.063667	1097.261719	405.088745
31180.951117	1123.063667	1096.120117	296.918793
31180.951117	1123.063667	1094.977539	465.213318
31180.951117	1123.063667	1093.834961	455.836182
31180.951117	1123.063667	1092.691406	533.810181
31180.951117	1123.063667	1091.548828	556.058838
31180.951117	1123.063667	1090.405273	426.285706
31180.951117	1123.063667	1089.261719	432.966370
31180.951117	1123.063667	1088.118164	315.643036
31180.951117	1123.063667	1086.973633	360.183838
31180.951117	1123.063667	1085.829102	137.928864
31180.951117	1123.063667	1084.684570	327.756256
31180.951117	1123.063667	1083.540039	423.479767
31180.951117	1123.063667	1082.395508	462.033173
31180.951117	1123.063667	1081.250000	492.009918
31180.951117	1123.063667	1080.104492	586.673401
31180.951117	1123.063667	1078.958984	329.065857
31180.951117	1123.063667	1077.812500	389.792206
31180.951117	1123.063667	1076.666016	326.039001
31180.951117	1123.063667	1075.519531	291.036987
31180.951117	1123.063667	1074.373047	470.106812
31180.951117	1123.063667	1073.226563	240.353271
31180.951117	1123.063667	1072.079102	150.099716
31180.951117	1123.063667	1070.931641	324.323120
31180.951117	1123.063667	1069.784180	428.149872
31180.951117	1123.063667	1068.635742	307.721405
31180.951117	1123.063667	1067.487305	343.701508
31180.951117	1123.063667	1066.338867	600.802551
31180.951117	1123.063667	1065.190430	488.268982
31180.951117	1123.063667	1064.041992	398.922546
31180.951117	1123.063667	1062.892578	459.882904
31180.951117	1123.063667	1061.743164	556.927612
31180.951117	1123.063667	1060.593750	472.920258
31180.951117	1123.063667	1059.443359	516.862244
31180.951117	1123.063667	1058.292969	427.984497
31180.951117	1123.063667	1057.142578	481.526642
31180.951117	1123.063667	1055.992188	256.770447
31180.951117	1123.063667	1054.841797	358.721283
31180.951117	1123.063667	1053.690430	435.456268
31180.951117	1123.063667	1052.539063	319.878632
31180.951117	1123.063667	1051.387695	215.964432
31180.951117	1123.063667	1050.235352	360.708588
31180.951117	1123.063667	1049.083984	282.281952
31180.951117	1123.063667	1047.931641	399.553650
31180.951117	1123.063667	1046.778320	459.631439
31180.951117	1123.063667	1045.625977	449.715912
31180.951117	1123.063667	1044.472656	280.168945
31180.951117	1123.063667	1043.319336	193.582886
31180.951117	1123.063667	1042.166016	402.521759
31180.951117	1123.063667	1041.012695	86.865067
31180.951117	1123.063667	1039.858398	223.154022
31180.951117	1123.063667	1038.704102	370.151184
31180.951117	1123.063667	1037.549805	189.253662
31180.951117	1123.063667	1036.394531	308.595245
31180.951117	1123.063667	1035.239258	279.696533
31180.951117	1123.063667	1034.083984	158.313019
31180.951117	1123.063667	1032.928711	185.352570
31180.951117	1123.063667	1031.773438	283.313873
31180.951117	1123.063667	1030.617188	148.642975
31180.951117	1123.063667	1029.460938	413.399841
31180.951117	1123.063667	1028.304688	249.194550
31180.951117	1123.063667	1027.147461	254.260056
31180.951117	1123.063667	1025.991211	179.335449
31180.951117	1123.063667	1024.833984	-66.581795
31180.951117	1123.063667	1023.675781	-43.265587
31180.951117	1123.063667	1022.518555	209.870224
31180.951117	1123.063667	1021.360352	298.763184
31180.951117	1123.063667	1020.202148	326.613525
31180.951117	1123.063667	1019.043945	152.419968
31180.951117	1123.063667	1017.884766	31.815441
31180.951117	1123.063667	1016.726563	234.233414
31180.951117	1123.063667	1015.567383	71.113800
31180.951117	1123.063667	1014.407227	185.675919
31180.951117	1123.063667	1013.248047	165.521515
31180.951117	1123.063667	1012.087891	206.171265
31180.951117	1123.063667	1010.927734	130.396179
31180.951117	1123.063667	1009.767578	-32.991486
31180.951117	1123.063667	1008.606445	-16.245918
31180.951117	1123.063667	1007.446289	9.251818
31180.951117	1123.063667	1006.285156	4.785537
31180.951117	1123.063667	1005.123047	93.916382
31180.951117	1123.063667	1003.961914	189.914001
31180.951117	1123.063667	1002.799805	62.808968
31180.951117	1123.063667	1001.637695	304.020233
31180.951117	1123.063667	1000.475586	214.305359
31180.951117	1123.063667	999.312500	17.102186
31180.951117	1123.063667	998.149414	160.633514
31180.951117	1123.063667	996.986328	44.375675
31180.951117	1123.063667	995.823242	48.567738
31180.951117	1123.063667	994.659180	200.169800
31180.951117	1123.063667	993.496094	-39.840561
31180.951117	1123.063667	992.332031	5.200181
31180.951117	1123.063667	991.166992	32.138382
31180.951117	1123.063667	990.002930	-214.882111
31180.951117	1123.063667	988.837891	128.057861
31180.951117	1123.063667	987.672852	-32.343903
31180.951117	1123.063667	986.506836	-110.939087
31180.951117	1123.063667	985.341797	-170.246597
31180.951117	1123.063667	984.175781	57.473690
31180.951117	1123.063667	983.009766	52.138504
31180.951117	1123.063667	981.843750	103.390228
31180.951117	1123.063667	980.676758	-57.193340
31180.951117	1123.063667	979.509766	80.147430
31180.951117	1123.063667	978.342773	-33.844482
31180.951117	1123.063667	977.175781	-127.527679
31180.951117	1123.063667	976.007813	-92.355759
31180.951117	1123.063667	974.839844	93.107819
31180.951117	1123.063667	973.671875	-56.798283
31180.951117	1123.063667	972.503906	-42.690464
31180.951117	1123.063667	971.334961	-25.082039
31180.951117	1123.063667	970.166016	-26.296103
31180.951117	1123.063667	968.997070	121.003082
31180.951117	1123.063667	967.828125	78.476448
31180.951117	1123.063667	966.658203	20.225784
31180.951117	1123.063667	965.488281	-92.324806
31180.951117	1123.063667	964.318359	78.466057
31180.951117	1123.063667	963.148438	56.754421
31180.951117	1123.063667	961.977539	-54.749649
31180.951117	1123.063667	960.806641	154.137817
31180.951117	1123.063667	959.635742	-3.370495
31180.951117	1123.063667	958.463867	169.037918
31180.951117	1123.063667	957.292969	-54.612293
31180.951117	1123.063667	956.121094	210.433014
31180.951117	1123.063667	954.948242	120.397163
31180.951117	1123.063667	953.776367	-33.669670
31180.951117	1123.063667	952.603516	-73.498848
31180.951117	1123.063667	951.430664	53.302761
31180.951117	1123.063667	950.257813	69.343307
31180.951117	1123.063667	949.084961	-6.722188
31180.951117	1123.063667	947.911133	194.702728
31180.951117	1123.063667	946.737305	67.181198
31180.951117	1123.063667	945.563477	98.628960
31180.951117	1123.063667	944.388672	141.488113
31180.951117	1123.063667	943.213867	138.757370
31180.951117	1123.063667	942.039063	29.526291
31180.951117	1123.063667	940.864258	154.460617
31180.951117	1123.063667	939.688477	34.065804
31180.951117	1123.063667	938.513672	230.525314
31180.951117	1123.063667	937.337891	183.536896
31180.951117	1123.063667	936.161133	444.766205
31180.951117	1123.063667	934.985352	268.260010
31180.951117	1123.063667	933.808594	339.462097
31180.951117	1123.063667	932.631836	435.399567
31180.951117	1123.063667	931.454102	473.164703
31180.951117	1123.063667	930.277344	354.645203
31180.951117	1123.063667	929.099609	667.047363
31180.951117	1123.063667	927.921875	336.360199
31180.951117	1123.063667	926.743164	441.041229
31180.951117	1123.063667	925.565430	358.145111
31180.951117	1123.063667	924.386719	362.366394
31180.951117	1123.063667	923.208008	362.105255
31180.951117	1123.063667	922.028320	352.912781
31180.951117	1123.063667	920.849609	337.019592
31180.951117	1123.063667	919.669922	341.415894
31180.951117	1123.063667	919.474609	25.259308
31180.951117	1123.063667	918.309570	71.804245
31180.951117	1123.063667	917.143555	211.950592
31180.951117	1123.063667	915.977539	131.391541
31180.951117	1123.063667	914.810547	-20.440115
31180.951117	1123.063667	913.644531	-210.091125
31180.951117	1123.063667	912.477539	25.755793
31180.951117	1123.063667	911.310547	-134.883957
31180.951117	1123.063667	910.143555	-37.196407
31180.951117	1123.063667	908.975586	145.040253
31180.951117	1123.063667	907.807617	-133.485718
31180.951117	1123.063667	906.639648	-262.820740
31180.951117	1123.063667	905.471680	-140.722183
31180.951117	1123.063667	904.303711	-29.797077
31180.951117	1123.063667	903.134766	14.374608
31180.951117	1123.063667	901.965820	-83.761093
31180.951117	1123.063667	900.796875	229.361649
31180.951117	1123.063667	899.626953	137.891327
31180.951117	1123.063667	898.457031	119.781754
31180.951117	1123.063667	897.287109	15.044053
31180.951117	1123.063667	896.117188	-31.905413
31180.951117	1123.063667	894.947266	-132.126846
31180.951117	1123.063667	893.776367	69.630730
31180.951117	1123.063667	892.605469	133.690231
31180.951117	1123.063667	891.434570	171.095917
31180.951117	1123.063667	890.262695	35.430782
31180.951117	1123.063667	889.091797	101.684029
31180.951117	1123.063667	887.919922	163.481277
31180.951117	1123.063667	886.748047	16.824089
31180.951117	1123.063667	885.575195	138.480957
31180.951117	1123.063667	884.403320	0.761363
31180.951117	1123.063667	883.230469	-65.981583
31180.951117	1123.063667	882.057617	97.726288
31180.951117	1123.063667	880.883789	-39.879757
31180.951117	1123.063667	879.710938	1.958895
31180.951117	1123.063667	878.537109	-0.495477
31180.951117	1123.063667	877.362305	-87.062027
31180.951117	1123.063667	876.188477	-49.647221
31180.951117	1123.063667	875.013672	-21.089386
31180.951117	1123.063667	873.839844	-30.152460
31180.951117	1123.063667	872.664063	60.339596
31180.951117	1123.063667	871.489258	-32.757763
31180.951117	1123.063667	870.313477	9.065749
31180.951117	1123.063667	869.138672	-77.338646
31180.951117	1123.063667	867.962891	-81.922577
31180.951117	1123.063667	866.786133	-137.317795
31180.951117	1123.063667	865.610352	-71.180984
31180.951117	1123.063667	864.433594	-22.730360
31180.951117	1123.063667	863.256836	-95.751785
31180.951117	1123.063667	862.079102	-3.141968
31180.951117	1123.063667	860.902344	-122.479530
31180.951117	1123.063667	859.724609	-296.932922
31180.951117	1123.063667	858.546875	-109.440399
31180.951117	1123.063667	857.368164	117.695038
31180.951117	1123.063667	856.190430	33.749165
31180.951117	1123.063667	855.011719	44.668762
31180.951117	1123.063667	853.833008	-173.698380
31180.951117	1123.063667	852.654297	-72.354301
31180.951117	1123.063667	851.474609	-6.302230
31180.951117	1123.063667	850.294922	-43.829189
31180.951117	1123.063667	849.115234	66.260002
31180.951117	1123.063667	847.935547	-143.045532
31180.951117	1123.063667	846.754883	-136.460007
31180.951117	1123.063667	845.575195	55.052910
31180.951117	1123.063667	844.393555	110.031570
31180.951117	1123.063667	843.212891	-277.336182
31180.951117	1123.063667	842.032227	107.721710
31180.951117	1123.063667	840.850586	116.476357
31180.951117	1123.063667	839.668945	-187.065475
31180.951117	1123.063667	838.486328	-103.481339
31180.951117	1123.063667	837.304688	-50.708668
31180.951117	1123.063667	836.122070	-145.211929
31180.951117	1123.063667	834.939453	6.443314
31180.951117	1123.063667	833.756836	41.598568
31180.951117	1123.063667	832.573242	-263.722229
31180.951117	1123.063667	831.389648	-68.201851
31180.951117	1123.063667	830.206055	-270.173676
31180.951117	1123.063667	829.022461	-259.126282
31180.951117	1123.063667	827.838867	-120.787643
31180.951117	1123.063667	826.654297	-6.637739
31180.951117	1123.063667	825.469727	-30.746161
31180.951117	1123.063667	824.284180	-184.251160
31180.951117	1123.063667	823.099609	-122.789566
31180.951117	1123.063667	821.914063	-8.730290
31180.951117	1123.063667	820.728516	-59.121468
31180.951117	1123.063667	819.542969	-8.681333
31180.951117	1123.063667	818.356445	-113.830437
31180.951117	1123.063667	817.169922	-227.701920
31180.951117	1123.063667	815.983398	-129.076553
31180.951117	1123.063667	814.796875	-188.159912
31180.951117	1123.063667	813.609375	-8.583571
31180.951117	1123.063667	812.422852	-23.899454
31180.951117	1123.063667	811.235352	-104.862381
31180.951117	1123.063667	810.046875	-37.011978
31180.951117	1123.063667	808.859375	30.799021
31180.951117	1123.063667	807.670898	-39.204773
31180.951117	1123.063667	806.482422	-76.389000
31180.951117	1123.063667	805.293945	120.353172
31180.951117	1123.063667	804.104492	56.909557
31180.951117	1123.063667	802.915039	227.305130
31180.951117	1123.063667	801.725586	205.357605
31180.951117	1123.063667	800.536133	-198.852600
31180.951117	1123.063667	799.345703	181.114990
31180.951117	1123.063667	798.155273	43.437656
31180.951117	1123.063667	796.964844	32.417469
31180.951117	1123.063667	795.774414	141.428726
31180.951117	1123.063667	794.583008	-188.216125
31180.951117	1123.063667	793.392578	-83.597244
31180.951117	1123.063667	792.200195	-83.727112
31180.951117	1123.063667	791.008789	7.713867
31180.951117	1123.063667	789.816406	-116.744514
31180.951117	1123.063667	788.625000	111.959244
31180.951117	1123.063667	787.432617	63.771839
31180.951117	1123.063667	786.239258	-78.105400
31180.951117	1123.063667	785.046875	43.647873
31180.951117	1123.063667	783.853516	-61.180939
31180.951117	1123.063667	782.660156	154.113831
31180.951117	1123.063667	781.465820	166.827728
31180.951117	1123.063667	780.272461	64.146454
31180.951117	1123.063667	779.078125	142.112106
31180.951117	1123.063667	777.883789	72.068077
31180.951117	1123.063667	776.688477	-24.073978
31180.951117	1123.063667	775.494141	51.608089
31180.951117	1123.063667	774.298828	-107.602623
31180.951117	1123.063667	773.103516	118.014282
31180.951117	1123.063667	771.907227	30.525610
31180.951117	1123.063667	770.711914	197.286285
31180.951117	1123.063667	769.515625	70.648499
31180.951117	1123.063667	768.318359	72.190376
31180.951117	1123.063667	767.122070	-106.556267
31180.951117	1123.063667	765.924805	-16.025545
31180.951117	1123.063667	764.727539	-55.815285
31180.951117	1123.063667	763.530273	195.200531
31180.951117	1123.063667	762.333008	68.514107
31180.951117	1123.063667	761.134766	256.412628
31180.951117	1123.063667	759.936523	190.422379
31180.951117	1123.063667	758.738281	332.598053
31180.951117	1123.063667	757.540039	268.705292
31180.951117	1123.063667	756.340820	113.758644
31180.951117	1123.063667	755.141602	335.923157
31180.951117	1123.063667	753.942383	373.777985
31180.951117	1123.063667	752.742188	95.297447
31180.951117	1123.063667	751.541992	87.615479
31180.951117	1123.063667	750.341797	-67.356796
31180.951117	1123.063667	749.141602	249.640350
31180.951117	1123.063667	747.941406	168.191864
31180.951117	1123.063667	746.740234	192.767014
31180.951117	1123.063667	745.539063	476.909058
31180.951117	1123.063667	744.337891	170.347488
31180.951117	1123.063667	743.135742	196.912766
31180.951117	1123.063667	741.933594	132.599411
31180.951117	1123.063667	740.731445	264.976776
31180.951117	1123.063667	739.529297	170.304520
31180.951117	1123.063667	738.326172	118.832886
31180.951117	1123.063667	737.124023	8.989992
31180.951117	1123.063667	735.919922	58.974613
31180.951117	1123.063667	734.716797	72.163078
31180.951117	1123.063667	733.513672	320.619965
31180.951117	1123.063667	732.309570	361.686096
31180.951117	1123.063667	731.105469	374.614197
31180.951117	1123.063667	729.900391	368.053528
31180.951117	1123.063667	728.696289	385.156616
31180.951117	1123.063667	727.491211	380.619354
31180.951117	1123.063667	726.286133	492.457489
31180.951117	1123.063667	725.080078	537.347351
31180.951117	1123.063667	723.874023	439.887817
31180.951117	1123.063667	722.668945	385.494324
31180.951117	1123.063667	721.461914	305.199615
31180.951117	1123.063667	720.255859	336.876160
31180.951117	1123.063667	719.048828	209.095123
31180.951117	1123.063667	717.841797	92.057144
31180.951117	1123.063667	716.634766	121.377464
31180.951117	1123.063667	715.427734	141.997467
31180.951117	1123.063667	714.219727	-80.626694
31180.951117	1123.063667	713.011719	148.552597
31180.951117	1123.063667	711.803711	351.743347
31180.951117	1123.063667	710.594727	264.451324
31180.951117	1123.063667	709.385742	-1.341065
31180.951117	1123.063667	708.176758	66.079094
31180.951117	1123.063667	706.967773	230.096588
31180.951117	1123.063667	705.758789	219.914597
31180.951117	1123.063667	704.548828	205.352982
31180.951117	1123.063667	703.338867	100.502968
31180.951117	1123.063667	702.127930	53.584690
31180.951117	1123.063667	700.917969	-6.286378
31180.951117	1123.063667	699.707031	169.883667
31180.951117	1123.063667	698.496094	371.638489
31180.951117	1123.063667	697.285156	352.226227
31180.951117	1123.063667	696.073242	409.949738
31180.951117	1123.063667	694.861328	274.537445
31180.951117	1123.063667	693.649414	454.278625
31180.951117	1123.063667	692.436523	464.493408
31180.951117	1123.063667	691.224609	513.183411
31180.951117	1123.063667	690.011719	688.181152
31180.951117	1123.063667	688.798828	539.506592
31180.951117	1123.063667	687.584961	943.409424
31180.951117	1123.063667	686.372070	805.247253
31180.951117	1123.063667	685.158203	857.592407
31180.951117	1123.063667	683.943359	676.487732
31180.951117	1123.063667	682.729492	610.922424
31180.951117	1123.063667	681.514648	624.445740
31180.951117	1123.063667	680.299805	515.923035
31180.951117	1123.063667	679.084961	824.399475
31180.951117	1123.063667	677.869141	529.630066
31180.951117	1123.063667	676.653320	487.145477
31180.951117	1123.063667	675.437500	709.610046
31180.951117	1123.063667	674.221680	724.585632
31180.951117	1123.063667	673.004883	628.342590
31180.951117	1123.063667	671.789063	598.249512
31180.951117	1123.063667	670.571289	681.242310
31180.951117	1123.063667	669.354492	672.276550
31180.951117	1123.063667	668.136719	618.370605
31180.951117	1123.063667	666.919922	493.943634
31180.951117	1123.063667	665.701172	508.150299
31180.951117	1123.063667	664.483398	586.239319
31180.951117	1123.063667	663.264648	502.076050
31180.951117	1123.063667	662.045898	526.586914
31180.951117	1123.063667	660.827148	593.612366
31180.951117	1123.063667	659.608398	498.493774
31180.951117	1123.063667	658.388672	405.425385
31180.951117	1123.063667	657.168945	412.420013
31180.951117	1123.063667	655.949219	485.330872
31180.951117	1123.063667	654.728516	336.593170
31180.951117	1123.063667	653.507813	422.023804
31180.951117	1123.063667	652.287109	543.489746
31180.951117	1123.063667	651.066406	560.491638
31180.951117	1123.063667	649.844727	370.949890
31180.951117	1123.063667	648.623047	419.650513
31180.951117	1123.063667	647.401367	380.998657
31180.951117	1123.063667	646.179688	276.318390
31180.951117	1123.063667	644.957031	660.575623
31180.951117	1123.063667	643.734375	589.645813
31180.951117	1123.063667	642.511719	503.746643
31180.951117	1123.063667	641.289063	538.877136
31180.951117	1123.063667	640.065430	399.667877
31180.951117	1123.063667	638.841797	663.941162
31180.951117	1123.063667	637.618164	660.422668
31180.951117	1123.063667	636.393555	546.382385
31180.951117	1123.063667	635.168945	653.015015
31180.951117	1123.063667	633.944336	447.528717
31180.951117	1123.063667	632.719727	358.699005
31180.951117	1123.063667	631.494141	528.570129
31180.951117	1123.063667	630.269531	231.680908
31180.951117	1123.063667	629.042969	248.594284
31180.951117	1123.063667	627.817383	375.617950
31180.951117	1123.063667	626.590820	430.400391
31180.951117	1123.063667	625.365234	376.975525
31180.951117	1123.063667	624.137695	293.782166
31180.951117	1123.063667	622.911133	451.970062
31180.951117	1123.063667	621.683594	565.493774
31180.951117	1123.063667	620.456055	448.076782
31180.951117	1123.063667	619.228516	571.897278
31180.951117	1123.063667	618.000977	496.614868
31180.951117	1123.063667	616.772461	330.259460
31180.951117	1123.063667	615.543945	354.239532
31180.951117	1123.063667	614.314453	230.039902
31180.951117	1123.063667	613.085938	391.237549
31180.951117	1123.063667	611.856445	156.918655
31180.951117	1123.063667	610.626953	303.028351
31180.951117	1123.063667	609.397461	256.664001
31180.951117	1123.063667	608.166992	58.083557
31180.951117	1123.063667	606.936523	207.993271
31180.951117	1123.063667	605.706055	70.520874
31180.951117	1123.063667	604.474609	125.120415
31180.951117	1123.063667	603.244141	177.478958
31180.951117	1123.063667	602.012695	257.132660
31180.951117	1123.063667	600.780273	298.654449
31180.951117	1123.063667	599.548828	160.744705
31180.951117	1123.063667	598.316406	134.558273
31180.951117	1123.063667	597.083984	226.360001
31180.951117	1123.063667	595.851563	151.467316
31180.951117	1123.063667	594.618164	188.202972
31180.951117	1123.063667	593.384766	136.311646
31180.951117	1123.063667	592.151367	40.093262
31180.951117	1123.063667	590.917969	13.324376
31180.951117	1123.063667	589.683594	117.026779
31180.951117	1123.063667	588.449219	127.940674
31180.951117	1123.063667	587.214844	134.540939
31180.951117	1123.063667	585.979492	103.148064
31180.951117	1123.063667	584.745117	94.824051
31180.951117	1123.063667	583.509766	99.023056
31180.951117	1123.063667	582.273438	-94.590706
31180.951117	1123.063667	581.038086	79.785538
31180.951117	1123.063667	579.801758	153.073364
31180.951117	1123.063667	578.565430	169.487442
31180.951117	1123.063667	577.329102	257.254822
31180.951117	1123.063667	576.091797	90.663452
31180.951117	1123.063667	574.854492	255.947815
31180.951117	1123.063667	573.617188	211.064529
31180.951117	1123.063667	572.378906	212.299500
31180.951117	1123.063667	571.141602	154.682343
31180.951117	1123.063667	569.903320	267.002930
31180.951117	1123.063667	568.664063	328.827240
31180.951117	1123.063667	567.425781	149.298569
31180.951117	1123.063667	566.186523	210.968292
31180.951117	1123.063667	564.947266	-23.139366
31180.951117	1123.063667	563.708008	19.525208
31180.951117	1123.063667	562.467773	83.053307
31180.951117	1123.063667	561.227539	12.362971
31180.951117	1123.063667	559.987305	2.396441
31180.951117	1123.063667	558.747070	-41.147175
31180.951117	1123.063667	557.505859	-168.517502
31180.951117	1123.063667	556.264648	-94.884132
31180.951117	1123.063667	555.023438	-90.424835
31180.951117	1123.063667	553.781250	-86.034821
31180.951117	1123.063667	552.539063	-169.588562
31180.951117	1123.063667	551.296875	62.741081
31180.951117	1123.063667	550.054688	-85.755829
31180.951117	1123.063667	548.811523	-4.219697
31180.951117	1123.063667	547.569336	-29.385296
31180.951117	1123.063667	546.325195	-19.070433
31180.951117	1123.063667	545.082031	45.540863
31180.951117	1123.063667	543.837891	-6.932923
31180.951117	1123.063667	542.593750	93.066750
31180.951117	1123.063667	541.349609	19.640556
31180.951117	1123.063667	540.105469	-55.878387
31180.951117	1123.063667	538.860352	-68.781013
31180.951117	1123.063667	537.615234	-39.967628
31180.951117	1123.063667	536.369141	-63.374691
31180.951117	1123.063667	535.124023	75.937462
31180.951117	1123.063667	533.877930	-60.171791
31180.951117	1123.063667	532.631836	22.715683
31180.951117	1123.063667	531.384766	-125.890335
31180.951117	1123.063667	530.138672	-113.938736
31180.951117	1123.063667	528.891602	-102.020454
31180.951117	1123.063667	527.643555	-173.475250
31180.951117	1123.063667	526.396484	-311.564484
31180.951117	1123.063667	525.148438	-224.685776
31180.951117	1123.063667	523.900391	32.887630
31180.951117	1123.063667	522.652344	-57.314877
31180.951117	1123.063667	521.403320	-218.260193
31180.951117	1123.063667	520.154297	-325.036011
31180.951117	1123.063667	518.905273	-46.887394
31180.951117	1123.063667	517.656250	-205.656158
31180.951117	1123.063667	516.406250	-189.682297
31180.951117	1123.063667	515.156250	-406.572113
31180.951117	1123.063667	513.906250	-359.372559
31180.951117	1123.063667	512.655273	-229.067184
31180.951117	1123.063667	511.404297	-373.072021
31180.951117	1123.063667	510.153320	-105.695824
31180.951117	1123.063667	508.902344	-220.565674
31180.951117	1123.063667	507.650391	-165.113464
31180.951117	1123.063667	506.398438	-88.908707
31180.951117	1123.063667	505.146484	-91.588409
31180.951117	1123.063667	503.893555	-314.215363
31180.951117	1123.063667	502.641602	-84.444275
31180.951117	1123.063667	501.388672	-84.994217
31180.951117	1123.063667	500.134766	28.526999
31180.951117	1123.063667	498.881836	-32.120575
31180.951117	1123.063667	497.627930	-113.453880
31180.951117	1123.063667	496.374023	-45.509766
31180.951117	1123.063667	495.119141	61.793320
31180.951117	1123.063667	493.865234	-6.987151
31180.951117	1123.063667	492.610352	-32.222637
31180.951117	1123.063667	491.355469	27.482264
31180.951117	1123.063667	490.099609	12.660143
31180.951117	1123.063667	488.843750	103.437645
31180.951117	1123.063667	487.587891	177.657425
31180.951117	1123.063667	486.332031	57.412067
31180.951117	1123.063667	485.075195	22.051359
31180.951117	1123.063667	483.818359	239.034500
31180.951117	1123.063667	482.561523	145.838577
31180.951117	1123.063667	481.304688	156.075333
31180.951117	1123.063667	480.046875	153.939087
31180.951117	1123.063667	478.789063	1.014496
31180.951117	1123.063667	477.531250	79.557533
31180.951117	1123.063667	476.272461	92.008400
31180.951117	1123.063667	475.013672	164.376129
31180.951117	1123.063667	473.754883	92.245468
31180.951117	1123.063667	472.496094	38.762596
31180.951117	1123.063667	471.236328	-51.810364
31180.951117	1123.063667	469.976563	-98.980629
31180.951117	1123.063667	468.716797	49.856571
31180.951117	1123.063667	467.456055	76.990425
31180.951117	1123.063667	466.196289	11.380948
31180.951117	1123.063667	464.935547	110.729187
31180.951117	1123.063667	463.673828	39.011501
31180.951117	1123.063667	462.413086	-9.968967
31180.951117	1123.063667	461.151367	136.789322
31180.951117	1123.063667	459.889648	302.048218
31180.951117	1123.063667	458.626953	364.304077
31180.951117	1123.063667	457.364258	33.366184
31180.951117	1123.063667	456.101563	68.947136
31180.951117	1123.063667	454.838867	-74.486755
31180.951117	1123.063667	453.575195	193.604156
31180.951117	1123.063667	452.312500	223.012451
31180.951117	1123.063667	451.047852	69.387329
31180.951117	1123.063667	449.784180	107.047958
31180.951117	1123.063667	448.519531	208.411469
31180.951117	1123.063667	447.254883	330.283508
31180.951117	1123.063667	445.990234	150.076187
31180.951117	1123.063667	444.725586	-143.036789
31180.951117	1123.063667	443.459961	288.918121
31180.951117	1123.063667	442.194336	100.586456
31180.951117	1123.063667	440.927734	191.493011
31180.951117	1123.063667	439.662109	79.159485
31180.951117	1123.063667	438.395508	-2.383672
31180.951117	1123.063667	437.127930	133.521988
31180.951117	1123.063667	435.861328	146.275421
31180.951117	1123.063667	434.593750	95.398315
31180.951117	1123.063667	433.326172	103.945572
31180.951117	1123.063667	432.058594	81.682991
31180.951117	1123.063667	430.790039	219.198395
31180.951117	1123.063667	429.521484	114.818367
31180.951117	1123.063667	428.252930	118.965973
31180.951117	1123.063667	426.984375	194.699753
31180.951117	1123.063667	425.714844	223.201721
31180.951117	1123.063667	424.445313	272.055176
31180.951117	1123.063667	423.174805	95.635658
31180.951117	1123.063667	421.905273	314.086914
31180.951117	1123.063667	420.634766	329.772552
31180.951117	1123.063667	419.364258	177.595093
31180.951117	1123.063667	418.092773	270.698700
31180.951117	1123.063667	416.822266	433.114197
31180.951117	1123.063667	415.550781	323.428406
31180.951117	1123.063667	414.278320	7.196770
31180.951117	1123.063667	413.006836	295.657776
31180.951117	1123.063667	411.734375	314.144135
31180.951117	1123.063667	410.461914	218.035034
31180.951117	1123.063667	409.188477	111.508751
31180.951117	1123.063667	407.916016	329.350220
31180.951117	1123.063667	406.642578	222.325592
31180.951117	1123.063667	405.368164	194.628738
31180.951117	1123.063667	404.094727	246.216293
31180.951117	1123.063667	402.820313	144.492340
31180.951117	1123.063667	401.545898	203.570389
31180.951117	1123.063667	400.270508	-6.835095
31180.951117	1123.063667	398.996094	306.313507
31180.951117	1123.063667	397.720703	156.364502
31180.951117	1123.063667	396.444336	211.836136
31180.951117	1123.063667	395.168945	213.919464
31180.951117	1123.063667	393.892578	89.292381
31180.951117	1123.063667	392.616211	129.175934
31180.951117	1123.063667	391.339844	85.106537
31180.951117	1123.063667	390.062500	-0.159522
31180.951117	1123.063667	388.785156	144.004288
31180.951117	1123.063667	387.507813	31.251740
31180.951117	1123.063667	386.229492	-18.988192
31180.951117	1123.063667	384.951172	-90.130699
31180.951117	1123.063667	383.672852	240.651855
31180.951117	1123.063667	382.394531	-75.664093
31180.951117	1123.063667	381.115234	82.960159
31180.951117	1123.063667	379.835938	82.361488
31180.951117	1123.063667	378.556641	166.349228
31180.951117	1123.063667	377.277344	109.437088
31180.951117	1123.063667	375.997070	-279.173279
31180.951117	1123.063667	374.716797	58.241940
31180.951117	1123.063667	373.435547	126.780060
31180.951117	1123.063667	372.155273	153.864517
31180.951117	1123.063667	370.874023	-53.256371
31180.951117	1123.063667	369.591797	73.379593
31180.951117	1123.063667	368.310547	8.427008
31180.951117	1123.063667	367.028320	78.297501
31180.951117	1123.063667	365.746094	-35.299847
31180.951117	1123.063667	364.463867	34.470940
31180.951117	1123.063667	363.180664	-77.219353
31180.951117	1123.063667	361.897461	-48.232262
31180.951117	1123.063667	360.614258	-97.387779
31180.951117	1123.063667	359.330078	103.259758
31180.951117	1123.063667	358.045898	-43.556664
31180.951117	1123.063667	356.761719	6.697591
31180.951117	1123.063667	355.477539	-73.900803
31180.951117	1123.063667	354.192383	-125.548775
31180.951117	1123.063667	352.907227	37.772743
31180.951117	1123.063667	351.622070	27.683334
31180.951117	1123.063667	350.336914	88.839676
31180.951117	1123.063667	349.050781	75.600670
31180.951117	1123.063667	347.764648	141.560760
31180.951117	1123.063667	346.477539	-60.875069
31180.951117	1123.063667	345.191406	-163.927856
31180.951117	1123.063667	343.904297	-24.433889
31180.951117	1123.063667	342.616211	220.113235
31180.951117	1123.063667	341.329102	61.065434
31180.951117	1123.063667	340.041016	37.311989
31180.951117	1123.063667	338.752930	-2.554583
31180.951117	1123.063667	337.463867	-78.804634
31180.951117	1123.063667	336.175781	22.383652
31180.951117	1123.063667	334.886719	-171.041275
31180.951117	1123.063667	333.596680	-28.049143
31180.951117	1123.063667	332.307617	76.356728
31180.951117	1123.063667	331.017578	-180.348129
31180.951117	1123.063667	329.727539	-213.771301
31180.951117	1123.063667	328.436523	22.129570
31180.951117	1123.063667	327.146484	-306.344879
31180.951117	1123.063667	325.855469	-43.541100
31180.951117	1123.063667	324.563477	-57.354389
31180.951117	1123.063667	323.272461	-208.699219
31180.951117	1123.063667	321.980469	-191.921921
31180.951117	1123.063667	320.688477	-57.419743
31180.951117	1123.063667	319.395508	-346.343170
31180.951117	1123.063667	318.103516	-199.898041
31180.951117	1123.063667	316.810547	-251.747528
31180.951117	1123.063667	315.516602	-51.718678
31180.951117	1123.063667	314.223633	-208.644592
31180.951117	1123.063667	312.929688	74.880974
31180.951117	1123.063667	311.635742	29.424654
31180.951117	1123.063667	310.340820	72.631226
31180.951117	1123.063667	309.045898	122.141220
31180.951117	1123.063667	307.750977	43.397190
31180.951117	1123.063667	306.456055	452.369263
31180.951117	1123.063667	305.160156	459.867249
31180.951117	1123.063667	303.865234	379.138733
31180.951117	1123.063667	302.568359	302.048126
31180.951117	1123.063667	301.272461	667.846008
31180.951117	1123.063667	299.975586	748.363464
31180.951117	1123.063667	298.678711	1048.757568
