#X		#Y		#Wave		#Intensity
23205.837074	2447.258667	1999.980469	-124.018044
23205.837074	2447.258667	1999.016602	36.166592
23205.837074	2447.258667	1998.052734	-165.683670
23205.837074	2447.258667	1997.087891	-192.412094
23205.837074	2447.258667	1996.123047	-108.528671
23205.837074	2447.258667	1995.158203	-10.677680
23205.837074	2447.258667	1994.193359	66.484329
23205.837074	2447.258667	1993.228516	219.569778
23205.837074	2447.258667	1992.262695	307.453094
23205.837074	2447.258667	1991.297852	176.696335
23205.837074	2447.258667	1990.332031	260.577271
23205.837074	2447.258667	1989.366211	163.080399
23205.837074	2447.258667	1988.399414	-140.405197
23205.837074	2447.258667	1987.433594	18.096519
23205.837074	2447.258667	1986.466797	-51.620907
23205.837074	2447.258667	1985.500977	562.969055
23205.837074	2447.258667	1984.534180	336.205292
23205.837074	2447.258667	1983.567383	482.171173
23205.837074	2447.258667	1982.599609	637.411316
23205.837074	2447.258667	1981.632813	154.587967
23205.837074	2447.258667	1980.665039	41.974918
23205.837074	2447.258667	1979.697266	348.781158
23205.837074	2447.258667	1978.729492	454.967285
23205.837074	2447.258667	1977.761719	237.218094
23205.837074	2447.258667	1976.792969	332.605743
23205.837074	2447.258667	1975.825195	193.063477
23205.837074	2447.258667	1974.856445	206.151566
23205.837074	2447.258667	1973.887695	142.362564
23205.837074	2447.258667	1972.918945	167.015869
23205.837074	2447.258667	1971.949219	504.507782
23205.837074	2447.258667	1970.980469	-85.591774
23205.837074	2447.258667	1970.010742	88.433784
23205.837074	2447.258667	1969.041016	419.826965
23205.837074	2447.258667	1968.071289	183.989227
23205.837074	2447.258667	1967.101563	339.714172
23205.837074	2447.258667	1966.130859	268.470154
23205.837074	2447.258667	1965.161133	312.750397
23205.837074	2447.258667	1964.190430	374.004028
23205.837074	2447.258667	1963.219727	435.000488
23205.837074	2447.258667	1962.249023	530.213257
23205.837074	2447.258667	1961.277344	379.062866
23205.837074	2447.258667	1960.306641	299.131042
23205.837074	2447.258667	1959.334961	81.267220
23205.837074	2447.258667	1958.363281	438.896576
23205.837074	2447.258667	1957.391602	597.022217
23205.837074	2447.258667	1956.419922	218.898743
23205.837074	2447.258667	1955.447266	261.156677
23205.837074	2447.258667	1954.474609	148.412003
23205.837074	2447.258667	1953.501953	60.158745
23205.837074	2447.258667	1952.529297	-67.492195
23205.837074	2447.258667	1951.556641	367.356873
23205.837074	2447.258667	1950.583984	38.087780
23205.837074	2447.258667	1949.610352	-55.409790
23205.837074	2447.258667	1948.636719	96.569038
23205.837074	2447.258667	1947.663086	49.579048
23205.837074	2447.258667	1946.689453	-39.182678
23205.837074	2447.258667	1945.715820	-164.779083
23205.837074	2447.258667	1944.741211	-40.138531
23205.837074	2447.258667	1943.767578	155.546356
23205.837074	2447.258667	1942.792969	64.176849
23205.837074	2447.258667	1941.818359	262.147888
23205.837074	2447.258667	1940.842773	-145.524734
23205.837074	2447.258667	1939.868164	272.961731
23205.837074	2447.258667	1938.892578	39.399990
23205.837074	2447.258667	1937.916992	144.041504
23205.837074	2447.258667	1936.941406	91.856285
23205.837074	2447.258667	1935.965820	162.153931
23205.837074	2447.258667	1934.990234	112.435234
23205.837074	2447.258667	1934.013672	-96.400803
23205.837074	2447.258667	1933.037109	35.113022
23205.837074	2447.258667	1932.060547	7.510067
23205.837074	2447.258667	1931.083984	-232.949951
23205.837074	2447.258667	1930.107422	113.875282
23205.837074	2447.258667	1929.129883	162.172928
23205.837074	2447.258667	1928.153320	-19.401604
23205.837074	2447.258667	1927.175781	143.893295
23205.837074	2447.258667	1926.198242	-169.556778
23205.837074	2447.258667	1925.219727	113.547989
23205.837074	2447.258667	1924.242188	113.111977
23205.837074	2447.258667	1923.263672	-163.383362
23205.837074	2447.258667	1922.285156	-41.533798
23205.837074	2447.258667	1921.306641	104.744698
23205.837074	2447.258667	1920.328125	94.733261
23205.837074	2447.258667	1919.349609	-47.066444
23205.837074	2447.258667	1918.370117	-320.578064
23205.837074	2447.258667	1917.391602	55.276691
23205.837074	2447.258667	1916.412109	33.297199
23205.837074	2447.258667	1915.431641	-47.171547
23205.837074	2447.258667	1914.452148	-93.397804
23205.837074	2447.258667	1913.472656	-41.995293
23205.837074	2447.258667	1912.492188	111.857941
23205.837074	2447.258667	1911.511719	-58.526012
23205.837074	2447.258667	1910.531250	-60.601879
23205.837074	2447.258667	1909.550781	-223.453430
23205.837074	2447.258667	1908.569336	-342.329285
23205.837074	2447.258667	1907.588867	-405.065979
23205.837074	2447.258667	1906.607422	126.569435
23205.837074	2447.258667	1905.625977	71.196503
23205.837074	2447.258667	1904.644531	-83.919548
23205.837074	2447.258667	1903.662109	152.995804
23205.837074	2447.258667	1902.680664	-133.379532
23205.837074	2447.258667	1901.698242	-220.056702
23205.837074	2447.258667	1900.715820	-131.475647
23205.837074	2447.258667	1899.733398	137.130310
23205.837074	2447.258667	1898.750000	215.998322
23205.837074	2447.258667	1897.767578	-145.212357
23205.837074	2447.258667	1896.784180	-66.212029
23205.837074	2447.258667	1895.800781	136.773453
23205.837074	2447.258667	1894.817383	184.205582
23205.837074	2447.258667	1893.833984	66.451996
23205.837074	2447.258667	1892.850586	101.833405
23205.837074	2447.258667	1891.866211	-142.065613
23205.837074	2447.258667	1890.881836	-60.428638
23205.837074	2447.258667	1889.897461	-15.194974
23205.837074	2447.258667	1888.913086	149.006531
23205.837074	2447.258667	1887.927734	-16.884182
23205.837074	2447.258667	1886.943359	-187.524353
23205.837074	2447.258667	1885.958008	51.938416
23205.837074	2447.258667	1884.972656	-9.430140
23205.837074	2447.258667	1883.987305	-145.923264
23205.837074	2447.258667	1883.001953	81.368889
23205.837074	2447.258667	1882.015625	-69.580757
23205.837074	2447.258667	1881.029297	2.541189
23205.837074	2447.258667	1880.042969	64.964699
23205.837074	2447.258667	1879.056641	263.068146
23205.837074	2447.258667	1878.070313	-76.668648
23205.837074	2447.258667	1877.083984	266.738068
23205.837074	2447.258667	1876.096680	38.544281
23205.837074	2447.258667	1875.109375	81.607826
23205.837074	2447.258667	1874.122070	-61.726368
23205.837074	2447.258667	1873.134766	-192.902481
23205.837074	2447.258667	1872.146484	51.026707
23205.837074	2447.258667	1871.159180	26.326260
23205.837074	2447.258667	1870.170898	33.073032
23205.837074	2447.258667	1869.182617	44.648067
23205.837074	2447.258667	1868.194336	-115.463303
23205.837074	2447.258667	1867.205078	-263.442963
23205.837074	2447.258667	1866.216797	-43.998627
23205.837074	2447.258667	1865.227539	-126.723564
23205.837074	2447.258667	1864.238281	49.081516
23205.837074	2447.258667	1863.249023	-139.967331
23205.837074	2447.258667	1862.259766	-48.812641
23205.837074	2447.258667	1861.269531	114.716919
23205.837074	2447.258667	1860.279297	384.379242
23205.837074	2447.258667	1859.290039	250.793686
23205.837074	2447.258667	1858.298828	-22.760019
23205.837074	2447.258667	1857.308594	34.312901
23205.837074	2447.258667	1856.318359	-99.265572
23205.837074	2447.258667	1855.327148	-90.537315
23205.837074	2447.258667	1854.335938	388.384613
23205.837074	2447.258667	1853.344727	49.705978
23205.837074	2447.258667	1852.353516	41.353256
23205.837074	2447.258667	1851.362305	-32.135754
23205.837074	2447.258667	1850.370117	101.571739
23205.837074	2447.258667	1849.377930	158.060196
23205.837074	2447.258667	1848.385742	81.968956
23205.837074	2447.258667	1847.393555	196.089722
23205.837074	2447.258667	1846.401367	485.868500
23205.837074	2447.258667	1845.408203	327.659180
23205.837074	2447.258667	1844.415039	-23.138943
23205.837074	2447.258667	1843.421875	-5.689258
23205.837074	2447.258667	1842.428711	329.266754
23205.837074	2447.258667	1841.435547	336.831390
23205.837074	2447.258667	1840.441406	-54.977814
23205.837074	2447.258667	1839.448242	96.737785
23205.837074	2447.258667	1838.454102	195.391388
23205.837074	2447.258667	1837.459961	84.763794
23205.837074	2447.258667	1836.464844	113.458145
23205.837074	2447.258667	1835.470703	161.252838
23205.837074	2447.258667	1834.475586	348.251709
23205.837074	2447.258667	1833.480469	611.923523
23205.837074	2447.258667	1832.485352	46.817982
23205.837074	2447.258667	1831.490234	190.135147
23205.837074	2447.258667	1830.495117	165.217712
23205.837074	2447.258667	1829.499023	101.767662
23205.837074	2447.258667	1828.502930	482.162689
23205.837074	2447.258667	1827.506836	82.491669
23205.837074	2447.258667	1826.510742	150.607101
23205.837074	2447.258667	1825.513672	448.794525
23205.837074	2447.258667	1824.517578	135.239670
23205.837074	2447.258667	1823.520508	174.082809
23205.837074	2447.258667	1822.523438	205.561966
23205.837074	2447.258667	1821.526367	349.512238
23205.837074	2447.258667	1820.529297	-81.834763
23205.837074	2447.258667	1819.531250	-29.254829
23205.837074	2447.258667	1818.533203	296.197845
23205.837074	2447.258667	1817.535156	118.448265
23205.837074	2447.258667	1816.537109	292.562195
23205.837074	2447.258667	1815.539063	136.074081
23205.837074	2447.258667	1814.540039	395.922333
23205.837074	2447.258667	1813.541992	38.103165
23205.837074	2447.258667	1812.542969	290.327820
23205.837074	2447.258667	1811.543945	386.785675
23205.837074	2447.258667	1810.543945	71.646973
23205.837074	2447.258667	1809.544922	213.159439
23205.837074	2447.258667	1808.544922	261.179565
23205.837074	2447.258667	1807.544922	335.276459
23205.837074	2447.258667	1806.544922	275.316986
23205.837074	2447.258667	1805.544922	501.902344
23205.837074	2447.258667	1804.544922	166.799911
23205.837074	2447.258667	1803.543945	378.573334
23205.837074	2447.258667	1802.542969	537.519470
23205.837074	2447.258667	1801.541992	154.212326
23205.837074	2447.258667	1800.541016	-50.125484
23205.837074	2447.258667	1799.539063	313.416687
23205.837074	2447.258667	1798.538086	266.183136
23205.837074	2447.258667	1797.536133	252.139709
23205.837074	2447.258667	1796.534180	85.219429
23205.837074	2447.258667	1795.532227	299.717346
23205.837074	2447.258667	1794.529297	327.912415
23205.837074	2447.258667	1793.527344	301.049683
23205.837074	2447.258667	1792.524414	209.600906
23205.837074	2447.258667	1791.521484	-151.329681
23205.837074	2447.258667	1790.518555	85.678162
23205.837074	2447.258667	1789.514648	284.236511
23205.837074	2447.258667	1788.511719	184.778381
23205.837074	2447.258667	1787.507813	268.466858
23205.837074	2447.258667	1786.503906	170.942703
23205.837074	2447.258667	1785.500000	-7.719333
23205.837074	2447.258667	1784.496094	294.184448
23205.837074	2447.258667	1783.491211	96.030685
23205.837074	2447.258667	1782.486328	264.072510
23205.837074	2447.258667	1781.481445	-100.992088
23205.837074	2447.258667	1780.476563	-57.134991
23205.837074	2447.258667	1779.471680	-137.181549
23205.837074	2447.258667	1778.465820	-134.261948
23205.837074	2447.258667	1777.460938	63.312397
23205.837074	2447.258667	1776.455078	132.223434
23205.837074	2447.258667	1775.449219	51.175499
23205.837074	2447.258667	1774.442383	233.555206
23205.837074	2447.258667	1773.436523	482.123566
23205.837074	2447.258667	1772.429688	283.918213
23205.837074	2447.258667	1771.422852	168.619247
23205.837074	2447.258667	1770.416016	392.530670
23205.837074	2447.258667	1769.409180	160.450607
23205.837074	2447.258667	1768.402344	4.124584
23205.837074	2447.258667	1767.394531	151.224915
23205.837074	2447.258667	1766.386719	188.903885
23205.837074	2447.258667	1765.378906	24.741098
23205.837074	2447.258667	1764.371094	166.220505
23205.837074	2447.258667	1763.362305	184.103485
23205.837074	2447.258667	1762.354492	173.289810
23205.837074	2447.258667	1761.345703	140.870804
23205.837074	2447.258667	1760.336914	-45.792450
23205.837074	2447.258667	1759.328125	-121.327103
23205.837074	2447.258667	1758.318359	304.937378
23205.837074	2447.258667	1757.308594	136.470398
23205.837074	2447.258667	1756.299805	90.920105
23205.837074	2447.258667	1755.290039	303.082153
23205.837074	2447.258667	1754.279297	413.121887
23205.837074	2447.258667	1753.269531	-21.292372
23205.837074	2447.258667	1752.258789	21.998934
23205.837074	2447.258667	1751.249023	192.735565
23205.837074	2447.258667	1750.238281	-180.734406
23205.837074	2447.258667	1749.226563	-69.704399
23205.837074	2447.258667	1748.215820	-211.876373
23205.837074	2447.258667	1747.204102	-129.776642
23205.837074	2447.258667	1746.193359	195.411484
23205.837074	2447.258667	1745.181641	-150.712250
23205.837074	2447.258667	1744.168945	-104.923454
23205.837074	2447.258667	1743.157227	-229.419418
23205.837074	2447.258667	1742.144531	-155.832245
23205.837074	2447.258667	1741.132813	-70.715538
23205.837074	2447.258667	1740.120117	-28.399569
23205.837074	2447.258667	1739.106445	-0.544470
23205.837074	2447.258667	1738.093750	22.338762
23205.837074	2447.258667	1737.080078	11.906815
23205.837074	2447.258667	1736.067383	67.270851
23205.837074	2447.258667	1735.053711	-139.391846
23205.837074	2447.258667	1734.040039	52.160511
23205.837074	2447.258667	1733.025391	-270.453430
23205.837074	2447.258667	1732.011719	-234.995453
23205.837074	2447.258667	1730.997070	49.903393
23205.837074	2447.258667	1729.982422	-0.055006
23205.837074	2447.258667	1728.967773	-21.990547
23205.837074	2447.258667	1727.952148	-305.566803
23205.837074	2447.258667	1726.937500	220.589859
23205.837074	2447.258667	1725.921875	-2.233868
23205.837074	2447.258667	1724.906250	-133.444061
23205.837074	2447.258667	1723.890625	-86.037346
23205.837074	2447.258667	1722.875000	-104.766205
23205.837074	2447.258667	1721.858398	-50.851990
23205.837074	2447.258667	1720.841797	-77.158669
23205.837074	2447.258667	1719.825195	157.270401
23205.837074	2447.258667	1718.808594	92.835274
23205.837074	2447.258667	1717.791992	-39.972187
23205.837074	2447.258667	1716.774414	-142.452362
23205.837074	2447.258667	1715.756836	-214.592896
23205.837074	2447.258667	1714.739258	88.867722
23205.837074	2447.258667	1713.721680	220.544586
23205.837074	2447.258667	1712.704102	49.054771
23205.837074	2447.258667	1711.685547	-139.063156
23205.837074	2447.258667	1710.667969	-12.810575
23205.837074	2447.258667	1709.649414	-37.045940
23205.837074	2447.258667	1708.630859	344.377686
23205.837074	2447.258667	1707.611328	45.156372
23205.837074	2447.258667	1706.592773	139.851105
23205.837074	2447.258667	1705.573242	-65.872681
23205.837074	2447.258667	1704.553711	157.273544
23205.837074	2447.258667	1703.534180	91.819267
23205.837074	2447.258667	1702.513672	351.877777
23205.837074	2447.258667	1701.494141	54.027756
23205.837074	2447.258667	1700.473633	-23.754595
23205.837074	2447.258667	1699.453125	219.146545
23205.837074	2447.258667	1698.432617	-27.653198
23205.837074	2447.258667	1697.412109	247.520386
23205.837074	2447.258667	1696.390625	49.525757
23205.837074	2447.258667	1695.369141	165.001099
23205.837074	2447.258667	1694.347656	294.273102
23205.837074	2447.258667	1693.326172	561.324707
23205.837074	2447.258667	1692.304688	500.627136
23205.837074	2447.258667	1691.282227	-121.504791
23205.837074	2447.258667	1690.260742	-46.822048
23205.837074	2447.258667	1689.238281	275.395996
23205.837074	2447.258667	1688.214844	300.456177
23205.837074	2447.258667	1687.192383	311.341034
23205.837074	2447.258667	1686.168945	174.823044
23205.837074	2447.258667	1685.146484	327.854156
23205.837074	2447.258667	1684.123047	307.802032
23205.837074	2447.258667	1683.099609	511.736877
23205.837074	2447.258667	1682.075195	136.448883
23205.837074	2447.258667	1681.051758	230.305389
23205.837074	2447.258667	1680.027344	603.952209
23205.837074	2447.258667	1679.002930	363.692749
23205.837074	2447.258667	1677.978516	662.207581
23205.837074	2447.258667	1676.953125	461.327393
23205.837074	2447.258667	1675.928711	216.106506
23205.837074	2447.258667	1674.903320	565.273499
23205.837074	2447.258667	1673.877930	713.706848
23205.837074	2447.258667	1672.852539	917.868408
23205.837074	2447.258667	1671.826172	769.955566
23205.837074	2447.258667	1670.800781	820.002502
23205.837074	2447.258667	1669.774414	1002.615723
23205.837074	2447.258667	1668.748047	577.265991
23205.837074	2447.258667	1667.721680	841.079468
23205.837074	2447.258667	1666.694336	778.751099
23205.837074	2447.258667	1665.667969	928.140564
23205.837074	2447.258667	1664.640625	851.618896
23205.837074	2447.258667	1663.613281	888.999329
23205.837074	2447.258667	1662.585938	1368.169922
23205.837074	2447.258667	1661.557617	1014.500854
23205.837074	2447.258667	1660.530273	1332.821655
23205.837074	2447.258667	1659.501953	1062.768188
23205.837074	2447.258667	1658.473633	1266.833984
23205.837074	2447.258667	1657.444336	1326.619385
23205.837074	2447.258667	1656.416016	1135.417725
23205.837074	2447.258667	1655.386719	1680.473389
23205.837074	2447.258667	1654.358398	1326.538818
23205.837074	2447.258667	1653.328125	1536.789429
23205.837074	2447.258667	1652.298828	1440.489990
23205.837074	2447.258667	1651.269531	1662.119751
23205.837074	2447.258667	1650.239258	1723.437256
23205.837074	2447.258667	1649.208984	1773.057739
23205.837074	2447.258667	1648.178711	1966.406616
23205.837074	2447.258667	1647.148438	2178.168701
23205.837074	2447.258667	1646.117188	1772.973633
23205.837074	2447.258667	1645.086914	1868.656616
23205.837074	2447.258667	1644.055664	2256.256104
23205.837074	2447.258667	1643.024414	2064.311768
23205.837074	2447.258667	1641.992188	2099.411621
23205.837074	2447.258667	1640.960938	2305.911133
23205.837074	2447.258667	1639.928711	2222.749023
23205.837074	2447.258667	1638.896484	2623.533203
23205.837074	2447.258667	1637.864258	2558.788818
23205.837074	2447.258667	1636.832031	2852.812012
23205.837074	2447.258667	1635.798828	2526.445068
23205.837074	2447.258667	1634.766602	2621.324463
23205.837074	2447.258667	1633.733398	2972.885010
23205.837074	2447.258667	1632.699219	2824.675049
23205.837074	2447.258667	1631.666016	2965.597168
23205.837074	2447.258667	1630.632813	3152.694336
23205.837074	2447.258667	1629.598633	3092.340088
23205.837074	2447.258667	1628.564453	3535.820068
23205.837074	2447.258667	1627.530273	3484.653809
23205.837074	2447.258667	1626.495117	3930.159912
23205.837074	2447.258667	1625.460938	3874.328369
23205.837074	2447.258667	1624.425781	3924.715088
23205.837074	2447.258667	1623.390625	4252.156738
23205.837074	2447.258667	1622.355469	4055.485107
23205.837074	2447.258667	1621.319336	4502.784668
23205.837074	2447.258667	1620.284180	4714.609375
23205.837074	2447.258667	1619.248047	4845.596191
23205.837074	2447.258667	1618.211914	4861.232910
23205.837074	2447.258667	1617.174805	4812.286621
23205.837074	2447.258667	1616.138672	4885.639648
23205.837074	2447.258667	1615.101563	4696.167969
23205.837074	2447.258667	1614.065430	5055.393066
23205.837074	2447.258667	1613.027344	4884.452637
23205.837074	2447.258667	1611.990234	4660.679688
23205.837074	2447.258667	1610.953125	5340.000000
23205.837074	2447.258667	1609.915039	5150.845703
23205.837074	2447.258667	1608.876953	5095.376465
23205.837074	2447.258667	1607.838867	5191.932617
23205.837074	2447.258667	1606.800781	4924.856934
23205.837074	2447.258667	1605.761719	5092.850098
23205.837074	2447.258667	1604.723633	5076.829102
23205.837074	2447.258667	1603.684570	4538.688965
23205.837074	2447.258667	1602.644531	4821.854980
23205.837074	2447.258667	1601.605469	5033.751465
23205.837074	2447.258667	1600.566406	5454.856445
23205.837074	2447.258667	1599.526367	5365.586914
23205.837074	2447.258667	1598.486328	5379.860840
23205.837074	2447.258667	1597.446289	5210.419922
23205.837074	2447.258667	1596.405273	5410.958496
23205.837074	2447.258667	1595.365234	5549.547852
23205.837074	2447.258667	1594.324219	5823.634766
23205.837074	2447.258667	1593.283203	6157.422852
23205.837074	2447.258667	1592.242188	6204.274414
23205.837074	2447.258667	1591.200195	6432.489746
23205.837074	2447.258667	1590.159180	6626.357422
23205.837074	2447.258667	1589.117188	6586.251953
23205.837074	2447.258667	1588.075195	6988.949219
23205.837074	2447.258667	1587.032227	6937.547363
23205.837074	2447.258667	1585.990234	7131.658203
23205.837074	2447.258667	1584.947266	7103.445801
23205.837074	2447.258667	1583.904297	7302.275879
23205.837074	2447.258667	1582.861328	7361.405762
23205.837074	2447.258667	1581.818359	7317.569336
23205.837074	2447.258667	1580.775391	7136.476563
23205.837074	2447.258667	1579.731445	6925.807129
23205.837074	2447.258667	1578.687500	6225.414551
23205.837074	2447.258667	1577.643555	6489.166016
23205.837074	2447.258667	1576.598633	6116.706055
23205.837074	2447.258667	1575.554688	5726.285156
23205.837074	2447.258667	1574.509766	5416.229492
23205.837074	2447.258667	1573.464844	5653.130371
23205.837074	2447.258667	1572.419922	5174.334473
23205.837074	2447.258667	1571.374023	4986.246094
23205.837074	2447.258667	1570.329102	4764.159180
23205.837074	2447.258667	1569.283203	5506.797852
23205.837074	2447.258667	1568.237305	4887.438965
23205.837074	2447.258667	1567.191406	4531.245117
23205.837074	2447.258667	1566.144531	5006.790527
23205.837074	2447.258667	1565.098633	4420.452148
23205.837074	2447.258667	1564.051758	4569.725586
23205.837074	2447.258667	1563.004883	4210.078613
23205.837074	2447.258667	1561.957031	3946.607666
23205.837074	2447.258667	1560.910156	3970.998535
23205.837074	2447.258667	1559.862305	3760.575684
23205.837074	2447.258667	1558.814453	3338.317383
23205.837074	2447.258667	1557.766602	3666.749756
23205.837074	2447.258667	1556.718750	3666.934326
23205.837074	2447.258667	1555.669922	3229.617188
23205.837074	2447.258667	1554.621094	3241.706055
23205.837074	2447.258667	1553.573242	3146.947266
23205.837074	2447.258667	1552.523438	2824.568604
23205.837074	2447.258667	1551.474609	2659.749756
23205.837074	2447.258667	1550.424805	2476.988281
23205.837074	2447.258667	1549.375000	2652.024170
23205.837074	2447.258667	1548.325195	2779.428711
23205.837074	2447.258667	1547.275391	2517.815186
23205.837074	2447.258667	1546.225586	2497.772217
23205.837074	2447.258667	1545.174805	2698.653320
23205.837074	2447.258667	1544.124023	2531.196045
23205.837074	2447.258667	1543.073242	2575.573975
23205.837074	2447.258667	1542.022461	2295.028076
23205.837074	2447.258667	1540.970703	2205.793945
23205.837074	2447.258667	1539.919922	1905.498413
23205.837074	2447.258667	1538.868164	1782.814453
23205.837074	2447.258667	1537.815430	1719.494995
23205.837074	2447.258667	1536.763672	1933.632080
23205.837074	2447.258667	1535.710938	2036.644043
23205.837074	2447.258667	1534.659180	1633.545654
23205.837074	2447.258667	1533.606445	1687.180420
23205.837074	2447.258667	1532.552734	1334.750122
23205.837074	2447.258667	1531.500000	1511.527588
23205.837074	2447.258667	1530.446289	1382.189819
23205.837074	2447.258667	1529.393555	1114.832642
23205.837074	2447.258667	1528.338867	1004.318176
23205.837074	2447.258667	1527.285156	798.918762
23205.837074	2447.258667	1526.231445	1242.290894
23205.837074	2447.258667	1525.176758	815.353577
23205.837074	2447.258667	1524.122070	656.293335
23205.837074	2447.258667	1523.067383	737.768127
23205.837074	2447.258667	1522.012695	651.873291
23205.837074	2447.258667	1520.957031	704.449036
23205.837074	2447.258667	1519.901367	877.323059
23205.837074	2447.258667	1518.845703	464.059418
23205.837074	2447.258667	1517.790039	449.647949
23205.837074	2447.258667	1516.734375	-46.489941
23205.837074	2447.258667	1515.677734	301.827057
23205.837074	2447.258667	1514.621094	286.102753
23205.837074	2447.258667	1513.564453	137.254608
23205.837074	2447.258667	1512.507813	27.221504
23205.837074	2447.258667	1511.450195	426.222870
23205.837074	2447.258667	1510.393555	115.632706
23205.837074	2447.258667	1509.335938	110.560677
23205.837074	2447.258667	1508.278320	672.952026
23205.837074	2447.258667	1507.219727	566.740234
23205.837074	2447.258667	1506.162109	508.341522
23205.837074	2447.258667	1505.103516	617.377808
23205.837074	2447.258667	1504.044922	956.986206
23205.837074	2447.258667	1502.986328	834.046753
23205.837074	2447.258667	1501.926758	1338.867310
23205.837074	2447.258667	1500.868164	1805.472290
23205.837074	2447.258667	1499.808594	1737.556763
23205.837074	2447.258667	1498.749023	1419.639038
23205.837074	2447.258667	1497.688477	1828.287842
23205.837074	2447.258667	1496.628906	1612.603027
23205.837074	2447.258667	1495.568359	1776.022339
23205.837074	2447.258667	1494.507813	1858.584106
23205.837074	2447.258667	1493.447266	1662.043091
23205.837074	2447.258667	1492.386719	1380.316040
23205.837074	2447.258667	1491.325195	1682.389404
23205.837074	2447.258667	1490.263672	1315.864746
23205.837074	2447.258667	1489.202148	1138.951660
23205.837074	2447.258667	1488.140625	1192.054932
23205.837074	2447.258667	1487.079102	1324.249634
23205.837074	2447.258667	1486.016602	1123.708984
23205.837074	2447.258667	1484.954102	1058.573853
23205.837074	2447.258667	1483.891602	1400.920898
23205.837074	2447.258667	1482.829102	1604.047363
23205.837074	2447.258667	1481.765625	1501.655273
23205.837074	2447.258667	1480.702148	1458.094971
23205.837074	2447.258667	1479.638672	1365.432983
23205.837074	2447.258667	1478.575195	1691.068237
23205.837074	2447.258667	1477.511719	1985.489136
23205.837074	2447.258667	1476.447266	2196.965820
23205.837074	2447.258667	1475.382813	2240.272217
23205.837074	2447.258667	1474.318359	2921.385254
23205.837074	2447.258667	1473.253906	3550.883057
23205.837074	2447.258667	1472.189453	3594.757813
23205.837074	2447.258667	1471.124023	4114.414063
23205.837074	2447.258667	1470.058594	4250.893555
23205.837074	2447.258667	1468.993164	4786.497070
23205.837074	2447.258667	1467.927734	5295.181641
23205.837074	2447.258667	1466.861328	5457.114258
23205.837074	2447.258667	1465.794922	5741.519043
23205.837074	2447.258667	1464.728516	6073.349121
23205.837074	2447.258667	1463.662109	5886.654785
23205.837074	2447.258667	1462.594727	6005.897461
23205.837074	2447.258667	1461.528320	5926.978516
23205.837074	2447.258667	1460.460938	6371.512695
23205.837074	2447.258667	1459.393555	6159.354492
23205.837074	2447.258667	1458.326172	6110.269043
23205.837074	2447.258667	1457.257813	5939.199707
23205.837074	2447.258667	1456.189453	6198.980469
23205.837074	2447.258667	1455.121094	5823.450684
23205.837074	2447.258667	1454.052734	5649.109863
23205.837074	2447.258667	1452.984375	5873.758789
23205.837074	2447.258667	1451.915039	6135.942871
23205.837074	2447.258667	1450.845703	6276.108887
23205.837074	2447.258667	1449.776367	6381.790039
23205.837074	2447.258667	1448.707031	6318.072266
23205.837074	2447.258667	1447.636719	6236.683105
23205.837074	2447.258667	1446.567383	6258.763672
23205.837074	2447.258667	1445.497070	5866.488281
23205.837074	2447.258667	1444.425781	5888.247559
23205.837074	2447.258667	1443.355469	5323.205078
23205.837074	2447.258667	1442.285156	4805.740234
23205.837074	2447.258667	1441.213867	4467.070801
23205.837074	2447.258667	1440.142578	3964.388184
23205.837074	2447.258667	1439.070313	3537.285156
23205.837074	2447.258667	1437.999023	3056.793213
23205.837074	2447.258667	1436.926758	3031.996826
23205.837074	2447.258667	1435.854492	2657.578857
23205.837074	2447.258667	1434.782227	2401.421387
23205.837074	2447.258667	1433.709961	2406.167480
23205.837074	2447.258667	1432.636719	2058.857178
23205.837074	2447.258667	1431.563477	2252.058594
23205.837074	2447.258667	1430.490234	1925.587036
23205.837074	2447.258667	1429.416992	1834.632568
23205.837074	2447.258667	1428.343750	1553.498901
23205.837074	2447.258667	1427.269531	1749.531616
23205.837074	2447.258667	1426.195313	1575.898926
23205.837074	2447.258667	1425.121094	1673.029175
23205.837074	2447.258667	1424.046875	1402.366333
23205.837074	2447.258667	1422.971680	1404.140137
23205.837074	2447.258667	1421.896484	1570.853149
23205.837074	2447.258667	1420.821289	1344.386963
23205.837074	2447.258667	1419.746094	1056.202881
23205.837074	2447.258667	1418.669922	1440.674316
23205.837074	2447.258667	1417.594727	1277.367065
23205.837074	2447.258667	1416.518555	1255.896606
23205.837074	2447.258667	1415.442383	926.294800
23205.837074	2447.258667	1414.365234	1154.014282
23205.837074	2447.258667	1413.289063	1003.661133
23205.837074	2447.258667	1412.211914	698.275146
23205.837074	2447.258667	1411.134766	492.345886
23205.837074	2447.258667	1410.057617	1032.272095
23205.837074	2447.258667	1408.979492	542.165833
23205.837074	2447.258667	1407.902344	834.571655
23205.837074	2447.258667	1406.824219	751.182495
23205.837074	2447.258667	1405.746094	1097.283081
23205.837074	2447.258667	1404.666992	1310.084473
23205.837074	2447.258667	1403.588867	925.021057
23205.837074	2447.258667	1402.509766	1330.829102
23205.837074	2447.258667	1401.430664	1138.135986
23205.837074	2447.258667	1400.351563	1210.945801
23205.837074	2447.258667	1399.271484	1162.269165
23205.837074	2447.258667	1398.192383	1346.719849
23205.837074	2447.258667	1397.112305	1369.608521
23205.837074	2447.258667	1396.031250	1399.365967
23205.837074	2447.258667	1394.951172	1591.968994
23205.837074	2447.258667	1393.871094	1721.739624
23205.837074	2447.258667	1392.790039	1993.553345
23205.837074	2447.258667	1391.708984	1797.542725
23205.837074	2447.258667	1390.626953	2001.593750
23205.837074	2447.258667	1389.545898	2217.815430
23205.837074	2447.258667	1388.463867	2027.165161
23205.837074	2447.258667	1387.381836	2255.315674
23205.837074	2447.258667	1386.299805	2321.182617
23205.837074	2447.258667	1385.217773	2262.677979
23205.837074	2447.258667	1384.134766	2717.349121
23205.837074	2447.258667	1383.051758	2537.738525
23205.837074	2447.258667	1381.968750	2447.300781
23205.837074	2447.258667	1380.885742	2716.159180
23205.837074	2447.258667	1379.802734	2871.674316
23205.837074	2447.258667	1378.718750	2343.297119
23205.837074	2447.258667	1377.634766	2793.850098
23205.837074	2447.258667	1376.550781	2814.334473
23205.837074	2447.258667	1375.465820	2866.393799
23205.837074	2447.258667	1374.381836	2699.235107
23205.837074	2447.258667	1373.296875	2645.447266
23205.837074	2447.258667	1372.211914	2552.195801
23205.837074	2447.258667	1371.126953	2924.286377
23205.837074	2447.258667	1370.041016	2886.656006
23205.837074	2447.258667	1368.955078	2183.234619
23205.837074	2447.258667	1367.869141	2178.355713
23205.837074	2447.258667	1366.783203	2495.536133
23205.837074	2447.258667	1365.697266	2236.008057
23205.837074	2447.258667	1364.610352	1856.961060
23205.837074	2447.258667	1363.523438	1833.663818
23205.837074	2447.258667	1362.436523	1807.426270
23205.837074	2447.258667	1361.349609	1590.876709
23205.837074	2447.258667	1360.261719	1963.901123
23205.837074	2447.258667	1359.174805	1819.628418
23205.837074	2447.258667	1358.086914	1770.573364
23205.837074	2447.258667	1356.998047	1459.390137
23205.837074	2447.258667	1355.910156	1427.892090
23205.837074	2447.258667	1354.821289	1653.909668
23205.837074	2447.258667	1353.732422	1470.787354
23205.837074	2447.258667	1352.643555	1532.198364
23205.837074	2447.258667	1351.554688	1327.182983
23205.837074	2447.258667	1350.464844	1314.345581
23205.837074	2447.258667	1349.375000	1423.713745
23205.837074	2447.258667	1348.285156	1410.335327
23205.837074	2447.258667	1347.195313	1621.143311
23205.837074	2447.258667	1346.105469	1812.045288
23205.837074	2447.258667	1345.014648	1262.853271
23205.837074	2447.258667	1343.923828	1651.025391
23205.837074	2447.258667	1342.833008	1834.535522
23205.837074	2447.258667	1341.741211	1717.579224
23205.837074	2447.258667	1340.650391	1582.370728
23205.837074	2447.258667	1339.558594	1500.731689
23205.837074	2447.258667	1338.466797	1636.035156
23205.837074	2447.258667	1337.374023	1473.086792
23205.837074	2447.258667	1336.282227	1411.716797
23205.837074	2447.258667	1335.189453	1154.708740
23205.837074	2447.258667	1334.096680	1123.876587
23205.837074	2447.258667	1333.003906	962.397522
23205.837074	2447.258667	1331.910156	1108.442749
23205.837074	2447.258667	1330.817383	830.485474
23205.837074	2447.258667	1329.723633	747.285522
23205.837074	2447.258667	1328.629883	770.542847
23205.837074	2447.258667	1327.535156	669.583557
23205.837074	2447.258667	1326.441406	776.534302
23205.837074	2447.258667	1325.346680	600.216187
23205.837074	2447.258667	1324.251953	860.059265
23205.837074	2447.258667	1323.156250	865.138123
23205.837074	2447.258667	1322.061523	832.550964
23205.837074	2447.258667	1320.965820	702.303589
23205.837074	2447.258667	1319.870117	362.964172
23205.837074	2447.258667	1318.774414	675.854065
23205.837074	2447.258667	1317.678711	448.610992
23205.837074	2447.258667	1316.582031	690.816223
23205.837074	2447.258667	1315.485352	770.451538
23205.837074	2447.258667	1314.388672	660.974915
23205.837074	2447.258667	1313.291016	370.005005
23205.837074	2447.258667	1312.194336	481.223969
23205.837074	2447.258667	1311.096680	363.578949
23205.837074	2447.258667	1309.999023	455.680084
23205.837074	2447.258667	1308.901367	431.868286
23205.837074	2447.258667	1307.802734	517.123901
23205.837074	2447.258667	1306.705078	385.614532
23205.837074	2447.258667	1305.606445	549.038208
23205.837074	2447.258667	1304.506836	593.507568
23205.837074	2447.258667	1303.408203	552.847961
23205.837074	2447.258667	1302.308594	405.830139
23205.837074	2447.258667	1301.208984	661.624084
23205.837074	2447.258667	1300.109375	920.533691
23205.837074	2447.258667	1299.009766	979.356812
23205.837074	2447.258667	1297.909180	678.578552
23205.837074	2447.258667	1296.808594	1250.587280
23205.837074	2447.258667	1295.708008	947.542358
23205.837074	2447.258667	1294.607422	1045.735962
23205.837074	2447.258667	1293.506836	1072.677002
23205.837074	2447.258667	1292.405273	789.247070
23205.837074	2447.258667	1291.303711	783.199890
23205.837074	2447.258667	1290.202148	901.653564
23205.837074	2447.258667	1289.099609	1239.665894
23205.837074	2447.258667	1287.998047	1194.757813
23205.837074	2447.258667	1286.895508	1357.285767
23205.837074	2447.258667	1285.792969	1043.834961
23205.837074	2447.258667	1284.689453	940.584412
23205.837074	2447.258667	1283.586914	1151.492310
23205.837074	2447.258667	1282.483398	1110.210327
23205.837074	2447.258667	1281.379883	807.005188
23205.837074	2447.258667	1280.276367	941.526611
23205.837074	2447.258667	1279.171875	758.623596
23205.837074	2447.258667	1278.067383	668.418457
23205.837074	2447.258667	1276.962891	979.084167
23205.837074	2447.258667	1275.858398	803.245117
23205.837074	2447.258667	1274.753906	778.410339
23205.837074	2447.258667	1273.648438	535.845032
23205.837074	2447.258667	1272.542969	521.583435
23205.837074	2447.258667	1271.437500	669.095581
23205.837074	2447.258667	1270.331055	532.279602
23205.837074	2447.258667	1269.225586	785.698730
23205.837074	2447.258667	1268.119141	698.393860
23205.837074	2447.258667	1267.012695	636.787964
23205.837074	2447.258667	1265.906250	676.538635
23205.837074	2447.258667	1264.798828	622.487366
23205.837074	2447.258667	1263.691406	735.857849
23205.837074	2447.258667	1262.583984	984.171082
23205.837074	2447.258667	1261.476563	1177.627686
23205.837074	2447.258667	1260.368164	891.725281
23205.837074	2447.258667	1259.260742	995.527588
23205.837074	2447.258667	1258.152344	859.510742
23205.837074	2447.258667	1257.043945	958.789490
23205.837074	2447.258667	1255.934570	961.285217
23205.837074	2447.258667	1254.825195	949.596985
23205.837074	2447.258667	1253.716797	666.593567
23205.837074	2447.258667	1252.606445	787.159119
23205.837074	2447.258667	1251.497070	375.730804
23205.837074	2447.258667	1250.387695	452.443024
23205.837074	2447.258667	1249.277344	544.035400
23205.837074	2447.258667	1248.166992	394.611237
23205.837074	2447.258667	1247.055664	401.101532
23205.837074	2447.258667	1245.945313	431.541534
23205.837074	2447.258667	1244.833984	356.971436
23205.837074	2447.258667	1243.722656	205.723190
23205.837074	2447.258667	1242.611328	409.310181
23205.837074	2447.258667	1241.499023	129.887894
23205.837074	2447.258667	1240.387695	205.501953
23205.837074	2447.258667	1239.275391	-197.907516
23205.837074	2447.258667	1238.162109	80.182495
23205.837074	2447.258667	1237.049805	146.128586
23205.837074	2447.258667	1235.936523	-23.664597
23205.837074	2447.258667	1234.823242	2.602287
23205.837074	2447.258667	1233.709961	-40.486919
23205.837074	2447.258667	1232.596680	-44.660854
23205.837074	2447.258667	1231.482422	96.202354
23205.837074	2447.258667	1230.369141	-21.225368
23205.837074	2447.258667	1229.253906	-61.976826
23205.837074	2447.258667	1228.139648	-201.349411
23205.837074	2447.258667	1227.025391	-92.822800
23205.837074	2447.258667	1225.910156	11.490228
23205.837074	2447.258667	1224.794922	-107.024254
23205.837074	2447.258667	1223.679688	173.682617
23205.837074	2447.258667	1222.563477	-107.820473
23205.837074	2447.258667	1221.447266	-344.162781
23205.837074	2447.258667	1220.331055	-125.000473
23205.837074	2447.258667	1219.214844	-61.198647
23205.837074	2447.258667	1218.098633	-128.075516
23205.837074	2447.258667	1216.981445	-57.910400
23205.837074	2447.258667	1215.864258	-36.384754
23205.837074	2447.258667	1214.747070	23.933277
23205.837074	2447.258667	1213.629883	-68.979523
23205.837074	2447.258667	1212.511719	32.317947
23205.837074	2447.258667	1211.393555	4.818518
23205.837074	2447.258667	1210.275391	92.926781
23205.837074	2447.258667	1209.157227	138.092285
23205.837074	2447.258667	1208.038086	153.134689
23205.837074	2447.258667	1206.918945	229.010239
23205.837074	2447.258667	1205.799805	524.281799
23205.837074	2447.258667	1204.680664	479.568909
23205.837074	2447.258667	1203.560547	428.950714
23205.837074	2447.258667	1202.441406	479.594391
23205.837074	2447.258667	1201.321289	658.017090
23205.837074	2447.258667	1200.200195	365.832214
23205.837074	2447.258667	1199.080078	500.778046
23205.837074	2447.258667	1197.958984	751.599609
23205.837074	2447.258667	1196.837891	605.619507
23205.837074	2447.258667	1195.716797	618.973145
23205.837074	2447.258667	1194.594727	626.160706
23205.837074	2447.258667	1193.473633	464.822205
23205.837074	2447.258667	1192.351563	461.088287
23205.837074	2447.258667	1191.229492	668.100647
23205.837074	2447.258667	1190.106445	548.025146
23205.837074	2447.258667	1188.984375	555.184448
23205.837074	2447.258667	1187.861328	803.434937
23205.837074	2447.258667	1186.738281	872.823120
23205.837074	2447.258667	1185.614258	676.772339
23205.837074	2447.258667	1184.491211	720.844604
23205.837074	2447.258667	1183.367188	812.981323
23205.837074	2447.258667	1182.243164	473.557770
23205.837074	2447.258667	1181.119141	195.487000
23205.837074	2447.258667	1179.994141	105.707359
23205.837074	2447.258667	1178.869141	125.145424
23205.837074	2447.258667	1177.744141	-187.397018
23205.837074	2447.258667	1176.619141	80.604462
23205.837074	2447.258667	1175.493164	100.169853
23205.837074	2447.258667	1174.368164	27.721230
23205.837074	2447.258667	1173.242188	-9.159636
23205.837074	2447.258667	1172.115234	39.705696
23205.837074	2447.258667	1170.989258	51.958958
23205.837074	2447.258667	1169.862305	184.882339
23205.837074	2447.258667	1168.735352	-52.650852
23205.837074	2447.258667	1167.608398	-1.557349
23205.837074	2447.258667	1166.481445	-191.607391
23205.837074	2447.258667	1165.353516	-159.594543
23205.837074	2447.258667	1164.225586	-1.035447
23205.837074	2447.258667	1163.097656	110.598564
23205.837074	2447.258667	1161.968750	115.242096
23205.837074	2447.258667	1160.840820	113.723236
23205.837074	2447.258667	1159.711914	-24.199631
23205.837074	2447.258667	1158.583008	-35.300121
23205.837074	2447.258667	1157.453125	-128.384354
23205.837074	2447.258667	1156.324219	105.586021
23205.837074	2447.258667	1155.194336	-97.356293
23205.837074	2447.258667	1154.064453	-14.597513
23205.837074	2447.258667	1152.933594	11.307718
23205.837074	2447.258667	1151.803711	-13.259188
23205.837074	2447.258667	1150.672852	275.387695
23205.837074	2447.258667	1149.541992	375.681213
23205.837074	2447.258667	1148.411133	-9.419957
23205.837074	2447.258667	1147.279297	258.374634
23205.837074	2447.258667	1146.147461	-50.833714
23205.837074	2447.258667	1145.015625	-2.254187
23205.837074	2447.258667	1143.883789	-78.150658
23205.837074	2447.258667	1142.750977	28.608616
23205.837074	2447.258667	1141.619141	-145.345963
23205.837074	2447.258667	1140.486328	-77.385590
23205.837074	2447.258667	1139.352539	61.590733
23205.837074	2447.258667	1138.219727	163.960495
23205.837074	2447.258667	1137.085938	169.406326
23205.837074	2447.258667	1135.952148	-1.795025
23205.837074	2447.258667	1134.818359	38.661106
23205.837074	2447.258667	1133.683594	110.516800
23205.837074	2447.258667	1132.549805	612.045654
23205.837074	2447.258667	1131.415039	582.950500
23205.837074	2447.258667	1130.279297	1032.361816
23205.837074	2447.258667	1129.144531	776.807983
23205.837074	2447.258667	1128.008789	813.006775
23205.837074	2447.258667	1126.873047	790.115051
23205.837074	2447.258667	1125.737305	1048.621338
23205.837074	2447.258667	1124.601563	1161.240723
23205.837074	2447.258667	1123.464844	927.989441
23205.837074	2447.258667	1122.328125	771.220581
23205.837074	2447.258667	1121.191406	1132.754761
23205.837074	2447.258667	1120.054688	1003.041504
23205.837074	2447.258667	1118.916992	743.041870
23205.837074	2447.258667	1117.779297	785.090149
23205.837074	2447.258667	1116.641602	682.940613
23205.837074	2447.258667	1115.503906	694.331848
23205.837074	2447.258667	1114.365234	612.181580
23205.837074	2447.258667	1113.226563	720.840332
23205.837074	2447.258667	1112.087891	682.777283
23205.837074	2447.258667	1110.949219	427.199921
23205.837074	2447.258667	1109.809570	575.892700
23205.837074	2447.258667	1108.669922	568.700867
23205.837074	2447.258667	1107.530273	538.634705
23205.837074	2447.258667	1106.390625	701.724182
23205.837074	2447.258667	1105.250000	687.612427
23205.837074	2447.258667	1104.109375	854.821289
23205.837074	2447.258667	1102.968750	1004.370911
23205.837074	2447.258667	1101.828125	1050.146729
23205.837074	2447.258667	1100.686523	865.848083
23205.837074	2447.258667	1099.544922	1099.003296
23205.837074	2447.258667	1098.403320	943.968567
23205.837074	2447.258667	1097.261719	789.504395
23205.837074	2447.258667	1096.120117	779.757996
23205.837074	2447.258667	1094.977539	931.562927
23205.837074	2447.258667	1093.834961	837.770569
23205.837074	2447.258667	1092.691406	748.979858
23205.837074	2447.258667	1091.548828	710.811646
23205.837074	2447.258667	1090.405273	811.753906
23205.837074	2447.258667	1089.261719	709.172302
23205.837074	2447.258667	1088.118164	967.415405
23205.837074	2447.258667	1086.973633	934.745544
23205.837074	2447.258667	1085.829102	727.236023
23205.837074	2447.258667	1084.684570	975.907166
23205.837074	2447.258667	1083.540039	829.951416
23205.837074	2447.258667	1082.395508	918.244751
23205.837074	2447.258667	1081.250000	905.547058
23205.837074	2447.258667	1080.104492	888.949829
23205.837074	2447.258667	1078.958984	775.192383
23205.837074	2447.258667	1077.812500	863.327209
23205.837074	2447.258667	1076.666016	972.881836
23205.837074	2447.258667	1075.519531	717.495972
23205.837074	2447.258667	1074.373047	890.899231
23205.837074	2447.258667	1073.226563	745.112244
23205.837074	2447.258667	1072.079102	819.786621
23205.837074	2447.258667	1070.931641	819.968140
23205.837074	2447.258667	1069.784180	1211.966553
23205.837074	2447.258667	1068.635742	856.659607
23205.837074	2447.258667	1067.487305	955.044739
23205.837074	2447.258667	1066.338867	919.369202
23205.837074	2447.258667	1065.190430	932.716248
23205.837074	2447.258667	1064.041992	826.507019
23205.837074	2447.258667	1062.892578	1369.642334
23205.837074	2447.258667	1061.743164	880.157166
23205.837074	2447.258667	1060.593750	877.506042
23205.837074	2447.258667	1059.443359	877.651855
23205.837074	2447.258667	1058.292969	860.210144
23205.837074	2447.258667	1057.142578	762.844360
23205.837074	2447.258667	1055.992188	775.995300
23205.837074	2447.258667	1054.841797	129.980637
23205.837074	2447.258667	1053.690430	444.471863
23205.837074	2447.258667	1052.539063	538.057800
23205.837074	2447.258667	1051.387695	481.310120
23205.837074	2447.258667	1050.235352	671.755432
23205.837074	2447.258667	1049.083984	705.205872
23205.837074	2447.258667	1047.931641	583.385071
23205.837074	2447.258667	1046.778320	676.262939
23205.837074	2447.258667	1045.625977	514.327881
23205.837074	2447.258667	1044.472656	301.031586
23205.837074	2447.258667	1043.319336	522.635681
23205.837074	2447.258667	1042.166016	542.520447
23205.837074	2447.258667	1041.012695	404.855316
23205.837074	2447.258667	1039.858398	324.498199
23205.837074	2447.258667	1038.704102	574.330261
23205.837074	2447.258667	1037.549805	457.419281
23205.837074	2447.258667	1036.394531	557.761719
23205.837074	2447.258667	1035.239258	547.299438
23205.837074	2447.258667	1034.083984	390.147247
23205.837074	2447.258667	1032.928711	669.597656
23205.837074	2447.258667	1031.773438	647.034912
23205.837074	2447.258667	1030.617188	588.439453
23205.837074	2447.258667	1029.460938	494.263336
23205.837074	2447.258667	1028.304688	146.564774
23205.837074	2447.258667	1027.147461	737.431274
23205.837074	2447.258667	1025.991211	606.604370
23205.837074	2447.258667	1024.833984	329.792694
23205.837074	2447.258667	1023.675781	217.630295
23205.837074	2447.258667	1022.518555	449.837738
23205.837074	2447.258667	1021.360352	305.437592
23205.837074	2447.258667	1020.202148	479.933533
23205.837074	2447.258667	1019.043945	184.858337
23205.837074	2447.258667	1017.884766	306.060669
23205.837074	2447.258667	1016.726563	341.548859
23205.837074	2447.258667	1015.567383	48.967892
23205.837074	2447.258667	1014.407227	356.112091
23205.837074	2447.258667	1013.248047	27.972580
23205.837074	2447.258667	1012.087891	278.004517
23205.837074	2447.258667	1010.927734	649.430847
23205.837074	2447.258667	1009.767578	361.434753
23205.837074	2447.258667	1008.606445	145.397598
23205.837074	2447.258667	1007.446289	57.104122
23205.837074	2447.258667	1006.285156	-37.881775
23205.837074	2447.258667	1005.123047	256.874847
23205.837074	2447.258667	1003.961914	196.957932
23205.837074	2447.258667	1002.799805	358.147797
23205.837074	2447.258667	1001.637695	118.412018
23205.837074	2447.258667	1000.475586	668.951294
23205.837074	2447.258667	999.312500	403.279419
23205.837074	2447.258667	998.149414	42.315186
23205.837074	2447.258667	996.986328	417.366791
23205.837074	2447.258667	995.823242	279.168121
23205.837074	2447.258667	994.659180	227.254257
23205.837074	2447.258667	993.496094	31.702084
23205.837074	2447.258667	992.332031	299.572327
23205.837074	2447.258667	991.166992	318.979645
23205.837074	2447.258667	990.002930	-56.004665
23205.837074	2447.258667	988.837891	222.841949
23205.837074	2447.258667	987.672852	191.122284
23205.837074	2447.258667	986.506836	310.865234
23205.837074	2447.258667	985.341797	43.595459
23205.837074	2447.258667	984.175781	202.316483
23205.837074	2447.258667	983.009766	142.349976
23205.837074	2447.258667	981.843750	171.306702
23205.837074	2447.258667	980.676758	-9.235800
23205.837074	2447.258667	979.509766	22.270737
23205.837074	2447.258667	978.342773	14.296461
23205.837074	2447.258667	977.175781	-235.309586
23205.837074	2447.258667	976.007813	253.084625
23205.837074	2447.258667	974.839844	189.080215
23205.837074	2447.258667	973.671875	54.602364
23205.837074	2447.258667	972.503906	-24.222605
23205.837074	2447.258667	971.334961	227.487244
23205.837074	2447.258667	970.166016	243.293976
23205.837074	2447.258667	968.997070	129.304382
23205.837074	2447.258667	967.828125	208.390854
23205.837074	2447.258667	966.658203	34.956665
23205.837074	2447.258667	965.488281	-129.832550
23205.837074	2447.258667	964.318359	-102.329048
23205.837074	2447.258667	963.148438	118.532852
23205.837074	2447.258667	961.977539	-71.796768
23205.837074	2447.258667	960.806641	-3.312445
23205.837074	2447.258667	959.635742	-194.872345
23205.837074	2447.258667	958.463867	47.106327
23205.837074	2447.258667	957.292969	209.684143
23205.837074	2447.258667	956.121094	63.179798
23205.837074	2447.258667	954.948242	95.725288
23205.837074	2447.258667	953.776367	222.197556
23205.837074	2447.258667	952.603516	385.280457
23205.837074	2447.258667	951.430664	154.793884
23205.837074	2447.258667	950.257813	53.479118
23205.837074	2447.258667	949.084961	-35.793621
23205.837074	2447.258667	947.911133	-112.613571
23205.837074	2447.258667	946.737305	118.266808
23205.837074	2447.258667	945.563477	-38.491314
23205.837074	2447.258667	944.388672	21.595055
23205.837074	2447.258667	943.213867	348.388641
23205.837074	2447.258667	942.039063	-178.955322
23205.837074	2447.258667	940.864258	189.618820
23205.837074	2447.258667	939.688477	136.613495
23205.837074	2447.258667	938.513672	562.835144
23205.837074	2447.258667	937.337891	67.432228
23205.837074	2447.258667	936.161133	104.300209
23205.837074	2447.258667	934.985352	281.528564
23205.837074	2447.258667	933.808594	387.498230
23205.837074	2447.258667	932.631836	679.761169
23205.837074	2447.258667	931.454102	488.647858
23205.837074	2447.258667	930.277344	424.097290
23205.837074	2447.258667	929.099609	502.316559
23205.837074	2447.258667	927.921875	424.052795
23205.837074	2447.258667	926.743164	548.169739
23205.837074	2447.258667	925.565430	423.832642
23205.837074	2447.258667	924.386719	205.293610
23205.837074	2447.258667	923.208008	465.158997
23205.837074	2447.258667	922.028320	586.976074
23205.837074	2447.258667	920.849609	71.990044
23205.837074	2447.258667	919.669922	78.827980
23205.837074	2447.258667	919.474609	4.234472
23205.837074	2447.258667	918.309570	18.032053
23205.837074	2447.258667	917.143555	-122.078125
23205.837074	2447.258667	915.977539	-96.728195
23205.837074	2447.258667	914.810547	-289.525269
23205.837074	2447.258667	913.644531	-18.433466
23205.837074	2447.258667	912.477539	206.666519
23205.837074	2447.258667	911.310547	-29.613478
23205.837074	2447.258667	910.143555	-134.980118
23205.837074	2447.258667	908.975586	-100.329552
23205.837074	2447.258667	907.807617	246.268265
23205.837074	2447.258667	906.639648	-115.848457
23205.837074	2447.258667	905.471680	-26.124769
23205.837074	2447.258667	904.303711	70.464981
23205.837074	2447.258667	903.134766	18.079288
23205.837074	2447.258667	901.965820	61.978100
23205.837074	2447.258667	900.796875	291.444794
23205.837074	2447.258667	899.626953	12.382016
23205.837074	2447.258667	898.457031	92.977303
23205.837074	2447.258667	897.287109	212.488571
23205.837074	2447.258667	896.117188	-57.152431
23205.837074	2447.258667	894.947266	224.880524
23205.837074	2447.258667	893.776367	37.775196
23205.837074	2447.258667	892.605469	248.818542
23205.837074	2447.258667	891.434570	221.938263
23205.837074	2447.258667	890.262695	233.976456
23205.837074	2447.258667	889.091797	435.785980
23205.837074	2447.258667	887.919922	171.256027
23205.837074	2447.258667	886.748047	117.103035
23205.837074	2447.258667	885.575195	142.975677
23205.837074	2447.258667	884.403320	-130.392578
23205.837074	2447.258667	883.230469	-77.020653
23205.837074	2447.258667	882.057617	161.309631
23205.837074	2447.258667	880.883789	-148.329224
23205.837074	2447.258667	879.710938	48.885834
23205.837074	2447.258667	878.537109	63.490643
23205.837074	2447.258667	877.362305	210.451752
23205.837074	2447.258667	876.188477	-101.124756
23205.837074	2447.258667	875.013672	89.191513
23205.837074	2447.258667	873.839844	192.801422
23205.837074	2447.258667	872.664063	129.989548
23205.837074	2447.258667	871.489258	55.824013
23205.837074	2447.258667	870.313477	-205.137756
23205.837074	2447.258667	869.138672	169.659134
23205.837074	2447.258667	867.962891	-52.450497
23205.837074	2447.258667	866.786133	55.771149
23205.837074	2447.258667	865.610352	-2.248152
23205.837074	2447.258667	864.433594	-233.224350
23205.837074	2447.258667	863.256836	-236.490768
23205.837074	2447.258667	862.079102	-176.017975
23205.837074	2447.258667	860.902344	-142.856903
23205.837074	2447.258667	859.724609	215.573364
23205.837074	2447.258667	858.546875	-51.496170
23205.837074	2447.258667	857.368164	13.514657
23205.837074	2447.258667	856.190430	33.044926
23205.837074	2447.258667	855.011719	109.406052
23205.837074	2447.258667	853.833008	38.057392
23205.837074	2447.258667	852.654297	5.371191
23205.837074	2447.258667	851.474609	-56.808762
23205.837074	2447.258667	850.294922	-196.159943
23205.837074	2447.258667	849.115234	-40.296478
23205.837074	2447.258667	847.935547	-22.949749
23205.837074	2447.258667	846.754883	10.290384
23205.837074	2447.258667	845.575195	-283.207672
23205.837074	2447.258667	844.393555	-202.264511
23205.837074	2447.258667	843.212891	-252.901321
23205.837074	2447.258667	842.032227	-31.405321
23205.837074	2447.258667	840.850586	35.850315
23205.837074	2447.258667	839.668945	-282.243774
23205.837074	2447.258667	838.486328	45.654041
23205.837074	2447.258667	837.304688	-23.082165
23205.837074	2447.258667	836.122070	75.843224
23205.837074	2447.258667	834.939453	-289.546417
23205.837074	2447.258667	833.756836	-104.568672
23205.837074	2447.258667	832.573242	44.116066
23205.837074	2447.258667	831.389648	-212.402512
23205.837074	2447.258667	830.206055	17.696667
23205.837074	2447.258667	829.022461	-145.964584
23205.837074	2447.258667	827.838867	36.510937
23205.837074	2447.258667	826.654297	-70.560768
23205.837074	2447.258667	825.469727	238.427521
23205.837074	2447.258667	824.284180	101.955803
23205.837074	2447.258667	823.099609	-16.400780
23205.837074	2447.258667	821.914063	46.055359
23205.837074	2447.258667	820.728516	-140.039307
23205.837074	2447.258667	819.542969	-113.756432
23205.837074	2447.258667	818.356445	-112.336891
23205.837074	2447.258667	817.169922	-287.044586
23205.837074	2447.258667	815.983398	98.107323
23205.837074	2447.258667	814.796875	-22.450920
23205.837074	2447.258667	813.609375	184.193954
23205.837074	2447.258667	812.422852	117.757881
23205.837074	2447.258667	811.235352	125.758278
23205.837074	2447.258667	810.046875	86.379135
23205.837074	2447.258667	808.859375	211.555222
23205.837074	2447.258667	807.670898	86.458054
23205.837074	2447.258667	806.482422	161.946854
23205.837074	2447.258667	805.293945	-82.571747
23205.837074	2447.258667	804.104492	321.739075
23205.837074	2447.258667	802.915039	275.410400
23205.837074	2447.258667	801.725586	129.985596
23205.837074	2447.258667	800.536133	297.502136
23205.837074	2447.258667	799.345703	228.581787
23205.837074	2447.258667	798.155273	159.644394
23205.837074	2447.258667	796.964844	-73.547966
23205.837074	2447.258667	795.774414	143.180801
23205.837074	2447.258667	794.583008	11.196404
23205.837074	2447.258667	793.392578	119.789810
23205.837074	2447.258667	792.200195	16.990948
23205.837074	2447.258667	791.008789	-36.383816
23205.837074	2447.258667	789.816406	42.790874
23205.837074	2447.258667	788.625000	279.126648
23205.837074	2447.258667	787.432617	84.057251
23205.837074	2447.258667	786.239258	104.596466
23205.837074	2447.258667	785.046875	41.983158
23205.837074	2447.258667	783.853516	219.521835
23205.837074	2447.258667	782.660156	28.863335
23205.837074	2447.258667	781.465820	127.669594
23205.837074	2447.258667	780.272461	242.060760
23205.837074	2447.258667	779.078125	58.038151
23205.837074	2447.258667	777.883789	257.465698
23205.837074	2447.258667	776.688477	172.014847
23205.837074	2447.258667	775.494141	28.239824
23205.837074	2447.258667	774.298828	27.873863
23205.837074	2447.258667	773.103516	-84.599724
23205.837074	2447.258667	771.907227	192.664078
23205.837074	2447.258667	770.711914	261.442657
23205.837074	2447.258667	769.515625	305.478516
23205.837074	2447.258667	768.318359	159.127106
23205.837074	2447.258667	767.122070	97.793251
23205.837074	2447.258667	765.924805	313.875214
23205.837074	2447.258667	764.727539	236.692749
23205.837074	2447.258667	763.530273	392.074219
23205.837074	2447.258667	762.333008	314.713287
23205.837074	2447.258667	761.134766	324.489410
23205.837074	2447.258667	759.936523	246.980545
23205.837074	2447.258667	758.738281	459.942780
23205.837074	2447.258667	757.540039	183.362778
23205.837074	2447.258667	756.340820	378.170471
23205.837074	2447.258667	755.141602	190.854294
23205.837074	2447.258667	753.942383	360.799347
23205.837074	2447.258667	752.742188	258.187286
23205.837074	2447.258667	751.541992	517.110352
23205.837074	2447.258667	750.341797	632.984863
23205.837074	2447.258667	749.141602	463.098389
23205.837074	2447.258667	747.941406	438.164093
23205.837074	2447.258667	746.740234	364.056641
23205.837074	2447.258667	745.539063	499.462524
23205.837074	2447.258667	744.337891	291.368500
23205.837074	2447.258667	743.135742	326.187988
23205.837074	2447.258667	741.933594	209.334412
23205.837074	2447.258667	740.731445	335.247650
23205.837074	2447.258667	739.529297	311.736786
23205.837074	2447.258667	738.326172	223.523529
23205.837074	2447.258667	737.124023	275.486176
23205.837074	2447.258667	735.919922	347.333435
23205.837074	2447.258667	734.716797	167.515915
23205.837074	2447.258667	733.513672	125.595100
23205.837074	2447.258667	732.309570	223.712143
23205.837074	2447.258667	731.105469	150.383118
23205.837074	2447.258667	729.900391	277.082977
23205.837074	2447.258667	728.696289	572.557007
23205.837074	2447.258667	727.491211	265.375519
23205.837074	2447.258667	726.286133	333.756256
23205.837074	2447.258667	725.080078	495.285156
23205.837074	2447.258667	723.874023	465.553375
23205.837074	2447.258667	722.668945	429.019684
23205.837074	2447.258667	721.461914	143.654541
23205.837074	2447.258667	720.255859	431.028259
23205.837074	2447.258667	719.048828	316.385376
23205.837074	2447.258667	717.841797	237.140030
23205.837074	2447.258667	716.634766	355.234589
23205.837074	2447.258667	715.427734	552.976624
23205.837074	2447.258667	714.219727	251.490234
23205.837074	2447.258667	713.011719	56.399189
23205.837074	2447.258667	711.803711	71.825630
23205.837074	2447.258667	710.594727	20.596510
23205.837074	2447.258667	709.385742	99.961044
23205.837074	2447.258667	708.176758	230.084442
23205.837074	2447.258667	706.967773	67.616356
23205.837074	2447.258667	705.758789	270.440796
23205.837074	2447.258667	704.548828	-45.064945
23205.837074	2447.258667	703.338867	-44.066868
23205.837074	2447.258667	702.127930	9.876558
23205.837074	2447.258667	700.917969	85.757317
23205.837074	2447.258667	699.707031	-11.111319
23205.837074	2447.258667	698.496094	108.636627
23205.837074	2447.258667	697.285156	-178.700485
23205.837074	2447.258667	696.073242	-72.572220
23205.837074	2447.258667	694.861328	135.012909
23205.837074	2447.258667	693.649414	-205.699341
23205.837074	2447.258667	692.436523	-13.983045
23205.837074	2447.258667	691.224609	-158.271469
23205.837074	2447.258667	690.011719	37.426540
23205.837074	2447.258667	688.798828	109.222504
23205.837074	2447.258667	687.584961	-35.521317
23205.837074	2447.258667	686.372070	-65.609940
23205.837074	2447.258667	685.158203	29.913649
23205.837074	2447.258667	683.943359	164.929932
23205.837074	2447.258667	682.729492	59.302814
23205.837074	2447.258667	681.514648	332.836304
23205.837074	2447.258667	680.299805	191.592392
23205.837074	2447.258667	679.084961	202.329178
23205.837074	2447.258667	677.869141	331.890625
23205.837074	2447.258667	676.653320	467.833435
23205.837074	2447.258667	675.437500	173.986176
23205.837074	2447.258667	674.221680	335.989838
23205.837074	2447.258667	673.004883	480.131470
23205.837074	2447.258667	671.789063	117.705582
23205.837074	2447.258667	670.571289	382.540680
23205.837074	2447.258667	669.354492	622.891541
23205.837074	2447.258667	668.136719	299.745300
23205.837074	2447.258667	666.919922	392.300079
23205.837074	2447.258667	665.701172	436.252167
23205.837074	2447.258667	664.483398	352.500732
23205.837074	2447.258667	663.264648	499.424622
23205.837074	2447.258667	662.045898	538.430481
23205.837074	2447.258667	660.827148	783.798706
23205.837074	2447.258667	659.608398	229.250961
23205.837074	2447.258667	658.388672	603.833191
23205.837074	2447.258667	657.168945	521.345337
23205.837074	2447.258667	655.949219	570.456604
23205.837074	2447.258667	654.728516	287.939270
23205.837074	2447.258667	653.507813	376.255920
23205.837074	2447.258667	652.287109	576.273254
23205.837074	2447.258667	651.066406	403.137268
23205.837074	2447.258667	649.844727	580.815247
23205.837074	2447.258667	648.623047	409.629974
23205.837074	2447.258667	647.401367	738.186584
23205.837074	2447.258667	646.179688	755.226990
23205.837074	2447.258667	644.957031	583.655884
23205.837074	2447.258667	643.734375	462.398163
23205.837074	2447.258667	642.511719	564.461670
23205.837074	2447.258667	641.289063	569.983032
23205.837074	2447.258667	640.065430	592.866760
23205.837074	2447.258667	638.841797	442.675140
23205.837074	2447.258667	637.618164	743.238525
23205.837074	2447.258667	636.393555	293.039246
23205.837074	2447.258667	635.168945	265.095337
23205.837074	2447.258667	633.944336	254.528214
23205.837074	2447.258667	632.719727	403.463348
23205.837074	2447.258667	631.494141	536.894653
23205.837074	2447.258667	630.269531	90.941223
23205.837074	2447.258667	629.042969	-121.139015
23205.837074	2447.258667	627.817383	-20.817556
23205.837074	2447.258667	626.590820	171.080231
23205.837074	2447.258667	625.365234	28.658760
23205.837074	2447.258667	624.137695	-81.078735
23205.837074	2447.258667	622.911133	-7.504811
23205.837074	2447.258667	621.683594	-21.373018
23205.837074	2447.258667	620.456055	-6.974051
23205.837074	2447.258667	619.228516	118.579895
23205.837074	2447.258667	618.000977	224.352463
23205.837074	2447.258667	616.772461	188.237701
23205.837074	2447.258667	615.543945	43.039188
23205.837074	2447.258667	614.314453	30.768147
23205.837074	2447.258667	613.085938	275.575989
23205.837074	2447.258667	611.856445	291.419464
23205.837074	2447.258667	610.626953	128.557678
23205.837074	2447.258667	609.397461	203.076187
23205.837074	2447.258667	608.166992	92.406113
23205.837074	2447.258667	606.936523	256.006165
23205.837074	2447.258667	605.706055	-179.051682
23205.837074	2447.258667	604.474609	-120.043251
23205.837074	2447.258667	603.244141	-378.731934
23205.837074	2447.258667	602.012695	19.494917
23205.837074	2447.258667	600.780273	-23.948843
23205.837074	2447.258667	599.548828	-60.886730
23205.837074	2447.258667	598.316406	23.866068
23205.837074	2447.258667	597.083984	-110.947823
23205.837074	2447.258667	595.851563	34.546722
23205.837074	2447.258667	594.618164	30.052502
23205.837074	2447.258667	593.384766	108.066269
23205.837074	2447.258667	592.151367	-154.878540
23205.837074	2447.258667	590.917969	72.896095
23205.837074	2447.258667	589.683594	-96.639297
23205.837074	2447.258667	588.449219	-259.599121
23205.837074	2447.258667	587.214844	-264.119659
23205.837074	2447.258667	585.979492	-64.755692
23205.837074	2447.258667	584.745117	-216.775299
23205.837074	2447.258667	583.509766	-145.411377
23205.837074	2447.258667	582.273438	105.842499
23205.837074	2447.258667	581.038086	-258.467285
23205.837074	2447.258667	579.801758	-410.270721
23205.837074	2447.258667	578.565430	-284.695679
23205.837074	2447.258667	577.329102	-53.018829
23205.837074	2447.258667	576.091797	-76.923477
23205.837074	2447.258667	574.854492	98.392212
23205.837074	2447.258667	573.617188	24.768763
23205.837074	2447.258667	572.378906	42.103176
23205.837074	2447.258667	571.141602	130.892639
23205.837074	2447.258667	569.903320	96.401253
23205.837074	2447.258667	568.664063	25.213886
23205.837074	2447.258667	567.425781	176.835251
23205.837074	2447.258667	566.186523	261.445831
23205.837074	2447.258667	564.947266	320.163513
23205.837074	2447.258667	563.708008	383.260590
23205.837074	2447.258667	562.467773	-115.263908
23205.837074	2447.258667	561.227539	58.223434
23205.837074	2447.258667	559.987305	97.852211
23205.837074	2447.258667	558.747070	-84.800705
23205.837074	2447.258667	557.505859	2.527782
23205.837074	2447.258667	556.264648	266.884705
23205.837074	2447.258667	555.023438	272.342987
23205.837074	2447.258667	553.781250	327.523376
23205.837074	2447.258667	552.539063	369.865173
23205.837074	2447.258667	551.296875	257.077881
23205.837074	2447.258667	550.054688	400.997986
23205.837074	2447.258667	548.811523	55.756355
23205.837074	2447.258667	547.569336	525.307739
23205.837074	2447.258667	546.325195	146.002823
23205.837074	2447.258667	545.082031	124.554222
23205.837074	2447.258667	543.837891	-6.557753
23205.837074	2447.258667	542.593750	200.552216
23205.837074	2447.258667	541.349609	-76.557053
23205.837074	2447.258667	540.105469	115.751282
23205.837074	2447.258667	538.860352	420.020782
23205.837074	2447.258667	537.615234	386.624298
23205.837074	2447.258667	536.369141	192.123077
23205.837074	2447.258667	535.124023	92.501869
23205.837074	2447.258667	533.877930	324.156738
23205.837074	2447.258667	532.631836	347.432220
23205.837074	2447.258667	531.384766	22.790359
23205.837074	2447.258667	530.138672	141.042343
23205.837074	2447.258667	528.891602	246.553879
23205.837074	2447.258667	527.643555	92.391159
23205.837074	2447.258667	526.396484	372.186401
23205.837074	2447.258667	525.148438	141.216125
23205.837074	2447.258667	523.900391	236.750778
23205.837074	2447.258667	522.652344	120.056755
23205.837074	2447.258667	521.403320	104.448036
23205.837074	2447.258667	520.154297	-176.858582
23205.837074	2447.258667	518.905273	-170.501434
23205.837074	2447.258667	517.656250	-56.732235
23205.837074	2447.258667	516.406250	130.083435
23205.837074	2447.258667	515.156250	265.629791
23205.837074	2447.258667	513.906250	-3.542645
23205.837074	2447.258667	512.655273	85.321724
23205.837074	2447.258667	511.404297	146.550568
23205.837074	2447.258667	510.153320	0.324728
23205.837074	2447.258667	508.902344	-115.630249
23205.837074	2447.258667	507.650391	51.185390
23205.837074	2447.258667	506.398438	49.148571
23205.837074	2447.258667	505.146484	254.847519
23205.837074	2447.258667	503.893555	296.026062
23205.837074	2447.258667	502.641602	504.210510
23205.837074	2447.258667	501.388672	530.843201
23205.837074	2447.258667	500.134766	557.707397
23205.837074	2447.258667	498.881836	533.522766
23205.837074	2447.258667	497.627930	582.222412
23205.837074	2447.258667	496.374023	321.445313
23205.837074	2447.258667	495.119141	485.962372
23205.837074	2447.258667	493.865234	605.814880
23205.837074	2447.258667	492.610352	619.127686
23205.837074	2447.258667	491.355469	920.762634
23205.837074	2447.258667	490.099609	710.441223
23205.837074	2447.258667	488.843750	771.344604
23205.837074	2447.258667	487.587891	811.121704
23205.837074	2447.258667	486.332031	1064.319458
23205.837074	2447.258667	485.075195	995.737061
23205.837074	2447.258667	483.818359	980.680481
23205.837074	2447.258667	482.561523	1176.787476
23205.837074	2447.258667	481.304688	1294.191406
23205.837074	2447.258667	480.046875	964.468140
23205.837074	2447.258667	478.789063	1506.017090
23205.837074	2447.258667	477.531250	1393.925537
23205.837074	2447.258667	476.272461	1622.624023
23205.837074	2447.258667	475.013672	1308.744629
23205.837074	2447.258667	473.754883	1424.940063
23205.837074	2447.258667	472.496094	1422.122070
23205.837074	2447.258667	471.236328	1194.030396
23205.837074	2447.258667	469.976563	1385.042969
23205.837074	2447.258667	468.716797	1440.056519
23205.837074	2447.258667	467.456055	1454.788208
23205.837074	2447.258667	466.196289	1624.734741
23205.837074	2447.258667	464.935547	1507.921387
23205.837074	2447.258667	463.673828	1643.994751
23205.837074	2447.258667	462.413086	1848.036011
23205.837074	2447.258667	461.151367	1599.855957
23205.837074	2447.258667	459.889648	1600.173340
23205.837074	2447.258667	458.626953	1615.387451
23205.837074	2447.258667	457.364258	1851.266602
23205.837074	2447.258667	456.101563	2078.569580
23205.837074	2447.258667	454.838867	1815.884155
23205.837074	2447.258667	453.575195	1741.994263
23205.837074	2447.258667	452.312500	1937.309448
23205.837074	2447.258667	451.047852	1873.929565
23205.837074	2447.258667	449.784180	1630.397339
23205.837074	2447.258667	448.519531	1924.958740
23205.837074	2447.258667	447.254883	1948.181885
23205.837074	2447.258667	445.990234	2068.665771
23205.837074	2447.258667	444.725586	1784.591064
23205.837074	2447.258667	443.459961	1765.037720
23205.837074	2447.258667	442.194336	2164.291748
23205.837074	2447.258667	440.927734	1793.048828
23205.837074	2447.258667	439.662109	2132.433838
23205.837074	2447.258667	438.395508	2194.370850
23205.837074	2447.258667	437.127930	2368.046387
23205.837074	2447.258667	435.861328	2272.865967
23205.837074	2447.258667	434.593750	2272.479736
23205.837074	2447.258667	433.326172	2637.255615
23205.837074	2447.258667	432.058594	2464.898682
23205.837074	2447.258667	430.790039	2478.039307
23205.837074	2447.258667	429.521484	2412.578369
23205.837074	2447.258667	428.252930	2616.868652
23205.837074	2447.258667	426.984375	3164.573242
23205.837074	2447.258667	425.714844	2816.754395
23205.837074	2447.258667	424.445313	2732.202881
23205.837074	2447.258667	423.174805	2651.264893
23205.837074	2447.258667	421.905273	2725.745850
23205.837074	2447.258667	420.634766	2618.157715
23205.837074	2447.258667	419.364258	2708.010254
23205.837074	2447.258667	418.092773	2877.109619
23205.837074	2447.258667	416.822266	2752.437256
23205.837074	2447.258667	415.550781	2599.552979
23205.837074	2447.258667	414.278320	2915.462158
23205.837074	2447.258667	413.006836	2880.746582
23205.837074	2447.258667	411.734375	2813.448242
23205.837074	2447.258667	410.461914	2982.952148
23205.837074	2447.258667	409.188477	2989.240234
23205.837074	2447.258667	407.916016	3103.774658
23205.837074	2447.258667	406.642578	3244.384766
23205.837074	2447.258667	405.368164	2967.289795
23205.837074	2447.258667	404.094727	3155.749512
23205.837074	2447.258667	402.820313	3058.976563
23205.837074	2447.258667	401.545898	3393.729492
23205.837074	2447.258667	400.270508	3184.761230
23205.837074	2447.258667	398.996094	3209.624512
23205.837074	2447.258667	397.720703	3165.645752
23205.837074	2447.258667	396.444336	3015.009766
23205.837074	2447.258667	395.168945	3232.189941
23205.837074	2447.258667	393.892578	3405.475342
23205.837074	2447.258667	392.616211	3285.153809
23205.837074	2447.258667	391.339844	3385.319580
23205.837074	2447.258667	390.062500	3275.765625
23205.837074	2447.258667	388.785156	3248.054199
23205.837074	2447.258667	387.507813	3467.681152
23205.837074	2447.258667	386.229492	3634.644043
23205.837074	2447.258667	384.951172	3577.094727
23205.837074	2447.258667	383.672852	3150.533447
23205.837074	2447.258667	382.394531	3182.515869
23205.837074	2447.258667	381.115234	3193.044434
23205.837074	2447.258667	379.835938	3347.489746
23205.837074	2447.258667	378.556641	3116.069580
23205.837074	2447.258667	377.277344	3154.007813
23205.837074	2447.258667	375.997070	2818.623535
23205.837074	2447.258667	374.716797	3061.943115
23205.837074	2447.258667	373.435547	3109.591797
23205.837074	2447.258667	372.155273	3087.172852
23205.837074	2447.258667	370.874023	3178.488525
23205.837074	2447.258667	369.591797	3048.937988
23205.837074	2447.258667	368.310547	2895.112549
23205.837074	2447.258667	367.028320	2871.399902
23205.837074	2447.258667	365.746094	2910.824951
23205.837074	2447.258667	364.463867	3130.183105
23205.837074	2447.258667	363.180664	2854.798340
23205.837074	2447.258667	361.897461	2859.367188
23205.837074	2447.258667	360.614258	2371.428467
23205.837074	2447.258667	359.330078	2645.066650
23205.837074	2447.258667	358.045898	2686.799072
23205.837074	2447.258667	356.761719	2955.478760
23205.837074	2447.258667	355.477539	2564.654297
23205.837074	2447.258667	354.192383	2590.214844
23205.837074	2447.258667	352.907227	2558.731934
23205.837074	2447.258667	351.622070	2501.366943
23205.837074	2447.258667	350.336914	2549.245850
23205.837074	2447.258667	349.050781	2685.380859
23205.837074	2447.258667	347.764648	2476.546631
23205.837074	2447.258667	346.477539	2207.920654
23205.837074	2447.258667	345.191406	2304.258057
23205.837074	2447.258667	343.904297	2057.372314
23205.837074	2447.258667	342.616211	2122.697266
23205.837074	2447.258667	341.329102	1874.025391
23205.837074	2447.258667	340.041016	1781.130127
23205.837074	2447.258667	338.752930	1783.581421
23205.837074	2447.258667	337.463867	1908.022949
23205.837074	2447.258667	336.175781	1657.794189
23205.837074	2447.258667	334.886719	1649.774414
23205.837074	2447.258667	333.596680	1744.424561
23205.837074	2447.258667	332.307617	1466.219482
23205.837074	2447.258667	331.017578	1211.479004
23205.837074	2447.258667	329.727539	1142.105103
23205.837074	2447.258667	328.436523	1160.037109
23205.837074	2447.258667	327.146484	1323.513428
23205.837074	2447.258667	325.855469	824.800842
23205.837074	2447.258667	324.563477	927.308594
23205.837074	2447.258667	323.272461	488.218140
23205.837074	2447.258667	321.980469	715.983582
23205.837074	2447.258667	320.688477	565.448792
23205.837074	2447.258667	319.395508	687.140259
23205.837074	2447.258667	318.103516	633.597534
23205.837074	2447.258667	316.810547	447.718018
23205.837074	2447.258667	315.516602	127.270546
23205.837074	2447.258667	314.223633	-41.623749
23205.837074	2447.258667	312.929688	-115.729912
23205.837074	2447.258667	311.635742	-10.225821
23205.837074	2447.258667	310.340820	265.948364
23205.837074	2447.258667	309.045898	-118.934502
23205.837074	2447.258667	307.750977	28.732409
23205.837074	2447.258667	306.456055	-172.569229
23205.837074	2447.258667	305.160156	-78.171265
23205.837074	2447.258667	303.865234	-57.861828
23205.837074	2447.258667	302.568359	135.094284
23205.837074	2447.258667	301.272461	294.726868
23205.837074	2447.258667	299.975586	244.485764
23205.837074	2447.258667	298.678711	255.118973
