#X		#Y		#Wave		#Intensity
22987.891596	3295.272500	1999.980469	-84.780800
22987.891596	3295.272500	1999.016602	-0.420370
22987.891596	3295.272500	1998.052734	44.781479
22987.891596	3295.272500	1997.087891	-49.170456
22987.891596	3295.272500	1996.123047	101.843246
22987.891596	3295.272500	1995.158203	-49.765652
22987.891596	3295.272500	1994.193359	53.450500
22987.891596	3295.272500	1993.228516	-140.851898
22987.891596	3295.272500	1992.262695	102.830124
22987.891596	3295.272500	1991.297852	-111.831383
22987.891596	3295.272500	1990.332031	34.632702
22987.891596	3295.272500	1989.366211	-32.044044
22987.891596	3295.272500	1988.399414	-19.801105
22987.891596	3295.272500	1987.433594	-37.514706
22987.891596	3295.272500	1986.466797	18.717686
22987.891596	3295.272500	1985.500977	54.897446
22987.891596	3295.272500	1984.534180	-27.836050
22987.891596	3295.272500	1983.567383	-41.561272
22987.891596	3295.272500	1982.599609	43.348965
22987.891596	3295.272500	1981.632813	172.485062
22987.891596	3295.272500	1980.665039	51.867573
22987.891596	3295.272500	1979.697266	-68.902092
22987.891596	3295.272500	1978.729492	-19.428385
22987.891596	3295.272500	1977.761719	-110.886230
22987.891596	3295.272500	1976.792969	7.338544
22987.891596	3295.272500	1975.825195	125.350281
22987.891596	3295.272500	1974.856445	82.766792
22987.891596	3295.272500	1973.887695	-56.172756
22987.891596	3295.272500	1972.918945	93.390991
22987.891596	3295.272500	1971.949219	116.982704
22987.891596	3295.272500	1970.980469	68.925201
22987.891596	3295.272500	1970.010742	-72.923836
22987.891596	3295.272500	1969.041016	66.148338
22987.891596	3295.272500	1968.071289	256.803986
22987.891596	3295.272500	1967.101563	85.084068
22987.891596	3295.272500	1966.130859	233.571213
22987.891596	3295.272500	1965.161133	-68.822418
22987.891596	3295.272500	1964.190430	8.031031
22987.891596	3295.272500	1963.219727	8.443696
22987.891596	3295.272500	1962.249023	149.084747
22987.891596	3295.272500	1961.277344	176.380325
22987.891596	3295.272500	1960.306641	-74.467178
22987.891596	3295.272500	1959.334961	-30.061916
22987.891596	3295.272500	1958.363281	63.457771
22987.891596	3295.272500	1957.391602	38.833614
22987.891596	3295.272500	1956.419922	-20.262146
22987.891596	3295.272500	1955.447266	4.198010
22987.891596	3295.272500	1954.474609	85.133118
22987.891596	3295.272500	1953.501953	30.831264
22987.891596	3295.272500	1952.529297	318.038422
22987.891596	3295.272500	1951.556641	57.282623
22987.891596	3295.272500	1950.583984	15.185605
22987.891596	3295.272500	1949.610352	122.869614
22987.891596	3295.272500	1948.636719	19.337221
22987.891596	3295.272500	1947.663086	92.563286
22987.891596	3295.272500	1946.689453	74.931747
22987.891596	3295.272500	1945.715820	-16.326893
22987.891596	3295.272500	1944.741211	157.399216
22987.891596	3295.272500	1943.767578	-5.002628
22987.891596	3295.272500	1942.792969	134.300491
22987.891596	3295.272500	1941.818359	67.575188
22987.891596	3295.272500	1940.842773	-55.517330
22987.891596	3295.272500	1939.868164	-19.243444
22987.891596	3295.272500	1938.892578	112.592628
22987.891596	3295.272500	1937.916992	53.265903
22987.891596	3295.272500	1936.941406	30.711056
22987.891596	3295.272500	1935.965820	93.896851
22987.891596	3295.272500	1934.990234	29.727505
22987.891596	3295.272500	1934.013672	230.014984
22987.891596	3295.272500	1933.037109	-15.281588
22987.891596	3295.272500	1932.060547	-113.625450
22987.891596	3295.272500	1931.083984	-47.968193
22987.891596	3295.272500	1930.107422	162.027557
22987.891596	3295.272500	1929.129883	83.321884
22987.891596	3295.272500	1928.153320	-110.279655
22987.891596	3295.272500	1927.175781	-113.065437
22987.891596	3295.272500	1926.198242	-47.375858
22987.891596	3295.272500	1925.219727	-50.129974
22987.891596	3295.272500	1924.242188	-23.532452
22987.891596	3295.272500	1923.263672	-104.429413
22987.891596	3295.272500	1922.285156	10.161624
22987.891596	3295.272500	1921.306641	7.498260
22987.891596	3295.272500	1920.328125	83.006004
22987.891596	3295.272500	1919.349609	46.202103
22987.891596	3295.272500	1918.370117	46.055866
22987.891596	3295.272500	1917.391602	48.379368
22987.891596	3295.272500	1916.412109	-71.279076
22987.891596	3295.272500	1915.431641	28.710909
22987.891596	3295.272500	1914.452148	-59.129025
22987.891596	3295.272500	1913.472656	14.053995
22987.891596	3295.272500	1912.492188	-144.402725
22987.891596	3295.272500	1911.511719	38.535030
22987.891596	3295.272500	1910.531250	26.439634
22987.891596	3295.272500	1909.550781	-95.285545
22987.891596	3295.272500	1908.569336	155.853943
22987.891596	3295.272500	1907.588867	-167.981415
22987.891596	3295.272500	1906.607422	-33.770557
22987.891596	3295.272500	1905.625977	93.114967
22987.891596	3295.272500	1904.644531	30.076323
22987.891596	3295.272500	1903.662109	-28.040564
22987.891596	3295.272500	1902.680664	-156.685120
22987.891596	3295.272500	1901.698242	-22.452404
22987.891596	3295.272500	1900.715820	12.011222
22987.891596	3295.272500	1899.733398	44.057888
22987.891596	3295.272500	1898.750000	93.144783
22987.891596	3295.272500	1897.767578	-10.945587
22987.891596	3295.272500	1896.784180	79.516975
22987.891596	3295.272500	1895.800781	31.426809
22987.891596	3295.272500	1894.817383	112.178818
22987.891596	3295.272500	1893.833984	-159.380951
22987.891596	3295.272500	1892.850586	-56.709236
22987.891596	3295.272500	1891.866211	-31.773705
22987.891596	3295.272500	1890.881836	0.461267
22987.891596	3295.272500	1889.897461	-40.130085
22987.891596	3295.272500	1888.913086	-92.821014
22987.891596	3295.272500	1887.927734	43.832870
22987.891596	3295.272500	1886.943359	-13.665158
22987.891596	3295.272500	1885.958008	-37.157955
22987.891596	3295.272500	1884.972656	-111.561363
22987.891596	3295.272500	1883.987305	49.320961
22987.891596	3295.272500	1883.001953	-102.626205
22987.891596	3295.272500	1882.015625	-99.349129
22987.891596	3295.272500	1881.029297	46.945148
22987.891596	3295.272500	1880.042969	-78.216064
22987.891596	3295.272500	1879.056641	152.847824
22987.891596	3295.272500	1878.070313	-49.779274
22987.891596	3295.272500	1877.083984	-19.810360
22987.891596	3295.272500	1876.096680	-35.851913
22987.891596	3295.272500	1875.109375	-13.141438
22987.891596	3295.272500	1874.122070	-169.557999
22987.891596	3295.272500	1873.134766	-40.330276
22987.891596	3295.272500	1872.146484	96.112938
22987.891596	3295.272500	1871.159180	-81.994385
22987.891596	3295.272500	1870.170898	-90.716698
22987.891596	3295.272500	1869.182617	-121.198868
22987.891596	3295.272500	1868.194336	119.135056
22987.891596	3295.272500	1867.205078	127.303474
22987.891596	3295.272500	1866.216797	135.467056
22987.891596	3295.272500	1865.227539	27.628656
22987.891596	3295.272500	1864.238281	185.596497
22987.891596	3295.272500	1863.249023	-224.174622
22987.891596	3295.272500	1862.259766	-58.986771
22987.891596	3295.272500	1861.269531	101.301437
22987.891596	3295.272500	1860.279297	36.992344
22987.891596	3295.272500	1859.290039	211.663681
22987.891596	3295.272500	1858.298828	17.011614
22987.891596	3295.272500	1857.308594	-95.541519
22987.891596	3295.272500	1856.318359	47.653439
22987.891596	3295.272500	1855.327148	38.821743
22987.891596	3295.272500	1854.335938	-20.666861
22987.891596	3295.272500	1853.344727	-48.807823
22987.891596	3295.272500	1852.353516	144.820404
22987.891596	3295.272500	1851.362305	82.873711
22987.891596	3295.272500	1850.370117	1.649530
22987.891596	3295.272500	1849.377930	60.170033
22987.891596	3295.272500	1848.385742	202.952454
22987.891596	3295.272500	1847.393555	44.605846
22987.891596	3295.272500	1846.401367	151.163055
22987.891596	3295.272500	1845.408203	115.608894
22987.891596	3295.272500	1844.415039	106.514465
22987.891596	3295.272500	1843.421875	85.357979
22987.891596	3295.272500	1842.428711	-17.632389
22987.891596	3295.272500	1841.435547	81.457108
22987.891596	3295.272500	1840.441406	-21.565643
22987.891596	3295.272500	1839.448242	75.008789
22987.891596	3295.272500	1838.454102	-23.241642
22987.891596	3295.272500	1837.459961	66.005440
22987.891596	3295.272500	1836.464844	102.301910
22987.891596	3295.272500	1835.470703	176.989380
22987.891596	3295.272500	1834.475586	205.956055
22987.891596	3295.272500	1833.480469	-26.955984
22987.891596	3295.272500	1832.485352	-43.683521
22987.891596	3295.272500	1831.490234	45.197010
22987.891596	3295.272500	1830.495117	100.385559
22987.891596	3295.272500	1829.499023	21.088039
22987.891596	3295.272500	1828.502930	-27.032888
22987.891596	3295.272500	1827.506836	174.340912
22987.891596	3295.272500	1826.510742	162.084229
22987.891596	3295.272500	1825.513672	13.065900
22987.891596	3295.272500	1824.517578	113.437256
22987.891596	3295.272500	1823.520508	223.302353
22987.891596	3295.272500	1822.523438	126.917938
22987.891596	3295.272500	1821.526367	78.442093
22987.891596	3295.272500	1820.529297	111.394180
22987.891596	3295.272500	1819.531250	-11.452937
22987.891596	3295.272500	1818.533203	21.375561
22987.891596	3295.272500	1817.535156	87.653984
22987.891596	3295.272500	1816.537109	182.572662
22987.891596	3295.272500	1815.539063	105.028976
22987.891596	3295.272500	1814.540039	238.067978
22987.891596	3295.272500	1813.541992	100.579796
22987.891596	3295.272500	1812.542969	13.314698
22987.891596	3295.272500	1811.543945	69.538094
22987.891596	3295.272500	1810.543945	-51.316502
22987.891596	3295.272500	1809.544922	-71.766594
22987.891596	3295.272500	1808.544922	182.649536
22987.891596	3295.272500	1807.544922	279.135132
22987.891596	3295.272500	1806.544922	112.625748
22987.891596	3295.272500	1805.544922	122.916412
22987.891596	3295.272500	1804.544922	44.734737
22987.891596	3295.272500	1803.543945	2.328273
22987.891596	3295.272500	1802.542969	196.271790
22987.891596	3295.272500	1801.541992	218.156235
22987.891596	3295.272500	1800.541016	-77.538765
22987.891596	3295.272500	1799.539063	30.141153
22987.891596	3295.272500	1798.538086	252.238892
22987.891596	3295.272500	1797.536133	78.125809
22987.891596	3295.272500	1796.534180	132.984665
22987.891596	3295.272500	1795.532227	159.118423
22987.891596	3295.272500	1794.529297	154.153946
22987.891596	3295.272500	1793.527344	51.364555
22987.891596	3295.272500	1792.524414	227.393326
22987.891596	3295.272500	1791.521484	-99.560875
22987.891596	3295.272500	1790.518555	78.633148
22987.891596	3295.272500	1789.514648	-2.989884
22987.891596	3295.272500	1788.511719	234.479050
22987.891596	3295.272500	1787.507813	-90.215202
22987.891596	3295.272500	1786.503906	151.753708
22987.891596	3295.272500	1785.500000	148.360809
22987.891596	3295.272500	1784.496094	290.048889
22987.891596	3295.272500	1783.491211	131.773178
22987.891596	3295.272500	1782.486328	151.887787
22987.891596	3295.272500	1781.481445	198.063110
22987.891596	3295.272500	1780.476563	63.388512
22987.891596	3295.272500	1779.471680	-14.267314
22987.891596	3295.272500	1778.465820	38.749691
22987.891596	3295.272500	1777.460938	89.276505
22987.891596	3295.272500	1776.455078	161.067917
22987.891596	3295.272500	1775.449219	194.720016
22987.891596	3295.272500	1774.442383	95.233261
22987.891596	3295.272500	1773.436523	59.812618
22987.891596	3295.272500	1772.429688	24.300110
22987.891596	3295.272500	1771.422852	-39.787800
22987.891596	3295.272500	1770.416016	66.947037
22987.891596	3295.272500	1769.409180	244.733841
22987.891596	3295.272500	1768.402344	59.330189
22987.891596	3295.272500	1767.394531	39.946915
22987.891596	3295.272500	1766.386719	101.109848
22987.891596	3295.272500	1765.378906	17.494579
22987.891596	3295.272500	1764.371094	-35.368790
22987.891596	3295.272500	1763.362305	-55.135941
22987.891596	3295.272500	1762.354492	114.607460
22987.891596	3295.272500	1761.345703	-90.209610
22987.891596	3295.272500	1760.336914	166.918854
22987.891596	3295.272500	1759.328125	-26.194721
22987.891596	3295.272500	1758.318359	95.623672
22987.891596	3295.272500	1757.308594	58.653839
22987.891596	3295.272500	1756.299805	-39.948048
22987.891596	3295.272500	1755.290039	-93.653481
22987.891596	3295.272500	1754.279297	53.692547
22987.891596	3295.272500	1753.269531	21.074636
22987.891596	3295.272500	1752.258789	-75.509506
22987.891596	3295.272500	1751.249023	-27.887341
22987.891596	3295.272500	1750.238281	-268.873047
22987.891596	3295.272500	1749.226563	40.962898
22987.891596	3295.272500	1748.215820	40.943066
22987.891596	3295.272500	1747.204102	-117.524582
22987.891596	3295.272500	1746.193359	-89.368973
22987.891596	3295.272500	1745.181641	-181.813370
22987.891596	3295.272500	1744.168945	124.822800
22987.891596	3295.272500	1743.157227	-41.039158
22987.891596	3295.272500	1742.144531	-32.237274
22987.891596	3295.272500	1741.132813	21.317169
22987.891596	3295.272500	1740.120117	103.060196
22987.891596	3295.272500	1739.106445	-98.493530
22987.891596	3295.272500	1738.093750	96.275597
22987.891596	3295.272500	1737.080078	-93.610970
22987.891596	3295.272500	1736.067383	-17.034178
22987.891596	3295.272500	1735.053711	-63.203388
22987.891596	3295.272500	1734.040039	-102.384987
22987.891596	3295.272500	1733.025391	-103.950867
22987.891596	3295.272500	1732.011719	132.396576
22987.891596	3295.272500	1730.997070	118.805717
22987.891596	3295.272500	1729.982422	-33.859531
22987.891596	3295.272500	1728.967773	-64.098694
22987.891596	3295.272500	1727.952148	98.646622
22987.891596	3295.272500	1726.937500	-82.474380
22987.891596	3295.272500	1725.921875	98.845985
22987.891596	3295.272500	1724.906250	-68.292465
22987.891596	3295.272500	1723.890625	-0.178249
22987.891596	3295.272500	1722.875000	-120.379166
22987.891596	3295.272500	1721.858398	88.634430
22987.891596	3295.272500	1720.841797	45.859261
22987.891596	3295.272500	1719.825195	-29.910107
22987.891596	3295.272500	1718.808594	-105.744347
22987.891596	3295.272500	1717.791992	-108.789307
22987.891596	3295.272500	1716.774414	151.231369
22987.891596	3295.272500	1715.756836	16.382301
22987.891596	3295.272500	1714.739258	10.676888
22987.891596	3295.272500	1713.721680	-39.737701
22987.891596	3295.272500	1712.704102	-193.531647
22987.891596	3295.272500	1711.685547	75.175537
22987.891596	3295.272500	1710.667969	-41.209999
22987.891596	3295.272500	1709.649414	81.698929
22987.891596	3295.272500	1708.630859	-86.446426
22987.891596	3295.272500	1707.611328	8.088679
22987.891596	3295.272500	1706.592773	-120.285027
22987.891596	3295.272500	1705.573242	-70.504173
22987.891596	3295.272500	1704.553711	21.369980
22987.891596	3295.272500	1703.534180	-79.073845
22987.891596	3295.272500	1702.513672	-186.605133
22987.891596	3295.272500	1701.494141	101.796089
22987.891596	3295.272500	1700.473633	-94.910057
22987.891596	3295.272500	1699.453125	-73.809761
22987.891596	3295.272500	1698.432617	101.749229
22987.891596	3295.272500	1697.412109	-95.085686
22987.891596	3295.272500	1696.390625	-64.886108
22987.891596	3295.272500	1695.369141	103.299210
22987.891596	3295.272500	1694.347656	70.118668
22987.891596	3295.272500	1693.326172	74.303711
22987.891596	3295.272500	1692.304688	-66.601746
22987.891596	3295.272500	1691.282227	40.339214
22987.891596	3295.272500	1690.260742	119.120895
22987.891596	3295.272500	1689.238281	321.678589
22987.891596	3295.272500	1688.214844	129.100021
22987.891596	3295.272500	1687.192383	135.154358
22987.891596	3295.272500	1686.168945	103.744278
22987.891596	3295.272500	1685.146484	170.393112
22987.891596	3295.272500	1684.123047	145.857849
22987.891596	3295.272500	1683.099609	97.916832
22987.891596	3295.272500	1682.075195	-57.469093
22987.891596	3295.272500	1681.051758	95.239532
22987.891596	3295.272500	1680.027344	124.134232
22987.891596	3295.272500	1679.002930	64.299278
22987.891596	3295.272500	1677.978516	270.345154
22987.891596	3295.272500	1676.953125	2.804780
22987.891596	3295.272500	1675.928711	187.677155
22987.891596	3295.272500	1674.903320	176.579697
22987.891596	3295.272500	1673.877930	263.324524
22987.891596	3295.272500	1672.852539	161.217468
22987.891596	3295.272500	1671.826172	198.878174
22987.891596	3295.272500	1670.800781	-26.748529
22987.891596	3295.272500	1669.774414	38.775627
22987.891596	3295.272500	1668.748047	215.994492
22987.891596	3295.272500	1667.721680	274.360413
22987.891596	3295.272500	1666.694336	321.001648
22987.891596	3295.272500	1665.667969	262.864502
22987.891596	3295.272500	1664.640625	383.852631
22987.891596	3295.272500	1663.613281	246.523819
22987.891596	3295.272500	1662.585938	483.672272
22987.891596	3295.272500	1661.557617	446.269775
22987.891596	3295.272500	1660.530273	464.652740
22987.891596	3295.272500	1659.501953	464.377808
22987.891596	3295.272500	1658.473633	487.303772
22987.891596	3295.272500	1657.444336	447.429657
22987.891596	3295.272500	1656.416016	607.343140
22987.891596	3295.272500	1655.386719	651.006836
22987.891596	3295.272500	1654.358398	659.798584
22987.891596	3295.272500	1653.328125	589.581970
22987.891596	3295.272500	1652.298828	521.695129
22987.891596	3295.272500	1651.269531	676.615662
22987.891596	3295.272500	1650.239258	664.355103
22987.891596	3295.272500	1649.208984	756.473755
22987.891596	3295.272500	1648.178711	704.714050
22987.891596	3295.272500	1647.148438	759.629089
22987.891596	3295.272500	1646.117188	726.372986
22987.891596	3295.272500	1645.086914	732.530029
22987.891596	3295.272500	1644.055664	824.408142
22987.891596	3295.272500	1643.024414	765.600952
22987.891596	3295.272500	1641.992188	723.000793
22987.891596	3295.272500	1640.960938	958.389282
22987.891596	3295.272500	1639.928711	836.988403
22987.891596	3295.272500	1638.896484	1104.633057
22987.891596	3295.272500	1637.864258	1147.593994
22987.891596	3295.272500	1636.832031	1155.805054
22987.891596	3295.272500	1635.798828	1138.529907
22987.891596	3295.272500	1634.766602	1058.794434
22987.891596	3295.272500	1633.733398	1113.237183
22987.891596	3295.272500	1632.699219	1105.190918
22987.891596	3295.272500	1631.666016	1127.215454
22987.891596	3295.272500	1630.632813	1294.880981
22987.891596	3295.272500	1629.598633	1363.067139
22987.891596	3295.272500	1628.564453	1304.115601
22987.891596	3295.272500	1627.530273	1342.231934
22987.891596	3295.272500	1626.495117	1389.559448
22987.891596	3295.272500	1625.460938	1485.388550
22987.891596	3295.272500	1624.425781	1491.106323
22987.891596	3295.272500	1623.390625	1360.605225
22987.891596	3295.272500	1622.355469	1380.205811
22987.891596	3295.272500	1621.319336	1406.713745
22987.891596	3295.272500	1620.284180	1645.521973
22987.891596	3295.272500	1619.248047	1625.844482
22987.891596	3295.272500	1618.211914	1329.395264
22987.891596	3295.272500	1617.174805	1630.348877
22987.891596	3295.272500	1616.138672	1594.581665
22987.891596	3295.272500	1615.101563	1413.598877
22987.891596	3295.272500	1614.065430	1668.321533
22987.891596	3295.272500	1613.027344	1731.674805
22987.891596	3295.272500	1611.990234	1813.465576
22987.891596	3295.272500	1610.953125	1810.018188
22987.891596	3295.272500	1609.915039	1749.003540
22987.891596	3295.272500	1608.876953	1773.228882
22987.891596	3295.272500	1607.838867	1753.729736
22987.891596	3295.272500	1606.800781	1812.518066
22987.891596	3295.272500	1605.761719	1829.875366
22987.891596	3295.272500	1604.723633	1895.582520
22987.891596	3295.272500	1603.684570	1933.675659
22987.891596	3295.272500	1602.644531	2052.265625
22987.891596	3295.272500	1601.605469	2000.698486
22987.891596	3295.272500	1600.566406	1657.216553
22987.891596	3295.272500	1599.526367	1748.307617
22987.891596	3295.272500	1598.486328	1827.907471
22987.891596	3295.272500	1597.446289	1716.812256
22987.891596	3295.272500	1596.405273	1665.509766
22987.891596	3295.272500	1595.365234	1979.458984
22987.891596	3295.272500	1594.324219	1834.058960
22987.891596	3295.272500	1593.283203	1753.040161
22987.891596	3295.272500	1592.242188	1711.116943
22987.891596	3295.272500	1591.200195	1543.021118
22987.891596	3295.272500	1590.159180	1792.644043
22987.891596	3295.272500	1589.117188	1679.747314
22987.891596	3295.272500	1588.075195	1608.226318
22987.891596	3295.272500	1587.032227	1635.374023
22987.891596	3295.272500	1585.990234	1545.648438
22987.891596	3295.272500	1584.947266	1570.608521
22987.891596	3295.272500	1583.904297	1574.985352
22987.891596	3295.272500	1582.861328	1547.336914
22987.891596	3295.272500	1581.818359	1547.244263
22987.891596	3295.272500	1580.775391	1462.463501
22987.891596	3295.272500	1579.731445	1526.609131
22987.891596	3295.272500	1578.687500	1586.209717
22987.891596	3295.272500	1577.643555	1675.605347
22987.891596	3295.272500	1576.598633	1623.119507
22987.891596	3295.272500	1575.554688	1884.211914
22987.891596	3295.272500	1574.509766	1783.789673
22987.891596	3295.272500	1573.464844	1539.370972
22987.891596	3295.272500	1572.419922	1608.413208
22987.891596	3295.272500	1571.374023	1624.896484
22987.891596	3295.272500	1570.329102	1620.879395
22987.891596	3295.272500	1569.283203	1557.499023
22987.891596	3295.272500	1568.237305	1793.556641
22987.891596	3295.272500	1567.191406	1508.701660
22987.891596	3295.272500	1566.144531	1390.764282
22987.891596	3295.272500	1565.098633	1407.697998
22987.891596	3295.272500	1564.051758	1219.193970
22987.891596	3295.272500	1563.004883	1341.303345
22987.891596	3295.272500	1561.957031	1445.171753
22987.891596	3295.272500	1560.910156	1174.854492
22987.891596	3295.272500	1559.862305	1568.619873
22987.891596	3295.272500	1558.814453	1280.284912
22987.891596	3295.272500	1557.766602	1053.719849
22987.891596	3295.272500	1556.718750	1249.150269
22987.891596	3295.272500	1555.669922	1378.465332
22987.891596	3295.272500	1554.621094	1145.417725
22987.891596	3295.272500	1553.573242	1199.683960
22987.891596	3295.272500	1552.523438	1304.117554
22987.891596	3295.272500	1551.474609	1146.651123
22987.891596	3295.272500	1550.424805	1185.185059
22987.891596	3295.272500	1549.375000	1216.961670
22987.891596	3295.272500	1548.325195	1296.624268
22987.891596	3295.272500	1547.275391	1180.603516
22987.891596	3295.272500	1546.225586	1019.207947
22987.891596	3295.272500	1545.174805	1130.981934
22987.891596	3295.272500	1544.124023	1104.046997
22987.891596	3295.272500	1543.073242	1222.773071
22987.891596	3295.272500	1542.022461	1052.770508
22987.891596	3295.272500	1540.970703	1126.175903
22987.891596	3295.272500	1539.919922	954.180420
22987.891596	3295.272500	1538.868164	832.337769
22987.891596	3295.272500	1537.815430	924.206787
22987.891596	3295.272500	1536.763672	884.396912
22987.891596	3295.272500	1535.710938	669.815063
22987.891596	3295.272500	1534.659180	839.179749
22987.891596	3295.272500	1533.606445	972.247742
22987.891596	3295.272500	1532.552734	1003.216431
22987.891596	3295.272500	1531.500000	879.969666
22987.891596	3295.272500	1530.446289	927.037354
22987.891596	3295.272500	1529.393555	797.260986
22987.891596	3295.272500	1528.338867	801.438599
22987.891596	3295.272500	1527.285156	764.916077
22987.891596	3295.272500	1526.231445	903.084961
22987.891596	3295.272500	1525.176758	791.964966
22987.891596	3295.272500	1524.122070	696.863037
22987.891596	3295.272500	1523.067383	706.136230
22987.891596	3295.272500	1522.012695	643.026428
22987.891596	3295.272500	1520.957031	487.185638
22987.891596	3295.272500	1519.901367	605.516968
22987.891596	3295.272500	1518.845703	653.731934
22987.891596	3295.272500	1517.790039	720.150513
22987.891596	3295.272500	1516.734375	399.667755
22987.891596	3295.272500	1515.677734	380.353180
22987.891596	3295.272500	1514.621094	356.637634
22987.891596	3295.272500	1513.564453	409.949341
22987.891596	3295.272500	1512.507813	191.999802
22987.891596	3295.272500	1511.450195	238.769058
22987.891596	3295.272500	1510.393555	423.530090
22987.891596	3295.272500	1509.335938	210.576523
22987.891596	3295.272500	1508.278320	27.201794
22987.891596	3295.272500	1507.219727	60.884392
22987.891596	3295.272500	1506.162109	234.715652
22987.891596	3295.272500	1505.103516	370.203979
22987.891596	3295.272500	1504.044922	97.113945
22987.891596	3295.272500	1502.986328	228.306305
22987.891596	3295.272500	1501.926758	395.673187
22987.891596	3295.272500	1500.868164	53.161121
22987.891596	3295.272500	1499.808594	301.958344
22987.891596	3295.272500	1498.749023	205.691116
22987.891596	3295.272500	1497.688477	116.347626
22987.891596	3295.272500	1496.628906	85.790459
22987.891596	3295.272500	1495.568359	84.668694
22987.891596	3295.272500	1494.507813	92.689079
22987.891596	3295.272500	1493.447266	62.527699
22987.891596	3295.272500	1492.386719	77.561798
22987.891596	3295.272500	1491.325195	-105.494148
22987.891596	3295.272500	1490.263672	182.297516
22987.891596	3295.272500	1489.202148	46.830616
22987.891596	3295.272500	1488.140625	73.618073
22987.891596	3295.272500	1487.079102	-108.778358
22987.891596	3295.272500	1486.016602	-169.471786
22987.891596	3295.272500	1484.954102	-207.513504
22987.891596	3295.272500	1483.891602	-105.959930
22987.891596	3295.272500	1482.829102	65.395142
22987.891596	3295.272500	1481.765625	-113.926186
22987.891596	3295.272500	1480.702148	77.842644
22987.891596	3295.272500	1479.638672	-35.972069
22987.891596	3295.272500	1478.575195	317.726471
22987.891596	3295.272500	1477.511719	181.726517
22987.891596	3295.272500	1476.447266	169.394394
22987.891596	3295.272500	1475.382813	2.291930
22987.891596	3295.272500	1474.318359	336.000244
22987.891596	3295.272500	1473.253906	101.878754
22987.891596	3295.272500	1472.189453	274.068146
22987.891596	3295.272500	1471.124023	363.428589
22987.891596	3295.272500	1470.058594	372.094330
22987.891596	3295.272500	1468.993164	546.747131
22987.891596	3295.272500	1467.927734	266.786316
22987.891596	3295.272500	1466.861328	311.546112
22987.891596	3295.272500	1465.794922	454.951355
22987.891596	3295.272500	1464.728516	610.002014
22987.891596	3295.272500	1463.662109	641.785889
22987.891596	3295.272500	1462.594727	570.344666
22987.891596	3295.272500	1461.528320	553.630188
22987.891596	3295.272500	1460.460938	659.402588
22987.891596	3295.272500	1459.393555	703.174805
22987.891596	3295.272500	1458.326172	665.731873
22987.891596	3295.272500	1457.257813	844.328857
22987.891596	3295.272500	1456.189453	753.523254
22987.891596	3295.272500	1455.121094	552.283630
22987.891596	3295.272500	1454.052734	683.457458
22987.891596	3295.272500	1452.984375	892.386353
22987.891596	3295.272500	1451.915039	762.280212
22987.891596	3295.272500	1450.845703	846.411438
22987.891596	3295.272500	1449.776367	773.506409
22987.891596	3295.272500	1448.707031	699.625549
22987.891596	3295.272500	1447.636719	665.908691
22987.891596	3295.272500	1446.567383	538.172119
22987.891596	3295.272500	1445.497070	724.867981
22987.891596	3295.272500	1444.425781	811.864380
22987.891596	3295.272500	1443.355469	542.747498
22987.891596	3295.272500	1442.285156	664.131042
22987.891596	3295.272500	1441.213867	877.863586
22987.891596	3295.272500	1440.142578	570.525818
22987.891596	3295.272500	1439.070313	701.656067
22987.891596	3295.272500	1437.999023	701.114502
22987.891596	3295.272500	1436.926758	613.335449
22987.891596	3295.272500	1435.854492	809.514343
22987.891596	3295.272500	1434.782227	687.494629
22987.891596	3295.272500	1433.709961	830.633362
22987.891596	3295.272500	1432.636719	644.216431
22987.891596	3295.272500	1431.563477	894.600037
22987.891596	3295.272500	1430.490234	756.602112
22987.891596	3295.272500	1429.416992	632.376465
22987.891596	3295.272500	1428.343750	723.173767
22987.891596	3295.272500	1427.269531	651.075378
22987.891596	3295.272500	1426.195313	575.719910
22987.891596	3295.272500	1425.121094	629.284729
22987.891596	3295.272500	1424.046875	476.988129
22987.891596	3295.272500	1422.971680	685.129639
22987.891596	3295.272500	1421.896484	662.600403
22987.891596	3295.272500	1420.821289	495.461456
22987.891596	3295.272500	1419.746094	697.230835
22987.891596	3295.272500	1418.669922	551.607971
22987.891596	3295.272500	1417.594727	548.608582
22987.891596	3295.272500	1416.518555	591.142883
22987.891596	3295.272500	1415.442383	452.220398
22987.891596	3295.272500	1414.365234	671.853455
22987.891596	3295.272500	1413.289063	611.389771
22987.891596	3295.272500	1412.211914	494.606750
22987.891596	3295.272500	1411.134766	510.569946
22987.891596	3295.272500	1410.057617	423.493652
22987.891596	3295.272500	1408.979492	600.810608
22987.891596	3295.272500	1407.902344	406.283539
22987.891596	3295.272500	1406.824219	484.978790
22987.891596	3295.272500	1405.746094	450.441895
22987.891596	3295.272500	1404.666992	611.133423
22987.891596	3295.272500	1403.588867	506.774994
22987.891596	3295.272500	1402.509766	589.090149
22987.891596	3295.272500	1401.430664	692.766541
22987.891596	3295.272500	1400.351563	663.977356
22987.891596	3295.272500	1399.271484	525.825073
22987.891596	3295.272500	1398.192383	808.865356
22987.891596	3295.272500	1397.112305	688.351074
22987.891596	3295.272500	1396.031250	808.337402
22987.891596	3295.272500	1394.951172	729.672302
22987.891596	3295.272500	1393.871094	550.487854
22987.891596	3295.272500	1392.790039	617.756348
22987.891596	3295.272500	1391.708984	747.141907
22987.891596	3295.272500	1390.626953	752.560364
22987.891596	3295.272500	1389.545898	739.218994
22987.891596	3295.272500	1388.463867	857.310608
22987.891596	3295.272500	1387.381836	815.781189
22987.891596	3295.272500	1386.299805	708.810608
22987.891596	3295.272500	1385.217773	875.403992
22987.891596	3295.272500	1384.134766	800.444397
22987.891596	3295.272500	1383.051758	1069.700806
22987.891596	3295.272500	1381.968750	901.786438
22987.891596	3295.272500	1380.885742	937.558105
22987.891596	3295.272500	1379.802734	1164.134033
22987.891596	3295.272500	1378.718750	1076.240601
22987.891596	3295.272500	1377.634766	875.674561
22987.891596	3295.272500	1376.550781	1075.902710
22987.891596	3295.272500	1375.465820	1058.423096
22987.891596	3295.272500	1374.381836	1165.680664
22987.891596	3295.272500	1373.296875	908.037598
22987.891596	3295.272500	1372.211914	964.770569
22987.891596	3295.272500	1371.126953	990.879578
22987.891596	3295.272500	1370.041016	1227.075195
22987.891596	3295.272500	1368.955078	1221.871948
22987.891596	3295.272500	1367.869141	1086.759155
22987.891596	3295.272500	1366.783203	1060.410767
22987.891596	3295.272500	1365.697266	1037.092651
22987.891596	3295.272500	1364.610352	1179.562256
22987.891596	3295.272500	1363.523438	1142.872803
22987.891596	3295.272500	1362.436523	1181.547974
22987.891596	3295.272500	1361.349609	1262.177612
22987.891596	3295.272500	1360.261719	1080.848755
22987.891596	3295.272500	1359.174805	1136.953979
22987.891596	3295.272500	1358.086914	1112.898926
22987.891596	3295.272500	1356.998047	1097.256958
22987.891596	3295.272500	1355.910156	1030.285522
22987.891596	3295.272500	1354.821289	872.411133
22987.891596	3295.272500	1353.732422	653.084656
22987.891596	3295.272500	1352.643555	868.405701
22987.891596	3295.272500	1351.554688	958.268982
22987.891596	3295.272500	1350.464844	862.665344
22987.891596	3295.272500	1349.375000	902.733948
22987.891596	3295.272500	1348.285156	905.257019
22987.891596	3295.272500	1347.195313	874.451416
22987.891596	3295.272500	1346.105469	987.068054
22987.891596	3295.272500	1345.014648	584.519226
22987.891596	3295.272500	1343.923828	931.622314
22987.891596	3295.272500	1342.833008	971.591248
22987.891596	3295.272500	1341.741211	991.889160
22987.891596	3295.272500	1340.650391	1083.540894
22987.891596	3295.272500	1339.558594	1058.134033
22987.891596	3295.272500	1338.466797	1025.558105
22987.891596	3295.272500	1337.374023	856.354370
22987.891596	3295.272500	1336.282227	834.410583
22987.891596	3295.272500	1335.189453	753.617615
22987.891596	3295.272500	1334.096680	712.780457
22987.891596	3295.272500	1333.003906	690.692139
22987.891596	3295.272500	1331.910156	793.048706
22987.891596	3295.272500	1330.817383	1015.634705
22987.891596	3295.272500	1329.723633	981.155029
22987.891596	3295.272500	1328.629883	909.594055
22987.891596	3295.272500	1327.535156	694.178467
22987.891596	3295.272500	1326.441406	835.828979
22987.891596	3295.272500	1325.346680	814.872009
22987.891596	3295.272500	1324.251953	774.281006
22987.891596	3295.272500	1323.156250	893.431335
22987.891596	3295.272500	1322.061523	784.413147
22987.891596	3295.272500	1320.965820	821.042542
22987.891596	3295.272500	1319.870117	976.745850
22987.891596	3295.272500	1318.774414	684.362061
22987.891596	3295.272500	1317.678711	896.241577
22987.891596	3295.272500	1316.582031	760.179932
22987.891596	3295.272500	1315.485352	702.228394
22987.891596	3295.272500	1314.388672	783.614380
22987.891596	3295.272500	1313.291016	617.735046
22987.891596	3295.272500	1312.194336	632.826416
22987.891596	3295.272500	1311.096680	716.208130
22987.891596	3295.272500	1309.999023	803.286743
22987.891596	3295.272500	1308.901367	658.310181
22987.891596	3295.272500	1307.802734	676.514771
22987.891596	3295.272500	1306.705078	710.449463
22987.891596	3295.272500	1305.606445	651.717529
22987.891596	3295.272500	1304.506836	748.153137
22987.891596	3295.272500	1303.408203	539.035522
22987.891596	3295.272500	1302.308594	588.266052
22987.891596	3295.272500	1301.208984	562.297791
22987.891596	3295.272500	1300.109375	543.856323
22987.891596	3295.272500	1299.009766	566.612549
22987.891596	3295.272500	1297.909180	556.926941
22987.891596	3295.272500	1296.808594	420.104004
22987.891596	3295.272500	1295.708008	468.239471
22987.891596	3295.272500	1294.607422	582.041321
22987.891596	3295.272500	1293.506836	443.244812
22987.891596	3295.272500	1292.405273	417.203857
22987.891596	3295.272500	1291.303711	704.193481
22987.891596	3295.272500	1290.202148	592.586792
22987.891596	3295.272500	1289.099609	362.779602
22987.891596	3295.272500	1287.998047	442.370789
22987.891596	3295.272500	1286.895508	237.251740
22987.891596	3295.272500	1285.792969	397.442596
22987.891596	3295.272500	1284.689453	379.732849
22987.891596	3295.272500	1283.586914	200.876480
22987.891596	3295.272500	1282.483398	379.682068
22987.891596	3295.272500	1281.379883	446.905975
22987.891596	3295.272500	1280.276367	416.170258
22987.891596	3295.272500	1279.171875	463.057526
22987.891596	3295.272500	1278.067383	375.181549
22987.891596	3295.272500	1276.962891	276.090149
22987.891596	3295.272500	1275.858398	282.059723
22987.891596	3295.272500	1274.753906	232.730911
22987.891596	3295.272500	1273.648438	279.132690
22987.891596	3295.272500	1272.542969	172.975418
22987.891596	3295.272500	1271.437500	322.229828
22987.891596	3295.272500	1270.331055	224.672012
22987.891596	3295.272500	1269.225586	229.656174
22987.891596	3295.272500	1268.119141	226.654358
22987.891596	3295.272500	1267.012695	177.855408
22987.891596	3295.272500	1265.906250	239.090454
22987.891596	3295.272500	1264.798828	185.753738
22987.891596	3295.272500	1263.691406	203.298798
22987.891596	3295.272500	1262.583984	279.251068
22987.891596	3295.272500	1261.476563	-94.911858
22987.891596	3295.272500	1260.368164	155.937729
22987.891596	3295.272500	1259.260742	102.102295
22987.891596	3295.272500	1258.152344	342.421112
22987.891596	3295.272500	1257.043945	211.590897
22987.891596	3295.272500	1255.934570	127.366272
22987.891596	3295.272500	1254.825195	216.305283
22987.891596	3295.272500	1253.716797	229.377106
22987.891596	3295.272500	1252.606445	192.350372
22987.891596	3295.272500	1251.497070	250.142227
22987.891596	3295.272500	1250.387695	174.065903
22987.891596	3295.272500	1249.277344	75.639725
22987.891596	3295.272500	1248.166992	111.246986
22987.891596	3295.272500	1247.055664	187.133514
22987.891596	3295.272500	1245.945313	-51.542557
22987.891596	3295.272500	1244.833984	130.866562
22987.891596	3295.272500	1243.722656	4.737383
22987.891596	3295.272500	1242.611328	-122.176033
22987.891596	3295.272500	1241.499023	-100.482376
22987.891596	3295.272500	1240.387695	-35.047783
22987.891596	3295.272500	1239.275391	52.755913
22987.891596	3295.272500	1238.162109	-115.551620
22987.891596	3295.272500	1237.049805	-113.024910
22987.891596	3295.272500	1235.936523	30.293245
22987.891596	3295.272500	1234.823242	20.764862
22987.891596	3295.272500	1233.709961	14.926272
22987.891596	3295.272500	1232.596680	-49.030914
22987.891596	3295.272500	1231.482422	24.297222
22987.891596	3295.272500	1230.369141	79.635704
22987.891596	3295.272500	1229.253906	-2.823737
22987.891596	3295.272500	1228.139648	107.457115
22987.891596	3295.272500	1227.025391	21.312853
22987.891596	3295.272500	1225.910156	26.403166
22987.891596	3295.272500	1224.794922	22.204552
22987.891596	3295.272500	1223.679688	112.999496
22987.891596	3295.272500	1222.563477	50.280659
22987.891596	3295.272500	1221.447266	-0.384564
22987.891596	3295.272500	1220.331055	27.793173
22987.891596	3295.272500	1219.214844	58.047554
22987.891596	3295.272500	1218.098633	92.323204
22987.891596	3295.272500	1216.981445	40.695694
22987.891596	3295.272500	1215.864258	83.666183
22987.891596	3295.272500	1214.747070	96.250603
22987.891596	3295.272500	1213.629883	117.002014
22987.891596	3295.272500	1212.511719	35.700001
22987.891596	3295.272500	1211.393555	36.402496
22987.891596	3295.272500	1210.275391	40.007305
22987.891596	3295.272500	1209.157227	79.554817
22987.891596	3295.272500	1208.038086	136.568665
22987.891596	3295.272500	1206.918945	-44.013203
22987.891596	3295.272500	1205.799805	35.233440
22987.891596	3295.272500	1204.680664	20.759155
22987.891596	3295.272500	1203.560547	-19.189875
22987.891596	3295.272500	1202.441406	-163.966202
22987.891596	3295.272500	1201.321289	-37.276112
22987.891596	3295.272500	1200.200195	47.686359
22987.891596	3295.272500	1199.080078	24.148977
22987.891596	3295.272500	1197.958984	-173.980484
22987.891596	3295.272500	1196.837891	-62.143578
22987.891596	3295.272500	1195.716797	-108.461914
22987.891596	3295.272500	1194.594727	-213.529404
22987.891596	3295.272500	1193.473633	43.513981
22987.891596	3295.272500	1192.351563	-10.670433
22987.891596	3295.272500	1191.229492	-68.803253
22987.891596	3295.272500	1190.106445	-23.683577
22987.891596	3295.272500	1188.984375	-46.594608
22987.891596	3295.272500	1187.861328	12.895221
22987.891596	3295.272500	1186.738281	-19.341738
22987.891596	3295.272500	1185.614258	81.011497
22987.891596	3295.272500	1184.491211	16.437700
22987.891596	3295.272500	1183.367188	36.769516
22987.891596	3295.272500	1182.243164	-52.618561
22987.891596	3295.272500	1181.119141	54.734955
22987.891596	3295.272500	1179.994141	8.962296
22987.891596	3295.272500	1178.869141	-0.372428
22987.891596	3295.272500	1177.744141	-75.185646
22987.891596	3295.272500	1176.619141	8.865996
22987.891596	3295.272500	1175.493164	-22.653772
22987.891596	3295.272500	1174.368164	-20.728115
22987.891596	3295.272500	1173.242188	-37.480183
22987.891596	3295.272500	1172.115234	-7.013021
22987.891596	3295.272500	1170.989258	13.821364
22987.891596	3295.272500	1169.862305	-169.539886
22987.891596	3295.272500	1168.735352	-155.500931
22987.891596	3295.272500	1167.608398	-12.772083
22987.891596	3295.272500	1166.481445	-0.770650
22987.891596	3295.272500	1165.353516	-187.461563
22987.891596	3295.272500	1164.225586	-127.583748
22987.891596	3295.272500	1163.097656	-65.941200
22987.891596	3295.272500	1161.968750	-110.831993
22987.891596	3295.272500	1160.840820	-131.035919
22987.891596	3295.272500	1159.711914	-6.312901
22987.891596	3295.272500	1158.583008	-50.217979
22987.891596	3295.272500	1157.453125	-36.737854
22987.891596	3295.272500	1156.324219	-17.031782
22987.891596	3295.272500	1155.194336	3.456358
22987.891596	3295.272500	1154.064453	-70.738396
22987.891596	3295.272500	1152.933594	-15.129290
22987.891596	3295.272500	1151.803711	-7.881970
22987.891596	3295.272500	1150.672852	-268.290314
22987.891596	3295.272500	1149.541992	-156.174484
22987.891596	3295.272500	1148.411133	73.050255
22987.891596	3295.272500	1147.279297	-94.035797
22987.891596	3295.272500	1146.147461	-5.165745
22987.891596	3295.272500	1145.015625	-21.515539
22987.891596	3295.272500	1143.883789	29.691023
22987.891596	3295.272500	1142.750977	176.057510
22987.891596	3295.272500	1141.619141	110.223930
22987.891596	3295.272500	1140.486328	159.281342
22987.891596	3295.272500	1139.352539	45.335873
22987.891596	3295.272500	1138.219727	0.857005
22987.891596	3295.272500	1137.085938	173.813416
22987.891596	3295.272500	1135.952148	165.376801
22987.891596	3295.272500	1134.818359	217.138885
22987.891596	3295.272500	1133.683594	138.083740
22987.891596	3295.272500	1132.549805	63.277061
22987.891596	3295.272500	1131.415039	177.019089
22987.891596	3295.272500	1130.279297	139.612335
22987.891596	3295.272500	1129.144531	267.933411
22987.891596	3295.272500	1128.008789	350.385742
22987.891596	3295.272500	1126.873047	380.529266
22987.891596	3295.272500	1125.737305	239.437149
22987.891596	3295.272500	1124.601563	501.625977
22987.891596	3295.272500	1123.464844	414.841125
22987.891596	3295.272500	1122.328125	296.996246
22987.891596	3295.272500	1121.191406	244.170471
22987.891596	3295.272500	1120.054688	281.847168
22987.891596	3295.272500	1118.916992	312.596710
22987.891596	3295.272500	1117.779297	295.969757
22987.891596	3295.272500	1116.641602	190.061020
22987.891596	3295.272500	1115.503906	104.727005
22987.891596	3295.272500	1114.365234	273.186340
22987.891596	3295.272500	1113.226563	220.892242
22987.891596	3295.272500	1112.087891	264.847687
22987.891596	3295.272500	1110.949219	152.690430
22987.891596	3295.272500	1109.809570	9.345951
22987.891596	3295.272500	1108.669922	0.326301
22987.891596	3295.272500	1107.530273	48.279018
22987.891596	3295.272500	1106.390625	88.567467
22987.891596	3295.272500	1105.250000	223.225357
22987.891596	3295.272500	1104.109375	151.976883
22987.891596	3295.272500	1102.968750	205.284058
22987.891596	3295.272500	1101.828125	312.022980
22987.891596	3295.272500	1100.686523	330.229126
22987.891596	3295.272500	1099.544922	241.914032
22987.891596	3295.272500	1098.403320	187.429398
22987.891596	3295.272500	1097.261719	232.434525
22987.891596	3295.272500	1096.120117	232.233292
22987.891596	3295.272500	1094.977539	115.166603
22987.891596	3295.272500	1093.834961	247.681839
22987.891596	3295.272500	1092.691406	320.604187
22987.891596	3295.272500	1091.548828	246.761246
22987.891596	3295.272500	1090.405273	170.339355
22987.891596	3295.272500	1089.261719	264.356415
22987.891596	3295.272500	1088.118164	204.781372
22987.891596	3295.272500	1086.973633	173.168686
22987.891596	3295.272500	1085.829102	282.669281
22987.891596	3295.272500	1084.684570	239.880997
22987.891596	3295.272500	1083.540039	212.455429
22987.891596	3295.272500	1082.395508	227.925995
22987.891596	3295.272500	1081.250000	242.071533
22987.891596	3295.272500	1080.104492	168.225861
22987.891596	3295.272500	1078.958984	214.028870
22987.891596	3295.272500	1077.812500	171.209442
22987.891596	3295.272500	1076.666016	181.560562
22987.891596	3295.272500	1075.519531	316.490662
22987.891596	3295.272500	1074.373047	257.360382
22987.891596	3295.272500	1073.226563	145.892593
22987.891596	3295.272500	1072.079102	168.075775
22987.891596	3295.272500	1070.931641	327.488312
22987.891596	3295.272500	1069.784180	216.094376
22987.891596	3295.272500	1068.635742	141.160553
22987.891596	3295.272500	1067.487305	289.163879
22987.891596	3295.272500	1066.338867	157.216919
22987.891596	3295.272500	1065.190430	79.128571
22987.891596	3295.272500	1064.041992	222.760468
22987.891596	3295.272500	1062.892578	148.516708
22987.891596	3295.272500	1061.743164	218.942932
22987.891596	3295.272500	1060.593750	260.404663
22987.891596	3295.272500	1059.443359	175.376236
22987.891596	3295.272500	1058.292969	145.452209
22987.891596	3295.272500	1057.142578	37.888775
22987.891596	3295.272500	1055.992188	-37.927013
22987.891596	3295.272500	1054.841797	-78.597374
22987.891596	3295.272500	1053.690430	-39.787838
22987.891596	3295.272500	1052.539063	72.471420
22987.891596	3295.272500	1051.387695	233.557693
22987.891596	3295.272500	1050.235352	-20.843115
22987.891596	3295.272500	1049.083984	70.129631
22987.891596	3295.272500	1047.931641	74.413757
22987.891596	3295.272500	1046.778320	54.549530
22987.891596	3295.272500	1045.625977	67.898827
22987.891596	3295.272500	1044.472656	169.960754
22987.891596	3295.272500	1043.319336	117.961380
22987.891596	3295.272500	1042.166016	300.438171
22987.891596	3295.272500	1041.012695	29.031157
22987.891596	3295.272500	1039.858398	107.388771
22987.891596	3295.272500	1038.704102	71.300735
22987.891596	3295.272500	1037.549805	-33.258945
22987.891596	3295.272500	1036.394531	175.552399
22987.891596	3295.272500	1035.239258	30.356655
22987.891596	3295.272500	1034.083984	165.098541
22987.891596	3295.272500	1032.928711	116.745224
22987.891596	3295.272500	1031.773438	54.223862
22987.891596	3295.272500	1030.617188	61.739239
22987.891596	3295.272500	1029.460938	89.341171
22987.891596	3295.272500	1028.304688	105.369911
22987.891596	3295.272500	1027.147461	67.976410
22987.891596	3295.272500	1025.991211	140.708527
22987.891596	3295.272500	1024.833984	21.642159
22987.891596	3295.272500	1023.675781	36.345974
22987.891596	3295.272500	1022.518555	29.898315
22987.891596	3295.272500	1021.360352	150.161987
22987.891596	3295.272500	1020.202148	71.408821
22987.891596	3295.272500	1019.043945	40.983932
22987.891596	3295.272500	1017.884766	8.294357
22987.891596	3295.272500	1016.726563	50.015003
22987.891596	3295.272500	1015.567383	21.768583
22987.891596	3295.272500	1014.407227	45.618385
22987.891596	3295.272500	1013.248047	189.374786
22987.891596	3295.272500	1012.087891	-0.657596
22987.891596	3295.272500	1010.927734	154.211334
22987.891596	3295.272500	1009.767578	110.630402
22987.891596	3295.272500	1008.606445	167.860397
22987.891596	3295.272500	1007.446289	-6.294822
22987.891596	3295.272500	1006.285156	77.252258
22987.891596	3295.272500	1005.123047	131.895508
22987.891596	3295.272500	1003.961914	92.348152
22987.891596	3295.272500	1002.799805	107.095963
22987.891596	3295.272500	1001.637695	194.254074
22987.891596	3295.272500	1000.475586	20.026495
22987.891596	3295.272500	999.312500	16.448185
22987.891596	3295.272500	998.149414	-9.700113
22987.891596	3295.272500	996.986328	136.739716
22987.891596	3295.272500	995.823242	114.243675
22987.891596	3295.272500	994.659180	79.762596
22987.891596	3295.272500	993.496094	32.265118
22987.891596	3295.272500	992.332031	-58.733257
22987.891596	3295.272500	991.166992	98.971901
22987.891596	3295.272500	990.002930	0.292250
22987.891596	3295.272500	988.837891	154.217743
22987.891596	3295.272500	987.672852	12.830657
22987.891596	3295.272500	986.506836	115.436119
22987.891596	3295.272500	985.341797	172.237503
22987.891596	3295.272500	984.175781	4.536077
22987.891596	3295.272500	983.009766	5.118302
22987.891596	3295.272500	981.843750	94.403511
22987.891596	3295.272500	980.676758	-86.559158
22987.891596	3295.272500	979.509766	70.432861
22987.891596	3295.272500	978.342773	-19.930130
22987.891596	3295.272500	977.175781	-59.160439
22987.891596	3295.272500	976.007813	214.722610
22987.891596	3295.272500	974.839844	-45.996784
22987.891596	3295.272500	973.671875	38.732510
22987.891596	3295.272500	972.503906	71.678444
22987.891596	3295.272500	971.334961	-4.486994
22987.891596	3295.272500	970.166016	-52.309132
22987.891596	3295.272500	968.997070	-12.982435
22987.891596	3295.272500	967.828125	29.310347
22987.891596	3295.272500	966.658203	-59.599224
22987.891596	3295.272500	965.488281	-47.322811
22987.891596	3295.272500	964.318359	-111.496300
22987.891596	3295.272500	963.148438	85.797653
22987.891596	3295.272500	961.977539	115.348022
22987.891596	3295.272500	960.806641	-60.105209
22987.891596	3295.272500	959.635742	-15.535836
22987.891596	3295.272500	958.463867	-28.293121
22987.891596	3295.272500	957.292969	113.146156
22987.891596	3295.272500	956.121094	116.665154
22987.891596	3295.272500	954.948242	79.572227
22987.891596	3295.272500	953.776367	179.152908
22987.891596	3295.272500	952.603516	107.059280
22987.891596	3295.272500	951.430664	36.328781
22987.891596	3295.272500	950.257813	-148.205261
22987.891596	3295.272500	949.084961	-40.027443
22987.891596	3295.272500	947.911133	-56.176643
22987.891596	3295.272500	946.737305	-249.295059
22987.891596	3295.272500	945.563477	187.809006
22987.891596	3295.272500	944.388672	-67.403427
22987.891596	3295.272500	943.213867	19.230673
22987.891596	3295.272500	942.039063	-28.851894
22987.891596	3295.272500	940.864258	40.458508
22987.891596	3295.272500	939.688477	217.035431
22987.891596	3295.272500	938.513672	51.219933
22987.891596	3295.272500	937.337891	116.286667
22987.891596	3295.272500	936.161133	78.841797
22987.891596	3295.272500	934.985352	62.809460
22987.891596	3295.272500	933.808594	61.540863
22987.891596	3295.272500	932.631836	267.463776
22987.891596	3295.272500	931.454102	-68.895073
22987.891596	3295.272500	930.277344	134.765518
22987.891596	3295.272500	929.099609	18.232159
22987.891596	3295.272500	927.921875	83.135780
22987.891596	3295.272500	926.743164	130.941025
22987.891596	3295.272500	925.565430	189.344696
22987.891596	3295.272500	924.386719	111.225548
22987.891596	3295.272500	923.208008	54.451363
22987.891596	3295.272500	922.028320	238.640045
22987.891596	3295.272500	920.849609	-16.450527
22987.891596	3295.272500	919.669922	-14.061798
22987.891596	3295.272500	919.474609	-136.769165
22987.891596	3295.272500	918.309570	-25.181276
22987.891596	3295.272500	917.143555	11.773767
22987.891596	3295.272500	915.977539	-57.813580
22987.891596	3295.272500	914.810547	57.913727
22987.891596	3295.272500	913.644531	-43.622742
22987.891596	3295.272500	912.477539	-36.549885
22987.891596	3295.272500	911.310547	-38.007191
22987.891596	3295.272500	910.143555	-169.291916
22987.891596	3295.272500	908.975586	-151.595428
22987.891596	3295.272500	907.807617	-246.663666
22987.891596	3295.272500	906.639648	-84.359306
22987.891596	3295.272500	905.471680	26.833359
22987.891596	3295.272500	904.303711	-49.115856
22987.891596	3295.272500	903.134766	-74.032204
22987.891596	3295.272500	901.965820	-71.324181
22987.891596	3295.272500	900.796875	-92.000504
22987.891596	3295.272500	899.626953	-72.318115
22987.891596	3295.272500	898.457031	19.553751
22987.891596	3295.272500	897.287109	-171.031830
22987.891596	3295.272500	896.117188	-183.224701
22987.891596	3295.272500	894.947266	-144.484787
22987.891596	3295.272500	893.776367	-152.456329
22987.891596	3295.272500	892.605469	166.295471
22987.891596	3295.272500	891.434570	-19.940300
22987.891596	3295.272500	890.262695	-38.569149
22987.891596	3295.272500	889.091797	235.401596
22987.891596	3295.272500	887.919922	83.150642
22987.891596	3295.272500	886.748047	-22.421389
22987.891596	3295.272500	885.575195	26.728670
22987.891596	3295.272500	884.403320	113.980263
22987.891596	3295.272500	883.230469	-40.285374
22987.891596	3295.272500	882.057617	-10.256954
22987.891596	3295.272500	880.883789	-236.444611
22987.891596	3295.272500	879.710938	-32.828686
22987.891596	3295.272500	878.537109	-79.046143
22987.891596	3295.272500	877.362305	65.185173
22987.891596	3295.272500	876.188477	247.424011
22987.891596	3295.272500	875.013672	-12.486694
22987.891596	3295.272500	873.839844	23.754044
22987.891596	3295.272500	872.664063	-85.914108
22987.891596	3295.272500	871.489258	55.995270
22987.891596	3295.272500	870.313477	68.917809
22987.891596	3295.272500	869.138672	-4.811290
22987.891596	3295.272500	867.962891	73.581429
22987.891596	3295.272500	866.786133	14.643667
22987.891596	3295.272500	865.610352	-124.528580
22987.891596	3295.272500	864.433594	-58.865063
22987.891596	3295.272500	863.256836	-10.127671
22987.891596	3295.272500	862.079102	-111.259911
22987.891596	3295.272500	860.902344	19.728319
22987.891596	3295.272500	859.724609	-89.834061
22987.891596	3295.272500	858.546875	51.615299
22987.891596	3295.272500	857.368164	-7.327622
22987.891596	3295.272500	856.190430	140.342972
22987.891596	3295.272500	855.011719	-32.444038
22987.891596	3295.272500	853.833008	58.244835
22987.891596	3295.272500	852.654297	-84.987083
22987.891596	3295.272500	851.474609	146.780792
22987.891596	3295.272500	850.294922	-114.378387
22987.891596	3295.272500	849.115234	-2.750972
22987.891596	3295.272500	847.935547	41.448475
22987.891596	3295.272500	846.754883	58.253750
22987.891596	3295.272500	845.575195	-78.581627
22987.891596	3295.272500	844.393555	-110.180008
22987.891596	3295.272500	843.212891	-129.162659
22987.891596	3295.272500	842.032227	-51.415257
22987.891596	3295.272500	840.850586	-101.974419
22987.891596	3295.272500	839.668945	-7.480805
22987.891596	3295.272500	838.486328	40.719357
22987.891596	3295.272500	837.304688	-62.413219
22987.891596	3295.272500	836.122070	-161.318802
22987.891596	3295.272500	834.939453	-71.162926
22987.891596	3295.272500	833.756836	-2.063537
22987.891596	3295.272500	832.573242	87.985085
22987.891596	3295.272500	831.389648	79.317924
22987.891596	3295.272500	830.206055	192.359009
22987.891596	3295.272500	829.022461	-49.274765
22987.891596	3295.272500	827.838867	-85.240433
22987.891596	3295.272500	826.654297	-198.815598
22987.891596	3295.272500	825.469727	10.569169
22987.891596	3295.272500	824.284180	-44.317383
22987.891596	3295.272500	823.099609	58.004349
22987.891596	3295.272500	821.914063	-63.974724
22987.891596	3295.272500	820.728516	-45.544506
22987.891596	3295.272500	819.542969	-89.989510
22987.891596	3295.272500	818.356445	37.301193
22987.891596	3295.272500	817.169922	-15.563829
22987.891596	3295.272500	815.983398	15.310103
22987.891596	3295.272500	814.796875	113.125275
22987.891596	3295.272500	813.609375	49.742023
22987.891596	3295.272500	812.422852	126.537712
22987.891596	3295.272500	811.235352	155.166458
22987.891596	3295.272500	810.046875	87.555542
22987.891596	3295.272500	808.859375	124.492126
22987.891596	3295.272500	807.670898	21.324509
22987.891596	3295.272500	806.482422	28.945597
22987.891596	3295.272500	805.293945	61.611843
22987.891596	3295.272500	804.104492	71.256142
22987.891596	3295.272500	802.915039	87.134727
22987.891596	3295.272500	801.725586	36.151520
22987.891596	3295.272500	800.536133	233.620087
22987.891596	3295.272500	799.345703	88.633842
22987.891596	3295.272500	798.155273	0.027737
22987.891596	3295.272500	796.964844	-40.580467
22987.891596	3295.272500	795.774414	0.158438
22987.891596	3295.272500	794.583008	19.992552
22987.891596	3295.272500	793.392578	-70.735229
22987.891596	3295.272500	792.200195	13.673239
22987.891596	3295.272500	791.008789	-2.039602
22987.891596	3295.272500	789.816406	-11.526211
22987.891596	3295.272500	788.625000	-60.630512
22987.891596	3295.272500	787.432617	79.818665
22987.891596	3295.272500	786.239258	147.280289
22987.891596	3295.272500	785.046875	81.413521
22987.891596	3295.272500	783.853516	88.403519
22987.891596	3295.272500	782.660156	20.423916
22987.891596	3295.272500	781.465820	73.134102
22987.891596	3295.272500	780.272461	9.274532
22987.891596	3295.272500	779.078125	107.654633
22987.891596	3295.272500	777.883789	81.175186
22987.891596	3295.272500	776.688477	169.028183
22987.891596	3295.272500	775.494141	86.342018
22987.891596	3295.272500	774.298828	105.493248
22987.891596	3295.272500	773.103516	143.299286
22987.891596	3295.272500	771.907227	29.389490
22987.891596	3295.272500	770.711914	19.342205
22987.891596	3295.272500	769.515625	-42.658150
22987.891596	3295.272500	768.318359	-40.310337
22987.891596	3295.272500	767.122070	-110.658394
22987.891596	3295.272500	765.924805	-183.094742
22987.891596	3295.272500	764.727539	-149.720703
22987.891596	3295.272500	763.530273	88.972588
22987.891596	3295.272500	762.333008	136.708344
22987.891596	3295.272500	761.134766	188.527237
22987.891596	3295.272500	759.936523	-37.530273
22987.891596	3295.272500	758.738281	229.783920
22987.891596	3295.272500	757.540039	36.879547
22987.891596	3295.272500	756.340820	-97.976753
22987.891596	3295.272500	755.141602	67.543198
22987.891596	3295.272500	753.942383	-17.650362
22987.891596	3295.272500	752.742188	174.608017
22987.891596	3295.272500	751.541992	141.087524
22987.891596	3295.272500	750.341797	80.626663
22987.891596	3295.272500	749.141602	117.400787
22987.891596	3295.272500	747.941406	247.212250
22987.891596	3295.272500	746.740234	50.100815
22987.891596	3295.272500	745.539063	161.160141
22987.891596	3295.272500	744.337891	61.227226
22987.891596	3295.272500	743.135742	66.710411
22987.891596	3295.272500	741.933594	-66.331223
22987.891596	3295.272500	740.731445	44.456444
22987.891596	3295.272500	739.529297	-8.058302
22987.891596	3295.272500	738.326172	75.715332
22987.891596	3295.272500	737.124023	10.721569
22987.891596	3295.272500	735.919922	9.701674
22987.891596	3295.272500	734.716797	37.528419
22987.891596	3295.272500	733.513672	-60.597069
22987.891596	3295.272500	732.309570	29.022253
22987.891596	3295.272500	731.105469	-9.347072
22987.891596	3295.272500	729.900391	108.988022
22987.891596	3295.272500	728.696289	136.491928
22987.891596	3295.272500	727.491211	42.294724
22987.891596	3295.272500	726.286133	-53.979912
22987.891596	3295.272500	725.080078	84.648521
22987.891596	3295.272500	723.874023	41.857994
22987.891596	3295.272500	722.668945	174.116699
22987.891596	3295.272500	721.461914	157.981766
22987.891596	3295.272500	720.255859	170.623505
22987.891596	3295.272500	719.048828	133.794968
22987.891596	3295.272500	717.841797	144.260300
22987.891596	3295.272500	716.634766	37.374233
22987.891596	3295.272500	715.427734	84.768829
22987.891596	3295.272500	714.219727	144.423264
22987.891596	3295.272500	713.011719	97.060417
22987.891596	3295.272500	711.803711	193.575546
22987.891596	3295.272500	710.594727	283.821289
22987.891596	3295.272500	709.385742	149.962509
22987.891596	3295.272500	708.176758	53.084011
22987.891596	3295.272500	706.967773	227.344757
22987.891596	3295.272500	705.758789	-109.927338
22987.891596	3295.272500	704.548828	164.785187
22987.891596	3295.272500	703.338867	168.332108
22987.891596	3295.272500	702.127930	54.820133
22987.891596	3295.272500	700.917969	93.150528
22987.891596	3295.272500	699.707031	-71.714119
22987.891596	3295.272500	698.496094	50.600128
22987.891596	3295.272500	697.285156	64.108276
22987.891596	3295.272500	696.073242	178.013046
22987.891596	3295.272500	694.861328	-64.880806
22987.891596	3295.272500	693.649414	26.332884
22987.891596	3295.272500	692.436523	185.061783
22987.891596	3295.272500	691.224609	28.172840
22987.891596	3295.272500	690.011719	31.043982
22987.891596	3295.272500	688.798828	89.140427
22987.891596	3295.272500	687.584961	130.767151
22987.891596	3295.272500	686.372070	149.799362
22987.891596	3295.272500	685.158203	332.475952
22987.891596	3295.272500	683.943359	251.067245
22987.891596	3295.272500	682.729492	257.594330
22987.891596	3295.272500	681.514648	304.954956
22987.891596	3295.272500	680.299805	474.917572
22987.891596	3295.272500	679.084961	299.252136
22987.891596	3295.272500	677.869141	307.544647
22987.891596	3295.272500	676.653320	266.726257
22987.891596	3295.272500	675.437500	244.248672
22987.891596	3295.272500	674.221680	338.145660
22987.891596	3295.272500	673.004883	480.946869
22987.891596	3295.272500	671.789063	427.620117
22987.891596	3295.272500	670.571289	351.790100
22987.891596	3295.272500	669.354492	392.263062
22987.891596	3295.272500	668.136719	320.426025
22987.891596	3295.272500	666.919922	287.320099
22987.891596	3295.272500	665.701172	474.433655
22987.891596	3295.272500	664.483398	343.298187
22987.891596	3295.272500	663.264648	381.365814
22987.891596	3295.272500	662.045898	352.090973
22987.891596	3295.272500	660.827148	375.750183
22987.891596	3295.272500	659.608398	232.265594
22987.891596	3295.272500	658.388672	257.848022
22987.891596	3295.272500	657.168945	269.100525
22987.891596	3295.272500	655.949219	386.167908
22987.891596	3295.272500	654.728516	214.044601
22987.891596	3295.272500	653.507813	304.486633
22987.891596	3295.272500	652.287109	199.481674
22987.891596	3295.272500	651.066406	328.420624
22987.891596	3295.272500	649.844727	156.206024
22987.891596	3295.272500	648.623047	295.142029
22987.891596	3295.272500	647.401367	246.908646
22987.891596	3295.272500	646.179688	247.421356
22987.891596	3295.272500	644.957031	150.320297
22987.891596	3295.272500	643.734375	138.538773
22987.891596	3295.272500	642.511719	130.766678
22987.891596	3295.272500	641.289063	135.125534
22987.891596	3295.272500	640.065430	31.799328
22987.891596	3295.272500	638.841797	139.594650
22987.891596	3295.272500	637.618164	170.157501
22987.891596	3295.272500	636.393555	50.479389
22987.891596	3295.272500	635.168945	214.835342
22987.891596	3295.272500	633.944336	198.535461
22987.891596	3295.272500	632.719727	82.816605
22987.891596	3295.272500	631.494141	109.015892
22987.891596	3295.272500	630.269531	270.973419
22987.891596	3295.272500	629.042969	9.216914
22987.891596	3295.272500	627.817383	-17.429106
22987.891596	3295.272500	626.590820	180.747482
22987.891596	3295.272500	625.365234	155.998749
22987.891596	3295.272500	624.137695	110.947243
22987.891596	3295.272500	622.911133	-45.480434
22987.891596	3295.272500	621.683594	59.214687
22987.891596	3295.272500	620.456055	50.489441
22987.891596	3295.272500	619.228516	122.649696
22987.891596	3295.272500	618.000977	18.744007
22987.891596	3295.272500	616.772461	-2.251631
22987.891596	3295.272500	615.543945	116.232117
22987.891596	3295.272500	614.314453	169.923157
22987.891596	3295.272500	613.085938	9.313702
22987.891596	3295.272500	611.856445	109.391037
22987.891596	3295.272500	610.626953	43.720287
22987.891596	3295.272500	609.397461	-26.005360
22987.891596	3295.272500	608.166992	-53.341778
22987.891596	3295.272500	606.936523	-58.499096
22987.891596	3295.272500	605.706055	6.954187
22987.891596	3295.272500	604.474609	11.790275
22987.891596	3295.272500	603.244141	-21.744616
22987.891596	3295.272500	602.012695	87.915527
22987.891596	3295.272500	600.780273	32.105492
22987.891596	3295.272500	599.548828	-37.825768
22987.891596	3295.272500	598.316406	-15.034038
22987.891596	3295.272500	597.083984	21.821655
22987.891596	3295.272500	595.851563	151.323303
22987.891596	3295.272500	594.618164	-55.720879
22987.891596	3295.272500	593.384766	-49.198307
22987.891596	3295.272500	592.151367	9.649791
22987.891596	3295.272500	590.917969	-16.119947
22987.891596	3295.272500	589.683594	-92.238403
22987.891596	3295.272500	588.449219	-79.799904
22987.891596	3295.272500	587.214844	-73.430397
22987.891596	3295.272500	585.979492	-36.921337
22987.891596	3295.272500	584.745117	-38.660427
22987.891596	3295.272500	583.509766	-72.601692
22987.891596	3295.272500	582.273438	-44.236340
22987.891596	3295.272500	581.038086	-132.477325
22987.891596	3295.272500	579.801758	-3.676224
22987.891596	3295.272500	578.565430	50.711525
22987.891596	3295.272500	577.329102	48.813934
22987.891596	3295.272500	576.091797	99.108063
22987.891596	3295.272500	574.854492	-11.262845
22987.891596	3295.272500	573.617188	16.909323
22987.891596	3295.272500	572.378906	65.117241
22987.891596	3295.272500	571.141602	27.015551
22987.891596	3295.272500	569.903320	115.297493
22987.891596	3295.272500	568.664063	87.193657
22987.891596	3295.272500	567.425781	37.039379
22987.891596	3295.272500	566.186523	-23.132256
22987.891596	3295.272500	564.947266	0.898252
22987.891596	3295.272500	563.708008	335.527527
22987.891596	3295.272500	562.467773	219.203323
22987.891596	3295.272500	561.227539	153.002579
22987.891596	3295.272500	559.987305	6.718420
22987.891596	3295.272500	558.747070	150.822662
22987.891596	3295.272500	557.505859	10.597029
22987.891596	3295.272500	556.264648	136.617508
22987.891596	3295.272500	555.023438	68.490692
22987.891596	3295.272500	553.781250	126.423119
22987.891596	3295.272500	552.539063	82.326698
22987.891596	3295.272500	551.296875	-35.734001
22987.891596	3295.272500	550.054688	106.164986
22987.891596	3295.272500	548.811523	6.144295
22987.891596	3295.272500	547.569336	70.048965
22987.891596	3295.272500	546.325195	-77.862846
22987.891596	3295.272500	545.082031	-37.926220
22987.891596	3295.272500	543.837891	49.930080
22987.891596	3295.272500	542.593750	37.924496
22987.891596	3295.272500	541.349609	41.907684
22987.891596	3295.272500	540.105469	-155.676910
22987.891596	3295.272500	538.860352	-27.915667
22987.891596	3295.272500	537.615234	-15.901755
22987.891596	3295.272500	536.369141	-103.611176
22987.891596	3295.272500	535.124023	-135.421890
22987.891596	3295.272500	533.877930	-125.338684
22987.891596	3295.272500	532.631836	-220.883560
22987.891596	3295.272500	531.384766	-170.893814
22987.891596	3295.272500	530.138672	-138.829666
22987.891596	3295.272500	528.891602	-138.634277
22987.891596	3295.272500	527.643555	-68.715836
22987.891596	3295.272500	526.396484	-96.361877
22987.891596	3295.272500	525.148438	-34.395382
22987.891596	3295.272500	523.900391	-81.893303
22987.891596	3295.272500	522.652344	-155.212234
22987.891596	3295.272500	521.403320	-238.424805
22987.891596	3295.272500	520.154297	30.481728
22987.891596	3295.272500	518.905273	6.981750
22987.891596	3295.272500	517.656250	-117.873222
22987.891596	3295.272500	516.406250	67.435982
22987.891596	3295.272500	515.156250	-15.586884
22987.891596	3295.272500	513.906250	-42.909931
22987.891596	3295.272500	512.655273	-169.514954
22987.891596	3295.272500	511.404297	-147.081009
22987.891596	3295.272500	510.153320	-49.169056
22987.891596	3295.272500	508.902344	-46.551044
22987.891596	3295.272500	507.650391	49.377155
22987.891596	3295.272500	506.398438	36.163780
22987.891596	3295.272500	505.146484	50.767246
22987.891596	3295.272500	503.893555	-45.678062
22987.891596	3295.272500	502.641602	-149.971054
22987.891596	3295.272500	501.388672	74.926140
22987.891596	3295.272500	500.134766	-43.158974
22987.891596	3295.272500	498.881836	9.281983
22987.891596	3295.272500	497.627930	81.546715
22987.891596	3295.272500	496.374023	134.010025
22987.891596	3295.272500	495.119141	127.068893
22987.891596	3295.272500	493.865234	296.400208
22987.891596	3295.272500	492.610352	198.442368
22987.891596	3295.272500	491.355469	62.961433
22987.891596	3295.272500	490.099609	-50.662277
22987.891596	3295.272500	488.843750	-63.302532
22987.891596	3295.272500	487.587891	22.996469
22987.891596	3295.272500	486.332031	14.376986
22987.891596	3295.272500	485.075195	211.407715
22987.891596	3295.272500	483.818359	-12.632168
22987.891596	3295.272500	482.561523	26.296883
22987.891596	3295.272500	481.304688	11.898393
22987.891596	3295.272500	480.046875	3.463578
22987.891596	3295.272500	478.789063	99.738029
22987.891596	3295.272500	477.531250	63.714127
22987.891596	3295.272500	476.272461	67.215195
22987.891596	3295.272500	475.013672	-4.251777
22987.891596	3295.272500	473.754883	105.880577
22987.891596	3295.272500	472.496094	123.274254
22987.891596	3295.272500	471.236328	-11.189028
22987.891596	3295.272500	469.976563	85.153542
22987.891596	3295.272500	468.716797	11.928568
22987.891596	3295.272500	467.456055	-11.965825
22987.891596	3295.272500	466.196289	208.542862
22987.891596	3295.272500	464.935547	38.864441
22987.891596	3295.272500	463.673828	-46.023235
22987.891596	3295.272500	462.413086	205.917770
22987.891596	3295.272500	461.151367	126.974045
22987.891596	3295.272500	459.889648	-30.663216
22987.891596	3295.272500	458.626953	83.378181
22987.891596	3295.272500	457.364258	-5.291842
22987.891596	3295.272500	456.101563	55.597866
22987.891596	3295.272500	454.838867	63.362297
22987.891596	3295.272500	453.575195	67.189644
22987.891596	3295.272500	452.312500	244.028946
22987.891596	3295.272500	451.047852	118.082336
22987.891596	3295.272500	449.784180	49.180195
22987.891596	3295.272500	448.519531	51.026123
22987.891596	3295.272500	447.254883	117.682205
22987.891596	3295.272500	445.990234	60.571995
22987.891596	3295.272500	444.725586	150.727310
22987.891596	3295.272500	443.459961	174.076538
22987.891596	3295.272500	442.194336	189.540649
22987.891596	3295.272500	440.927734	271.679565
22987.891596	3295.272500	439.662109	165.428513
22987.891596	3295.272500	438.395508	155.286713
22987.891596	3295.272500	437.127930	268.641541
22987.891596	3295.272500	435.861328	-21.949997
22987.891596	3295.272500	434.593750	302.987305
22987.891596	3295.272500	433.326172	249.520996
22987.891596	3295.272500	432.058594	213.653183
22987.891596	3295.272500	430.790039	314.847595
22987.891596	3295.272500	429.521484	108.467308
22987.891596	3295.272500	428.252930	221.246384
22987.891596	3295.272500	426.984375	198.828827
22987.891596	3295.272500	425.714844	201.773163
22987.891596	3295.272500	424.445313	140.056320
22987.891596	3295.272500	423.174805	142.820313
22987.891596	3295.272500	421.905273	178.733780
22987.891596	3295.272500	420.634766	394.413391
22987.891596	3295.272500	419.364258	437.847351
22987.891596	3295.272500	418.092773	260.270325
22987.891596	3295.272500	416.822266	346.452454
22987.891596	3295.272500	415.550781	231.225739
22987.891596	3295.272500	414.278320	279.972290
22987.891596	3295.272500	413.006836	213.335297
22987.891596	3295.272500	411.734375	25.511723
22987.891596	3295.272500	410.461914	163.585678
22987.891596	3295.272500	409.188477	43.811115
22987.891596	3295.272500	407.916016	81.953430
22987.891596	3295.272500	406.642578	57.456738
22987.891596	3295.272500	405.368164	-12.094373
22987.891596	3295.272500	404.094727	105.370346
22987.891596	3295.272500	402.820313	-15.276876
22987.891596	3295.272500	401.545898	183.539627
22987.891596	3295.272500	400.270508	152.087692
22987.891596	3295.272500	398.996094	-10.121576
22987.891596	3295.272500	397.720703	199.494553
22987.891596	3295.272500	396.444336	114.693649
22987.891596	3295.272500	395.168945	-24.858492
22987.891596	3295.272500	393.892578	185.719666
22987.891596	3295.272500	392.616211	286.921295
22987.891596	3295.272500	391.339844	70.622665
22987.891596	3295.272500	390.062500	208.113190
22987.891596	3295.272500	388.785156	160.447403
22987.891596	3295.272500	387.507813	52.173584
22987.891596	3295.272500	386.229492	11.609795
22987.891596	3295.272500	384.951172	-33.201252
22987.891596	3295.272500	383.672852	94.551521
22987.891596	3295.272500	382.394531	157.735550
22987.891596	3295.272500	381.115234	148.596161
22987.891596	3295.272500	379.835938	133.201401
22987.891596	3295.272500	378.556641	200.845535
22987.891596	3295.272500	377.277344	5.961153
22987.891596	3295.272500	375.997070	18.311457
22987.891596	3295.272500	374.716797	98.067078
22987.891596	3295.272500	373.435547	97.734894
22987.891596	3295.272500	372.155273	129.856995
22987.891596	3295.272500	370.874023	99.361137
22987.891596	3295.272500	369.591797	-125.543060
22987.891596	3295.272500	368.310547	89.021896
22987.891596	3295.272500	367.028320	49.053391
22987.891596	3295.272500	365.746094	-20.571568
22987.891596	3295.272500	364.463867	-73.368149
22987.891596	3295.272500	363.180664	-70.658134
22987.891596	3295.272500	361.897461	-186.712723
22987.891596	3295.272500	360.614258	-96.308960
22987.891596	3295.272500	359.330078	-29.896355
22987.891596	3295.272500	358.045898	-39.697926
22987.891596	3295.272500	356.761719	-81.196983
22987.891596	3295.272500	355.477539	143.414764
22987.891596	3295.272500	354.192383	179.570618
22987.891596	3295.272500	352.907227	127.906525
22987.891596	3295.272500	351.622070	166.252960
22987.891596	3295.272500	350.336914	199.853088
22987.891596	3295.272500	349.050781	-34.050598
22987.891596	3295.272500	347.764648	-19.628048
22987.891596	3295.272500	346.477539	-75.686928
22987.891596	3295.272500	345.191406	75.831184
22987.891596	3295.272500	343.904297	116.256943
22987.891596	3295.272500	342.616211	144.045349
22987.891596	3295.272500	341.329102	-31.757734
22987.891596	3295.272500	340.041016	28.659658
22987.891596	3295.272500	338.752930	66.742607
22987.891596	3295.272500	337.463867	40.033047
22987.891596	3295.272500	336.175781	-37.901062
22987.891596	3295.272500	334.886719	48.716335
22987.891596	3295.272500	333.596680	20.378407
22987.891596	3295.272500	332.307617	-30.344114
22987.891596	3295.272500	331.017578	-78.498543
22987.891596	3295.272500	329.727539	4.919245
22987.891596	3295.272500	328.436523	-248.019913
22987.891596	3295.272500	327.146484	-76.848114
22987.891596	3295.272500	325.855469	87.038460
22987.891596	3295.272500	324.563477	39.693214
22987.891596	3295.272500	323.272461	-139.843018
22987.891596	3295.272500	321.980469	31.044050
22987.891596	3295.272500	320.688477	-68.827759
22987.891596	3295.272500	319.395508	35.386868
22987.891596	3295.272500	318.103516	-156.020340
22987.891596	3295.272500	316.810547	-135.780685
22987.891596	3295.272500	315.516602	-55.819031
22987.891596	3295.272500	314.223633	-131.196533
22987.891596	3295.272500	312.929688	-95.076683
22987.891596	3295.272500	311.635742	-104.924721
22987.891596	3295.272500	310.340820	-34.142086
22987.891596	3295.272500	309.045898	25.130545
22987.891596	3295.272500	307.750977	80.532654
22987.891596	3295.272500	306.456055	143.531204
22987.891596	3295.272500	305.160156	68.294472
22987.891596	3295.272500	303.865234	240.307571
22987.891596	3295.272500	302.568359	385.106293
22987.891596	3295.272500	301.272461	460.692474
22987.891596	3295.272500	299.975586	417.127808
22987.891596	3295.272500	298.678711	543.724121
