#X		#Y		#Wave		#Intensity
30898.605585	1192.396667	1999.980469	-136.515762
30898.605585	1192.396667	1999.016602	-86.862076
30898.605585	1192.396667	1998.052734	-16.033966
30898.605585	1192.396667	1997.087891	-64.245796
30898.605585	1192.396667	1996.123047	-23.304708
30898.605585	1192.396667	1995.158203	27.470905
30898.605585	1192.396667	1994.193359	-18.421961
30898.605585	1192.396667	1993.228516	133.751419
30898.605585	1192.396667	1992.262695	97.652611
30898.605585	1192.396667	1991.297852	-52.349293
30898.605585	1192.396667	1990.332031	5.548846
30898.605585	1192.396667	1989.366211	-104.882912
30898.605585	1192.396667	1988.399414	98.879402
30898.605585	1192.396667	1987.433594	72.486336
30898.605585	1192.396667	1986.466797	-104.795181
30898.605585	1192.396667	1985.500977	111.098541
30898.605585	1192.396667	1984.534180	-24.171268
30898.605585	1192.396667	1983.567383	72.914948
30898.605585	1192.396667	1982.599609	16.714642
30898.605585	1192.396667	1981.632813	79.103134
30898.605585	1192.396667	1980.665039	69.799324
30898.605585	1192.396667	1979.697266	75.290482
30898.605585	1192.396667	1978.729492	19.019154
30898.605585	1192.396667	1977.761719	29.405848
30898.605585	1192.396667	1976.792969	-58.974602
30898.605585	1192.396667	1975.825195	25.419682
30898.605585	1192.396667	1974.856445	173.919342
30898.605585	1192.396667	1973.887695	144.712753
30898.605585	1192.396667	1972.918945	93.299820
30898.605585	1192.396667	1971.949219	61.618843
30898.605585	1192.396667	1970.980469	-4.583713
30898.605585	1192.396667	1970.010742	-28.866240
30898.605585	1192.396667	1969.041016	3.539116
30898.605585	1192.396667	1968.071289	-1.044202
30898.605585	1192.396667	1967.101563	51.034855
30898.605585	1192.396667	1966.130859	-121.088913
30898.605585	1192.396667	1965.161133	-147.839050
30898.605585	1192.396667	1964.190430	-85.935425
30898.605585	1192.396667	1963.219727	-60.991188
30898.605585	1192.396667	1962.249023	-23.752937
30898.605585	1192.396667	1961.277344	57.767952
30898.605585	1192.396667	1960.306641	28.525236
30898.605585	1192.396667	1959.334961	36.193878
30898.605585	1192.396667	1958.363281	43.859306
30898.605585	1192.396667	1957.391602	73.655136
30898.605585	1192.396667	1956.419922	39.509880
30898.605585	1192.396667	1955.447266	74.213234
30898.605585	1192.396667	1954.474609	35.166908
30898.605585	1192.396667	1953.501953	8.425788
30898.605585	1192.396667	1952.529297	-35.501659
30898.605585	1192.396667	1951.556641	-0.797909
30898.605585	1192.396667	1950.583984	87.932655
30898.605585	1192.396667	1949.610352	-2.629792
30898.605585	1192.396667	1948.636719	-14.586175
30898.605585	1192.396667	1947.663086	20.108944
30898.605585	1192.396667	1946.689453	15.528809
30898.605585	1192.396667	1945.715820	67.396538
30898.605585	1192.396667	1944.741211	60.369751
30898.605585	1192.396667	1943.767578	-10.421166
30898.605585	1192.396667	1942.792969	36.540703
30898.605585	1192.396667	1941.818359	122.725975
30898.605585	1192.396667	1940.842773	177.017303
30898.605585	1192.396667	1939.868164	-77.541031
30898.605585	1192.396667	1938.892578	-67.325195
30898.605585	1192.396667	1937.916992	85.008331
30898.605585	1192.396667	1936.941406	-10.128089
30898.605585	1192.396667	1935.965820	-85.624374
30898.605585	1192.396667	1934.990234	-14.152197
30898.605585	1192.396667	1934.013672	-28.389530
30898.605585	1192.396667	1933.037109	47.962563
30898.605585	1192.396667	1932.060547	33.741615
30898.605585	1192.396667	1931.083984	46.454102
30898.605585	1192.396667	1930.107422	27.368662
30898.605585	1192.396667	1929.129883	25.423500
30898.605585	1192.396667	1928.153320	-52.322987
30898.605585	1192.396667	1927.175781	-2.880741
30898.605585	1192.396667	1926.198242	-29.231316
30898.605585	1192.396667	1925.219727	10.434553
30898.605585	1192.396667	1924.242188	-50.098839
30898.605585	1192.396667	1923.263672	-22.637295
30898.605585	1192.396667	1922.285156	-12.274803
30898.605585	1192.396667	1921.306641	-146.008987
30898.605585	1192.396667	1920.328125	49.986725
30898.605585	1192.396667	1919.349609	138.493484
30898.605585	1192.396667	1918.370117	19.486053
30898.605585	1192.396667	1917.391602	66.497467
30898.605585	1192.396667	1916.412109	-159.797073
30898.605585	1192.396667	1915.431641	116.583755
30898.605585	1192.396667	1914.452148	41.620144
30898.605585	1192.396667	1913.472656	64.246750
30898.605585	1192.396667	1912.492188	247.805511
30898.605585	1192.396667	1911.511719	-102.592278
30898.605585	1192.396667	1910.531250	-106.733002
30898.605585	1192.396667	1909.550781	-35.316601
30898.605585	1192.396667	1908.569336	11.717103
30898.605585	1192.396667	1907.588867	61.179108
30898.605585	1192.396667	1906.607422	25.384350
30898.605585	1192.396667	1905.625977	6.657844
30898.605585	1192.396667	1904.644531	-138.658432
30898.605585	1192.396667	1903.662109	-40.487705
30898.605585	1192.396667	1902.680664	-5.623624
30898.605585	1192.396667	1901.698242	-102.166740
30898.605585	1192.396667	1900.715820	85.981285
30898.605585	1192.396667	1899.733398	-158.907425
30898.605585	1192.396667	1898.750000	87.560760
30898.605585	1192.396667	1897.767578	110.243446
30898.605585	1192.396667	1896.784180	-102.891533
30898.605585	1192.396667	1895.800781	-121.492020
30898.605585	1192.396667	1894.817383	64.052429
30898.605585	1192.396667	1893.833984	-51.751755
30898.605585	1192.396667	1892.850586	-162.649628
30898.605585	1192.396667	1891.866211	-8.764646
30898.605585	1192.396667	1890.881836	-51.629478
30898.605585	1192.396667	1889.897461	-24.067318
30898.605585	1192.396667	1888.913086	81.165039
30898.605585	1192.396667	1887.927734	-114.586166
30898.605585	1192.396667	1886.943359	14.891467
30898.605585	1192.396667	1885.958008	-27.929354
30898.605585	1192.396667	1884.972656	60.249222
30898.605585	1192.396667	1883.987305	36.837357
30898.605585	1192.396667	1883.001953	115.271088
30898.605585	1192.396667	1882.015625	101.552391
30898.605585	1192.396667	1881.029297	24.818441
30898.605585	1192.396667	1880.042969	139.555557
30898.605585	1192.396667	1879.056641	67.684113
30898.605585	1192.396667	1878.070313	3.104014
30898.605585	1192.396667	1877.083984	-10.593469
30898.605585	1192.396667	1876.096680	50.776211
30898.605585	1192.396667	1875.109375	119.381950
30898.605585	1192.396667	1874.122070	-85.573647
30898.605585	1192.396667	1873.134766	82.247757
30898.605585	1192.396667	1872.146484	32.225010
30898.605585	1192.396667	1871.159180	-49.235661
30898.605585	1192.396667	1870.170898	-104.066963
30898.605585	1192.396667	1869.182617	15.236442
30898.605585	1192.396667	1868.194336	40.188168
30898.605585	1192.396667	1867.205078	-106.518044
30898.605585	1192.396667	1866.216797	-59.818188
30898.605585	1192.396667	1865.227539	-27.646036
30898.605585	1192.396667	1864.238281	57.657097
30898.605585	1192.396667	1863.249023	24.551592
30898.605585	1192.396667	1862.259766	46.995396
30898.605585	1192.396667	1861.269531	-19.927198
30898.605585	1192.396667	1860.279297	48.361958
30898.605585	1192.396667	1859.290039	-16.147799
30898.605585	1192.396667	1858.298828	18.299870
30898.605585	1192.396667	1857.308594	-29.319088
30898.605585	1192.396667	1856.318359	-21.448240
30898.605585	1192.396667	1855.327148	-61.836880
30898.605585	1192.396667	1854.335938	-12.999554
30898.605585	1192.396667	1853.344727	98.491409
30898.605585	1192.396667	1852.353516	84.569046
30898.605585	1192.396667	1851.362305	-30.593849
30898.605585	1192.396667	1850.370117	-10.787675
30898.605585	1192.396667	1849.377930	21.038540
30898.605585	1192.396667	1848.385742	-65.199738
30898.605585	1192.396667	1847.393555	53.286488
30898.605585	1192.396667	1846.401367	56.127048
30898.605585	1192.396667	1845.408203	-30.133095
30898.605585	1192.396667	1844.415039	133.948242
30898.605585	1192.396667	1843.421875	21.189369
30898.605585	1192.396667	1842.428711	197.184464
30898.605585	1192.396667	1841.435547	74.786514
30898.605585	1192.396667	1840.441406	34.187351
30898.605585	1192.396667	1839.448242	154.698456
30898.605585	1192.396667	1838.454102	82.792877
30898.605585	1192.396667	1837.459961	-80.457634
30898.605585	1192.396667	1836.464844	188.938492
30898.605585	1192.396667	1835.470703	76.137634
30898.605585	1192.396667	1834.475586	6.596088
30898.605585	1192.396667	1833.480469	6.711872
30898.605585	1192.396667	1832.485352	81.248634
30898.605585	1192.396667	1831.490234	131.717102
30898.605585	1192.396667	1830.495117	2.084533
30898.605585	1192.396667	1829.499023	-21.919392
30898.605585	1192.396667	1828.502930	62.044910
30898.605585	1192.396667	1827.506836	131.550674
30898.605585	1192.396667	1826.510742	-34.092041
30898.605585	1192.396667	1825.513672	191.238419
30898.605585	1192.396667	1824.517578	32.776276
30898.605585	1192.396667	1823.520508	15.793119
30898.605585	1192.396667	1822.523438	-89.909340
30898.605585	1192.396667	1821.526367	-94.947777
30898.605585	1192.396667	1820.529297	65.316986
30898.605585	1192.396667	1819.531250	120.072853
30898.605585	1192.396667	1818.533203	45.427818
30898.605585	1192.396667	1817.535156	35.435150
30898.605585	1192.396667	1816.537109	197.803391
30898.605585	1192.396667	1815.539063	27.320179
30898.605585	1192.396667	1814.540039	-11.497629
30898.605585	1192.396667	1813.541992	7.094732
30898.605585	1192.396667	1812.542969	128.520035
30898.605585	1192.396667	1811.543945	91.981758
30898.605585	1192.396667	1810.543945	-80.908142
30898.605585	1192.396667	1809.544922	95.344429
30898.605585	1192.396667	1808.544922	-240.130508
30898.605585	1192.396667	1807.544922	36.395119
30898.605585	1192.396667	1806.544922	-21.802700
30898.605585	1192.396667	1805.544922	266.441650
30898.605585	1192.396667	1804.544922	-33.143162
30898.605585	1192.396667	1803.543945	54.275719
30898.605585	1192.396667	1802.542969	74.753761
30898.605585	1192.396667	1801.541992	188.296951
30898.605585	1192.396667	1800.541016	160.912750
30898.605585	1192.396667	1799.539063	-28.800949
30898.605585	1192.396667	1798.538086	-13.269507
30898.605585	1192.396667	1797.536133	111.955116
30898.605585	1192.396667	1796.534180	191.766068
30898.605585	1192.396667	1795.532227	2.011173
30898.605585	1192.396667	1794.529297	7.802785
30898.605585	1192.396667	1793.527344	-67.506165
30898.605585	1192.396667	1792.524414	-104.699478
30898.605585	1192.396667	1791.521484	-75.199188
30898.605585	1192.396667	1790.518555	40.017368
30898.605585	1192.396667	1789.514648	2.681497
30898.605585	1192.396667	1788.511719	105.836540
30898.605585	1192.396667	1787.507813	73.169495
30898.605585	1192.396667	1786.503906	52.370876
30898.605585	1192.396667	1785.500000	105.323242
30898.605585	1192.396667	1784.496094	-94.063492
30898.605585	1192.396667	1783.491211	137.254745
30898.605585	1192.396667	1782.486328	63.923748
30898.605585	1192.396667	1781.481445	192.748001
30898.605585	1192.396667	1780.476563	31.345430
30898.605585	1192.396667	1779.471680	107.718773
30898.605585	1192.396667	1778.465820	107.939735
30898.605585	1192.396667	1777.460938	27.303720
30898.605585	1192.396667	1776.455078	51.201859
30898.605585	1192.396667	1775.449219	34.650448
30898.605585	1192.396667	1774.442383	91.687828
30898.605585	1192.396667	1773.436523	44.158642
30898.605585	1192.396667	1772.429688	72.576233
30898.605585	1192.396667	1771.422852	-41.511631
30898.605585	1192.396667	1770.416016	-41.675404
30898.605585	1192.396667	1769.409180	155.079895
30898.605585	1192.396667	1768.402344	48.003658
30898.605585	1192.396667	1767.394531	33.429829
30898.605585	1192.396667	1766.386719	158.744354
30898.605585	1192.396667	1765.378906	-88.341949
30898.605585	1192.396667	1764.371094	-15.316946
30898.605585	1192.396667	1763.362305	-65.638863
30898.605585	1192.396667	1762.354492	2.508326
30898.605585	1192.396667	1761.345703	35.029537
30898.605585	1192.396667	1760.336914	24.841328
30898.605585	1192.396667	1759.328125	-23.294155
30898.605585	1192.396667	1758.318359	-90.414429
30898.605585	1192.396667	1757.308594	83.946053
30898.605585	1192.396667	1756.299805	-32.985229
30898.605585	1192.396667	1755.290039	141.190720
30898.605585	1192.396667	1754.279297	-56.279179
30898.605585	1192.396667	1753.269531	89.336098
30898.605585	1192.396667	1752.258789	-179.120880
30898.605585	1192.396667	1751.249023	-64.390511
30898.605585	1192.396667	1750.238281	-60.897522
30898.605585	1192.396667	1749.226563	-118.931587
30898.605585	1192.396667	1748.215820	-30.444233
30898.605585	1192.396667	1747.204102	22.501869
30898.605585	1192.396667	1746.193359	-4.955726
30898.605585	1192.396667	1745.181641	73.843262
30898.605585	1192.396667	1744.168945	29.735664
30898.605585	1192.396667	1743.157227	63.522926
30898.605585	1192.396667	1742.144531	9.882634
30898.605585	1192.396667	1741.132813	-53.227783
30898.605585	1192.396667	1740.120117	-135.253967
30898.605585	1192.396667	1739.106445	46.970043
30898.605585	1192.396667	1738.093750	-30.432478
30898.605585	1192.396667	1737.080078	66.680931
30898.605585	1192.396667	1736.067383	-76.834801
30898.605585	1192.396667	1735.053711	-22.296867
30898.605585	1192.396667	1734.040039	-104.561150
30898.605585	1192.396667	1733.025391	-111.430870
30898.605585	1192.396667	1732.011719	-196.109268
30898.605585	1192.396667	1730.997070	180.966461
30898.605585	1192.396667	1729.982422	27.841562
30898.605585	1192.396667	1728.967773	6.608952
30898.605585	1192.396667	1727.952148	-64.121704
30898.605585	1192.396667	1726.937500	81.716408
30898.605585	1192.396667	1725.921875	48.554302
30898.605585	1192.396667	1724.906250	-36.420914
30898.605585	1192.396667	1723.890625	153.870544
30898.605585	1192.396667	1722.875000	78.214058
30898.605585	1192.396667	1721.858398	110.719025
30898.605585	1192.396667	1720.841797	-59.070290
30898.605585	1192.396667	1719.825195	-57.218117
30898.605585	1192.396667	1718.808594	31.555567
30898.605585	1192.396667	1717.791992	-34.866665
30898.605585	1192.396667	1716.774414	93.705948
30898.605585	1192.396667	1715.756836	62.428761
30898.605585	1192.396667	1714.739258	-4.119344
30898.605585	1192.396667	1713.721680	-54.253036
30898.605585	1192.396667	1712.704102	64.633430
30898.605585	1192.396667	1711.685547	70.739418
30898.605585	1192.396667	1710.667969	-80.450165
30898.605585	1192.396667	1709.649414	-6.366510
30898.605585	1192.396667	1708.630859	-124.741585
30898.605585	1192.396667	1707.611328	-135.225296
30898.605585	1192.396667	1706.592773	-12.069178
30898.605585	1192.396667	1705.573242	-88.320457
30898.605585	1192.396667	1704.553711	-82.538551
30898.605585	1192.396667	1703.534180	-8.833961
30898.605585	1192.396667	1702.513672	-73.473473
30898.605585	1192.396667	1701.494141	65.710793
30898.605585	1192.396667	1700.473633	-45.861511
30898.605585	1192.396667	1699.453125	-7.544472
30898.605585	1192.396667	1698.432617	-53.585766
30898.605585	1192.396667	1697.412109	87.638519
30898.605585	1192.396667	1696.390625	-26.381788
30898.605585	1192.396667	1695.369141	86.603424
30898.605585	1192.396667	1694.347656	61.450996
30898.605585	1192.396667	1693.326172	-40.934872
30898.605585	1192.396667	1692.304688	8.705499
30898.605585	1192.396667	1691.282227	-25.908720
30898.605585	1192.396667	1690.260742	61.031910
30898.605585	1192.396667	1689.238281	-34.441448
30898.605585	1192.396667	1688.214844	75.739876
30898.605585	1192.396667	1687.192383	71.347481
30898.605585	1192.396667	1686.168945	-26.541285
30898.605585	1192.396667	1685.146484	127.838486
30898.605585	1192.396667	1684.123047	263.428253
30898.605585	1192.396667	1683.099609	93.056801
30898.605585	1192.396667	1682.075195	69.773071
30898.605585	1192.396667	1681.051758	163.165527
30898.605585	1192.396667	1680.027344	48.791607
30898.605585	1192.396667	1679.002930	214.393295
30898.605585	1192.396667	1677.978516	123.304077
30898.605585	1192.396667	1676.953125	134.820847
30898.605585	1192.396667	1675.928711	-58.888504
30898.605585	1192.396667	1674.903320	185.714127
30898.605585	1192.396667	1673.877930	169.133118
30898.605585	1192.396667	1672.852539	47.655602
30898.605585	1192.396667	1671.826172	114.906937
30898.605585	1192.396667	1670.800781	198.412308
30898.605585	1192.396667	1669.774414	202.655792
30898.605585	1192.396667	1668.748047	155.635620
30898.605585	1192.396667	1667.721680	231.991974
30898.605585	1192.396667	1666.694336	266.379883
30898.605585	1192.396667	1665.667969	244.876556
30898.605585	1192.396667	1664.640625	411.812531
30898.605585	1192.396667	1663.613281	376.260895
30898.605585	1192.396667	1662.585938	296.501007
30898.605585	1192.396667	1661.557617	412.071106
30898.605585	1192.396667	1660.530273	434.575531
30898.605585	1192.396667	1659.501953	359.403168
30898.605585	1192.396667	1658.473633	437.621918
30898.605585	1192.396667	1657.444336	576.188843
30898.605585	1192.396667	1656.416016	556.706543
30898.605585	1192.396667	1655.386719	284.016357
30898.605585	1192.396667	1654.358398	329.569702
30898.605585	1192.396667	1653.328125	333.269226
30898.605585	1192.396667	1652.298828	283.559113
30898.605585	1192.396667	1651.269531	403.272858
30898.605585	1192.396667	1650.239258	244.448029
30898.605585	1192.396667	1649.208984	442.949097
30898.605585	1192.396667	1648.178711	483.617950
30898.605585	1192.396667	1647.148438	285.376099
30898.605585	1192.396667	1646.117188	360.787872
30898.605585	1192.396667	1645.086914	545.116516
30898.605585	1192.396667	1644.055664	434.982819
30898.605585	1192.396667	1643.024414	484.770355
30898.605585	1192.396667	1641.992188	599.383789
30898.605585	1192.396667	1640.960938	730.158325
30898.605585	1192.396667	1639.928711	677.890747
30898.605585	1192.396667	1638.896484	590.892639
30898.605585	1192.396667	1637.864258	557.158630
30898.605585	1192.396667	1636.832031	687.763184
30898.605585	1192.396667	1635.798828	695.639648
30898.605585	1192.396667	1634.766602	694.251282
30898.605585	1192.396667	1633.733398	725.227356
30898.605585	1192.396667	1632.699219	689.095825
30898.605585	1192.396667	1631.666016	798.656372
30898.605585	1192.396667	1630.632813	547.494324
30898.605585	1192.396667	1629.598633	811.878906
30898.605585	1192.396667	1628.564453	780.332153
30898.605585	1192.396667	1627.530273	845.833740
30898.605585	1192.396667	1626.495117	784.230957
30898.605585	1192.396667	1625.460938	865.854980
30898.605585	1192.396667	1624.425781	758.069336
30898.605585	1192.396667	1623.390625	731.126526
30898.605585	1192.396667	1622.355469	734.195740
30898.605585	1192.396667	1621.319336	767.251770
30898.605585	1192.396667	1620.284180	795.682312
30898.605585	1192.396667	1619.248047	950.974487
30898.605585	1192.396667	1618.211914	921.674866
30898.605585	1192.396667	1617.174805	816.271362
30898.605585	1192.396667	1616.138672	837.726990
30898.605585	1192.396667	1615.101563	877.604980
30898.605585	1192.396667	1614.065430	961.264771
30898.605585	1192.396667	1613.027344	869.743347
30898.605585	1192.396667	1611.990234	990.223267
30898.605585	1192.396667	1610.953125	1161.332275
30898.605585	1192.396667	1609.915039	1053.703979
30898.605585	1192.396667	1608.876953	1293.802612
30898.605585	1192.396667	1607.838867	1163.173096
30898.605585	1192.396667	1606.800781	1202.918335
30898.605585	1192.396667	1605.761719	1327.786255
30898.605585	1192.396667	1604.723633	1309.972778
30898.605585	1192.396667	1603.684570	1441.680664
30898.605585	1192.396667	1602.644531	1384.745850
30898.605585	1192.396667	1601.605469	1412.925415
30898.605585	1192.396667	1600.566406	1588.234863
30898.605585	1192.396667	1599.526367	1650.846802
30898.605585	1192.396667	1598.486328	1724.932739
30898.605585	1192.396667	1597.446289	1943.747070
30898.605585	1192.396667	1596.405273	1923.572144
30898.605585	1192.396667	1595.365234	1999.884766
30898.605585	1192.396667	1594.324219	2106.021729
30898.605585	1192.396667	1593.283203	2088.153809
30898.605585	1192.396667	1592.242188	1994.557617
30898.605585	1192.396667	1591.200195	2144.263428
30898.605585	1192.396667	1590.159180	2080.547119
30898.605585	1192.396667	1589.117188	1787.457397
30898.605585	1192.396667	1588.075195	1863.763428
30898.605585	1192.396667	1587.032227	1820.802856
30898.605585	1192.396667	1585.990234	1562.371948
30898.605585	1192.396667	1584.947266	1537.857422
30898.605585	1192.396667	1583.904297	1435.449341
30898.605585	1192.396667	1582.861328	1307.895142
30898.605585	1192.396667	1581.818359	1203.317871
30898.605585	1192.396667	1580.775391	1094.218872
30898.605585	1192.396667	1579.731445	1262.263428
30898.605585	1192.396667	1578.687500	1045.619873
30898.605585	1192.396667	1577.643555	1110.641113
30898.605585	1192.396667	1576.598633	1141.320679
30898.605585	1192.396667	1575.554688	1062.185547
30898.605585	1192.396667	1574.509766	1090.620117
30898.605585	1192.396667	1573.464844	1128.216431
30898.605585	1192.396667	1572.419922	1373.926270
30898.605585	1192.396667	1571.374023	1310.892334
30898.605585	1192.396667	1570.329102	1238.773438
30898.605585	1192.396667	1569.283203	1296.974731
30898.605585	1192.396667	1568.237305	1480.857544
30898.605585	1192.396667	1567.191406	1287.736816
30898.605585	1192.396667	1566.144531	1393.936401
30898.605585	1192.396667	1565.098633	1292.313721
30898.605585	1192.396667	1564.051758	1382.546753
30898.605585	1192.396667	1563.004883	1315.260376
30898.605585	1192.396667	1561.957031	1289.106445
30898.605585	1192.396667	1560.910156	1269.847534
30898.605585	1192.396667	1559.862305	1184.458618
30898.605585	1192.396667	1558.814453	1197.218872
30898.605585	1192.396667	1557.766602	1048.087769
30898.605585	1192.396667	1556.718750	892.208435
30898.605585	1192.396667	1555.669922	1057.852295
30898.605585	1192.396667	1554.621094	931.724731
30898.605585	1192.396667	1553.573242	915.072388
30898.605585	1192.396667	1552.523438	1007.807556
30898.605585	1192.396667	1551.474609	829.481934
30898.605585	1192.396667	1550.424805	888.111328
30898.605585	1192.396667	1549.375000	662.132568
30898.605585	1192.396667	1548.325195	670.764954
30898.605585	1192.396667	1547.275391	672.604797
30898.605585	1192.396667	1546.225586	719.998352
30898.605585	1192.396667	1545.174805	749.204529
30898.605585	1192.396667	1544.124023	662.428528
30898.605585	1192.396667	1543.073242	700.814453
30898.605585	1192.396667	1542.022461	630.083557
30898.605585	1192.396667	1540.970703	625.345520
30898.605585	1192.396667	1539.919922	507.012543
30898.605585	1192.396667	1538.868164	531.931396
30898.605585	1192.396667	1537.815430	493.261047
30898.605585	1192.396667	1536.763672	650.015869
30898.605585	1192.396667	1535.710938	404.753876
30898.605585	1192.396667	1534.659180	500.248108
30898.605585	1192.396667	1533.606445	423.205200
30898.605585	1192.396667	1532.552734	427.947083
30898.605585	1192.396667	1531.500000	301.119080
30898.605585	1192.396667	1530.446289	471.611206
30898.605585	1192.396667	1529.393555	574.039185
30898.605585	1192.396667	1528.338867	417.907928
30898.605585	1192.396667	1527.285156	232.416672
30898.605585	1192.396667	1526.231445	393.920258
30898.605585	1192.396667	1525.176758	451.138855
30898.605585	1192.396667	1524.122070	372.411987
30898.605585	1192.396667	1523.067383	465.969574
30898.605585	1192.396667	1522.012695	369.254486
30898.605585	1192.396667	1520.957031	252.241058
30898.605585	1192.396667	1519.901367	287.045868
30898.605585	1192.396667	1518.845703	201.899811
30898.605585	1192.396667	1517.790039	359.041656
30898.605585	1192.396667	1516.734375	276.289734
30898.605585	1192.396667	1515.677734	213.983826
30898.605585	1192.396667	1514.621094	346.309082
30898.605585	1192.396667	1513.564453	318.054016
30898.605585	1192.396667	1512.507813	167.758102
30898.605585	1192.396667	1511.450195	182.616379
30898.605585	1192.396667	1510.393555	324.116150
30898.605585	1192.396667	1509.335938	271.256439
30898.605585	1192.396667	1508.278320	358.566650
30898.605585	1192.396667	1507.219727	161.254745
30898.605585	1192.396667	1506.162109	153.811478
30898.605585	1192.396667	1505.103516	313.531158
30898.605585	1192.396667	1504.044922	331.011444
30898.605585	1192.396667	1502.986328	414.008514
30898.605585	1192.396667	1501.926758	316.483490
30898.605585	1192.396667	1500.868164	397.318146
30898.605585	1192.396667	1499.808594	618.047607
30898.605585	1192.396667	1498.749023	579.371704
30898.605585	1192.396667	1497.688477	520.474365
30898.605585	1192.396667	1496.628906	488.725159
30898.605585	1192.396667	1495.568359	567.501465
30898.605585	1192.396667	1494.507813	535.879822
30898.605585	1192.396667	1493.447266	490.817566
30898.605585	1192.396667	1492.386719	382.761353
30898.605585	1192.396667	1491.325195	193.724564
30898.605585	1192.396667	1490.263672	315.592072
30898.605585	1192.396667	1489.202148	111.017471
30898.605585	1192.396667	1488.140625	57.408817
30898.605585	1192.396667	1487.079102	-23.117373
30898.605585	1192.396667	1486.016602	80.961891
30898.605585	1192.396667	1484.954102	-15.152013
30898.605585	1192.396667	1483.891602	120.509949
30898.605585	1192.396667	1482.829102	-81.128105
30898.605585	1192.396667	1481.765625	-33.061005
30898.605585	1192.396667	1480.702148	24.049047
30898.605585	1192.396667	1479.638672	51.980160
30898.605585	1192.396667	1478.575195	28.298513
30898.605585	1192.396667	1477.511719	54.116669
30898.605585	1192.396667	1476.447266	-12.100917
30898.605585	1192.396667	1475.382813	61.017868
30898.605585	1192.396667	1474.318359	96.008911
30898.605585	1192.396667	1473.253906	81.649300
30898.605585	1192.396667	1472.189453	110.004700
30898.605585	1192.396667	1471.124023	15.105291
30898.605585	1192.396667	1470.058594	-1.214277
30898.605585	1192.396667	1468.993164	76.578430
30898.605585	1192.396667	1467.927734	31.291229
30898.605585	1192.396667	1466.861328	158.471176
30898.605585	1192.396667	1465.794922	-68.266632
30898.605585	1192.396667	1464.728516	-68.524544
30898.605585	1192.396667	1463.662109	0.644882
30898.605585	1192.396667	1462.594727	128.055557
30898.605585	1192.396667	1461.528320	96.797523
30898.605585	1192.396667	1460.460938	270.873505
30898.605585	1192.396667	1459.393555	63.006035
30898.605585	1192.396667	1458.326172	-195.736374
30898.605585	1192.396667	1457.257813	208.224197
30898.605585	1192.396667	1456.189453	12.433296
30898.605585	1192.396667	1455.121094	30.786570
30898.605585	1192.396667	1454.052734	8.931605
30898.605585	1192.396667	1452.984375	-26.719858
30898.605585	1192.396667	1451.915039	54.152103
30898.605585	1192.396667	1450.845703	-34.470314
30898.605585	1192.396667	1449.776367	-126.583107
30898.605585	1192.396667	1448.707031	-79.811661
30898.605585	1192.396667	1447.636719	5.550919
30898.605585	1192.396667	1446.567383	180.037933
30898.605585	1192.396667	1445.497070	99.198914
30898.605585	1192.396667	1444.425781	-95.576706
30898.605585	1192.396667	1443.355469	144.503693
30898.605585	1192.396667	1442.285156	46.712551
30898.605585	1192.396667	1441.213867	77.428078
30898.605585	1192.396667	1440.142578	68.592133
30898.605585	1192.396667	1439.070313	53.680218
30898.605585	1192.396667	1437.999023	137.876266
30898.605585	1192.396667	1436.926758	56.311993
30898.605585	1192.396667	1435.854492	100.313690
30898.605585	1192.396667	1434.782227	53.930202
30898.605585	1192.396667	1433.709961	141.578537
30898.605585	1192.396667	1432.636719	97.564659
30898.605585	1192.396667	1431.563477	45.105209
30898.605585	1192.396667	1430.490234	206.998993
30898.605585	1192.396667	1429.416992	-36.279400
30898.605585	1192.396667	1428.343750	-30.679205
30898.605585	1192.396667	1427.269531	15.313892
30898.605585	1192.396667	1426.195313	-161.468643
30898.605585	1192.396667	1425.121094	-62.596676
30898.605585	1192.396667	1424.046875	-74.633736
30898.605585	1192.396667	1422.971680	-180.002731
30898.605585	1192.396667	1421.896484	-27.397917
30898.605585	1192.396667	1420.821289	-134.235367
30898.605585	1192.396667	1419.746094	-27.485365
30898.605585	1192.396667	1418.669922	-60.454357
30898.605585	1192.396667	1417.594727	-67.315765
30898.605585	1192.396667	1416.518555	-233.050995
30898.605585	1192.396667	1415.442383	-149.160889
30898.605585	1192.396667	1414.365234	-78.919907
30898.605585	1192.396667	1413.289063	59.702534
30898.605585	1192.396667	1412.211914	33.390617
30898.605585	1192.396667	1411.134766	-57.401749
30898.605585	1192.396667	1410.057617	-45.496475
30898.605585	1192.396667	1408.979492	-187.862976
30898.605585	1192.396667	1407.902344	-79.690201
30898.605585	1192.396667	1406.824219	-77.991486
30898.605585	1192.396667	1405.746094	-247.370468
30898.605585	1192.396667	1404.666992	-45.281643
30898.605585	1192.396667	1403.588867	-61.758297
30898.605585	1192.396667	1402.509766	-39.809338
30898.605585	1192.396667	1401.430664	9.563359
30898.605585	1192.396667	1400.351563	105.187744
30898.605585	1192.396667	1399.271484	-42.509521
30898.605585	1192.396667	1398.192383	-5.516545
30898.605585	1192.396667	1397.112305	-18.539803
30898.605585	1192.396667	1396.031250	109.377251
30898.605585	1192.396667	1394.951172	72.645973
30898.605585	1192.396667	1393.871094	152.822540
30898.605585	1192.396667	1392.790039	67.864754
30898.605585	1192.396667	1391.708984	235.297897
30898.605585	1192.396667	1390.626953	180.023270
30898.605585	1192.396667	1389.545898	255.764984
30898.605585	1192.396667	1388.463867	156.725327
30898.605585	1192.396667	1387.381836	155.026947
30898.605585	1192.396667	1386.299805	171.646149
30898.605585	1192.396667	1385.217773	228.362946
30898.605585	1192.396667	1384.134766	121.276253
30898.605585	1192.396667	1383.051758	109.909805
30898.605585	1192.396667	1381.968750	371.162720
30898.605585	1192.396667	1380.885742	247.564026
30898.605585	1192.396667	1379.802734	235.167130
30898.605585	1192.396667	1378.718750	239.165039
30898.605585	1192.396667	1377.634766	361.310577
30898.605585	1192.396667	1376.550781	329.979431
30898.605585	1192.396667	1375.465820	262.756348
30898.605585	1192.396667	1374.381836	369.433838
30898.605585	1192.396667	1373.296875	481.769653
30898.605585	1192.396667	1372.211914	302.193115
30898.605585	1192.396667	1371.126953	385.551453
30898.605585	1192.396667	1370.041016	545.120239
30898.605585	1192.396667	1368.955078	487.469086
30898.605585	1192.396667	1367.869141	331.101563
30898.605585	1192.396667	1366.783203	393.359131
30898.605585	1192.396667	1365.697266	376.983612
30898.605585	1192.396667	1364.610352	494.308411
30898.605585	1192.396667	1363.523438	413.592285
30898.605585	1192.396667	1362.436523	468.129822
30898.605585	1192.396667	1361.349609	446.641296
30898.605585	1192.396667	1360.261719	336.246521
30898.605585	1192.396667	1359.174805	436.540771
30898.605585	1192.396667	1358.086914	227.706421
30898.605585	1192.396667	1356.998047	189.171967
30898.605585	1192.396667	1355.910156	218.404419
30898.605585	1192.396667	1354.821289	166.278854
30898.605585	1192.396667	1353.732422	322.176483
30898.605585	1192.396667	1352.643555	403.546143
30898.605585	1192.396667	1351.554688	330.678375
30898.605585	1192.396667	1350.464844	329.120239
30898.605585	1192.396667	1349.375000	258.286865
30898.605585	1192.396667	1348.285156	333.386780
30898.605585	1192.396667	1347.195313	301.446930
30898.605585	1192.396667	1346.105469	233.628983
30898.605585	1192.396667	1345.014648	210.440170
30898.605585	1192.396667	1343.923828	303.863678
30898.605585	1192.396667	1342.833008	432.343384
30898.605585	1192.396667	1341.741211	100.811974
30898.605585	1192.396667	1340.650391	36.264584
30898.605585	1192.396667	1339.558594	54.265339
30898.605585	1192.396667	1338.466797	193.338135
30898.605585	1192.396667	1337.374023	143.340668
30898.605585	1192.396667	1336.282227	317.401398
30898.605585	1192.396667	1335.189453	181.140015
30898.605585	1192.396667	1334.096680	124.332672
30898.605585	1192.396667	1333.003906	166.703964
30898.605585	1192.396667	1331.910156	105.050293
30898.605585	1192.396667	1330.817383	254.077209
30898.605585	1192.396667	1329.723633	165.173019
30898.605585	1192.396667	1328.629883	186.474380
30898.605585	1192.396667	1327.535156	161.976624
30898.605585	1192.396667	1326.441406	224.816025
30898.605585	1192.396667	1325.346680	277.498962
30898.605585	1192.396667	1324.251953	304.616425
30898.605585	1192.396667	1323.156250	202.241150
30898.605585	1192.396667	1322.061523	186.743332
30898.605585	1192.396667	1320.965820	394.892395
30898.605585	1192.396667	1319.870117	182.822174
30898.605585	1192.396667	1318.774414	248.713745
30898.605585	1192.396667	1317.678711	321.594910
30898.605585	1192.396667	1316.582031	256.488312
30898.605585	1192.396667	1315.485352	259.862000
30898.605585	1192.396667	1314.388672	169.189575
30898.605585	1192.396667	1313.291016	91.801872
30898.605585	1192.396667	1312.194336	-2.534724
30898.605585	1192.396667	1311.096680	-54.048058
30898.605585	1192.396667	1309.999023	22.866922
30898.605585	1192.396667	1308.901367	68.927437
30898.605585	1192.396667	1307.802734	19.839037
30898.605585	1192.396667	1306.705078	40.724117
30898.605585	1192.396667	1305.606445	123.616959
30898.605585	1192.396667	1304.506836	122.024918
30898.605585	1192.396667	1303.408203	85.013000
30898.605585	1192.396667	1302.308594	84.288086
30898.605585	1192.396667	1301.208984	221.386520
30898.605585	1192.396667	1300.109375	59.187599
30898.605585	1192.396667	1299.009766	88.930008
30898.605585	1192.396667	1297.909180	225.386032
30898.605585	1192.396667	1296.808594	196.350159
30898.605585	1192.396667	1295.708008	266.166016
30898.605585	1192.396667	1294.607422	473.663147
30898.605585	1192.396667	1293.506836	482.254486
30898.605585	1192.396667	1292.405273	416.478119
30898.605585	1192.396667	1291.303711	375.857880
30898.605585	1192.396667	1290.202148	351.864288
30898.605585	1192.396667	1289.099609	403.983337
30898.605585	1192.396667	1287.998047	202.551895
30898.605585	1192.396667	1286.895508	265.882843
30898.605585	1192.396667	1285.792969	70.405983
30898.605585	1192.396667	1284.689453	188.744598
30898.605585	1192.396667	1283.586914	147.688004
30898.605585	1192.396667	1282.483398	198.358795
30898.605585	1192.396667	1281.379883	64.750687
30898.605585	1192.396667	1280.276367	157.329865
30898.605585	1192.396667	1279.171875	135.242661
30898.605585	1192.396667	1278.067383	200.838165
30898.605585	1192.396667	1276.962891	237.968765
30898.605585	1192.396667	1275.858398	218.810135
30898.605585	1192.396667	1274.753906	336.551117
30898.605585	1192.396667	1273.648438	359.339600
30898.605585	1192.396667	1272.542969	299.925934
30898.605585	1192.396667	1271.437500	493.769928
30898.605585	1192.396667	1270.331055	461.467804
30898.605585	1192.396667	1269.225586	545.516663
30898.605585	1192.396667	1268.119141	735.483704
30898.605585	1192.396667	1267.012695	643.620483
30898.605585	1192.396667	1265.906250	740.229675
30898.605585	1192.396667	1264.798828	633.240051
30898.605585	1192.396667	1263.691406	607.929626
30898.605585	1192.396667	1262.583984	648.102905
30898.605585	1192.396667	1261.476563	598.007874
30898.605585	1192.396667	1260.368164	550.120239
30898.605585	1192.396667	1259.260742	609.326965
30898.605585	1192.396667	1258.152344	485.470856
30898.605585	1192.396667	1257.043945	570.641785
30898.605585	1192.396667	1255.934570	503.372253
30898.605585	1192.396667	1254.825195	637.696899
30898.605585	1192.396667	1253.716797	462.320709
30898.605585	1192.396667	1252.606445	409.205322
30898.605585	1192.396667	1251.497070	393.930328
30898.605585	1192.396667	1250.387695	382.041412
30898.605585	1192.396667	1249.277344	371.298309
30898.605585	1192.396667	1248.166992	267.499146
30898.605585	1192.396667	1247.055664	400.503723
30898.605585	1192.396667	1245.945313	219.772781
30898.605585	1192.396667	1244.833984	218.261353
30898.605585	1192.396667	1243.722656	70.106941
30898.605585	1192.396667	1242.611328	166.264023
30898.605585	1192.396667	1241.499023	35.312645
30898.605585	1192.396667	1240.387695	75.483421
30898.605585	1192.396667	1239.275391	50.094326
30898.605585	1192.396667	1238.162109	80.839088
30898.605585	1192.396667	1237.049805	69.028854
30898.605585	1192.396667	1235.936523	177.105667
30898.605585	1192.396667	1234.823242	102.334389
30898.605585	1192.396667	1233.709961	141.264221
30898.605585	1192.396667	1232.596680	246.929703
30898.605585	1192.396667	1231.482422	174.345520
30898.605585	1192.396667	1230.369141	153.643082
30898.605585	1192.396667	1229.253906	186.308105
30898.605585	1192.396667	1228.139648	147.704224
30898.605585	1192.396667	1227.025391	127.068306
30898.605585	1192.396667	1225.910156	105.442406
30898.605585	1192.396667	1224.794922	174.780334
30898.605585	1192.396667	1223.679688	177.760223
30898.605585	1192.396667	1222.563477	60.541763
30898.605585	1192.396667	1221.447266	60.683292
30898.605585	1192.396667	1220.331055	107.967407
30898.605585	1192.396667	1219.214844	100.319778
30898.605585	1192.396667	1218.098633	178.683182
30898.605585	1192.396667	1216.981445	220.644089
30898.605585	1192.396667	1215.864258	96.143173
30898.605585	1192.396667	1214.747070	122.984505
30898.605585	1192.396667	1213.629883	222.012253
30898.605585	1192.396667	1212.511719	146.542847
30898.605585	1192.396667	1211.393555	78.684464
30898.605585	1192.396667	1210.275391	40.586891
30898.605585	1192.396667	1209.157227	-18.921822
30898.605585	1192.396667	1208.038086	-44.440762
30898.605585	1192.396667	1206.918945	56.023506
30898.605585	1192.396667	1205.799805	66.282906
30898.605585	1192.396667	1204.680664	92.831009
30898.605585	1192.396667	1203.560547	143.817261
30898.605585	1192.396667	1202.441406	211.673981
30898.605585	1192.396667	1201.321289	171.183044
30898.605585	1192.396667	1200.200195	215.765717
30898.605585	1192.396667	1199.080078	247.090759
30898.605585	1192.396667	1197.958984	319.361816
30898.605585	1192.396667	1196.837891	335.256989
30898.605585	1192.396667	1195.716797	559.435913
30898.605585	1192.396667	1194.594727	495.756897
30898.605585	1192.396667	1193.473633	434.190613
30898.605585	1192.396667	1192.351563	431.239410
30898.605585	1192.396667	1191.229492	469.310486
30898.605585	1192.396667	1190.106445	390.407623
30898.605585	1192.396667	1188.984375	340.700348
30898.605585	1192.396667	1187.861328	418.138184
30898.605585	1192.396667	1186.738281	226.150375
30898.605585	1192.396667	1185.614258	161.847580
30898.605585	1192.396667	1184.491211	235.756363
30898.605585	1192.396667	1183.367188	112.097176
30898.605585	1192.396667	1182.243164	73.934540
30898.605585	1192.396667	1181.119141	53.465710
30898.605585	1192.396667	1179.994141	-15.430613
30898.605585	1192.396667	1178.869141	53.146599
30898.605585	1192.396667	1177.744141	69.963448
30898.605585	1192.396667	1176.619141	34.584873
30898.605585	1192.396667	1175.493164	-75.977684
30898.605585	1192.396667	1174.368164	6.984817
30898.605585	1192.396667	1173.242188	-16.869019
30898.605585	1192.396667	1172.115234	3.775703
30898.605585	1192.396667	1170.989258	-114.849388
30898.605585	1192.396667	1169.862305	-52.032578
30898.605585	1192.396667	1168.735352	-121.508362
30898.605585	1192.396667	1167.608398	-87.121437
30898.605585	1192.396667	1166.481445	3.936322
30898.605585	1192.396667	1165.353516	-168.689026
30898.605585	1192.396667	1164.225586	-96.944794
30898.605585	1192.396667	1163.097656	-50.324566
30898.605585	1192.396667	1161.968750	-119.510010
30898.605585	1192.396667	1160.840820	-89.007317
30898.605585	1192.396667	1159.711914	33.898258
30898.605585	1192.396667	1158.583008	-187.834671
30898.605585	1192.396667	1157.453125	-65.682762
30898.605585	1192.396667	1156.324219	-59.121239
30898.605585	1192.396667	1155.194336	-135.381332
30898.605585	1192.396667	1154.064453	-229.775803
30898.605585	1192.396667	1152.933594	-128.284821
30898.605585	1192.396667	1151.803711	-123.611382
30898.605585	1192.396667	1150.672852	-177.219376
30898.605585	1192.396667	1149.541992	-70.006355
30898.605585	1192.396667	1148.411133	91.189865
30898.605585	1192.396667	1147.279297	-140.041672
30898.605585	1192.396667	1146.147461	-82.008606
30898.605585	1192.396667	1145.015625	-161.676147
30898.605585	1192.396667	1143.883789	-134.893311
30898.605585	1192.396667	1142.750977	-116.924187
30898.605585	1192.396667	1141.619141	-120.193367
30898.605585	1192.396667	1140.486328	-119.597366
30898.605585	1192.396667	1139.352539	-136.845596
30898.605585	1192.396667	1138.219727	-69.693535
30898.605585	1192.396667	1137.085938	-85.462143
30898.605585	1192.396667	1135.952148	-64.900650
30898.605585	1192.396667	1134.818359	0.875378
30898.605585	1192.396667	1133.683594	-38.356380
30898.605585	1192.396667	1132.549805	-38.160599
30898.605585	1192.396667	1131.415039	74.195145
30898.605585	1192.396667	1130.279297	82.445770
30898.605585	1192.396667	1129.144531	228.807114
30898.605585	1192.396667	1128.008789	179.399582
30898.605585	1192.396667	1126.873047	281.662750
30898.605585	1192.396667	1125.737305	340.835541
30898.605585	1192.396667	1124.601563	218.854248
30898.605585	1192.396667	1123.464844	254.600723
30898.605585	1192.396667	1122.328125	201.845291
30898.605585	1192.396667	1121.191406	236.965088
30898.605585	1192.396667	1120.054688	300.002350
30898.605585	1192.396667	1118.916992	244.027817
30898.605585	1192.396667	1117.779297	301.962311
30898.605585	1192.396667	1116.641602	294.638123
30898.605585	1192.396667	1115.503906	420.847992
30898.605585	1192.396667	1114.365234	453.221039
30898.605585	1192.396667	1113.226563	432.098785
30898.605585	1192.396667	1112.087891	447.797852
30898.605585	1192.396667	1110.949219	248.679810
30898.605585	1192.396667	1109.809570	172.690643
30898.605585	1192.396667	1108.669922	189.432220
30898.605585	1192.396667	1107.530273	120.814934
30898.605585	1192.396667	1106.390625	111.113510
30898.605585	1192.396667	1105.250000	214.933441
30898.605585	1192.396667	1104.109375	278.234161
30898.605585	1192.396667	1102.968750	197.215698
30898.605585	1192.396667	1101.828125	235.477936
30898.605585	1192.396667	1100.686523	279.325470
30898.605585	1192.396667	1099.544922	305.703766
30898.605585	1192.396667	1098.403320	256.478394
30898.605585	1192.396667	1097.261719	190.200912
30898.605585	1192.396667	1096.120117	333.812592
30898.605585	1192.396667	1094.977539	202.455704
30898.605585	1192.396667	1093.834961	239.034454
30898.605585	1192.396667	1092.691406	271.610992
30898.605585	1192.396667	1091.548828	184.996094
30898.605585	1192.396667	1090.405273	89.831734
30898.605585	1192.396667	1089.261719	176.942230
30898.605585	1192.396667	1088.118164	180.917297
30898.605585	1192.396667	1086.973633	306.356506
30898.605585	1192.396667	1085.829102	193.578888
30898.605585	1192.396667	1084.684570	188.664459
30898.605585	1192.396667	1083.540039	199.158005
30898.605585	1192.396667	1082.395508	158.676620
30898.605585	1192.396667	1081.250000	303.812378
30898.605585	1192.396667	1080.104492	347.503693
30898.605585	1192.396667	1078.958984	454.268585
30898.605585	1192.396667	1077.812500	514.797119
30898.605585	1192.396667	1076.666016	609.226135
30898.605585	1192.396667	1075.519531	604.647339
30898.605585	1192.396667	1074.373047	616.228638
30898.605585	1192.396667	1073.226563	465.713684
30898.605585	1192.396667	1072.079102	428.208313
30898.605585	1192.396667	1070.931641	412.838928
30898.605585	1192.396667	1069.784180	340.282684
30898.605585	1192.396667	1068.635742	290.800171
30898.605585	1192.396667	1067.487305	266.889954
30898.605585	1192.396667	1066.338867	325.604736
30898.605585	1192.396667	1065.190430	223.540192
30898.605585	1192.396667	1064.041992	313.400879
30898.605585	1192.396667	1062.892578	284.786102
30898.605585	1192.396667	1061.743164	338.032013
30898.605585	1192.396667	1060.593750	398.618134
30898.605585	1192.396667	1059.443359	341.744171
30898.605585	1192.396667	1058.292969	224.396393
30898.605585	1192.396667	1057.142578	59.653866
30898.605585	1192.396667	1055.992188	284.425842
30898.605585	1192.396667	1054.841797	290.078491
30898.605585	1192.396667	1053.690430	253.490646
30898.605585	1192.396667	1052.539063	203.512970
30898.605585	1192.396667	1051.387695	190.208038
30898.605585	1192.396667	1050.235352	183.108276
30898.605585	1192.396667	1049.083984	143.723129
30898.605585	1192.396667	1047.931641	191.708206
30898.605585	1192.396667	1046.778320	201.682114
30898.605585	1192.396667	1045.625977	303.085693
30898.605585	1192.396667	1044.472656	101.967415
30898.605585	1192.396667	1043.319336	232.675934
30898.605585	1192.396667	1042.166016	231.392471
30898.605585	1192.396667	1041.012695	354.139587
30898.605585	1192.396667	1039.858398	331.609039
30898.605585	1192.396667	1038.704102	341.471985
30898.605585	1192.396667	1037.549805	407.137665
30898.605585	1192.396667	1036.394531	306.535065
30898.605585	1192.396667	1035.239258	236.140106
30898.605585	1192.396667	1034.083984	188.871384
30898.605585	1192.396667	1032.928711	296.752441
30898.605585	1192.396667	1031.773438	307.009003
30898.605585	1192.396667	1030.617188	63.025906
30898.605585	1192.396667	1029.460938	150.554688
30898.605585	1192.396667	1028.304688	109.461243
30898.605585	1192.396667	1027.147461	9.679098
30898.605585	1192.396667	1025.991211	62.606682
30898.605585	1192.396667	1024.833984	105.458084
30898.605585	1192.396667	1023.675781	135.341751
30898.605585	1192.396667	1022.518555	103.700279
30898.605585	1192.396667	1021.360352	80.062988
30898.605585	1192.396667	1020.202148	87.990395
30898.605585	1192.396667	1019.043945	11.927984
30898.605585	1192.396667	1017.884766	-84.648994
30898.605585	1192.396667	1016.726563	61.858768
30898.605585	1192.396667	1015.567383	86.455757
30898.605585	1192.396667	1014.407227	-8.561568
30898.605585	1192.396667	1013.248047	-55.528717
30898.605585	1192.396667	1012.087891	-52.858410
30898.605585	1192.396667	1010.927734	47.392075
30898.605585	1192.396667	1009.767578	47.900669
30898.605585	1192.396667	1008.606445	86.524178
30898.605585	1192.396667	1007.446289	162.911392
30898.605585	1192.396667	1006.285156	163.012024
30898.605585	1192.396667	1005.123047	278.313965
30898.605585	1192.396667	1003.961914	157.576569
30898.605585	1192.396667	1002.799805	254.102371
30898.605585	1192.396667	1001.637695	340.123505
30898.605585	1192.396667	1000.475586	257.756866
30898.605585	1192.396667	999.312500	367.276489
30898.605585	1192.396667	998.149414	374.050385
30898.605585	1192.396667	996.986328	195.625626
30898.605585	1192.396667	995.823242	302.535706
30898.605585	1192.396667	994.659180	204.202393
30898.605585	1192.396667	993.496094	246.721283
30898.605585	1192.396667	992.332031	210.093918
30898.605585	1192.396667	991.166992	104.343887
30898.605585	1192.396667	990.002930	105.963455
30898.605585	1192.396667	988.837891	280.256714
30898.605585	1192.396667	987.672852	151.461655
30898.605585	1192.396667	986.506836	150.054047
30898.605585	1192.396667	985.341797	195.906830
30898.605585	1192.396667	984.175781	219.664169
30898.605585	1192.396667	983.009766	94.428452
30898.605585	1192.396667	981.843750	22.933838
30898.605585	1192.396667	980.676758	138.875702
30898.605585	1192.396667	979.509766	161.914154
30898.605585	1192.396667	978.342773	164.465500
30898.605585	1192.396667	977.175781	140.133560
30898.605585	1192.396667	976.007813	176.389450
30898.605585	1192.396667	974.839844	245.464722
30898.605585	1192.396667	973.671875	238.343079
30898.605585	1192.396667	972.503906	210.860260
30898.605585	1192.396667	971.334961	314.544891
30898.605585	1192.396667	970.166016	100.936279
30898.605585	1192.396667	968.997070	102.783768
30898.605585	1192.396667	967.828125	187.143326
30898.605585	1192.396667	966.658203	165.174805
30898.605585	1192.396667	965.488281	333.951324
30898.605585	1192.396667	964.318359	276.178802
30898.605585	1192.396667	963.148438	291.913208
30898.605585	1192.396667	961.977539	275.116516
30898.605585	1192.396667	960.806641	191.674973
30898.605585	1192.396667	959.635742	246.253006
30898.605585	1192.396667	958.463867	248.132782
30898.605585	1192.396667	957.292969	240.024780
30898.605585	1192.396667	956.121094	275.182526
30898.605585	1192.396667	954.948242	222.163864
30898.605585	1192.396667	953.776367	158.185303
30898.605585	1192.396667	952.603516	291.469910
30898.605585	1192.396667	951.430664	46.369061
30898.605585	1192.396667	950.257813	250.546158
30898.605585	1192.396667	949.084961	84.729080
30898.605585	1192.396667	947.911133	70.075775
30898.605585	1192.396667	946.737305	164.899139
30898.605585	1192.396667	945.563477	405.238098
30898.605585	1192.396667	944.388672	270.917969
30898.605585	1192.396667	943.213867	413.410461
30898.605585	1192.396667	942.039063	400.508362
30898.605585	1192.396667	940.864258	497.253052
30898.605585	1192.396667	939.688477	252.855057
30898.605585	1192.396667	938.513672	327.697083
30898.605585	1192.396667	937.337891	372.577209
30898.605585	1192.396667	936.161133	307.574829
30898.605585	1192.396667	934.985352	222.874115
30898.605585	1192.396667	933.808594	223.729019
30898.605585	1192.396667	932.631836	226.534805
30898.605585	1192.396667	931.454102	107.773796
30898.605585	1192.396667	930.277344	172.322708
30898.605585	1192.396667	929.099609	43.621384
30898.605585	1192.396667	927.921875	163.898666
30898.605585	1192.396667	926.743164	154.652390
30898.605585	1192.396667	925.565430	183.209198
30898.605585	1192.396667	924.386719	257.533630
30898.605585	1192.396667	923.208008	198.435196
30898.605585	1192.396667	922.028320	153.262238
30898.605585	1192.396667	920.849609	382.672607
30898.605585	1192.396667	919.669922	382.463684
30898.605585	1192.396667	919.474609	395.083740
30898.605585	1192.396667	918.309570	493.028168
30898.605585	1192.396667	917.143555	316.480530
30898.605585	1192.396667	915.977539	217.520966
30898.605585	1192.396667	914.810547	180.200806
30898.605585	1192.396667	913.644531	315.776276
30898.605585	1192.396667	912.477539	123.420486
30898.605585	1192.396667	911.310547	74.155052
30898.605585	1192.396667	910.143555	138.100891
30898.605585	1192.396667	908.975586	-16.437317
30898.605585	1192.396667	907.807617	27.603573
30898.605585	1192.396667	906.639648	-130.861069
30898.605585	1192.396667	905.471680	32.218399
30898.605585	1192.396667	904.303711	-1.221166
30898.605585	1192.396667	903.134766	34.764462
30898.605585	1192.396667	901.965820	110.382553
30898.605585	1192.396667	900.796875	-10.361197
30898.605585	1192.396667	899.626953	53.301609
30898.605585	1192.396667	898.457031	3.937667
30898.605585	1192.396667	897.287109	69.516045
30898.605585	1192.396667	896.117188	99.386185
30898.605585	1192.396667	894.947266	51.969788
30898.605585	1192.396667	893.776367	-84.569321
30898.605585	1192.396667	892.605469	24.465998
30898.605585	1192.396667	891.434570	-11.079711
30898.605585	1192.396667	890.262695	-88.193542
30898.605585	1192.396667	889.091797	-8.958003
30898.605585	1192.396667	887.919922	-14.846633
30898.605585	1192.396667	886.748047	84.090683
30898.605585	1192.396667	885.575195	101.886330
30898.605585	1192.396667	884.403320	30.681519
30898.605585	1192.396667	883.230469	-26.670732
30898.605585	1192.396667	882.057617	-10.884816
30898.605585	1192.396667	880.883789	44.402157
30898.605585	1192.396667	879.710938	89.774368
30898.605585	1192.396667	878.537109	103.509529
30898.605585	1192.396667	877.362305	-5.216802
30898.605585	1192.396667	876.188477	18.377850
30898.605585	1192.396667	875.013672	77.482750
30898.605585	1192.396667	873.839844	-58.840775
30898.605585	1192.396667	872.664063	-82.646454
30898.605585	1192.396667	871.489258	-78.833603
30898.605585	1192.396667	870.313477	-82.924973
30898.605585	1192.396667	869.138672	-18.003204
30898.605585	1192.396667	867.962891	40.964584
30898.605585	1192.396667	866.786133	-134.680542
30898.605585	1192.396667	865.610352	-65.880074
30898.605585	1192.396667	864.433594	63.964241
30898.605585	1192.396667	863.256836	34.172806
30898.605585	1192.396667	862.079102	98.924736
30898.605585	1192.396667	860.902344	6.104261
30898.605585	1192.396667	859.724609	17.658211
30898.605585	1192.396667	858.546875	-59.379620
30898.605585	1192.396667	857.368164	-45.867752
30898.605585	1192.396667	856.190430	-113.041046
30898.605585	1192.396667	855.011719	-249.047470
30898.605585	1192.396667	853.833008	0.485155
30898.605585	1192.396667	852.654297	8.040966
30898.605585	1192.396667	851.474609	-47.326012
30898.605585	1192.396667	850.294922	1.497631
30898.605585	1192.396667	849.115234	77.807045
30898.605585	1192.396667	847.935547	44.049713
30898.605585	1192.396667	846.754883	-27.024078
30898.605585	1192.396667	845.575195	-33.263855
30898.605585	1192.396667	844.393555	-53.253700
30898.605585	1192.396667	843.212891	-24.162045
30898.605585	1192.396667	842.032227	-52.008636
30898.605585	1192.396667	840.850586	-26.866964
30898.605585	1192.396667	839.668945	8.068783
30898.605585	1192.396667	838.486328	5.714365
30898.605585	1192.396667	837.304688	-133.923752
30898.605585	1192.396667	836.122070	-116.651474
30898.605585	1192.396667	834.939453	33.912220
30898.605585	1192.396667	833.756836	11.934496
30898.605585	1192.396667	832.573242	-17.877415
30898.605585	1192.396667	831.389648	-14.376392
30898.605585	1192.396667	830.206055	-73.560310
30898.605585	1192.396667	829.022461	-28.932919
30898.605585	1192.396667	827.838867	-29.360254
30898.605585	1192.396667	826.654297	-4.344107
30898.605585	1192.396667	825.469727	-73.283264
30898.605585	1192.396667	824.284180	-138.284988
30898.605585	1192.396667	823.099609	-56.539558
30898.605585	1192.396667	821.914063	-37.420868
30898.605585	1192.396667	820.728516	-67.200256
30898.605585	1192.396667	819.542969	6.649755
30898.605585	1192.396667	818.356445	-46.589455
30898.605585	1192.396667	817.169922	31.127657
30898.605585	1192.396667	815.983398	61.916939
30898.605585	1192.396667	814.796875	82.924011
30898.605585	1192.396667	813.609375	-126.543877
30898.605585	1192.396667	812.422852	-7.877714
30898.605585	1192.396667	811.235352	-2.495379
30898.605585	1192.396667	810.046875	-77.144325
30898.605585	1192.396667	808.859375	-52.238983
30898.605585	1192.396667	807.670898	-97.584450
30898.605585	1192.396667	806.482422	-4.416467
30898.605585	1192.396667	805.293945	-166.771561
30898.605585	1192.396667	804.104492	-91.180412
30898.605585	1192.396667	802.915039	-42.914425
30898.605585	1192.396667	801.725586	-58.988159
30898.605585	1192.396667	800.536133	-94.542664
30898.605585	1192.396667	799.345703	92.013924
30898.605585	1192.396667	798.155273	-7.838825
30898.605585	1192.396667	796.964844	16.984108
30898.605585	1192.396667	795.774414	-82.814087
30898.605585	1192.396667	794.583008	-93.028297
30898.605585	1192.396667	793.392578	-50.690182
30898.605585	1192.396667	792.200195	34.435616
30898.605585	1192.396667	791.008789	67.000069
30898.605585	1192.396667	789.816406	21.748779
30898.605585	1192.396667	788.625000	-39.040344
30898.605585	1192.396667	787.432617	-92.028931
30898.605585	1192.396667	786.239258	127.134621
30898.605585	1192.396667	785.046875	21.660316
30898.605585	1192.396667	783.853516	79.439751
30898.605585	1192.396667	782.660156	88.629700
30898.605585	1192.396667	781.465820	-133.305984
30898.605585	1192.396667	780.272461	138.063904
30898.605585	1192.396667	779.078125	28.808655
30898.605585	1192.396667	777.883789	53.525963
30898.605585	1192.396667	776.688477	-7.153829
30898.605585	1192.396667	775.494141	0.097917
30898.605585	1192.396667	774.298828	-60.546959
30898.605585	1192.396667	773.103516	-16.441488
30898.605585	1192.396667	771.907227	-11.135503
30898.605585	1192.396667	770.711914	13.554594
30898.605585	1192.396667	769.515625	125.449554
30898.605585	1192.396667	768.318359	68.711952
30898.605585	1192.396667	767.122070	118.552231
30898.605585	1192.396667	765.924805	3.729599
30898.605585	1192.396667	764.727539	101.974022
30898.605585	1192.396667	763.530273	22.051073
30898.605585	1192.396667	762.333008	81.533958
30898.605585	1192.396667	761.134766	17.128668
30898.605585	1192.396667	759.936523	-24.031534
30898.605585	1192.396667	758.738281	-40.027271
30898.605585	1192.396667	757.540039	141.264450
30898.605585	1192.396667	756.340820	59.491009
30898.605585	1192.396667	755.141602	24.150406
30898.605585	1192.396667	753.942383	118.329491
30898.605585	1192.396667	752.742188	200.870941
30898.605585	1192.396667	751.541992	99.825981
30898.605585	1192.396667	750.341797	163.017288
30898.605585	1192.396667	749.141602	79.400818
30898.605585	1192.396667	747.941406	-62.109917
30898.605585	1192.396667	746.740234	84.081169
30898.605585	1192.396667	745.539063	37.199093
30898.605585	1192.396667	744.337891	-1.946655
30898.605585	1192.396667	743.135742	47.668713
30898.605585	1192.396667	741.933594	-6.899218
30898.605585	1192.396667	740.731445	-171.370758
30898.605585	1192.396667	739.529297	-96.692795
30898.605585	1192.396667	738.326172	-95.301964
30898.605585	1192.396667	737.124023	-41.876072
30898.605585	1192.396667	735.919922	-1.965580
30898.605585	1192.396667	734.716797	12.882590
30898.605585	1192.396667	733.513672	-95.547516
30898.605585	1192.396667	732.309570	56.029610
30898.605585	1192.396667	731.105469	68.920509
30898.605585	1192.396667	729.900391	31.755411
30898.605585	1192.396667	728.696289	2.301342
30898.605585	1192.396667	727.491211	-46.385731
30898.605585	1192.396667	726.286133	10.745370
30898.605585	1192.396667	725.080078	-72.549660
30898.605585	1192.396667	723.874023	157.611404
30898.605585	1192.396667	722.668945	158.901352
30898.605585	1192.396667	721.461914	4.498114
30898.605585	1192.396667	720.255859	73.067726
30898.605585	1192.396667	719.048828	-54.364162
30898.605585	1192.396667	717.841797	-70.338173
30898.605585	1192.396667	716.634766	0.109919
30898.605585	1192.396667	715.427734	-138.760742
30898.605585	1192.396667	714.219727	-171.999680
30898.605585	1192.396667	713.011719	101.848595
30898.605585	1192.396667	711.803711	-79.186768
30898.605585	1192.396667	710.594727	131.207016
30898.605585	1192.396667	709.385742	88.327248
30898.605585	1192.396667	708.176758	58.883232
30898.605585	1192.396667	706.967773	62.038910
30898.605585	1192.396667	705.758789	-19.153624
30898.605585	1192.396667	704.548828	33.830788
30898.605585	1192.396667	703.338867	42.717674
30898.605585	1192.396667	702.127930	47.762646
30898.605585	1192.396667	700.917969	-6.572316
30898.605585	1192.396667	699.707031	159.312042
30898.605585	1192.396667	698.496094	83.903458
30898.605585	1192.396667	697.285156	132.930328
30898.605585	1192.396667	696.073242	103.470482
30898.605585	1192.396667	694.861328	89.321281
30898.605585	1192.396667	693.649414	33.088531
30898.605585	1192.396667	692.436523	47.629860
30898.605585	1192.396667	691.224609	138.638763
30898.605585	1192.396667	690.011719	-45.670345
30898.605585	1192.396667	688.798828	-120.971283
30898.605585	1192.396667	687.584961	75.082802
30898.605585	1192.396667	686.372070	112.484291
30898.605585	1192.396667	685.158203	84.921188
30898.605585	1192.396667	683.943359	66.907501
30898.605585	1192.396667	682.729492	235.994232
30898.605585	1192.396667	681.514648	105.320541
30898.605585	1192.396667	680.299805	264.767303
30898.605585	1192.396667	679.084961	353.541962
30898.605585	1192.396667	677.869141	257.233490
30898.605585	1192.396667	676.653320	250.593918
30898.605585	1192.396667	675.437500	507.082611
30898.605585	1192.396667	674.221680	344.050995
30898.605585	1192.396667	673.004883	285.905457
30898.605585	1192.396667	671.789063	328.770874
30898.605585	1192.396667	670.571289	503.062347
30898.605585	1192.396667	669.354492	713.462219
30898.605585	1192.396667	668.136719	982.796997
30898.605585	1192.396667	666.919922	972.125671
30898.605585	1192.396667	665.701172	946.217773
30898.605585	1192.396667	664.483398	920.311401
30898.605585	1192.396667	663.264648	791.654419
30898.605585	1192.396667	662.045898	702.990662
30898.605585	1192.396667	660.827148	893.940552
30898.605585	1192.396667	659.608398	645.539734
30898.605585	1192.396667	658.388672	429.550507
30898.605585	1192.396667	657.168945	531.067261
30898.605585	1192.396667	655.949219	324.672424
30898.605585	1192.396667	654.728516	304.547272
30898.605585	1192.396667	653.507813	265.423492
30898.605585	1192.396667	652.287109	216.809311
30898.605585	1192.396667	651.066406	162.507370
30898.605585	1192.396667	649.844727	96.824867
30898.605585	1192.396667	648.623047	190.585831
30898.605585	1192.396667	647.401367	22.434738
30898.605585	1192.396667	646.179688	154.090775
30898.605585	1192.396667	644.957031	61.862064
30898.605585	1192.396667	643.734375	187.739700
30898.605585	1192.396667	642.511719	190.315903
30898.605585	1192.396667	641.289063	52.609230
30898.605585	1192.396667	640.065430	286.393585
30898.605585	1192.396667	638.841797	156.277771
30898.605585	1192.396667	637.618164	69.774490
30898.605585	1192.396667	636.393555	49.581947
30898.605585	1192.396667	635.168945	67.255791
30898.605585	1192.396667	633.944336	3.505484
30898.605585	1192.396667	632.719727	-52.659210
30898.605585	1192.396667	631.494141	-101.244675
30898.605585	1192.396667	630.269531	122.616852
30898.605585	1192.396667	629.042969	-39.502991
30898.605585	1192.396667	627.817383	80.212852
30898.605585	1192.396667	626.590820	-30.804064
30898.605585	1192.396667	625.365234	-39.707878
30898.605585	1192.396667	624.137695	142.259506
30898.605585	1192.396667	622.911133	72.832748
30898.605585	1192.396667	621.683594	105.433586
30898.605585	1192.396667	620.456055	90.790672
30898.605585	1192.396667	619.228516	132.791763
30898.605585	1192.396667	618.000977	95.470116
30898.605585	1192.396667	616.772461	67.588364
30898.605585	1192.396667	615.543945	39.706276
30898.605585	1192.396667	614.314453	-44.778763
30898.605585	1192.396667	613.085938	-53.785305
30898.605585	1192.396667	611.856445	-92.976173
30898.605585	1192.396667	610.626953	75.244583
30898.605585	1192.396667	609.397461	36.020142
30898.605585	1192.396667	608.166992	-14.509448
30898.605585	1192.396667	606.936523	32.955917
30898.605585	1192.396667	605.706055	-21.341448
30898.605585	1192.396667	604.474609	29.847872
30898.605585	1192.396667	603.244141	171.396027
30898.605585	1192.396667	602.012695	-16.603527
30898.605585	1192.396667	600.780273	-69.008591
30898.605585	1192.396667	599.548828	63.026699
30898.605585	1192.396667	598.316406	-15.735307
30898.605585	1192.396667	597.083984	31.560299
30898.605585	1192.396667	595.851563	48.734978
30898.605585	1192.396667	594.618164	-88.295357
30898.605585	1192.396667	593.384766	-97.442848
30898.605585	1192.396667	592.151367	43.764378
30898.605585	1192.396667	590.917969	74.035492
30898.605585	1192.396667	589.683594	-34.742386
30898.605585	1192.396667	588.449219	143.899017
30898.605585	1192.396667	587.214844	-39.981022
30898.605585	1192.396667	585.979492	-56.695076
30898.605585	1192.396667	584.745117	14.816299
30898.605585	1192.396667	583.509766	-20.685587
30898.605585	1192.396667	582.273438	97.675461
30898.605585	1192.396667	581.038086	52.776340
30898.605585	1192.396667	579.801758	19.140541
30898.605585	1192.396667	578.565430	-3.237688
30898.605585	1192.396667	577.329102	34.377754
30898.605585	1192.396667	576.091797	137.569305
30898.605585	1192.396667	574.854492	85.176430
30898.605585	1192.396667	573.617188	64.649139
30898.605585	1192.396667	572.378906	205.210968
30898.605585	1192.396667	571.141602	169.673981
30898.605585	1192.396667	569.903320	102.316040
30898.605585	1192.396667	568.664063	210.939682
30898.605585	1192.396667	567.425781	366.302307
30898.605585	1192.396667	566.186523	259.636902
30898.605585	1192.396667	564.947266	302.669678
30898.605585	1192.396667	563.708008	375.605560
30898.605585	1192.396667	562.467773	564.439636
30898.605585	1192.396667	561.227539	411.069061
30898.605585	1192.396667	559.987305	388.599152
30898.605585	1192.396667	558.747070	231.588837
30898.605585	1192.396667	557.505859	164.321259
30898.605585	1192.396667	556.264648	196.080353
30898.605585	1192.396667	555.023438	169.931381
30898.605585	1192.396667	553.781250	281.957336
30898.605585	1192.396667	552.539063	82.193100
30898.605585	1192.396667	551.296875	74.744514
30898.605585	1192.396667	550.054688	106.483498
30898.605585	1192.396667	548.811523	112.090202
30898.605585	1192.396667	547.569336	3.925119
30898.605585	1192.396667	546.325195	50.574867
30898.605585	1192.396667	545.082031	162.459885
30898.605585	1192.396667	543.837891	43.170101
30898.605585	1192.396667	542.593750	61.834679
30898.605585	1192.396667	541.349609	115.892937
30898.605585	1192.396667	540.105469	39.540543
30898.605585	1192.396667	538.860352	15.366847
30898.605585	1192.396667	537.615234	-139.127426
30898.605585	1192.396667	536.369141	-29.216202
30898.605585	1192.396667	535.124023	-73.819809
30898.605585	1192.396667	533.877930	-36.529408
30898.605585	1192.396667	532.631836	-155.517166
30898.605585	1192.396667	531.384766	-95.897301
30898.605585	1192.396667	530.138672	-95.800667
30898.605585	1192.396667	528.891602	-90.122101
30898.605585	1192.396667	527.643555	-60.277748
30898.605585	1192.396667	526.396484	-266.446350
30898.605585	1192.396667	525.148438	-149.240005
30898.605585	1192.396667	523.900391	-7.928583
30898.605585	1192.396667	522.652344	-111.812561
30898.605585	1192.396667	521.403320	-50.395821
30898.605585	1192.396667	520.154297	-76.244652
30898.605585	1192.396667	518.905273	-90.938354
30898.605585	1192.396667	517.656250	-55.517178
30898.605585	1192.396667	516.406250	-72.047485
30898.605585	1192.396667	515.156250	-34.773872
30898.605585	1192.396667	513.906250	-23.467075
30898.605585	1192.396667	512.655273	-19.572374
30898.605585	1192.396667	511.404297	-50.886662
30898.605585	1192.396667	510.153320	-104.415085
30898.605585	1192.396667	508.902344	1.427535
30898.605585	1192.396667	507.650391	36.844341
30898.605585	1192.396667	506.398438	-35.156471
30898.605585	1192.396667	505.146484	-51.568375
30898.605585	1192.396667	503.893555	-16.130623
30898.605585	1192.396667	502.641602	-100.994621
30898.605585	1192.396667	501.388672	-54.435425
30898.605585	1192.396667	500.134766	-87.435326
30898.605585	1192.396667	498.881836	105.241364
30898.605585	1192.396667	497.627930	-1.721416
30898.605585	1192.396667	496.374023	-55.011002
30898.605585	1192.396667	495.119141	-62.057610
30898.605585	1192.396667	493.865234	95.383072
30898.605585	1192.396667	492.610352	-33.609028
30898.605585	1192.396667	491.355469	73.906563
30898.605585	1192.396667	490.099609	68.732483
30898.605585	1192.396667	488.843750	196.512756
30898.605585	1192.396667	487.587891	255.948441
30898.605585	1192.396667	486.332031	237.855316
30898.605585	1192.396667	485.075195	313.885101
30898.605585	1192.396667	483.818359	395.428223
30898.605585	1192.396667	482.561523	423.460052
30898.605585	1192.396667	481.304688	449.646851
30898.605585	1192.396667	480.046875	206.664627
30898.605585	1192.396667	478.789063	282.673218
30898.605585	1192.396667	477.531250	242.562408
30898.605585	1192.396667	476.272461	353.555023
30898.605585	1192.396667	475.013672	313.463562
30898.605585	1192.396667	473.754883	299.181122
30898.605585	1192.396667	472.496094	168.916229
30898.605585	1192.396667	471.236328	226.478455
30898.605585	1192.396667	469.976563	166.235794
30898.605585	1192.396667	468.716797	269.788696
30898.605585	1192.396667	467.456055	292.357361
30898.605585	1192.396667	466.196289	287.334808
30898.605585	1192.396667	464.935547	400.003326
30898.605585	1192.396667	463.673828	216.636444
30898.605585	1192.396667	462.413086	200.614944
30898.605585	1192.396667	461.151367	304.048523
30898.605585	1192.396667	459.889648	409.275421
30898.605585	1192.396667	458.626953	360.160034
30898.605585	1192.396667	457.364258	246.789017
30898.605585	1192.396667	456.101563	362.972290
30898.605585	1192.396667	454.838867	422.196442
30898.605585	1192.396667	453.575195	404.307526
30898.605585	1192.396667	452.312500	245.137024
30898.605585	1192.396667	451.047852	273.141907
30898.605585	1192.396667	449.784180	132.392136
30898.605585	1192.396667	448.519531	217.234604
30898.605585	1192.396667	447.254883	-38.962765
30898.605585	1192.396667	445.990234	104.507370
30898.605585	1192.396667	444.725586	183.762924
30898.605585	1192.396667	443.459961	228.156174
30898.605585	1192.396667	442.194336	149.787216
30898.605585	1192.396667	440.927734	65.936348
30898.605585	1192.396667	439.662109	192.654221
30898.605585	1192.396667	438.395508	161.867462
30898.605585	1192.396667	437.127930	217.080185
30898.605585	1192.396667	435.861328	177.095795
30898.605585	1192.396667	434.593750	180.999252
30898.605585	1192.396667	433.326172	11.118680
30898.605585	1192.396667	432.058594	77.155144
30898.605585	1192.396667	430.790039	112.043350
30898.605585	1192.396667	429.521484	203.533554
30898.605585	1192.396667	428.252930	220.018448
30898.605585	1192.396667	426.984375	258.371033
30898.605585	1192.396667	425.714844	183.407806
30898.605585	1192.396667	424.445313	121.205406
30898.605585	1192.396667	423.174805	172.167404
30898.605585	1192.396667	421.905273	146.382462
30898.605585	1192.396667	420.634766	164.341385
30898.605585	1192.396667	419.364258	162.153229
30898.605585	1192.396667	418.092773	-2.459754
30898.605585	1192.396667	416.822266	108.315628
30898.605585	1192.396667	415.550781	268.191437
30898.605585	1192.396667	414.278320	28.677048
30898.605585	1192.396667	413.006836	139.117859
30898.605585	1192.396667	411.734375	72.661667
30898.605585	1192.396667	410.461914	201.069901
30898.605585	1192.396667	409.188477	127.140518
30898.605585	1192.396667	407.916016	-36.091103
30898.605585	1192.396667	406.642578	102.856155
30898.605585	1192.396667	405.368164	210.678116
30898.605585	1192.396667	404.094727	92.674835
30898.605585	1192.396667	402.820313	76.479782
30898.605585	1192.396667	401.545898	20.138515
30898.605585	1192.396667	400.270508	-74.513138
30898.605585	1192.396667	398.996094	-31.079260
30898.605585	1192.396667	397.720703	6.726418
30898.605585	1192.396667	396.444336	147.949081
30898.605585	1192.396667	395.168945	99.974083
30898.605585	1192.396667	393.892578	-31.722153
30898.605585	1192.396667	392.616211	187.001221
30898.605585	1192.396667	391.339844	60.426300
30898.605585	1192.396667	390.062500	60.793209
30898.605585	1192.396667	388.785156	-44.315514
30898.605585	1192.396667	387.507813	264.163422
30898.605585	1192.396667	386.229492	185.841583
30898.605585	1192.396667	384.951172	100.073822
30898.605585	1192.396667	383.672852	133.802200
30898.605585	1192.396667	382.394531	20.412413
30898.605585	1192.396667	381.115234	35.520317
30898.605585	1192.396667	379.835938	24.989861
30898.605585	1192.396667	378.556641	-9.359361
30898.605585	1192.396667	377.277344	-42.159641
30898.605585	1192.396667	375.997070	31.618185
30898.605585	1192.396667	374.716797	-106.790993
30898.605585	1192.396667	373.435547	-53.556717
30898.605585	1192.396667	372.155273	57.262527
30898.605585	1192.396667	370.874023	-63.927776
30898.605585	1192.396667	369.591797	4.550825
30898.605585	1192.396667	368.310547	157.669373
30898.605585	1192.396667	367.028320	13.774378
30898.605585	1192.396667	365.746094	153.422836
30898.605585	1192.396667	364.463867	-74.318916
30898.605585	1192.396667	363.180664	118.709732
30898.605585	1192.396667	361.897461	139.595078
30898.605585	1192.396667	360.614258	78.758018
30898.605585	1192.396667	359.330078	21.111250
30898.605585	1192.396667	358.045898	-60.435692
30898.605585	1192.396667	356.761719	-62.982822
30898.605585	1192.396667	355.477539	-109.324791
30898.605585	1192.396667	354.192383	-8.186855
30898.605585	1192.396667	352.907227	193.424103
30898.605585	1192.396667	351.622070	87.798897
30898.605585	1192.396667	350.336914	97.088806
30898.605585	1192.396667	349.050781	44.507530
30898.605585	1192.396667	347.764648	124.760277
30898.605585	1192.396667	346.477539	27.769098
30898.605585	1192.396667	345.191406	68.957718
30898.605585	1192.396667	343.904297	226.575424
30898.605585	1192.396667	342.616211	35.889576
30898.605585	1192.396667	341.329102	166.935440
30898.605585	1192.396667	340.041016	29.009529
30898.605585	1192.396667	338.752930	25.425018
30898.605585	1192.396667	337.463867	82.285278
30898.605585	1192.396667	336.175781	35.859566
30898.605585	1192.396667	334.886719	-23.911533
30898.605585	1192.396667	333.596680	-16.124603
30898.605585	1192.396667	332.307617	34.023975
30898.605585	1192.396667	331.017578	-82.050011
30898.605585	1192.396667	329.727539	-15.624821
30898.605585	1192.396667	328.436523	10.358088
30898.605585	1192.396667	327.146484	-129.789581
30898.605585	1192.396667	325.855469	-206.162354
30898.605585	1192.396667	324.563477	-62.626442
30898.605585	1192.396667	323.272461	-9.843531
30898.605585	1192.396667	321.980469	65.235115
30898.605585	1192.396667	320.688477	-56.304668
30898.605585	1192.396667	319.395508	-171.681824
30898.605585	1192.396667	318.103516	-112.288460
30898.605585	1192.396667	316.810547	-113.211876
30898.605585	1192.396667	315.516602	-100.943771
30898.605585	1192.396667	314.223633	14.151463
30898.605585	1192.396667	312.929688	-36.865322
30898.605585	1192.396667	311.635742	-46.072025
30898.605585	1192.396667	310.340820	45.549179
30898.605585	1192.396667	309.045898	57.069920
30898.605585	1192.396667	307.750977	-127.860291
30898.605585	1192.396667	306.456055	61.845959
30898.605585	1192.396667	305.160156	171.329132
30898.605585	1192.396667	303.865234	209.628265
30898.605585	1192.396667	302.568359	124.767868
30898.605585	1192.396667	301.272461	258.487762
30898.605585	1192.396667	299.975586	324.453125
30898.605585	1192.396667	298.678711	447.844604
