#X		#Y		#Wave		#Intensity
31167.897181	1126.355000	1999.980469	-82.834190
31167.897181	1126.355000	1999.016602	-104.875740
31167.897181	1126.355000	1998.052734	-38.734474
31167.897181	1126.355000	1997.087891	217.623901
31167.897181	1126.355000	1996.123047	-71.766922
31167.897181	1126.355000	1995.158203	49.616894
31167.897181	1126.355000	1994.193359	-260.530304
31167.897181	1126.355000	1993.228516	-56.008701
31167.897181	1126.355000	1992.262695	264.308289
31167.897181	1126.355000	1991.297852	-89.281685
31167.897181	1126.355000	1990.332031	-57.115791
31167.897181	1126.355000	1989.366211	-74.901115
31167.897181	1126.355000	1988.399414	-1.572851
31167.897181	1126.355000	1987.433594	56.461071
31167.897181	1126.355000	1986.466797	0.309745
31167.897181	1126.355000	1985.500977	275.115082
31167.897181	1126.355000	1984.534180	267.617737
31167.897181	1126.355000	1983.567383	193.023468
31167.897181	1126.355000	1982.599609	9.373351
31167.897181	1126.355000	1981.632813	-18.889093
31167.897181	1126.355000	1980.665039	132.869156
31167.897181	1126.355000	1979.697266	123.717445
31167.897181	1126.355000	1978.729492	57.472958
31167.897181	1126.355000	1977.761719	-179.392151
31167.897181	1126.355000	1976.792969	-78.262222
31167.897181	1126.355000	1975.825195	195.326797
31167.897181	1126.355000	1974.856445	157.646210
31167.897181	1126.355000	1973.887695	215.954010
31167.897181	1126.355000	1972.918945	91.475853
31167.897181	1126.355000	1971.949219	141.921555
31167.897181	1126.355000	1970.980469	12.138117
31167.897181	1126.355000	1970.010742	197.757477
31167.897181	1126.355000	1969.041016	-11.257413
31167.897181	1126.355000	1968.071289	213.352036
31167.897181	1126.355000	1967.101563	100.148865
31167.897181	1126.355000	1966.130859	203.604919
31167.897181	1126.355000	1965.161133	50.717407
31167.897181	1126.355000	1964.190430	111.977951
31167.897181	1126.355000	1963.219727	91.827682
31167.897181	1126.355000	1962.249023	-78.604149
31167.897181	1126.355000	1961.277344	24.090963
31167.897181	1126.355000	1960.306641	279.198578
31167.897181	1126.355000	1959.334961	125.699104
31167.897181	1126.355000	1958.363281	240.273483
31167.897181	1126.355000	1957.391602	-16.648348
31167.897181	1126.355000	1956.419922	149.366257
31167.897181	1126.355000	1955.447266	202.146820
31167.897181	1126.355000	1954.474609	97.524284
31167.897181	1126.355000	1953.501953	132.951187
31167.897181	1126.355000	1952.529297	47.908226
31167.897181	1126.355000	1951.556641	139.714767
31167.897181	1126.355000	1950.583984	226.524948
31167.897181	1126.355000	1949.610352	242.038879
31167.897181	1126.355000	1948.636719	31.628727
31167.897181	1126.355000	1947.663086	-21.632967
31167.897181	1126.355000	1946.689453	118.985336
31167.897181	1126.355000	1945.715820	36.226715
31167.897181	1126.355000	1944.741211	135.026627
31167.897181	1126.355000	1943.767578	170.001511
31167.897181	1126.355000	1942.792969	-72.181938
31167.897181	1126.355000	1941.818359	9.384580
31167.897181	1126.355000	1940.842773	125.235451
31167.897181	1126.355000	1939.868164	-158.483200
31167.897181	1126.355000	1938.892578	-57.342606
31167.897181	1126.355000	1937.916992	78.070770
31167.897181	1126.355000	1936.941406	142.402878
31167.897181	1126.355000	1935.965820	-28.406538
31167.897181	1126.355000	1934.990234	148.599716
31167.897181	1126.355000	1934.013672	-58.837891
31167.897181	1126.355000	1933.037109	25.127016
31167.897181	1126.355000	1932.060547	109.085968
31167.897181	1126.355000	1931.083984	161.231934
31167.897181	1126.355000	1930.107422	-48.390690
31167.897181	1126.355000	1929.129883	-120.924744
31167.897181	1126.355000	1928.153320	-115.132500
31167.897181	1126.355000	1927.175781	-109.307976
31167.897181	1126.355000	1926.198242	-37.438931
31167.897181	1126.355000	1925.219727	119.990677
31167.897181	1126.355000	1924.242188	277.408173
31167.897181	1126.355000	1923.263672	200.246002
31167.897181	1126.355000	1922.285156	247.746246
31167.897181	1126.355000	1921.306641	73.013763
31167.897181	1126.355000	1920.328125	-55.206085
31167.897181	1126.355000	1919.349609	-61.252987
31167.897181	1126.355000	1918.370117	-172.214859
31167.897181	1126.355000	1917.391602	-9.731223
31167.897181	1126.355000	1916.412109	142.980896
31167.897181	1126.355000	1915.431641	-145.900848
31167.897181	1126.355000	1914.452148	21.522459
31167.897181	1126.355000	1913.472656	203.571716
31167.897181	1126.355000	1912.492188	-180.091217
31167.897181	1126.355000	1911.511719	70.296555
31167.897181	1126.355000	1910.531250	59.840767
31167.897181	1126.355000	1909.550781	300.454712
31167.897181	1126.355000	1908.569336	70.782524
31167.897181	1126.355000	1907.588867	-88.098557
31167.897181	1126.355000	1906.607422	13.745077
31167.897181	1126.355000	1905.625977	-193.658875
31167.897181	1126.355000	1904.644531	173.661057
31167.897181	1126.355000	1903.662109	-126.086609
31167.897181	1126.355000	1902.680664	-55.727955
31167.897181	1126.355000	1901.698242	-187.309616
31167.897181	1126.355000	1900.715820	106.967926
31167.897181	1126.355000	1899.733398	36.324814
31167.897181	1126.355000	1898.750000	-321.213104
31167.897181	1126.355000	1897.767578	-73.113441
31167.897181	1126.355000	1896.784180	-82.748756
31167.897181	1126.355000	1895.800781	-75.315254
31167.897181	1126.355000	1894.817383	5.071953
31167.897181	1126.355000	1893.833984	22.306486
31167.897181	1126.355000	1892.850586	-67.304024
31167.897181	1126.355000	1891.866211	10.752558
31167.897181	1126.355000	1890.881836	-13.162892
31167.897181	1126.355000	1889.897461	64.947533
31167.897181	1126.355000	1888.913086	-34.129238
31167.897181	1126.355000	1887.927734	-174.385986
31167.897181	1126.355000	1886.943359	-42.774384
31167.897181	1126.355000	1885.958008	132.496567
31167.897181	1126.355000	1884.972656	-77.931534
31167.897181	1126.355000	1883.987305	-288.242706
31167.897181	1126.355000	1883.001953	-311.735229
31167.897181	1126.355000	1882.015625	-182.456573
31167.897181	1126.355000	1881.029297	-38.649269
31167.897181	1126.355000	1880.042969	15.473243
31167.897181	1126.355000	1879.056641	-10.348421
31167.897181	1126.355000	1878.070313	-79.734993
31167.897181	1126.355000	1877.083984	73.754272
31167.897181	1126.355000	1876.096680	-97.273788
31167.897181	1126.355000	1875.109375	-81.789650
31167.897181	1126.355000	1874.122070	-218.787216
31167.897181	1126.355000	1873.134766	43.614609
31167.897181	1126.355000	1872.146484	-30.403179
31167.897181	1126.355000	1871.159180	2.073346
31167.897181	1126.355000	1870.170898	-214.585205
31167.897181	1126.355000	1869.182617	151.674820
31167.897181	1126.355000	1868.194336	-69.739235
31167.897181	1126.355000	1867.205078	-143.597565
31167.897181	1126.355000	1866.216797	-55.479675
31167.897181	1126.355000	1865.227539	209.018295
31167.897181	1126.355000	1864.238281	65.103165
31167.897181	1126.355000	1863.249023	-88.417435
31167.897181	1126.355000	1862.259766	16.543423
31167.897181	1126.355000	1861.269531	-54.810890
31167.897181	1126.355000	1860.279297	-82.685738
31167.897181	1126.355000	1859.290039	-11.587249
31167.897181	1126.355000	1858.298828	-17.751053
31167.897181	1126.355000	1857.308594	-28.748259
31167.897181	1126.355000	1856.318359	-46.988823
31167.897181	1126.355000	1855.327148	-193.073181
31167.897181	1126.355000	1854.335938	196.247375
31167.897181	1126.355000	1853.344727	1.917112
31167.897181	1126.355000	1852.353516	-16.381422
31167.897181	1126.355000	1851.362305	117.147583
31167.897181	1126.355000	1850.370117	113.247337
31167.897181	1126.355000	1849.377930	-90.648819
31167.897181	1126.355000	1848.385742	88.509819
31167.897181	1126.355000	1847.393555	36.366707
31167.897181	1126.355000	1846.401367	92.568260
31167.897181	1126.355000	1845.408203	-24.624889
31167.897181	1126.355000	1844.415039	70.008820
31167.897181	1126.355000	1843.421875	82.745689
31167.897181	1126.355000	1842.428711	-0.806941
31167.897181	1126.355000	1841.435547	45.536419
31167.897181	1126.355000	1840.441406	349.175873
31167.897181	1126.355000	1839.448242	25.011198
31167.897181	1126.355000	1838.454102	100.035988
31167.897181	1126.355000	1837.459961	57.193794
31167.897181	1126.355000	1836.464844	96.029091
31167.897181	1126.355000	1835.470703	67.515297
31167.897181	1126.355000	1834.475586	87.004059
31167.897181	1126.355000	1833.480469	214.519226
31167.897181	1126.355000	1832.485352	161.807877
31167.897181	1126.355000	1831.490234	-56.625072
31167.897181	1126.355000	1830.495117	137.878601
31167.897181	1126.355000	1829.499023	106.618927
31167.897181	1126.355000	1828.502930	89.702126
31167.897181	1126.355000	1827.506836	319.852875
31167.897181	1126.355000	1826.510742	170.822250
31167.897181	1126.355000	1825.513672	271.208862
31167.897181	1126.355000	1824.517578	66.940735
31167.897181	1126.355000	1823.520508	-154.112167
31167.897181	1126.355000	1822.523438	-87.513077
31167.897181	1126.355000	1821.526367	187.486252
31167.897181	1126.355000	1820.529297	167.570557
31167.897181	1126.355000	1819.531250	46.954319
31167.897181	1126.355000	1818.533203	-11.425290
31167.897181	1126.355000	1817.535156	136.082367
31167.897181	1126.355000	1816.537109	65.556641
31167.897181	1126.355000	1815.539063	174.509552
31167.897181	1126.355000	1814.540039	158.865189
31167.897181	1126.355000	1813.541992	25.877771
31167.897181	1126.355000	1812.542969	-169.365601
31167.897181	1126.355000	1811.543945	171.196014
31167.897181	1126.355000	1810.543945	-17.029198
31167.897181	1126.355000	1809.544922	323.173798
31167.897181	1126.355000	1808.544922	82.189224
31167.897181	1126.355000	1807.544922	80.221115
31167.897181	1126.355000	1806.544922	-98.701729
31167.897181	1126.355000	1805.544922	111.805954
31167.897181	1126.355000	1804.544922	6.783765
31167.897181	1126.355000	1803.543945	-7.550133
31167.897181	1126.355000	1802.542969	-296.615143
31167.897181	1126.355000	1801.541992	-268.136230
31167.897181	1126.355000	1800.541016	58.606953
31167.897181	1126.355000	1799.539063	163.144730
31167.897181	1126.355000	1798.538086	40.838238
31167.897181	1126.355000	1797.536133	21.042349
31167.897181	1126.355000	1796.534180	-65.656647
31167.897181	1126.355000	1795.532227	-123.826363
31167.897181	1126.355000	1794.529297	96.875595
31167.897181	1126.355000	1793.527344	264.927856
31167.897181	1126.355000	1792.524414	168.213547
31167.897181	1126.355000	1791.521484	166.731781
31167.897181	1126.355000	1790.518555	289.018616
31167.897181	1126.355000	1789.514648	-60.543049
31167.897181	1126.355000	1788.511719	-2.824768
31167.897181	1126.355000	1787.507813	242.854324
31167.897181	1126.355000	1786.503906	-133.085022
31167.897181	1126.355000	1785.500000	-132.917160
31167.897181	1126.355000	1784.496094	-6.749426
31167.897181	1126.355000	1783.491211	-71.127220
31167.897181	1126.355000	1782.486328	-30.940704
31167.897181	1126.355000	1781.481445	85.206787
31167.897181	1126.355000	1780.476563	179.768570
31167.897181	1126.355000	1779.471680	57.789795
31167.897181	1126.355000	1778.465820	-28.631893
31167.897181	1126.355000	1777.460938	139.158493
31167.897181	1126.355000	1776.455078	130.889114
31167.897181	1126.355000	1775.449219	112.979515
31167.897181	1126.355000	1774.442383	185.190994
31167.897181	1126.355000	1773.436523	62.491253
31167.897181	1126.355000	1772.429688	200.881897
31167.897181	1126.355000	1771.422852	177.641541
31167.897181	1126.355000	1770.416016	45.078278
31167.897181	1126.355000	1769.409180	142.613541
31167.897181	1126.355000	1768.402344	19.305496
31167.897181	1126.355000	1767.394531	128.369751
31167.897181	1126.355000	1766.386719	-90.064644
31167.897181	1126.355000	1765.378906	-57.200176
31167.897181	1126.355000	1764.371094	-52.947311
31167.897181	1126.355000	1763.362305	-91.522522
31167.897181	1126.355000	1762.354492	-21.202791
31167.897181	1126.355000	1761.345703	-251.999969
31167.897181	1126.355000	1760.336914	-35.102356
31167.897181	1126.355000	1759.328125	48.919579
31167.897181	1126.355000	1758.318359	83.016777
31167.897181	1126.355000	1757.308594	154.835434
31167.897181	1126.355000	1756.299805	226.485245
31167.897181	1126.355000	1755.290039	92.033882
31167.897181	1126.355000	1754.279297	-108.788597
31167.897181	1126.355000	1753.269531	-6.834534
31167.897181	1126.355000	1752.258789	-25.720570
31167.897181	1126.355000	1751.249023	-127.517159
31167.897181	1126.355000	1750.238281	-229.435196
31167.897181	1126.355000	1749.226563	-118.705467
31167.897181	1126.355000	1748.215820	3.659166
31167.897181	1126.355000	1747.204102	-18.340071
31167.897181	1126.355000	1746.193359	-139.709579
31167.897181	1126.355000	1745.181641	239.619720
31167.897181	1126.355000	1744.168945	143.905487
31167.897181	1126.355000	1743.157227	222.833679
31167.897181	1126.355000	1742.144531	-149.377029
31167.897181	1126.355000	1741.132813	-120.293953
31167.897181	1126.355000	1740.120117	-173.987976
31167.897181	1126.355000	1739.106445	-74.445404
31167.897181	1126.355000	1738.093750	22.562233
31167.897181	1126.355000	1737.080078	93.424278
31167.897181	1126.355000	1736.067383	225.440125
31167.897181	1126.355000	1735.053711	69.590424
31167.897181	1126.355000	1734.040039	-43.914219
31167.897181	1126.355000	1733.025391	-63.260387
31167.897181	1126.355000	1732.011719	-214.694366
31167.897181	1126.355000	1730.997070	-88.218910
31167.897181	1126.355000	1729.982422	9.797168
31167.897181	1126.355000	1728.967773	208.899475
31167.897181	1126.355000	1727.952148	264.131348
31167.897181	1126.355000	1726.937500	-118.671951
31167.897181	1126.355000	1725.921875	-35.438202
31167.897181	1126.355000	1724.906250	-211.244400
31167.897181	1126.355000	1723.890625	-20.078026
31167.897181	1126.355000	1722.875000	154.407471
31167.897181	1126.355000	1721.858398	145.217682
31167.897181	1126.355000	1720.841797	161.760620
31167.897181	1126.355000	1719.825195	-16.982342
31167.897181	1126.355000	1718.808594	105.085434
31167.897181	1126.355000	1717.791992	-95.003845
31167.897181	1126.355000	1716.774414	139.530304
31167.897181	1126.355000	1715.756836	-91.317413
31167.897181	1126.355000	1714.739258	-61.489330
31167.897181	1126.355000	1713.721680	-57.640648
31167.897181	1126.355000	1712.704102	241.915268
31167.897181	1126.355000	1711.685547	-15.143164
31167.897181	1126.355000	1710.667969	140.857742
31167.897181	1126.355000	1709.649414	-27.171631
31167.897181	1126.355000	1708.630859	112.074974
31167.897181	1126.355000	1707.611328	230.015854
31167.897181	1126.355000	1706.592773	-64.957512
31167.897181	1126.355000	1705.573242	1.134751
31167.897181	1126.355000	1704.553711	324.954926
31167.897181	1126.355000	1703.534180	186.785492
31167.897181	1126.355000	1702.513672	168.044357
31167.897181	1126.355000	1701.494141	90.633942
31167.897181	1126.355000	1700.473633	-118.064507
31167.897181	1126.355000	1699.453125	202.508408
31167.897181	1126.355000	1698.432617	45.148991
31167.897181	1126.355000	1697.412109	51.620342
31167.897181	1126.355000	1696.390625	-98.873070
31167.897181	1126.355000	1695.369141	24.392725
31167.897181	1126.355000	1694.347656	-37.346458
31167.897181	1126.355000	1693.326172	-99.171173
31167.897181	1126.355000	1692.304688	133.623184
31167.897181	1126.355000	1691.282227	13.096164
31167.897181	1126.355000	1690.260742	280.638977
31167.897181	1126.355000	1689.238281	12.652344
31167.897181	1126.355000	1688.214844	102.227409
31167.897181	1126.355000	1687.192383	60.832138
31167.897181	1126.355000	1686.168945	241.276947
31167.897181	1126.355000	1685.146484	344.493073
31167.897181	1126.355000	1684.123047	302.763275
31167.897181	1126.355000	1683.099609	127.867531
31167.897181	1126.355000	1682.075195	121.005379
31167.897181	1126.355000	1681.051758	39.388092
31167.897181	1126.355000	1680.027344	65.034172
31167.897181	1126.355000	1679.002930	270.229828
31167.897181	1126.355000	1677.978516	106.703354
31167.897181	1126.355000	1676.953125	94.728203
31167.897181	1126.355000	1675.928711	8.077024
31167.897181	1126.355000	1674.903320	203.445374
31167.897181	1126.355000	1673.877930	317.078888
31167.897181	1126.355000	1672.852539	300.088776
31167.897181	1126.355000	1671.826172	313.296997
31167.897181	1126.355000	1670.800781	244.916443
31167.897181	1126.355000	1669.774414	281.272888
31167.897181	1126.355000	1668.748047	387.403442
31167.897181	1126.355000	1667.721680	535.331421
31167.897181	1126.355000	1666.694336	392.152008
31167.897181	1126.355000	1665.667969	488.688110
31167.897181	1126.355000	1664.640625	505.993530
31167.897181	1126.355000	1663.613281	483.681854
31167.897181	1126.355000	1662.585938	633.434692
31167.897181	1126.355000	1661.557617	622.595093
31167.897181	1126.355000	1660.530273	644.273621
31167.897181	1126.355000	1659.501953	621.701294
31167.897181	1126.355000	1658.473633	559.578064
31167.897181	1126.355000	1657.444336	506.699890
31167.897181	1126.355000	1656.416016	665.226563
31167.897181	1126.355000	1655.386719	691.226807
31167.897181	1126.355000	1654.358398	529.085083
31167.897181	1126.355000	1653.328125	694.304626
31167.897181	1126.355000	1652.298828	620.335388
31167.897181	1126.355000	1651.269531	718.106262
31167.897181	1126.355000	1650.239258	852.909119
31167.897181	1126.355000	1649.208984	746.338806
31167.897181	1126.355000	1648.178711	843.901245
31167.897181	1126.355000	1647.148438	1006.330811
31167.897181	1126.355000	1646.117188	867.218323
31167.897181	1126.355000	1645.086914	864.927307
31167.897181	1126.355000	1644.055664	1108.279907
31167.897181	1126.355000	1643.024414	1082.701050
31167.897181	1126.355000	1641.992188	966.732727
31167.897181	1126.355000	1640.960938	1124.150635
31167.897181	1126.355000	1639.928711	1272.206543
31167.897181	1126.355000	1638.896484	1227.999390
31167.897181	1126.355000	1637.864258	1234.726563
31167.897181	1126.355000	1636.832031	1343.286377
31167.897181	1126.355000	1635.798828	1620.713257
31167.897181	1126.355000	1634.766602	1761.532715
31167.897181	1126.355000	1633.733398	1201.336548
31167.897181	1126.355000	1632.699219	1332.882690
31167.897181	1126.355000	1631.666016	1607.767212
31167.897181	1126.355000	1630.632813	1482.574951
31167.897181	1126.355000	1629.598633	1537.713257
31167.897181	1126.355000	1628.564453	1622.880615
31167.897181	1126.355000	1627.530273	1592.489136
31167.897181	1126.355000	1626.495117	1599.061401
31167.897181	1126.355000	1625.460938	1695.744263
31167.897181	1126.355000	1624.425781	1593.783691
31167.897181	1126.355000	1623.390625	2066.778564
31167.897181	1126.355000	1622.355469	2020.219116
31167.897181	1126.355000	1621.319336	2008.297974
31167.897181	1126.355000	1620.284180	1968.734009
31167.897181	1126.355000	1619.248047	1744.626953
31167.897181	1126.355000	1618.211914	1942.737671
31167.897181	1126.355000	1617.174805	2094.655273
31167.897181	1126.355000	1616.138672	2078.250732
31167.897181	1126.355000	1615.101563	2190.958008
31167.897181	1126.355000	1614.065430	2098.550293
31167.897181	1126.355000	1613.027344	2126.000000
31167.897181	1126.355000	1611.990234	2176.536133
31167.897181	1126.355000	1610.953125	2266.253662
31167.897181	1126.355000	1609.915039	2544.802734
31167.897181	1126.355000	1608.876953	2418.041016
31167.897181	1126.355000	1607.838867	2549.209229
31167.897181	1126.355000	1606.800781	2516.959717
31167.897181	1126.355000	1605.761719	2661.946533
31167.897181	1126.355000	1604.723633	2454.933838
31167.897181	1126.355000	1603.684570	2795.509277
31167.897181	1126.355000	1602.644531	2657.620361
31167.897181	1126.355000	1601.605469	2303.718262
31167.897181	1126.355000	1600.566406	2285.664551
31167.897181	1126.355000	1599.526367	2403.273682
31167.897181	1126.355000	1598.486328	2410.596680
31167.897181	1126.355000	1597.446289	2457.041504
31167.897181	1126.355000	1596.405273	2214.077148
31167.897181	1126.355000	1595.365234	2437.529541
31167.897181	1126.355000	1594.324219	2451.990967
31167.897181	1126.355000	1593.283203	2367.801025
31167.897181	1126.355000	1592.242188	2079.432129
31167.897181	1126.355000	1591.200195	2339.725342
31167.897181	1126.355000	1590.159180	2425.635742
31167.897181	1126.355000	1589.117188	2619.395508
31167.897181	1126.355000	1588.075195	2441.605469
31167.897181	1126.355000	1587.032227	2385.491455
31167.897181	1126.355000	1585.990234	2379.943359
31167.897181	1126.355000	1584.947266	2473.038086
31167.897181	1126.355000	1583.904297	2291.176270
31167.897181	1126.355000	1582.861328	2283.620117
31167.897181	1126.355000	1581.818359	2372.380859
31167.897181	1126.355000	1580.775391	2234.454590
31167.897181	1126.355000	1579.731445	2325.663330
31167.897181	1126.355000	1578.687500	2288.723877
31167.897181	1126.355000	1577.643555	2325.154053
31167.897181	1126.355000	1576.598633	2414.299072
31167.897181	1126.355000	1575.554688	2270.137207
31167.897181	1126.355000	1574.509766	2267.965820
31167.897181	1126.355000	1573.464844	2311.653564
31167.897181	1126.355000	1572.419922	2709.899414
31167.897181	1126.355000	1571.374023	2577.643066
31167.897181	1126.355000	1570.329102	2717.600342
31167.897181	1126.355000	1569.283203	2958.168457
31167.897181	1126.355000	1568.237305	2609.217773
31167.897181	1126.355000	1567.191406	2680.894531
31167.897181	1126.355000	1566.144531	2624.738770
31167.897181	1126.355000	1565.098633	2335.808350
31167.897181	1126.355000	1564.051758	2706.966797
31167.897181	1126.355000	1563.004883	2564.476318
31167.897181	1126.355000	1561.957031	2241.850098
31167.897181	1126.355000	1560.910156	2225.275635
31167.897181	1126.355000	1559.862305	2261.301270
31167.897181	1126.355000	1558.814453	2099.000732
31167.897181	1126.355000	1557.766602	2014.442505
31167.897181	1126.355000	1556.718750	1708.883545
31167.897181	1126.355000	1555.669922	1471.963013
31167.897181	1126.355000	1554.621094	1627.304932
31167.897181	1126.355000	1553.573242	1883.011475
31167.897181	1126.355000	1552.523438	1787.872070
31167.897181	1126.355000	1551.474609	1358.084595
31167.897181	1126.355000	1550.424805	1208.723267
31167.897181	1126.355000	1549.375000	1487.647583
31167.897181	1126.355000	1548.325195	1217.968384
31167.897181	1126.355000	1547.275391	1107.876587
31167.897181	1126.355000	1546.225586	1018.463501
31167.897181	1126.355000	1545.174805	1165.849731
31167.897181	1126.355000	1544.124023	1206.423340
31167.897181	1126.355000	1543.073242	862.785522
31167.897181	1126.355000	1542.022461	871.890564
31167.897181	1126.355000	1540.970703	1044.826660
31167.897181	1126.355000	1539.919922	1120.134399
31167.897181	1126.355000	1538.868164	870.598267
31167.897181	1126.355000	1537.815430	780.358704
31167.897181	1126.355000	1536.763672	747.127319
31167.897181	1126.355000	1535.710938	818.539001
31167.897181	1126.355000	1534.659180	740.240173
31167.897181	1126.355000	1533.606445	1048.075439
31167.897181	1126.355000	1532.552734	1110.814087
31167.897181	1126.355000	1531.500000	1089.745972
31167.897181	1126.355000	1530.446289	1005.322144
31167.897181	1126.355000	1529.393555	1007.323853
31167.897181	1126.355000	1528.338867	1061.643188
31167.897181	1126.355000	1527.285156	696.632568
31167.897181	1126.355000	1526.231445	1295.477295
31167.897181	1126.355000	1525.176758	926.385010
31167.897181	1126.355000	1524.122070	1081.121216
31167.897181	1126.355000	1523.067383	844.001343
31167.897181	1126.355000	1522.012695	1098.737427
31167.897181	1126.355000	1520.957031	1095.355835
31167.897181	1126.355000	1519.901367	1189.531738
31167.897181	1126.355000	1518.845703	1098.215210
31167.897181	1126.355000	1517.790039	1004.860107
31167.897181	1126.355000	1516.734375	875.522278
31167.897181	1126.355000	1515.677734	789.412476
31167.897181	1126.355000	1514.621094	861.882568
31167.897181	1126.355000	1513.564453	66.005493
31167.897181	1126.355000	1512.507813	304.055603
31167.897181	1126.355000	1511.450195	316.113617
31167.897181	1126.355000	1510.393555	-17.469643
31167.897181	1126.355000	1509.335938	26.683504
31167.897181	1126.355000	1508.278320	-62.293285
31167.897181	1126.355000	1507.219727	59.052536
31167.897181	1126.355000	1506.162109	-257.615387
31167.897181	1126.355000	1505.103516	-122.328079
31167.897181	1126.355000	1504.044922	-357.159729
31167.897181	1126.355000	1502.986328	-241.814804
31167.897181	1126.355000	1501.926758	-498.695343
31167.897181	1126.355000	1500.868164	-85.118225
31167.897181	1126.355000	1499.808594	-524.247437
31167.897181	1126.355000	1498.749023	-335.970703
31167.897181	1126.355000	1497.688477	-400.132751
31167.897181	1126.355000	1496.628906	-213.794327
31167.897181	1126.355000	1495.568359	-356.432343
31167.897181	1126.355000	1494.507813	-140.468582
31167.897181	1126.355000	1493.447266	109.419624
31167.897181	1126.355000	1492.386719	28.258146
31167.897181	1126.355000	1491.325195	217.617386
31167.897181	1126.355000	1490.263672	281.004333
31167.897181	1126.355000	1489.202148	123.938927
31167.897181	1126.355000	1488.140625	106.708626
31167.897181	1126.355000	1487.079102	44.688782
31167.897181	1126.355000	1486.016602	129.159683
31167.897181	1126.355000	1484.954102	290.301056
31167.897181	1126.355000	1483.891602	217.673767
31167.897181	1126.355000	1482.829102	232.992889
31167.897181	1126.355000	1481.765625	333.947662
31167.897181	1126.355000	1480.702148	475.541138
31167.897181	1126.355000	1479.638672	68.929802
31167.897181	1126.355000	1478.575195	345.797424
31167.897181	1126.355000	1477.511719	577.745728
31167.897181	1126.355000	1476.447266	457.296875
31167.897181	1126.355000	1475.382813	206.886444
31167.897181	1126.355000	1474.318359	401.194214
31167.897181	1126.355000	1473.253906	-102.266052
31167.897181	1126.355000	1472.189453	65.591660
31167.897181	1126.355000	1471.124023	320.985718
31167.897181	1126.355000	1470.058594	329.862305
31167.897181	1126.355000	1468.993164	99.026131
31167.897181	1126.355000	1467.927734	-126.931030
31167.897181	1126.355000	1466.861328	210.245087
31167.897181	1126.355000	1465.794922	-115.908424
31167.897181	1126.355000	1464.728516	160.657196
31167.897181	1126.355000	1463.662109	289.281677
31167.897181	1126.355000	1462.594727	152.247421
31167.897181	1126.355000	1461.528320	93.782532
31167.897181	1126.355000	1460.460938	296.700012
31167.897181	1126.355000	1459.393555	272.607910
31167.897181	1126.355000	1458.326172	428.927887
31167.897181	1126.355000	1457.257813	235.660019
31167.897181	1126.355000	1456.189453	273.849152
31167.897181	1126.355000	1455.121094	132.715714
31167.897181	1126.355000	1454.052734	400.771240
31167.897181	1126.355000	1452.984375	406.804443
31167.897181	1126.355000	1451.915039	420.138580
31167.897181	1126.355000	1450.845703	332.149445
31167.897181	1126.355000	1449.776367	483.379669
31167.897181	1126.355000	1448.707031	707.887451
31167.897181	1126.355000	1447.636719	684.356201
31167.897181	1126.355000	1446.567383	464.226868
31167.897181	1126.355000	1445.497070	487.202606
31167.897181	1126.355000	1444.425781	452.305054
31167.897181	1126.355000	1443.355469	551.653625
31167.897181	1126.355000	1442.285156	301.814850
31167.897181	1126.355000	1441.213867	447.414459
31167.897181	1126.355000	1440.142578	304.255798
31167.897181	1126.355000	1439.070313	623.408386
31167.897181	1126.355000	1437.999023	495.427063
31167.897181	1126.355000	1436.926758	385.002380
31167.897181	1126.355000	1435.854492	326.874268
31167.897181	1126.355000	1434.782227	281.696472
31167.897181	1126.355000	1433.709961	266.431213
31167.897181	1126.355000	1432.636719	223.371750
31167.897181	1126.355000	1431.563477	47.493530
31167.897181	1126.355000	1430.490234	8.311494
31167.897181	1126.355000	1429.416992	288.848419
31167.897181	1126.355000	1428.343750	272.013733
31167.897181	1126.355000	1427.269531	-5.433547
31167.897181	1126.355000	1426.195313	144.189896
31167.897181	1126.355000	1425.121094	201.885269
31167.897181	1126.355000	1424.046875	264.245575
31167.897181	1126.355000	1422.971680	49.911312
31167.897181	1126.355000	1421.896484	-12.866632
31167.897181	1126.355000	1420.821289	365.026154
31167.897181	1126.355000	1419.746094	7.977558
31167.897181	1126.355000	1418.669922	111.917793
31167.897181	1126.355000	1417.594727	-41.109737
31167.897181	1126.355000	1416.518555	95.580688
31167.897181	1126.355000	1415.442383	132.340286
31167.897181	1126.355000	1414.365234	90.283585
31167.897181	1126.355000	1413.289063	146.288361
31167.897181	1126.355000	1412.211914	245.096451
31167.897181	1126.355000	1411.134766	-42.316746
31167.897181	1126.355000	1410.057617	29.704071
31167.897181	1126.355000	1408.979492	3.985174
31167.897181	1126.355000	1407.902344	-126.253769
31167.897181	1126.355000	1406.824219	118.787415
31167.897181	1126.355000	1405.746094	65.331223
31167.897181	1126.355000	1404.666992	-58.168468
31167.897181	1126.355000	1403.588867	-88.606743
31167.897181	1126.355000	1402.509766	144.964386
31167.897181	1126.355000	1401.430664	262.006927
31167.897181	1126.355000	1400.351563	106.986542
31167.897181	1126.355000	1399.271484	309.510254
31167.897181	1126.355000	1398.192383	72.427292
31167.897181	1126.355000	1397.112305	179.632599
31167.897181	1126.355000	1396.031250	107.332565
31167.897181	1126.355000	1394.951172	232.691757
31167.897181	1126.355000	1393.871094	226.670990
31167.897181	1126.355000	1392.790039	116.616455
31167.897181	1126.355000	1391.708984	92.963089
31167.897181	1126.355000	1390.626953	210.205826
31167.897181	1126.355000	1389.545898	9.376705
31167.897181	1126.355000	1388.463867	251.339981
31167.897181	1126.355000	1387.381836	180.947861
31167.897181	1126.355000	1386.299805	301.849487
31167.897181	1126.355000	1385.217773	113.602150
31167.897181	1126.355000	1384.134766	478.563019
31167.897181	1126.355000	1383.051758	215.743759
31167.897181	1126.355000	1381.968750	328.363739
31167.897181	1126.355000	1380.885742	390.183411
31167.897181	1126.355000	1379.802734	500.871338
31167.897181	1126.355000	1378.718750	569.054871
31167.897181	1126.355000	1377.634766	364.143311
31167.897181	1126.355000	1376.550781	284.563049
31167.897181	1126.355000	1375.465820	253.115677
31167.897181	1126.355000	1374.381836	306.838531
31167.897181	1126.355000	1373.296875	199.807007
31167.897181	1126.355000	1372.211914	440.015564
31167.897181	1126.355000	1371.126953	405.849487
31167.897181	1126.355000	1370.041016	373.929413
31167.897181	1126.355000	1368.955078	502.399719
31167.897181	1126.355000	1367.869141	362.006989
31167.897181	1126.355000	1366.783203	310.124786
31167.897181	1126.355000	1365.697266	422.204742
31167.897181	1126.355000	1364.610352	415.739258
31167.897181	1126.355000	1363.523438	323.000824
31167.897181	1126.355000	1362.436523	334.579773
31167.897181	1126.355000	1361.349609	471.503906
31167.897181	1126.355000	1360.261719	626.254333
31167.897181	1126.355000	1359.174805	189.335114
31167.897181	1126.355000	1358.086914	459.073395
31167.897181	1126.355000	1356.998047	343.893799
31167.897181	1126.355000	1355.910156	168.477386
31167.897181	1126.355000	1354.821289	-47.746483
31167.897181	1126.355000	1353.732422	95.522827
31167.897181	1126.355000	1352.643555	134.803284
31167.897181	1126.355000	1351.554688	169.935120
31167.897181	1126.355000	1350.464844	278.959045
31167.897181	1126.355000	1349.375000	205.284576
31167.897181	1126.355000	1348.285156	332.505798
31167.897181	1126.355000	1347.195313	103.826210
31167.897181	1126.355000	1346.105469	129.130920
31167.897181	1126.355000	1345.014648	217.551056
31167.897181	1126.355000	1343.923828	206.034515
31167.897181	1126.355000	1342.833008	112.759399
31167.897181	1126.355000	1341.741211	170.755539
31167.897181	1126.355000	1340.650391	567.474121
31167.897181	1126.355000	1339.558594	179.347626
31167.897181	1126.355000	1338.466797	359.270691
31167.897181	1126.355000	1337.374023	332.234497
31167.897181	1126.355000	1336.282227	406.347565
31167.897181	1126.355000	1335.189453	398.117432
31167.897181	1126.355000	1334.096680	415.479279
31167.897181	1126.355000	1333.003906	331.173676
31167.897181	1126.355000	1331.910156	497.184357
31167.897181	1126.355000	1330.817383	455.656128
31167.897181	1126.355000	1329.723633	632.870728
31167.897181	1126.355000	1328.629883	266.331329
31167.897181	1126.355000	1327.535156	146.156769
31167.897181	1126.355000	1326.441406	154.483276
31167.897181	1126.355000	1325.346680	363.429291
31167.897181	1126.355000	1324.251953	404.802216
31167.897181	1126.355000	1323.156250	180.229095
31167.897181	1126.355000	1322.061523	148.126709
31167.897181	1126.355000	1320.965820	293.924652
31167.897181	1126.355000	1319.870117	286.568726
31167.897181	1126.355000	1318.774414	-71.212311
31167.897181	1126.355000	1317.678711	178.595490
31167.897181	1126.355000	1316.582031	323.273865
31167.897181	1126.355000	1315.485352	195.338608
31167.897181	1126.355000	1314.388672	157.846603
31167.897181	1126.355000	1313.291016	258.763397
31167.897181	1126.355000	1312.194336	235.145081
31167.897181	1126.355000	1311.096680	52.762367
31167.897181	1126.355000	1309.999023	246.800629
31167.897181	1126.355000	1308.901367	297.006195
31167.897181	1126.355000	1307.802734	350.532440
31167.897181	1126.355000	1306.705078	390.846924
31167.897181	1126.355000	1305.606445	588.324463
31167.897181	1126.355000	1304.506836	345.057343
31167.897181	1126.355000	1303.408203	323.672913
31167.897181	1126.355000	1302.308594	406.038513
31167.897181	1126.355000	1301.208984	664.001221
31167.897181	1126.355000	1300.109375	395.494812
31167.897181	1126.355000	1299.009766	589.029358
31167.897181	1126.355000	1297.909180	464.873871
31167.897181	1126.355000	1296.808594	607.980652
31167.897181	1126.355000	1295.708008	644.685852
31167.897181	1126.355000	1294.607422	607.441040
31167.897181	1126.355000	1293.506836	673.599854
31167.897181	1126.355000	1292.405273	641.917969
31167.897181	1126.355000	1291.303711	268.361115
31167.897181	1126.355000	1290.202148	422.626801
31167.897181	1126.355000	1289.099609	420.607452
31167.897181	1126.355000	1287.998047	293.171509
31167.897181	1126.355000	1286.895508	260.902344
31167.897181	1126.355000	1285.792969	67.724495
31167.897181	1126.355000	1284.689453	68.921165
31167.897181	1126.355000	1283.586914	202.229675
31167.897181	1126.355000	1282.483398	-60.981186
31167.897181	1126.355000	1281.379883	43.009926
31167.897181	1126.355000	1280.276367	-108.917778
31167.897181	1126.355000	1279.171875	94.171349
31167.897181	1126.355000	1278.067383	95.408737
31167.897181	1126.355000	1276.962891	59.491989
31167.897181	1126.355000	1275.858398	51.610874
31167.897181	1126.355000	1274.753906	69.900490
31167.897181	1126.355000	1273.648438	146.792679
31167.897181	1126.355000	1272.542969	104.891464
31167.897181	1126.355000	1271.437500	5.011650
31167.897181	1126.355000	1270.331055	142.659332
31167.897181	1126.355000	1269.225586	-67.205902
31167.897181	1126.355000	1268.119141	75.597725
31167.897181	1126.355000	1267.012695	133.855850
31167.897181	1126.355000	1265.906250	-58.229958
31167.897181	1126.355000	1264.798828	-129.253174
31167.897181	1126.355000	1263.691406	-41.543392
31167.897181	1126.355000	1262.583984	137.942764
31167.897181	1126.355000	1261.476563	192.715454
31167.897181	1126.355000	1260.368164	129.796478
31167.897181	1126.355000	1259.260742	150.659103
31167.897181	1126.355000	1258.152344	7.461756
31167.897181	1126.355000	1257.043945	6.087776
31167.897181	1126.355000	1255.934570	-89.694954
31167.897181	1126.355000	1254.825195	-74.139786
31167.897181	1126.355000	1253.716797	-13.630847
31167.897181	1126.355000	1252.606445	-91.650604
31167.897181	1126.355000	1251.497070	-86.467628
31167.897181	1126.355000	1250.387695	4.432075
31167.897181	1126.355000	1249.277344	136.505798
31167.897181	1126.355000	1248.166992	115.373360
31167.897181	1126.355000	1247.055664	47.734226
31167.897181	1126.355000	1245.945313	-61.924259
31167.897181	1126.355000	1244.833984	-69.400955
31167.897181	1126.355000	1243.722656	48.758060
31167.897181	1126.355000	1242.611328	-116.577538
31167.897181	1126.355000	1241.499023	-155.977905
31167.897181	1126.355000	1240.387695	-192.160492
31167.897181	1126.355000	1239.275391	-252.652863
31167.897181	1126.355000	1238.162109	-223.292419
31167.897181	1126.355000	1237.049805	-158.030807
31167.897181	1126.355000	1235.936523	-204.954346
31167.897181	1126.355000	1234.823242	-223.567795
31167.897181	1126.355000	1233.709961	-49.692837
31167.897181	1126.355000	1232.596680	-297.461639
31167.897181	1126.355000	1231.482422	-50.202393
31167.897181	1126.355000	1230.369141	-83.059601
31167.897181	1126.355000	1229.253906	-122.257416
31167.897181	1126.355000	1228.139648	-47.544991
31167.897181	1126.355000	1227.025391	10.126469
31167.897181	1126.355000	1225.910156	-13.512762
31167.897181	1126.355000	1224.794922	-174.220963
31167.897181	1126.355000	1223.679688	-121.405617
31167.897181	1126.355000	1222.563477	216.585312
31167.897181	1126.355000	1221.447266	-98.664505
31167.897181	1126.355000	1220.331055	-0.480489
31167.897181	1126.355000	1219.214844	-130.434158
31167.897181	1126.355000	1218.098633	-94.391937
31167.897181	1126.355000	1216.981445	-177.665833
31167.897181	1126.355000	1215.864258	34.504879
31167.897181	1126.355000	1214.747070	-276.050873
31167.897181	1126.355000	1213.629883	-121.045189
31167.897181	1126.355000	1212.511719	-235.973816
31167.897181	1126.355000	1211.393555	-92.936150
31167.897181	1126.355000	1210.275391	-46.310234
31167.897181	1126.355000	1209.157227	-264.401855
31167.897181	1126.355000	1208.038086	-55.188438
31167.897181	1126.355000	1206.918945	46.967274
31167.897181	1126.355000	1205.799805	-133.571533
31167.897181	1126.355000	1204.680664	-94.396729
31167.897181	1126.355000	1203.560547	-100.678299
31167.897181	1126.355000	1202.441406	280.973297
31167.897181	1126.355000	1201.321289	242.553070
31167.897181	1126.355000	1200.200195	224.737564
31167.897181	1126.355000	1199.080078	156.053467
31167.897181	1126.355000	1197.958984	166.240524
31167.897181	1126.355000	1196.837891	-5.606293
31167.897181	1126.355000	1195.716797	109.929039
31167.897181	1126.355000	1194.594727	72.578445
31167.897181	1126.355000	1193.473633	83.816620
31167.897181	1126.355000	1192.351563	154.790909
31167.897181	1126.355000	1191.229492	145.140610
31167.897181	1126.355000	1190.106445	-31.141846
31167.897181	1126.355000	1188.984375	-37.009865
31167.897181	1126.355000	1187.861328	6.844520
31167.897181	1126.355000	1186.738281	17.350973
31167.897181	1126.355000	1185.614258	-16.842072
31167.897181	1126.355000	1184.491211	115.927872
31167.897181	1126.355000	1183.367188	166.251419
31167.897181	1126.355000	1182.243164	132.979477
31167.897181	1126.355000	1181.119141	98.443306
31167.897181	1126.355000	1179.994141	48.072273
31167.897181	1126.355000	1178.869141	53.523216
31167.897181	1126.355000	1177.744141	-77.332527
31167.897181	1126.355000	1176.619141	88.250397
31167.897181	1126.355000	1175.493164	36.262619
31167.897181	1126.355000	1174.368164	-105.466805
31167.897181	1126.355000	1173.242188	-232.414978
31167.897181	1126.355000	1172.115234	-82.334763
31167.897181	1126.355000	1170.989258	-129.130951
31167.897181	1126.355000	1169.862305	-89.250809
31167.897181	1126.355000	1168.735352	-161.941925
31167.897181	1126.355000	1167.608398	-97.866035
31167.897181	1126.355000	1166.481445	-21.850904
31167.897181	1126.355000	1165.353516	12.966495
31167.897181	1126.355000	1164.225586	27.936642
31167.897181	1126.355000	1163.097656	96.492569
31167.897181	1126.355000	1161.968750	-99.370125
31167.897181	1126.355000	1160.840820	-26.833818
31167.897181	1126.355000	1159.711914	148.915451
31167.897181	1126.355000	1158.583008	96.083160
31167.897181	1126.355000	1157.453125	-6.158628
31167.897181	1126.355000	1156.324219	-57.452465
31167.897181	1126.355000	1155.194336	-98.322945
31167.897181	1126.355000	1154.064453	-107.623741
31167.897181	1126.355000	1152.933594	-87.733879
31167.897181	1126.355000	1151.803711	-40.104710
31167.897181	1126.355000	1150.672852	-175.668716
31167.897181	1126.355000	1149.541992	-122.484253
31167.897181	1126.355000	1148.411133	-327.452057
31167.897181	1126.355000	1147.279297	-256.030701
31167.897181	1126.355000	1146.147461	-124.027199
31167.897181	1126.355000	1145.015625	-267.302246
31167.897181	1126.355000	1143.883789	7.175073
31167.897181	1126.355000	1142.750977	-82.230858
31167.897181	1126.355000	1141.619141	-171.245926
31167.897181	1126.355000	1140.486328	-131.981934
31167.897181	1126.355000	1139.352539	-41.377945
31167.897181	1126.355000	1138.219727	51.300747
31167.897181	1126.355000	1137.085938	108.393944
31167.897181	1126.355000	1135.952148	62.077026
31167.897181	1126.355000	1134.818359	12.060719
31167.897181	1126.355000	1133.683594	142.766357
31167.897181	1126.355000	1132.549805	277.148407
31167.897181	1126.355000	1131.415039	257.136597
31167.897181	1126.355000	1130.279297	384.285126
31167.897181	1126.355000	1129.144531	446.264954
31167.897181	1126.355000	1128.008789	744.961243
31167.897181	1126.355000	1126.873047	558.883362
31167.897181	1126.355000	1125.737305	556.638611
31167.897181	1126.355000	1124.601563	487.860565
31167.897181	1126.355000	1123.464844	541.919128
31167.897181	1126.355000	1122.328125	489.584686
31167.897181	1126.355000	1121.191406	384.205902
31167.897181	1126.355000	1120.054688	554.471130
31167.897181	1126.355000	1118.916992	420.773224
31167.897181	1126.355000	1117.779297	395.242584
31167.897181	1126.355000	1116.641602	344.429871
31167.897181	1126.355000	1115.503906	403.007019
31167.897181	1126.355000	1114.365234	391.769867
31167.897181	1126.355000	1113.226563	323.919464
31167.897181	1126.355000	1112.087891	202.578903
31167.897181	1126.355000	1110.949219	292.769684
31167.897181	1126.355000	1109.809570	408.888916
31167.897181	1126.355000	1108.669922	420.435944
31167.897181	1126.355000	1107.530273	443.066101
31167.897181	1126.355000	1106.390625	332.789276
31167.897181	1126.355000	1105.250000	346.028534
31167.897181	1126.355000	1104.109375	428.821777
31167.897181	1126.355000	1102.968750	533.749207
31167.897181	1126.355000	1101.828125	602.930054
31167.897181	1126.355000	1100.686523	381.523529
31167.897181	1126.355000	1099.544922	631.328552
31167.897181	1126.355000	1098.403320	481.810211
31167.897181	1126.355000	1097.261719	786.759705
31167.897181	1126.355000	1096.120117	557.672363
31167.897181	1126.355000	1094.977539	724.347412
31167.897181	1126.355000	1093.834961	835.040588
31167.897181	1126.355000	1092.691406	735.125122
31167.897181	1126.355000	1091.548828	713.138245
31167.897181	1126.355000	1090.405273	705.651428
31167.897181	1126.355000	1089.261719	494.903290
31167.897181	1126.355000	1088.118164	670.979004
31167.897181	1126.355000	1086.973633	543.714294
31167.897181	1126.355000	1085.829102	384.244598
31167.897181	1126.355000	1084.684570	125.795731
31167.897181	1126.355000	1083.540039	150.848495
31167.897181	1126.355000	1082.395508	103.942291
31167.897181	1126.355000	1081.250000	316.402710
31167.897181	1126.355000	1080.104492	317.723999
31167.897181	1126.355000	1078.958984	224.303955
31167.897181	1126.355000	1077.812500	216.963074
31167.897181	1126.355000	1076.666016	244.274002
31167.897181	1126.355000	1075.519531	214.117035
31167.897181	1126.355000	1074.373047	195.228882
31167.897181	1126.355000	1073.226563	353.874603
31167.897181	1126.355000	1072.079102	337.497314
31167.897181	1126.355000	1070.931641	436.348877
31167.897181	1126.355000	1069.784180	306.523499
31167.897181	1126.355000	1068.635742	404.412231
31167.897181	1126.355000	1067.487305	105.388435
31167.897181	1126.355000	1066.338867	512.008179
31167.897181	1126.355000	1065.190430	394.810089
31167.897181	1126.355000	1064.041992	750.108032
31167.897181	1126.355000	1062.892578	395.912842
31167.897181	1126.355000	1061.743164	551.354187
31167.897181	1126.355000	1060.593750	532.937439
31167.897181	1126.355000	1059.443359	463.572571
31167.897181	1126.355000	1058.292969	411.263550
31167.897181	1126.355000	1057.142578	232.774567
31167.897181	1126.355000	1055.992188	173.091507
31167.897181	1126.355000	1054.841797	30.607494
31167.897181	1126.355000	1053.690430	314.970367
31167.897181	1126.355000	1052.539063	445.574249
31167.897181	1126.355000	1051.387695	271.098389
31167.897181	1126.355000	1050.235352	148.295853
31167.897181	1126.355000	1049.083984	61.619167
31167.897181	1126.355000	1047.931641	278.663696
31167.897181	1126.355000	1046.778320	232.457108
31167.897181	1126.355000	1045.625977	330.424103
31167.897181	1126.355000	1044.472656	152.452530
31167.897181	1126.355000	1043.319336	22.571016
31167.897181	1126.355000	1042.166016	169.734283
31167.897181	1126.355000	1041.012695	289.581604
31167.897181	1126.355000	1039.858398	121.158348
31167.897181	1126.355000	1038.704102	206.267899
31167.897181	1126.355000	1037.549805	274.001709
31167.897181	1126.355000	1036.394531	210.988937
31167.897181	1126.355000	1035.239258	180.731430
31167.897181	1126.355000	1034.083984	434.197601
31167.897181	1126.355000	1032.928711	156.138153
31167.897181	1126.355000	1031.773438	373.502899
31167.897181	1126.355000	1030.617188	313.549561
31167.897181	1126.355000	1029.460938	253.645660
31167.897181	1126.355000	1028.304688	215.729355
31167.897181	1126.355000	1027.147461	265.233887
31167.897181	1126.355000	1025.991211	356.486145
31167.897181	1126.355000	1024.833984	334.603821
31167.897181	1126.355000	1023.675781	409.018066
31167.897181	1126.355000	1022.518555	401.089386
31167.897181	1126.355000	1021.360352	325.730957
31167.897181	1126.355000	1020.202148	263.474976
31167.897181	1126.355000	1019.043945	345.354401
31167.897181	1126.355000	1017.884766	417.233551
31167.897181	1126.355000	1016.726563	97.922920
31167.897181	1126.355000	1015.567383	240.166031
31167.897181	1126.355000	1014.407227	223.815933
31167.897181	1126.355000	1013.248047	-130.037216
31167.897181	1126.355000	1012.087891	-82.814293
31167.897181	1126.355000	1010.927734	103.892464
31167.897181	1126.355000	1009.767578	149.262482
31167.897181	1126.355000	1008.606445	71.358826
31167.897181	1126.355000	1007.446289	68.512558
31167.897181	1126.355000	1006.285156	56.185917
31167.897181	1126.355000	1005.123047	158.500534
31167.897181	1126.355000	1003.961914	-20.645739
31167.897181	1126.355000	1002.799805	346.698242
31167.897181	1126.355000	1001.637695	211.161453
31167.897181	1126.355000	1000.475586	253.061050
31167.897181	1126.355000	999.312500	350.438110
31167.897181	1126.355000	998.149414	238.587875
31167.897181	1126.355000	996.986328	-38.830765
31167.897181	1126.355000	995.823242	181.851883
31167.897181	1126.355000	994.659180	-13.082114
31167.897181	1126.355000	993.496094	292.721252
31167.897181	1126.355000	992.332031	404.667114
31167.897181	1126.355000	991.166992	207.300964
31167.897181	1126.355000	990.002930	106.133408
31167.897181	1126.355000	988.837891	124.454971
31167.897181	1126.355000	987.672852	102.771347
31167.897181	1126.355000	986.506836	169.677689
31167.897181	1126.355000	985.341797	33.483879
31167.897181	1126.355000	984.175781	29.794447
31167.897181	1126.355000	983.009766	279.867249
31167.897181	1126.355000	981.843750	92.210854
31167.897181	1126.355000	980.676758	-48.562321
31167.897181	1126.355000	979.509766	81.183678
31167.897181	1126.355000	978.342773	305.610687
31167.897181	1126.355000	977.175781	53.778023
31167.897181	1126.355000	976.007813	-74.432541
31167.897181	1126.355000	974.839844	246.828018
31167.897181	1126.355000	973.671875	130.829941
31167.897181	1126.355000	972.503906	123.223320
31167.897181	1126.355000	971.334961	139.588974
31167.897181	1126.355000	970.166016	-44.842060
31167.897181	1126.355000	968.997070	-74.912849
31167.897181	1126.355000	967.828125	-91.505516
31167.897181	1126.355000	966.658203	39.489845
31167.897181	1126.355000	965.488281	-89.730713
31167.897181	1126.355000	964.318359	296.572723
31167.897181	1126.355000	963.148438	-137.021011
31167.897181	1126.355000	961.977539	250.771591
31167.897181	1126.355000	960.806641	135.803986
31167.897181	1126.355000	959.635742	116.921562
31167.897181	1126.355000	958.463867	77.585464
31167.897181	1126.355000	957.292969	280.654602
31167.897181	1126.355000	956.121094	222.979263
31167.897181	1126.355000	954.948242	158.865662
31167.897181	1126.355000	953.776367	80.366280
31167.897181	1126.355000	952.603516	237.276489
31167.897181	1126.355000	951.430664	83.050598
31167.897181	1126.355000	950.257813	149.733170
31167.897181	1126.355000	949.084961	378.649994
31167.897181	1126.355000	947.911133	390.748199
31167.897181	1126.355000	946.737305	185.437271
31167.897181	1126.355000	945.563477	149.076202
31167.897181	1126.355000	944.388672	399.737946
31167.897181	1126.355000	943.213867	201.464905
31167.897181	1126.355000	942.039063	187.002792
31167.897181	1126.355000	940.864258	206.014282
31167.897181	1126.355000	939.688477	301.905151
31167.897181	1126.355000	938.513672	433.829346
31167.897181	1126.355000	937.337891	358.554871
31167.897181	1126.355000	936.161133	177.249176
31167.897181	1126.355000	934.985352	292.411072
31167.897181	1126.355000	933.808594	291.775177
31167.897181	1126.355000	932.631836	305.612640
31167.897181	1126.355000	931.454102	367.524323
31167.897181	1126.355000	930.277344	376.422333
31167.897181	1126.355000	929.099609	551.509766
31167.897181	1126.355000	927.921875	437.470001
31167.897181	1126.355000	926.743164	419.762115
31167.897181	1126.355000	925.565430	252.826721
31167.897181	1126.355000	924.386719	198.989761
31167.897181	1126.355000	923.208008	393.024475
31167.897181	1126.355000	922.028320	204.412354
31167.897181	1126.355000	920.849609	174.604858
31167.897181	1126.355000	919.669922	178.728500
31167.897181	1126.355000	919.474609	58.882114
31167.897181	1126.355000	918.309570	197.331451
31167.897181	1126.355000	917.143555	76.054253
31167.897181	1126.355000	915.977539	228.812180
31167.897181	1126.355000	914.810547	61.866718
31167.897181	1126.355000	913.644531	-81.015900
31167.897181	1126.355000	912.477539	-91.743774
31167.897181	1126.355000	911.310547	-112.100105
31167.897181	1126.355000	910.143555	-53.234940
31167.897181	1126.355000	908.975586	-37.629105
31167.897181	1126.355000	907.807617	208.365860
31167.897181	1126.355000	906.639648	111.075493
31167.897181	1126.355000	905.471680	83.377060
31167.897181	1126.355000	904.303711	-49.879520
31167.897181	1126.355000	903.134766	-48.800224
31167.897181	1126.355000	901.965820	-64.529495
31167.897181	1126.355000	900.796875	22.806988
31167.897181	1126.355000	899.626953	-352.493530
31167.897181	1126.355000	898.457031	17.586647
31167.897181	1126.355000	897.287109	71.245064
31167.897181	1126.355000	896.117188	48.209503
31167.897181	1126.355000	894.947266	-34.711201
31167.897181	1126.355000	893.776367	57.170689
31167.897181	1126.355000	892.605469	55.632694
31167.897181	1126.355000	891.434570	204.855698
31167.897181	1126.355000	890.262695	57.281258
31167.897181	1126.355000	889.091797	139.413574
31167.897181	1126.355000	887.919922	75.586670
31167.897181	1126.355000	886.748047	-167.591782
31167.897181	1126.355000	885.575195	132.053055
31167.897181	1126.355000	884.403320	-115.860260
31167.897181	1126.355000	883.230469	109.521675
31167.897181	1126.355000	882.057617	-49.914162
31167.897181	1126.355000	880.883789	-44.461777
31167.897181	1126.355000	879.710938	-110.690987
31167.897181	1126.355000	878.537109	-270.041534
31167.897181	1126.355000	877.362305	-23.467487
31167.897181	1126.355000	876.188477	77.375488
31167.897181	1126.355000	875.013672	-12.764009
31167.897181	1126.355000	873.839844	-16.991812
31167.897181	1126.355000	872.664063	-147.667145
31167.897181	1126.355000	871.489258	-94.660149
31167.897181	1126.355000	870.313477	46.537365
31167.897181	1126.355000	869.138672	275.865570
31167.897181	1126.355000	867.962891	109.403847
31167.897181	1126.355000	866.786133	55.000813
31167.897181	1126.355000	865.610352	-13.699195
31167.897181	1126.355000	864.433594	-165.763397
31167.897181	1126.355000	863.256836	177.599609
31167.897181	1126.355000	862.079102	-176.877243
31167.897181	1126.355000	860.902344	-7.482151
31167.897181	1126.355000	859.724609	-173.780548
31167.897181	1126.355000	858.546875	-194.869659
31167.897181	1126.355000	857.368164	-104.143631
31167.897181	1126.355000	856.190430	-163.337814
31167.897181	1126.355000	855.011719	39.080822
31167.897181	1126.355000	853.833008	-165.199768
31167.897181	1126.355000	852.654297	-93.654297
31167.897181	1126.355000	851.474609	191.753632
31167.897181	1126.355000	850.294922	-262.001862
31167.897181	1126.355000	849.115234	-40.865234
31167.897181	1126.355000	847.935547	-214.141312
31167.897181	1126.355000	846.754883	-138.008636
31167.897181	1126.355000	845.575195	37.790829
31167.897181	1126.355000	844.393555	-187.678772
31167.897181	1126.355000	843.212891	35.484921
31167.897181	1126.355000	842.032227	-149.598877
31167.897181	1126.355000	840.850586	-140.090271
31167.897181	1126.355000	839.668945	16.448782
31167.897181	1126.355000	838.486328	-16.808899
31167.897181	1126.355000	837.304688	37.646885
31167.897181	1126.355000	836.122070	-118.910332
31167.897181	1126.355000	834.939453	-126.118629
31167.897181	1126.355000	833.756836	-171.258499
31167.897181	1126.355000	832.573242	-199.819366
31167.897181	1126.355000	831.389648	-244.971497
31167.897181	1126.355000	830.206055	-5.970032
31167.897181	1126.355000	829.022461	-155.362091
31167.897181	1126.355000	827.838867	-200.567871
31167.897181	1126.355000	826.654297	-144.018326
31167.897181	1126.355000	825.469727	-182.158096
31167.897181	1126.355000	824.284180	-23.966032
31167.897181	1126.355000	823.099609	58.452221
31167.897181	1126.355000	821.914063	-22.345217
31167.897181	1126.355000	820.728516	-22.756031
31167.897181	1126.355000	819.542969	-195.735611
31167.897181	1126.355000	818.356445	-203.252243
31167.897181	1126.355000	817.169922	-106.838318
31167.897181	1126.355000	815.983398	-31.750046
31167.897181	1126.355000	814.796875	7.853067
31167.897181	1126.355000	813.609375	163.111023
31167.897181	1126.355000	812.422852	77.483963
31167.897181	1126.355000	811.235352	249.126236
31167.897181	1126.355000	810.046875	210.654572
31167.897181	1126.355000	808.859375	-63.752949
31167.897181	1126.355000	807.670898	-69.181435
31167.897181	1126.355000	806.482422	-39.265659
31167.897181	1126.355000	805.293945	54.265469
31167.897181	1126.355000	804.104492	131.227493
31167.897181	1126.355000	802.915039	193.984726
31167.897181	1126.355000	801.725586	-7.221076
31167.897181	1126.355000	800.536133	161.483734
31167.897181	1126.355000	799.345703	188.768097
31167.897181	1126.355000	798.155273	107.684853
31167.897181	1126.355000	796.964844	57.208206
31167.897181	1126.355000	795.774414	131.470551
31167.897181	1126.355000	794.583008	73.880928
31167.897181	1126.355000	793.392578	178.625839
31167.897181	1126.355000	792.200195	302.112823
31167.897181	1126.355000	791.008789	-183.630981
31167.897181	1126.355000	789.816406	-39.031376
31167.897181	1126.355000	788.625000	91.364967
31167.897181	1126.355000	787.432617	99.447548
31167.897181	1126.355000	786.239258	236.736328
31167.897181	1126.355000	785.046875	289.346924
31167.897181	1126.355000	783.853516	-8.099894
31167.897181	1126.355000	782.660156	-18.947441
31167.897181	1126.355000	781.465820	40.610424
31167.897181	1126.355000	780.272461	175.221786
31167.897181	1126.355000	779.078125	276.879211
31167.897181	1126.355000	777.883789	197.768814
31167.897181	1126.355000	776.688477	109.264961
31167.897181	1126.355000	775.494141	114.577522
31167.897181	1126.355000	774.298828	72.942924
31167.897181	1126.355000	773.103516	-111.737732
31167.897181	1126.355000	771.907227	62.262318
31167.897181	1126.355000	770.711914	93.184464
31167.897181	1126.355000	769.515625	-25.910927
31167.897181	1126.355000	768.318359	112.688469
31167.897181	1126.355000	767.122070	26.336586
31167.897181	1126.355000	765.924805	117.941216
31167.897181	1126.355000	764.727539	33.872478
31167.897181	1126.355000	763.530273	87.890671
31167.897181	1126.355000	762.333008	-57.077885
31167.897181	1126.355000	761.134766	67.032089
31167.897181	1126.355000	759.936523	169.989319
31167.897181	1126.355000	758.738281	242.449600
31167.897181	1126.355000	757.540039	36.577560
31167.897181	1126.355000	756.340820	-166.922028
31167.897181	1126.355000	755.141602	66.685547
31167.897181	1126.355000	753.942383	94.505333
31167.897181	1126.355000	752.742188	-24.925978
31167.897181	1126.355000	751.541992	-113.993660
31167.897181	1126.355000	750.341797	-149.365112
31167.897181	1126.355000	749.141602	195.805939
31167.897181	1126.355000	747.941406	41.226105
31167.897181	1126.355000	746.740234	248.406525
31167.897181	1126.355000	745.539063	236.107651
31167.897181	1126.355000	744.337891	-25.862312
31167.897181	1126.355000	743.135742	101.736168
31167.897181	1126.355000	741.933594	-78.590218
31167.897181	1126.355000	740.731445	-249.572311
31167.897181	1126.355000	739.529297	134.228989
31167.897181	1126.355000	738.326172	65.700508
31167.897181	1126.355000	737.124023	129.953217
31167.897181	1126.355000	735.919922	170.824951
31167.897181	1126.355000	734.716797	153.396133
31167.897181	1126.355000	733.513672	215.086777
31167.897181	1126.355000	732.309570	260.394867
31167.897181	1126.355000	731.105469	140.368561
31167.897181	1126.355000	729.900391	197.188370
31167.897181	1126.355000	728.696289	256.253082
31167.897181	1126.355000	727.491211	243.121262
31167.897181	1126.355000	726.286133	250.865692
31167.897181	1126.355000	725.080078	246.918686
31167.897181	1126.355000	723.874023	91.811188
31167.897181	1126.355000	722.668945	36.646614
31167.897181	1126.355000	721.461914	-97.564011
31167.897181	1126.355000	720.255859	81.848480
31167.897181	1126.355000	719.048828	-40.826534
31167.897181	1126.355000	717.841797	208.038864
31167.897181	1126.355000	716.634766	-7.606320
31167.897181	1126.355000	715.427734	-125.731979
31167.897181	1126.355000	714.219727	-113.912041
31167.897181	1126.355000	713.011719	-71.997833
31167.897181	1126.355000	711.803711	-259.821533
31167.897181	1126.355000	710.594727	-46.396614
31167.897181	1126.355000	709.385742	-266.740265
31167.897181	1126.355000	708.176758	-79.033226
31167.897181	1126.355000	706.967773	-109.345940
31167.897181	1126.355000	705.758789	27.138899
31167.897181	1126.355000	704.548828	61.557030
31167.897181	1126.355000	703.338867	144.541031
31167.897181	1126.355000	702.127930	-110.696297
31167.897181	1126.355000	700.917969	97.188789
31167.897181	1126.355000	699.707031	126.671730
31167.897181	1126.355000	698.496094	-170.256226
31167.897181	1126.355000	697.285156	-8.966177
31167.897181	1126.355000	696.073242	133.681274
31167.897181	1126.355000	694.861328	292.394348
31167.897181	1126.355000	693.649414	178.102814
31167.897181	1126.355000	692.436523	218.694946
31167.897181	1126.355000	691.224609	441.816193
31167.897181	1126.355000	690.011719	87.020439
31167.897181	1126.355000	688.798828	404.674408
31167.897181	1126.355000	687.584961	237.016907
31167.897181	1126.355000	686.372070	455.063904
31167.897181	1126.355000	685.158203	490.535004
31167.897181	1126.355000	683.943359	708.302246
31167.897181	1126.355000	682.729492	628.170166
31167.897181	1126.355000	681.514648	774.150940
31167.897181	1126.355000	680.299805	532.407776
31167.897181	1126.355000	679.084961	542.127441
31167.897181	1126.355000	677.869141	657.858948
31167.897181	1126.355000	676.653320	489.878937
31167.897181	1126.355000	675.437500	328.823456
31167.897181	1126.355000	674.221680	271.482849
31167.897181	1126.355000	673.004883	244.056442
31167.897181	1126.355000	671.789063	343.287262
31167.897181	1126.355000	670.571289	205.172791
31167.897181	1126.355000	669.354492	350.297363
31167.897181	1126.355000	668.136719	149.954620
31167.897181	1126.355000	666.919922	225.853806
31167.897181	1126.355000	665.701172	225.710754
31167.897181	1126.355000	664.483398	285.331085
31167.897181	1126.355000	663.264648	386.269836
31167.897181	1126.355000	662.045898	178.926544
31167.897181	1126.355000	660.827148	33.695267
31167.897181	1126.355000	659.608398	26.398829
31167.897181	1126.355000	658.388672	90.294815
31167.897181	1126.355000	657.168945	278.193146
31167.897181	1126.355000	655.949219	263.782867
31167.897181	1126.355000	654.728516	49.484646
31167.897181	1126.355000	653.507813	12.047992
31167.897181	1126.355000	652.287109	254.680618
31167.897181	1126.355000	651.066406	38.059994
31167.897181	1126.355000	649.844727	317.193542
31167.897181	1126.355000	648.623047	245.094727
31167.897181	1126.355000	647.401367	205.091461
31167.897181	1126.355000	646.179688	410.461884
31167.897181	1126.355000	644.957031	558.364685
31167.897181	1126.355000	643.734375	87.161270
31167.897181	1126.355000	642.511719	429.797760
31167.897181	1126.355000	641.289063	224.548492
31167.897181	1126.355000	640.065430	149.928528
31167.897181	1126.355000	638.841797	111.943062
31167.897181	1126.355000	637.618164	199.886932
31167.897181	1126.355000	636.393555	136.625809
31167.897181	1126.355000	635.168945	309.133759
31167.897181	1126.355000	633.944336	236.635391
31167.897181	1126.355000	632.719727	74.884644
31167.897181	1126.355000	631.494141	141.930725
31167.897181	1126.355000	630.269531	261.519073
31167.897181	1126.355000	629.042969	241.515961
31167.897181	1126.355000	627.817383	317.512360
31167.897181	1126.355000	626.590820	148.855560
31167.897181	1126.355000	625.365234	39.657574
31167.897181	1126.355000	624.137695	72.119347
31167.897181	1126.355000	622.911133	147.942612
31167.897181	1126.355000	621.683594	-25.244184
31167.897181	1126.355000	620.456055	121.282639
31167.897181	1126.355000	619.228516	139.876831
31167.897181	1126.355000	618.000977	302.224213
31167.897181	1126.355000	616.772461	-42.112438
31167.897181	1126.355000	615.543945	10.637623
31167.897181	1126.355000	614.314453	-141.948151
31167.897181	1126.355000	613.085938	-185.026688
31167.897181	1126.355000	611.856445	27.242191
31167.897181	1126.355000	610.626953	-2.225147
31167.897181	1126.355000	609.397461	125.551163
31167.897181	1126.355000	608.166992	-131.819168
31167.897181	1126.355000	606.936523	-42.836674
31167.897181	1126.355000	605.706055	-88.283165
31167.897181	1126.355000	604.474609	-28.984463
31167.897181	1126.355000	603.244141	53.047344
31167.897181	1126.355000	602.012695	23.499083
31167.897181	1126.355000	600.780273	155.516724
31167.897181	1126.355000	599.548828	94.089211
31167.897181	1126.355000	598.316406	230.569412
31167.897181	1126.355000	597.083984	-17.346748
31167.897181	1126.355000	595.851563	-244.698792
31167.897181	1126.355000	594.618164	-119.616142
31167.897181	1126.355000	593.384766	14.502424
31167.897181	1126.355000	592.151367	-94.563225
31167.897181	1126.355000	590.917969	-99.080101
31167.897181	1126.355000	589.683594	-74.070160
31167.897181	1126.355000	588.449219	-167.145996
31167.897181	1126.355000	587.214844	-205.687881
31167.897181	1126.355000	585.979492	21.357479
31167.897181	1126.355000	584.745117	-83.000397
31167.897181	1126.355000	583.509766	-253.103760
31167.897181	1126.355000	582.273438	-187.216599
31167.897181	1126.355000	581.038086	-280.089203
31167.897181	1126.355000	579.801758	-211.926056
31167.897181	1126.355000	578.565430	-266.186432
31167.897181	1126.355000	577.329102	15.026752
31167.897181	1126.355000	576.091797	123.925186
31167.897181	1126.355000	574.854492	101.403023
31167.897181	1126.355000	573.617188	38.146446
31167.897181	1126.355000	572.378906	99.485352
31167.897181	1126.355000	571.141602	88.382034
31167.897181	1126.355000	569.903320	165.586472
31167.897181	1126.355000	568.664063	-19.728765
31167.897181	1126.355000	567.425781	335.823273
31167.897181	1126.355000	566.186523	100.853073
31167.897181	1126.355000	564.947266	169.071960
31167.897181	1126.355000	563.708008	180.772537
31167.897181	1126.355000	562.467773	25.216536
31167.897181	1126.355000	561.227539	140.984329
31167.897181	1126.355000	559.987305	100.829422
31167.897181	1126.355000	558.747070	8.773882
31167.897181	1126.355000	557.505859	135.893021
31167.897181	1126.355000	556.264648	113.963303
31167.897181	1126.355000	555.023438	-50.144627
31167.897181	1126.355000	553.781250	-87.731339
31167.897181	1126.355000	552.539063	25.953089
31167.897181	1126.355000	551.296875	-250.693390
31167.897181	1126.355000	550.054688	145.061127
31167.897181	1126.355000	548.811523	146.017731
31167.897181	1126.355000	547.569336	81.646889
31167.897181	1126.355000	546.325195	161.632324
31167.897181	1126.355000	545.082031	119.939529
31167.897181	1126.355000	543.837891	-65.893097
31167.897181	1126.355000	542.593750	66.075226
31167.897181	1126.355000	541.349609	-430.372009
31167.897181	1126.355000	540.105469	-115.843910
31167.897181	1126.355000	538.860352	4.988149
31167.897181	1126.355000	537.615234	285.655426
31167.897181	1126.355000	536.369141	68.910446
31167.897181	1126.355000	535.124023	63.834610
31167.897181	1126.355000	533.877930	-154.876816
31167.897181	1126.355000	532.631836	13.414479
31167.897181	1126.355000	531.384766	85.016747
31167.897181	1126.355000	530.138672	-315.429657
31167.897181	1126.355000	528.891602	-113.276062
31167.897181	1126.355000	527.643555	25.945364
31167.897181	1126.355000	526.396484	23.649843
31167.897181	1126.355000	525.148438	68.600548
31167.897181	1126.355000	523.900391	-21.128433
31167.897181	1126.355000	522.652344	354.013306
31167.897181	1126.355000	521.403320	298.089996
31167.897181	1126.355000	520.154297	314.086487
31167.897181	1126.355000	518.905273	251.627213
31167.897181	1126.355000	517.656250	323.872711
31167.897181	1126.355000	516.406250	241.414597
31167.897181	1126.355000	515.156250	396.759613
31167.897181	1126.355000	513.906250	101.515335
31167.897181	1126.355000	512.655273	-112.832108
31167.897181	1126.355000	511.404297	-37.935555
31167.897181	1126.355000	510.153320	227.444214
31167.897181	1126.355000	508.902344	-156.774017
31167.897181	1126.355000	507.650391	5.669265
31167.897181	1126.355000	506.398438	-40.094215
31167.897181	1126.355000	505.146484	10.497660
31167.897181	1126.355000	503.893555	-153.695114
31167.897181	1126.355000	502.641602	-109.648865
31167.897181	1126.355000	501.388672	-40.935249
31167.897181	1126.355000	500.134766	-59.396622
31167.897181	1126.355000	498.881836	-84.475822
31167.897181	1126.355000	497.627930	140.914764
31167.897181	1126.355000	496.374023	-199.188171
31167.897181	1126.355000	495.119141	28.517496
31167.897181	1126.355000	493.865234	-9.656148
31167.897181	1126.355000	492.610352	-14.237647
31167.897181	1126.355000	491.355469	5.821686
31167.897181	1126.355000	490.099609	66.129395
31167.897181	1126.355000	488.843750	-45.398037
31167.897181	1126.355000	487.587891	164.556824
31167.897181	1126.355000	486.332031	53.189213
31167.897181	1126.355000	485.075195	60.162025
31167.897181	1126.355000	483.818359	93.956421
31167.897181	1126.355000	482.561523	272.731079
31167.897181	1126.355000	481.304688	279.828186
31167.897181	1126.355000	480.046875	362.754883
31167.897181	1126.355000	478.789063	274.114685
31167.897181	1126.355000	477.531250	457.359589
31167.897181	1126.355000	476.272461	339.872467
31167.897181	1126.355000	475.013672	91.091072
31167.897181	1126.355000	473.754883	267.700378
31167.897181	1126.355000	472.496094	297.354889
31167.897181	1126.355000	471.236328	95.579460
31167.897181	1126.355000	469.976563	556.961487
31167.897181	1126.355000	468.716797	579.939026
31167.897181	1126.355000	467.456055	591.804138
31167.897181	1126.355000	466.196289	459.146942
31167.897181	1126.355000	464.935547	337.670593
31167.897181	1126.355000	463.673828	405.168945
31167.897181	1126.355000	462.413086	441.526459
31167.897181	1126.355000	461.151367	533.401733
31167.897181	1126.355000	459.889648	376.455750
31167.897181	1126.355000	458.626953	521.567749
31167.897181	1126.355000	457.364258	513.400269
31167.897181	1126.355000	456.101563	582.895142
31167.897181	1126.355000	454.838867	743.308594
31167.897181	1126.355000	453.575195	592.984802
31167.897181	1126.355000	452.312500	560.243225
31167.897181	1126.355000	451.047852	500.841187
31167.897181	1126.355000	449.784180	652.042786
31167.897181	1126.355000	448.519531	526.001831
31167.897181	1126.355000	447.254883	466.423035
31167.897181	1126.355000	445.990234	442.232635
31167.897181	1126.355000	444.725586	750.261963
31167.897181	1126.355000	443.459961	670.440613
31167.897181	1126.355000	442.194336	769.904907
31167.897181	1126.355000	440.927734	501.682312
31167.897181	1126.355000	439.662109	738.111389
31167.897181	1126.355000	438.395508	850.363098
31167.897181	1126.355000	437.127930	862.844666
31167.897181	1126.355000	435.861328	850.822327
31167.897181	1126.355000	434.593750	575.449646
31167.897181	1126.355000	433.326172	812.975830
31167.897181	1126.355000	432.058594	1036.933472
31167.897181	1126.355000	430.790039	1154.492676
31167.897181	1126.355000	429.521484	993.360229
31167.897181	1126.355000	428.252930	1141.341064
31167.897181	1126.355000	426.984375	1355.265869
31167.897181	1126.355000	425.714844	1102.899780
31167.897181	1126.355000	424.445313	925.426025
31167.897181	1126.355000	423.174805	955.212952
31167.897181	1126.355000	421.905273	1026.611572
31167.897181	1126.355000	420.634766	963.069397
31167.897181	1126.355000	419.364258	1075.680420
31167.897181	1126.355000	418.092773	1373.132568
31167.897181	1126.355000	416.822266	1140.923706
31167.897181	1126.355000	415.550781	1153.111084
31167.897181	1126.355000	414.278320	1100.969971
31167.897181	1126.355000	413.006836	1209.284180
31167.897181	1126.355000	411.734375	1103.421875
31167.897181	1126.355000	410.461914	889.226379
31167.897181	1126.355000	409.188477	1077.603760
31167.897181	1126.355000	407.916016	1186.156128
31167.897181	1126.355000	406.642578	1140.066650
31167.897181	1126.355000	405.368164	976.823853
31167.897181	1126.355000	404.094727	1110.112061
31167.897181	1126.355000	402.820313	1266.952148
31167.897181	1126.355000	401.545898	1126.242310
31167.897181	1126.355000	400.270508	1349.936890
31167.897181	1126.355000	398.996094	1306.920898
31167.897181	1126.355000	397.720703	1234.674438
31167.897181	1126.355000	396.444336	1458.379761
31167.897181	1126.355000	395.168945	1329.804932
31167.897181	1126.355000	393.892578	1345.484253
31167.897181	1126.355000	392.616211	1505.311157
31167.897181	1126.355000	391.339844	1306.441040
31167.897181	1126.355000	390.062500	1269.240479
31167.897181	1126.355000	388.785156	1209.264526
31167.897181	1126.355000	387.507813	1258.132446
31167.897181	1126.355000	386.229492	992.403320
31167.897181	1126.355000	384.951172	1008.741638
31167.897181	1126.355000	383.672852	1271.855591
31167.897181	1126.355000	382.394531	821.473511
31167.897181	1126.355000	381.115234	795.392151
31167.897181	1126.355000	379.835938	1090.342773
31167.897181	1126.355000	378.556641	1035.781982
31167.897181	1126.355000	377.277344	769.876770
31167.897181	1126.355000	375.997070	940.825378
31167.897181	1126.355000	374.716797	871.896606
31167.897181	1126.355000	373.435547	768.917114
31167.897181	1126.355000	372.155273	785.093933
31167.897181	1126.355000	370.874023	627.113342
31167.897181	1126.355000	369.591797	612.191772
31167.897181	1126.355000	368.310547	753.373962
31167.897181	1126.355000	367.028320	761.877014
31167.897181	1126.355000	365.746094	808.266113
31167.897181	1126.355000	364.463867	658.650391
31167.897181	1126.355000	363.180664	1020.964172
31167.897181	1126.355000	361.897461	800.506165
31167.897181	1126.355000	360.614258	746.679810
31167.897181	1126.355000	359.330078	946.633179
31167.897181	1126.355000	358.045898	843.545837
31167.897181	1126.355000	356.761719	773.666504
31167.897181	1126.355000	355.477539	693.288025
31167.897181	1126.355000	354.192383	665.591614
31167.897181	1126.355000	352.907227	832.298706
31167.897181	1126.355000	351.622070	597.947510
31167.897181	1126.355000	350.336914	747.572510
31167.897181	1126.355000	349.050781	764.262512
31167.897181	1126.355000	347.764648	473.767242
31167.897181	1126.355000	346.477539	512.347168
31167.897181	1126.355000	345.191406	746.965698
31167.897181	1126.355000	343.904297	454.344574
31167.897181	1126.355000	342.616211	427.271210
31167.897181	1126.355000	341.329102	378.299286
31167.897181	1126.355000	340.041016	215.865723
31167.897181	1126.355000	338.752930	-46.900993
31167.897181	1126.355000	337.463867	240.357254
31167.897181	1126.355000	336.175781	57.349369
31167.897181	1126.355000	334.886719	108.682541
31167.897181	1126.355000	333.596680	-29.772133
31167.897181	1126.355000	332.307617	11.663005
31167.897181	1126.355000	331.017578	171.819839
31167.897181	1126.355000	329.727539	7.442347
31167.897181	1126.355000	328.436523	170.193375
31167.897181	1126.355000	327.146484	386.333801
31167.897181	1126.355000	325.855469	-8.741714
31167.897181	1126.355000	324.563477	68.406136
31167.897181	1126.355000	323.272461	-94.228531
31167.897181	1126.355000	321.980469	50.008289
31167.897181	1126.355000	320.688477	164.708130
31167.897181	1126.355000	319.395508	93.575592
31167.897181	1126.355000	318.103516	-56.916885
31167.897181	1126.355000	316.810547	42.505543
31167.897181	1126.355000	315.516602	-243.415054
31167.897181	1126.355000	314.223633	-158.096008
31167.897181	1126.355000	312.929688	-219.820267
31167.897181	1126.355000	311.635742	-123.092140
31167.897181	1126.355000	310.340820	-97.744072
31167.897181	1126.355000	309.045898	3.505880
31167.897181	1126.355000	307.750977	-59.728867
31167.897181	1126.355000	306.456055	-32.088181
31167.897181	1126.355000	305.160156	6.102441
31167.897181	1126.355000	303.865234	3.083148
31167.897181	1126.355000	302.568359	-188.659943
31167.897181	1126.355000	301.272461	304.765259
31167.897181	1126.355000	299.975586	609.259338
31167.897181	1126.355000	298.678711	454.845306
