#X		#Y		#Wave		#Intensity
23193.304521	2457.052000	1999.980469	-89.502319
23193.304521	2457.052000	1999.016602	54.380192
23193.304521	2457.052000	1998.052734	-148.063446
23193.304521	2457.052000	1997.087891	-256.983948
23193.304521	2457.052000	1996.123047	94.265739
23193.304521	2457.052000	1995.158203	-216.721466
23193.304521	2457.052000	1994.193359	-174.087418
23193.304521	2457.052000	1993.228516	370.568512
23193.304521	2457.052000	1992.262695	-31.361156
23193.304521	2457.052000	1991.297852	155.377884
23193.304521	2457.052000	1990.332031	86.553795
23193.304521	2457.052000	1989.366211	-61.995174
23193.304521	2457.052000	1988.399414	172.439804
23193.304521	2457.052000	1987.433594	5.536001
23193.304521	2457.052000	1986.466797	21.196022
23193.304521	2457.052000	1985.500977	-124.368385
23193.304521	2457.052000	1984.534180	449.049194
23193.304521	2457.052000	1983.567383	107.266396
23193.304521	2457.052000	1982.599609	491.719208
23193.304521	2457.052000	1981.632813	260.373596
23193.304521	2457.052000	1980.665039	416.547974
23193.304521	2457.052000	1979.697266	-82.242393
23193.304521	2457.052000	1978.729492	-35.487621
23193.304521	2457.052000	1977.761719	398.513184
23193.304521	2457.052000	1976.792969	187.730545
23193.304521	2457.052000	1975.825195	127.240334
23193.304521	2457.052000	1974.856445	323.080902
23193.304521	2457.052000	1973.887695	-142.644409
23193.304521	2457.052000	1972.918945	35.310432
23193.304521	2457.052000	1971.949219	148.797531
23193.304521	2457.052000	1970.980469	116.495735
23193.304521	2457.052000	1970.010742	-46.707710
23193.304521	2457.052000	1969.041016	162.095093
23193.304521	2457.052000	1968.071289	15.720877
23193.304521	2457.052000	1967.101563	206.737961
23193.304521	2457.052000	1966.130859	141.278366
23193.304521	2457.052000	1965.161133	139.684021
23193.304521	2457.052000	1964.190430	88.652092
23193.304521	2457.052000	1963.219727	-38.861122
23193.304521	2457.052000	1962.249023	389.834290
23193.304521	2457.052000	1961.277344	166.002838
23193.304521	2457.052000	1960.306641	170.957443
23193.304521	2457.052000	1959.334961	3.554326
23193.304521	2457.052000	1958.363281	160.776611
23193.304521	2457.052000	1957.391602	362.090179
23193.304521	2457.052000	1956.419922	96.032936
23193.304521	2457.052000	1955.447266	95.476402
23193.304521	2457.052000	1954.474609	40.752785
23193.304521	2457.052000	1953.501953	-63.188660
23193.304521	2457.052000	1952.529297	338.981934
23193.304521	2457.052000	1951.556641	89.935974
23193.304521	2457.052000	1950.583984	-14.172940
23193.304521	2457.052000	1949.610352	-120.756432
23193.304521	2457.052000	1948.636719	-99.682426
23193.304521	2457.052000	1947.663086	56.352379
23193.304521	2457.052000	1946.689453	8.580740
23193.304521	2457.052000	1945.715820	90.850441
23193.304521	2457.052000	1944.741211	300.635284
23193.304521	2457.052000	1943.767578	333.711761
23193.304521	2457.052000	1942.792969	65.101341
23193.304521	2457.052000	1941.818359	-142.119797
23193.304521	2457.052000	1940.842773	99.365051
23193.304521	2457.052000	1939.868164	95.649979
23193.304521	2457.052000	1938.892578	-47.750202
23193.304521	2457.052000	1937.916992	259.747742
23193.304521	2457.052000	1936.941406	-59.992672
23193.304521	2457.052000	1935.965820	154.347031
23193.304521	2457.052000	1934.990234	297.608521
23193.304521	2457.052000	1934.013672	122.550674
23193.304521	2457.052000	1933.037109	-52.416134
23193.304521	2457.052000	1932.060547	-58.413612
23193.304521	2457.052000	1931.083984	-157.360519
23193.304521	2457.052000	1930.107422	59.369129
23193.304521	2457.052000	1929.129883	48.568707
23193.304521	2457.052000	1928.153320	-89.357841
23193.304521	2457.052000	1927.175781	-19.350294
23193.304521	2457.052000	1926.198242	-174.237915
23193.304521	2457.052000	1925.219727	-25.930876
23193.304521	2457.052000	1924.242188	88.159317
23193.304521	2457.052000	1923.263672	319.538025
23193.304521	2457.052000	1922.285156	-79.382622
23193.304521	2457.052000	1921.306641	130.068924
23193.304521	2457.052000	1920.328125	214.960510
23193.304521	2457.052000	1919.349609	-181.104935
23193.304521	2457.052000	1918.370117	-157.098724
23193.304521	2457.052000	1917.391602	35.366695
23193.304521	2457.052000	1916.412109	-128.445633
23193.304521	2457.052000	1915.431641	-128.673340
23193.304521	2457.052000	1914.452148	-170.304642
23193.304521	2457.052000	1913.472656	88.118370
23193.304521	2457.052000	1912.492188	36.836987
23193.304521	2457.052000	1911.511719	51.464432
23193.304521	2457.052000	1910.531250	97.838860
23193.304521	2457.052000	1909.550781	156.446762
23193.304521	2457.052000	1908.569336	-55.357468
23193.304521	2457.052000	1907.588867	-52.639908
23193.304521	2457.052000	1906.607422	-47.422432
23193.304521	2457.052000	1905.625977	-0.745162
23193.304521	2457.052000	1904.644531	-39.233433
23193.304521	2457.052000	1903.662109	51.371288
23193.304521	2457.052000	1902.680664	-64.863434
23193.304521	2457.052000	1901.698242	-78.791306
23193.304521	2457.052000	1900.715820	179.831924
23193.304521	2457.052000	1899.733398	-128.336319
23193.304521	2457.052000	1898.750000	-142.057114
23193.304521	2457.052000	1897.767578	-111.943665
23193.304521	2457.052000	1896.784180	-188.749817
23193.304521	2457.052000	1895.800781	366.492554
23193.304521	2457.052000	1894.817383	-43.188381
23193.304521	2457.052000	1893.833984	169.344818
23193.304521	2457.052000	1892.850586	-26.258755
23193.304521	2457.052000	1891.866211	-61.436066
23193.304521	2457.052000	1890.881836	-69.834839
23193.304521	2457.052000	1889.897461	-303.974121
23193.304521	2457.052000	1888.913086	20.335911
23193.304521	2457.052000	1887.927734	72.750076
23193.304521	2457.052000	1886.943359	-229.081146
23193.304521	2457.052000	1885.958008	-181.399429
23193.304521	2457.052000	1884.972656	-293.782806
23193.304521	2457.052000	1883.987305	-15.633488
23193.304521	2457.052000	1883.001953	194.560333
23193.304521	2457.052000	1882.015625	125.926025
23193.304521	2457.052000	1881.029297	76.742592
23193.304521	2457.052000	1880.042969	-62.052513
23193.304521	2457.052000	1879.056641	68.177338
23193.304521	2457.052000	1878.070313	-341.814087
23193.304521	2457.052000	1877.083984	-37.140202
23193.304521	2457.052000	1876.096680	76.144638
23193.304521	2457.052000	1875.109375	-168.909531
23193.304521	2457.052000	1874.122070	-113.691635
23193.304521	2457.052000	1873.134766	193.221832
23193.304521	2457.052000	1872.146484	-10.524287
23193.304521	2457.052000	1871.159180	105.164085
23193.304521	2457.052000	1870.170898	116.813248
23193.304521	2457.052000	1869.182617	-118.204819
23193.304521	2457.052000	1868.194336	-0.115163
23193.304521	2457.052000	1867.205078	-126.224205
23193.304521	2457.052000	1866.216797	168.270889
23193.304521	2457.052000	1865.227539	206.503799
23193.304521	2457.052000	1864.238281	-124.940750
23193.304521	2457.052000	1863.249023	2.702319
23193.304521	2457.052000	1862.259766	328.336731
23193.304521	2457.052000	1861.269531	-5.381142
23193.304521	2457.052000	1860.279297	-22.716276
23193.304521	2457.052000	1859.290039	225.459015
23193.304521	2457.052000	1858.298828	109.104980
23193.304521	2457.052000	1857.308594	26.555052
23193.304521	2457.052000	1856.318359	26.037748
23193.304521	2457.052000	1855.327148	90.619385
23193.304521	2457.052000	1854.335938	27.337770
23193.304521	2457.052000	1853.344727	255.789917
23193.304521	2457.052000	1852.353516	332.254486
23193.304521	2457.052000	1851.362305	37.482723
23193.304521	2457.052000	1850.370117	251.238068
23193.304521	2457.052000	1849.377930	4.699062
23193.304521	2457.052000	1848.385742	158.074051
23193.304521	2457.052000	1847.393555	-59.543900
23193.304521	2457.052000	1846.401367	204.453949
23193.304521	2457.052000	1845.408203	-18.007147
23193.304521	2457.052000	1844.415039	-26.215181
23193.304521	2457.052000	1843.421875	-111.487213
23193.304521	2457.052000	1842.428711	168.941742
23193.304521	2457.052000	1841.435547	470.854248
23193.304521	2457.052000	1840.441406	156.855042
23193.304521	2457.052000	1839.448242	367.142914
23193.304521	2457.052000	1838.454102	139.697372
23193.304521	2457.052000	1837.459961	-54.081612
23193.304521	2457.052000	1836.464844	86.209221
23193.304521	2457.052000	1835.470703	185.519318
23193.304521	2457.052000	1834.475586	111.729980
23193.304521	2457.052000	1833.480469	-19.762407
23193.304521	2457.052000	1832.485352	249.774033
23193.304521	2457.052000	1831.490234	387.059509
23193.304521	2457.052000	1830.495117	478.587646
23193.304521	2457.052000	1829.499023	243.556198
23193.304521	2457.052000	1828.502930	277.291687
23193.304521	2457.052000	1827.506836	358.903015
23193.304521	2457.052000	1826.510742	296.452301
23193.304521	2457.052000	1825.513672	303.472900
23193.304521	2457.052000	1824.517578	118.549133
23193.304521	2457.052000	1823.520508	449.052734
23193.304521	2457.052000	1822.523438	153.685959
23193.304521	2457.052000	1821.526367	155.499237
23193.304521	2457.052000	1820.529297	408.793091
23193.304521	2457.052000	1819.531250	391.156952
23193.304521	2457.052000	1818.533203	198.553345
23193.304521	2457.052000	1817.535156	87.323868
23193.304521	2457.052000	1816.537109	239.392136
23193.304521	2457.052000	1815.539063	214.129059
23193.304521	2457.052000	1814.540039	227.037720
23193.304521	2457.052000	1813.541992	235.027466
23193.304521	2457.052000	1812.542969	-10.731452
23193.304521	2457.052000	1811.543945	23.341692
23193.304521	2457.052000	1810.543945	241.419464
23193.304521	2457.052000	1809.544922	177.119400
23193.304521	2457.052000	1808.544922	409.149902
23193.304521	2457.052000	1807.544922	356.504395
23193.304521	2457.052000	1806.544922	193.800156
23193.304521	2457.052000	1805.544922	274.730652
23193.304521	2457.052000	1804.544922	250.366394
23193.304521	2457.052000	1803.543945	151.812698
23193.304521	2457.052000	1802.542969	77.024864
23193.304521	2457.052000	1801.541992	83.288261
23193.304521	2457.052000	1800.541016	373.460571
23193.304521	2457.052000	1799.539063	305.359650
23193.304521	2457.052000	1798.538086	239.514679
23193.304521	2457.052000	1797.536133	230.787476
23193.304521	2457.052000	1796.534180	214.743729
23193.304521	2457.052000	1795.532227	105.530388
23193.304521	2457.052000	1794.529297	432.534943
23193.304521	2457.052000	1793.527344	270.540283
23193.304521	2457.052000	1792.524414	384.920532
23193.304521	2457.052000	1791.521484	172.605560
23193.304521	2457.052000	1790.518555	-23.124689
23193.304521	2457.052000	1789.514648	-40.297421
23193.304521	2457.052000	1788.511719	63.833027
23193.304521	2457.052000	1787.507813	303.475159
23193.304521	2457.052000	1786.503906	276.194733
23193.304521	2457.052000	1785.500000	146.390915
23193.304521	2457.052000	1784.496094	409.140747
23193.304521	2457.052000	1783.491211	283.748199
23193.304521	2457.052000	1782.486328	89.231010
23193.304521	2457.052000	1781.481445	115.806908
23193.304521	2457.052000	1780.476563	227.799118
23193.304521	2457.052000	1779.471680	246.835617
23193.304521	2457.052000	1778.465820	384.528290
23193.304521	2457.052000	1777.460938	343.730560
23193.304521	2457.052000	1776.455078	447.706085
23193.304521	2457.052000	1775.449219	59.651814
23193.304521	2457.052000	1774.442383	336.653687
23193.304521	2457.052000	1773.436523	-72.991920
23193.304521	2457.052000	1772.429688	329.393402
23193.304521	2457.052000	1771.422852	334.966461
23193.304521	2457.052000	1770.416016	186.058655
23193.304521	2457.052000	1769.409180	314.669434
23193.304521	2457.052000	1768.402344	-126.410759
23193.304521	2457.052000	1767.394531	127.537804
23193.304521	2457.052000	1766.386719	208.049942
23193.304521	2457.052000	1765.378906	32.230721
23193.304521	2457.052000	1764.371094	266.443024
23193.304521	2457.052000	1763.362305	287.015320
23193.304521	2457.052000	1762.354492	94.094200
23193.304521	2457.052000	1761.345703	74.010628
23193.304521	2457.052000	1760.336914	321.441437
23193.304521	2457.052000	1759.328125	312.765320
23193.304521	2457.052000	1758.318359	242.308060
23193.304521	2457.052000	1757.308594	204.823288
23193.304521	2457.052000	1756.299805	-95.606377
23193.304521	2457.052000	1755.290039	13.328467
23193.304521	2457.052000	1754.279297	129.105759
23193.304521	2457.052000	1753.269531	-96.044113
23193.304521	2457.052000	1752.258789	28.769278
23193.304521	2457.052000	1751.249023	-14.572463
23193.304521	2457.052000	1750.238281	-223.634674
23193.304521	2457.052000	1749.226563	-132.585709
23193.304521	2457.052000	1748.215820	192.242432
23193.304521	2457.052000	1747.204102	252.050964
23193.304521	2457.052000	1746.193359	165.155212
23193.304521	2457.052000	1745.181641	122.962761
23193.304521	2457.052000	1744.168945	-172.151627
23193.304521	2457.052000	1743.157227	148.991913
23193.304521	2457.052000	1742.144531	141.622177
23193.304521	2457.052000	1741.132813	-142.111404
23193.304521	2457.052000	1740.120117	-232.424088
23193.304521	2457.052000	1739.106445	-160.106873
23193.304521	2457.052000	1738.093750	-90.358765
23193.304521	2457.052000	1737.080078	-256.724091
23193.304521	2457.052000	1736.067383	67.313782
23193.304521	2457.052000	1735.053711	65.631737
23193.304521	2457.052000	1734.040039	82.613586
23193.304521	2457.052000	1733.025391	-30.254629
23193.304521	2457.052000	1732.011719	38.187946
23193.304521	2457.052000	1730.997070	-103.294487
23193.304521	2457.052000	1729.982422	223.842911
23193.304521	2457.052000	1728.967773	-167.650925
23193.304521	2457.052000	1727.952148	-326.095398
23193.304521	2457.052000	1726.937500	-34.995605
23193.304521	2457.052000	1725.921875	-64.331207
23193.304521	2457.052000	1724.906250	-112.671516
23193.304521	2457.052000	1723.890625	83.515762
23193.304521	2457.052000	1722.875000	20.671144
23193.304521	2457.052000	1721.858398	-188.175980
23193.304521	2457.052000	1720.841797	-166.683960
23193.304521	2457.052000	1719.825195	-114.820389
23193.304521	2457.052000	1718.808594	228.314392
23193.304521	2457.052000	1717.791992	28.246975
23193.304521	2457.052000	1716.774414	112.367401
23193.304521	2457.052000	1715.756836	158.686295
23193.304521	2457.052000	1714.739258	113.204971
23193.304521	2457.052000	1713.721680	215.506805
23193.304521	2457.052000	1712.704102	-13.463449
23193.304521	2457.052000	1711.685547	79.060501
23193.304521	2457.052000	1710.667969	72.817703
23193.304521	2457.052000	1709.649414	-11.053315
23193.304521	2457.052000	1708.630859	111.394981
23193.304521	2457.052000	1707.611328	71.752594
23193.304521	2457.052000	1706.592773	-101.702942
23193.304521	2457.052000	1705.573242	-68.939705
23193.304521	2457.052000	1704.553711	-62.144199
23193.304521	2457.052000	1703.534180	7.769189
23193.304521	2457.052000	1702.513672	39.973839
23193.304521	2457.052000	1701.494141	-143.528427
23193.304521	2457.052000	1700.473633	31.265606
23193.304521	2457.052000	1699.453125	-70.532806
23193.304521	2457.052000	1698.432617	3.171841
23193.304521	2457.052000	1697.412109	280.373505
23193.304521	2457.052000	1696.390625	-320.477783
23193.304521	2457.052000	1695.369141	-50.668518
23193.304521	2457.052000	1694.347656	169.748428
23193.304521	2457.052000	1693.326172	165.353058
23193.304521	2457.052000	1692.304688	186.539871
23193.304521	2457.052000	1691.282227	317.459503
23193.304521	2457.052000	1690.260742	219.079941
23193.304521	2457.052000	1689.238281	34.085300
23193.304521	2457.052000	1688.214844	-55.181019
23193.304521	2457.052000	1687.192383	241.025177
23193.304521	2457.052000	1686.168945	279.971283
23193.304521	2457.052000	1685.146484	244.048538
23193.304521	2457.052000	1684.123047	175.289505
23193.304521	2457.052000	1683.099609	195.149719
23193.304521	2457.052000	1682.075195	25.763311
23193.304521	2457.052000	1681.051758	204.102585
23193.304521	2457.052000	1680.027344	391.560608
23193.304521	2457.052000	1679.002930	382.843475
23193.304521	2457.052000	1677.978516	329.691620
23193.304521	2457.052000	1676.953125	318.395020
23193.304521	2457.052000	1675.928711	374.634125
23193.304521	2457.052000	1674.903320	449.361633
23193.304521	2457.052000	1673.877930	491.319366
23193.304521	2457.052000	1672.852539	404.978333
23193.304521	2457.052000	1671.826172	605.122314
23193.304521	2457.052000	1670.800781	497.616272
23193.304521	2457.052000	1669.774414	527.437561
23193.304521	2457.052000	1668.748047	673.576538
23193.304521	2457.052000	1667.721680	407.480865
23193.304521	2457.052000	1666.694336	362.496429
23193.304521	2457.052000	1665.667969	352.370087
23193.304521	2457.052000	1664.640625	553.869324
23193.304521	2457.052000	1663.613281	543.504578
23193.304521	2457.052000	1662.585938	616.790039
23193.304521	2457.052000	1661.557617	627.149292
23193.304521	2457.052000	1660.530273	760.675781
23193.304521	2457.052000	1659.501953	782.464478
23193.304521	2457.052000	1658.473633	606.619934
23193.304521	2457.052000	1657.444336	665.432922
23193.304521	2457.052000	1656.416016	854.274597
23193.304521	2457.052000	1655.386719	812.995483
23193.304521	2457.052000	1654.358398	799.558716
23193.304521	2457.052000	1653.328125	716.354614
23193.304521	2457.052000	1652.298828	958.142456
23193.304521	2457.052000	1651.269531	909.658203
23193.304521	2457.052000	1650.239258	1153.491089
23193.304521	2457.052000	1649.208984	1028.287231
23193.304521	2457.052000	1648.178711	1264.937988
23193.304521	2457.052000	1647.148438	1295.041504
23193.304521	2457.052000	1646.117188	1385.345215
23193.304521	2457.052000	1645.086914	1364.321045
23193.304521	2457.052000	1644.055664	1127.679810
23193.304521	2457.052000	1643.024414	1389.321899
23193.304521	2457.052000	1641.992188	1303.262207
23193.304521	2457.052000	1640.960938	1849.621216
23193.304521	2457.052000	1639.928711	1712.486694
23193.304521	2457.052000	1638.896484	1894.923096
23193.304521	2457.052000	1637.864258	1787.874634
23193.304521	2457.052000	1636.832031	1465.576050
23193.304521	2457.052000	1635.798828	1742.737671
23193.304521	2457.052000	1634.766602	1684.304443
23193.304521	2457.052000	1633.733398	1399.143188
23193.304521	2457.052000	1632.699219	1932.809204
23193.304521	2457.052000	1631.666016	1973.735840
23193.304521	2457.052000	1630.632813	2234.275879
23193.304521	2457.052000	1629.598633	1773.486938
23193.304521	2457.052000	1628.564453	1798.199463
23193.304521	2457.052000	1627.530273	2116.351563
23193.304521	2457.052000	1626.495117	2143.270508
23193.304521	2457.052000	1625.460938	2292.625977
23193.304521	2457.052000	1624.425781	2340.296631
23193.304521	2457.052000	1623.390625	2561.120605
23193.304521	2457.052000	1622.355469	2532.564941
23193.304521	2457.052000	1621.319336	2547.859863
23193.304521	2457.052000	1620.284180	2579.344482
23193.304521	2457.052000	1619.248047	2606.196777
23193.304521	2457.052000	1618.211914	2628.447510
23193.304521	2457.052000	1617.174805	2842.096680
23193.304521	2457.052000	1616.138672	2875.875488
23193.304521	2457.052000	1615.101563	2946.528564
23193.304521	2457.052000	1614.065430	2683.017578
23193.304521	2457.052000	1613.027344	2850.506104
23193.304521	2457.052000	1611.990234	3015.689453
23193.304521	2457.052000	1610.953125	3226.918701
23193.304521	2457.052000	1609.915039	3173.236572
23193.304521	2457.052000	1608.876953	3372.904297
23193.304521	2457.052000	1607.838867	3374.561279
23193.304521	2457.052000	1606.800781	3173.723877
23193.304521	2457.052000	1605.761719	3348.089111
23193.304521	2457.052000	1604.723633	3522.467529
23193.304521	2457.052000	1603.684570	3528.889648
23193.304521	2457.052000	1602.644531	3539.944580
23193.304521	2457.052000	1601.605469	3705.146973
23193.304521	2457.052000	1600.566406	3725.516602
23193.304521	2457.052000	1599.526367	3582.727783
23193.304521	2457.052000	1598.486328	3775.582275
23193.304521	2457.052000	1597.446289	3605.414063
23193.304521	2457.052000	1596.405273	3678.863037
23193.304521	2457.052000	1595.365234	4044.072021
23193.304521	2457.052000	1594.324219	3745.574707
23193.304521	2457.052000	1593.283203	3885.778076
23193.304521	2457.052000	1592.242188	3704.662842
23193.304521	2457.052000	1591.200195	4118.068359
23193.304521	2457.052000	1590.159180	3682.473877
23193.304521	2457.052000	1589.117188	3953.678467
23193.304521	2457.052000	1588.075195	3768.451416
23193.304521	2457.052000	1587.032227	3560.442383
23193.304521	2457.052000	1585.990234	3740.103271
23193.304521	2457.052000	1584.947266	4052.723633
23193.304521	2457.052000	1583.904297	3831.343994
23193.304521	2457.052000	1582.861328	3759.095215
23193.304521	2457.052000	1581.818359	3698.443115
23193.304521	2457.052000	1580.775391	3697.477295
23193.304521	2457.052000	1579.731445	3575.237305
23193.304521	2457.052000	1578.687500	3462.321289
23193.304521	2457.052000	1577.643555	3599.081543
23193.304521	2457.052000	1576.598633	3310.201660
23193.304521	2457.052000	1575.554688	3229.809082
23193.304521	2457.052000	1574.509766	3270.804688
23193.304521	2457.052000	1573.464844	3391.969971
23193.304521	2457.052000	1572.419922	3234.225098
23193.304521	2457.052000	1571.374023	2800.000488
23193.304521	2457.052000	1570.329102	2834.724854
23193.304521	2457.052000	1569.283203	2908.407959
23193.304521	2457.052000	1568.237305	2733.131104
23193.304521	2457.052000	1567.191406	2992.144287
23193.304521	2457.052000	1566.144531	2543.090088
23193.304521	2457.052000	1565.098633	2699.567383
23193.304521	2457.052000	1564.051758	2611.801758
23193.304521	2457.052000	1563.004883	2579.010742
23193.304521	2457.052000	1561.957031	2366.061768
23193.304521	2457.052000	1560.910156	2821.974121
23193.304521	2457.052000	1559.862305	2472.488770
23193.304521	2457.052000	1558.814453	2540.728516
23193.304521	2457.052000	1557.766602	2572.615234
23193.304521	2457.052000	1556.718750	2399.445801
23193.304521	2457.052000	1555.669922	2164.937988
23193.304521	2457.052000	1554.621094	2356.909668
23193.304521	2457.052000	1553.573242	2519.372559
23193.304521	2457.052000	1552.523438	2205.733398
23193.304521	2457.052000	1551.474609	2252.319824
23193.304521	2457.052000	1550.424805	2194.283691
23193.304521	2457.052000	1549.375000	1983.892578
23193.304521	2457.052000	1548.325195	1871.658081
23193.304521	2457.052000	1547.275391	1966.773315
23193.304521	2457.052000	1546.225586	2016.525146
23193.304521	2457.052000	1545.174805	1472.599976
23193.304521	2457.052000	1544.124023	1682.018433
23193.304521	2457.052000	1543.073242	1618.629883
23193.304521	2457.052000	1542.022461	1637.316650
23193.304521	2457.052000	1540.970703	1692.549072
23193.304521	2457.052000	1539.919922	1316.112549
23193.304521	2457.052000	1538.868164	1533.127563
23193.304521	2457.052000	1537.815430	1725.248779
23193.304521	2457.052000	1536.763672	1847.090210
23193.304521	2457.052000	1535.710938	1557.992310
23193.304521	2457.052000	1534.659180	1652.980835
23193.304521	2457.052000	1533.606445	1611.904419
23193.304521	2457.052000	1532.552734	1614.163818
23193.304521	2457.052000	1531.500000	1550.835938
23193.304521	2457.052000	1530.446289	1626.132202
23193.304521	2457.052000	1529.393555	1597.279175
23193.304521	2457.052000	1528.338867	1648.000977
23193.304521	2457.052000	1527.285156	1460.837891
23193.304521	2457.052000	1526.231445	1568.693604
23193.304521	2457.052000	1525.176758	1336.709106
23193.304521	2457.052000	1524.122070	1324.861816
23193.304521	2457.052000	1523.067383	1245.267944
23193.304521	2457.052000	1522.012695	1150.069702
23193.304521	2457.052000	1520.957031	1374.470947
23193.304521	2457.052000	1519.901367	1091.774414
23193.304521	2457.052000	1518.845703	1026.760498
23193.304521	2457.052000	1517.790039	1000.481323
23193.304521	2457.052000	1516.734375	782.080383
23193.304521	2457.052000	1515.677734	706.530396
23193.304521	2457.052000	1514.621094	583.736328
23193.304521	2457.052000	1513.564453	569.789063
23193.304521	2457.052000	1512.507813	522.164307
23193.304521	2457.052000	1511.450195	486.085419
23193.304521	2457.052000	1510.393555	678.573547
23193.304521	2457.052000	1509.335938	545.776001
23193.304521	2457.052000	1508.278320	390.676331
23193.304521	2457.052000	1507.219727	34.811260
23193.304521	2457.052000	1506.162109	469.856293
23193.304521	2457.052000	1505.103516	105.569778
23193.304521	2457.052000	1504.044922	-7.721981
23193.304521	2457.052000	1502.986328	55.345104
23193.304521	2457.052000	1501.926758	-138.655991
23193.304521	2457.052000	1500.868164	520.588379
23193.304521	2457.052000	1499.808594	279.692261
23193.304521	2457.052000	1498.749023	350.396729
23193.304521	2457.052000	1497.688477	351.410370
23193.304521	2457.052000	1496.628906	411.300659
23193.304521	2457.052000	1495.568359	158.083893
23193.304521	2457.052000	1494.507813	-182.673767
23193.304521	2457.052000	1493.447266	-34.086967
23193.304521	2457.052000	1492.386719	238.596786
23193.304521	2457.052000	1491.325195	76.716263
23193.304521	2457.052000	1490.263672	401.565094
23193.304521	2457.052000	1489.202148	649.993347
23193.304521	2457.052000	1488.140625	-260.691833
23193.304521	2457.052000	1487.079102	294.357574
23193.304521	2457.052000	1486.016602	120.403374
23193.304521	2457.052000	1484.954102	425.952637
23193.304521	2457.052000	1483.891602	625.927673
23193.304521	2457.052000	1482.829102	360.586517
23193.304521	2457.052000	1481.765625	199.027802
23193.304521	2457.052000	1480.702148	96.243881
23193.304521	2457.052000	1479.638672	308.395172
23193.304521	2457.052000	1478.575195	455.552246
23193.304521	2457.052000	1477.511719	540.051208
23193.304521	2457.052000	1476.447266	433.831604
23193.304521	2457.052000	1475.382813	568.243774
23193.304521	2457.052000	1474.318359	20.414907
23193.304521	2457.052000	1473.253906	283.218079
23193.304521	2457.052000	1472.189453	546.368286
23193.304521	2457.052000	1471.124023	318.350952
23193.304521	2457.052000	1470.058594	393.353088
23193.304521	2457.052000	1468.993164	591.796631
23193.304521	2457.052000	1467.927734	595.738098
23193.304521	2457.052000	1466.861328	839.333923
23193.304521	2457.052000	1465.794922	762.685913
23193.304521	2457.052000	1464.728516	801.362427
23193.304521	2457.052000	1463.662109	812.568359
23193.304521	2457.052000	1462.594727	649.417969
23193.304521	2457.052000	1461.528320	878.463867
23193.304521	2457.052000	1460.460938	761.263000
23193.304521	2457.052000	1459.393555	532.439087
23193.304521	2457.052000	1458.326172	981.040649
23193.304521	2457.052000	1457.257813	1006.218262
23193.304521	2457.052000	1456.189453	1134.663208
23193.304521	2457.052000	1455.121094	891.429749
23193.304521	2457.052000	1454.052734	965.254028
23193.304521	2457.052000	1452.984375	1095.735229
23193.304521	2457.052000	1451.915039	804.234009
23193.304521	2457.052000	1450.845703	808.746887
23193.304521	2457.052000	1449.776367	1026.519531
23193.304521	2457.052000	1448.707031	902.582764
23193.304521	2457.052000	1447.636719	1026.844849
23193.304521	2457.052000	1446.567383	903.913940
23193.304521	2457.052000	1445.497070	908.548523
23193.304521	2457.052000	1444.425781	583.141479
23193.304521	2457.052000	1443.355469	1002.502380
23193.304521	2457.052000	1442.285156	564.594666
23193.304521	2457.052000	1441.213867	670.683289
23193.304521	2457.052000	1440.142578	969.609985
23193.304521	2457.052000	1439.070313	1074.915527
23193.304521	2457.052000	1437.999023	1102.340698
23193.304521	2457.052000	1436.926758	1194.347046
23193.304521	2457.052000	1435.854492	1247.034912
23193.304521	2457.052000	1434.782227	1185.352661
23193.304521	2457.052000	1433.709961	1143.215698
23193.304521	2457.052000	1432.636719	1051.629028
23193.304521	2457.052000	1431.563477	1130.006348
23193.304521	2457.052000	1430.490234	838.108704
23193.304521	2457.052000	1429.416992	753.550415
23193.304521	2457.052000	1428.343750	699.262207
23193.304521	2457.052000	1427.269531	840.615540
23193.304521	2457.052000	1426.195313	743.315796
23193.304521	2457.052000	1425.121094	622.403076
23193.304521	2457.052000	1424.046875	672.165527
23193.304521	2457.052000	1422.971680	715.479248
23193.304521	2457.052000	1421.896484	506.425568
23193.304521	2457.052000	1420.821289	545.626648
23193.304521	2457.052000	1419.746094	419.878235
23193.304521	2457.052000	1418.669922	516.668640
23193.304521	2457.052000	1417.594727	719.278137
23193.304521	2457.052000	1416.518555	598.186523
23193.304521	2457.052000	1415.442383	383.557587
23193.304521	2457.052000	1414.365234	650.562073
23193.304521	2457.052000	1413.289063	369.021484
23193.304521	2457.052000	1412.211914	452.215942
23193.304521	2457.052000	1411.134766	441.825989
23193.304521	2457.052000	1410.057617	667.985229
23193.304521	2457.052000	1408.979492	812.213013
23193.304521	2457.052000	1407.902344	607.441711
23193.304521	2457.052000	1406.824219	898.500610
23193.304521	2457.052000	1405.746094	832.404907
23193.304521	2457.052000	1404.666992	1012.838806
23193.304521	2457.052000	1403.588867	1069.883423
23193.304521	2457.052000	1402.509766	1067.599976
23193.304521	2457.052000	1401.430664	1144.909058
23193.304521	2457.052000	1400.351563	877.283936
23193.304521	2457.052000	1399.271484	1141.938965
23193.304521	2457.052000	1398.192383	907.652527
23193.304521	2457.052000	1397.112305	1036.239624
23193.304521	2457.052000	1396.031250	1084.685669
23193.304521	2457.052000	1394.951172	1194.713013
23193.304521	2457.052000	1393.871094	1222.212280
23193.304521	2457.052000	1392.790039	813.269836
23193.304521	2457.052000	1391.708984	696.072083
23193.304521	2457.052000	1390.626953	873.907104
23193.304521	2457.052000	1389.545898	869.772400
23193.304521	2457.052000	1388.463867	1033.870972
23193.304521	2457.052000	1387.381836	1062.579590
23193.304521	2457.052000	1386.299805	827.804871
23193.304521	2457.052000	1385.217773	949.582336
23193.304521	2457.052000	1384.134766	1060.595825
23193.304521	2457.052000	1383.051758	1203.129272
23193.304521	2457.052000	1381.968750	1201.163696
23193.304521	2457.052000	1380.885742	1052.308716
23193.304521	2457.052000	1379.802734	614.949402
23193.304521	2457.052000	1378.718750	660.561401
23193.304521	2457.052000	1377.634766	892.298889
23193.304521	2457.052000	1376.550781	918.330139
23193.304521	2457.052000	1375.465820	673.051147
23193.304521	2457.052000	1374.381836	604.881836
23193.304521	2457.052000	1373.296875	776.670654
23193.304521	2457.052000	1372.211914	745.106140
23193.304521	2457.052000	1371.126953	935.500977
23193.304521	2457.052000	1370.041016	1092.521484
23193.304521	2457.052000	1368.955078	779.927856
23193.304521	2457.052000	1367.869141	935.347229
23193.304521	2457.052000	1366.783203	752.209412
23193.304521	2457.052000	1365.697266	878.077026
23193.304521	2457.052000	1364.610352	520.324341
23193.304521	2457.052000	1363.523438	724.310120
23193.304521	2457.052000	1362.436523	763.975891
23193.304521	2457.052000	1361.349609	1135.595337
23193.304521	2457.052000	1360.261719	800.662109
23193.304521	2457.052000	1359.174805	1053.603271
23193.304521	2457.052000	1358.086914	887.351624
23193.304521	2457.052000	1356.998047	1088.206665
23193.304521	2457.052000	1355.910156	1082.371582
23193.304521	2457.052000	1354.821289	1135.852539
23193.304521	2457.052000	1353.732422	1101.628052
23193.304521	2457.052000	1352.643555	1380.899292
23193.304521	2457.052000	1351.554688	1262.527832
23193.304521	2457.052000	1350.464844	1303.143188
23193.304521	2457.052000	1349.375000	1109.774292
23193.304521	2457.052000	1348.285156	1356.612427
23193.304521	2457.052000	1347.195313	1099.554199
23193.304521	2457.052000	1346.105469	1032.380737
23193.304521	2457.052000	1345.014648	1021.107361
23193.304521	2457.052000	1343.923828	1461.058838
23193.304521	2457.052000	1342.833008	1100.004761
23193.304521	2457.052000	1341.741211	848.425537
23193.304521	2457.052000	1340.650391	1064.955933
23193.304521	2457.052000	1339.558594	949.635315
23193.304521	2457.052000	1338.466797	1087.773926
23193.304521	2457.052000	1337.374023	1132.765015
23193.304521	2457.052000	1336.282227	798.662170
23193.304521	2457.052000	1335.189453	685.577820
23193.304521	2457.052000	1334.096680	946.009460
23193.304521	2457.052000	1333.003906	956.517578
23193.304521	2457.052000	1331.910156	1013.259399
23193.304521	2457.052000	1330.817383	896.385254
23193.304521	2457.052000	1329.723633	937.697937
23193.304521	2457.052000	1328.629883	1193.463989
23193.304521	2457.052000	1327.535156	1045.811646
23193.304521	2457.052000	1326.441406	943.855225
23193.304521	2457.052000	1325.346680	1163.869141
23193.304521	2457.052000	1324.251953	1479.865601
23193.304521	2457.052000	1323.156250	1207.879395
23193.304521	2457.052000	1322.061523	1203.899170
23193.304521	2457.052000	1320.965820	982.766418
23193.304521	2457.052000	1319.870117	1411.069092
23193.304521	2457.052000	1318.774414	1276.086304
23193.304521	2457.052000	1317.678711	1649.892090
23193.304521	2457.052000	1316.582031	1533.422607
23193.304521	2457.052000	1315.485352	1416.575562
23193.304521	2457.052000	1314.388672	1526.669556
23193.304521	2457.052000	1313.291016	1412.140381
23193.304521	2457.052000	1312.194336	1351.676392
23193.304521	2457.052000	1311.096680	1571.413574
23193.304521	2457.052000	1309.999023	1412.718262
23193.304521	2457.052000	1308.901367	1309.873535
23193.304521	2457.052000	1307.802734	1333.355103
23193.304521	2457.052000	1306.705078	1268.199829
23193.304521	2457.052000	1305.606445	1257.036621
23193.304521	2457.052000	1304.506836	1050.476929
23193.304521	2457.052000	1303.408203	885.469543
23193.304521	2457.052000	1302.308594	1108.258911
23193.304521	2457.052000	1301.208984	1407.884888
23193.304521	2457.052000	1300.109375	1224.339478
23193.304521	2457.052000	1299.009766	1146.200684
23193.304521	2457.052000	1297.909180	1067.952515
23193.304521	2457.052000	1296.808594	1252.649902
23193.304521	2457.052000	1295.708008	1064.898438
23193.304521	2457.052000	1294.607422	1044.619751
23193.304521	2457.052000	1293.506836	1105.464233
23193.304521	2457.052000	1292.405273	954.785034
23193.304521	2457.052000	1291.303711	753.477051
23193.304521	2457.052000	1290.202148	771.508911
23193.304521	2457.052000	1289.099609	736.804260
23193.304521	2457.052000	1287.998047	774.162170
23193.304521	2457.052000	1286.895508	689.900696
23193.304521	2457.052000	1285.792969	743.187927
23193.304521	2457.052000	1284.689453	567.574585
23193.304521	2457.052000	1283.586914	370.242310
23193.304521	2457.052000	1282.483398	643.232117
23193.304521	2457.052000	1281.379883	379.198303
23193.304521	2457.052000	1280.276367	615.072449
23193.304521	2457.052000	1279.171875	463.196472
23193.304521	2457.052000	1278.067383	436.425781
23193.304521	2457.052000	1276.962891	505.359955
23193.304521	2457.052000	1275.858398	579.407227
23193.304521	2457.052000	1274.753906	548.184753
23193.304521	2457.052000	1273.648438	432.972168
23193.304521	2457.052000	1272.542969	481.659821
23193.304521	2457.052000	1271.437500	308.915771
23193.304521	2457.052000	1270.331055	365.933655
23193.304521	2457.052000	1269.225586	477.047028
23193.304521	2457.052000	1268.119141	387.125580
23193.304521	2457.052000	1267.012695	201.368362
23193.304521	2457.052000	1265.906250	205.257874
23193.304521	2457.052000	1264.798828	130.542496
23193.304521	2457.052000	1263.691406	112.495499
23193.304521	2457.052000	1262.583984	282.771271
23193.304521	2457.052000	1261.476563	213.086731
23193.304521	2457.052000	1260.368164	173.760605
23193.304521	2457.052000	1259.260742	244.419464
23193.304521	2457.052000	1258.152344	307.731903
23193.304521	2457.052000	1257.043945	168.961517
23193.304521	2457.052000	1255.934570	215.370346
23193.304521	2457.052000	1254.825195	357.278656
23193.304521	2457.052000	1253.716797	59.592712
23193.304521	2457.052000	1252.606445	343.010468
23193.304521	2457.052000	1251.497070	242.758179
23193.304521	2457.052000	1250.387695	69.869415
23193.304521	2457.052000	1249.277344	171.108170
23193.304521	2457.052000	1248.166992	310.064392
23193.304521	2457.052000	1247.055664	313.378967
23193.304521	2457.052000	1245.945313	89.872368
23193.304521	2457.052000	1244.833984	221.824203
23193.304521	2457.052000	1243.722656	44.303074
23193.304521	2457.052000	1242.611328	191.428406
23193.304521	2457.052000	1241.499023	83.544121
23193.304521	2457.052000	1240.387695	105.521828
23193.304521	2457.052000	1239.275391	133.400650
23193.304521	2457.052000	1238.162109	136.282394
23193.304521	2457.052000	1237.049805	65.001762
23193.304521	2457.052000	1235.936523	153.877014
23193.304521	2457.052000	1234.823242	100.631393
23193.304521	2457.052000	1233.709961	-1.355808
23193.304521	2457.052000	1232.596680	-128.314667
23193.304521	2457.052000	1231.482422	104.840698
23193.304521	2457.052000	1230.369141	-30.470411
23193.304521	2457.052000	1229.253906	36.606335
23193.304521	2457.052000	1228.139648	-84.958290
23193.304521	2457.052000	1227.025391	5.923541
23193.304521	2457.052000	1225.910156	-272.670288
23193.304521	2457.052000	1224.794922	-229.906631
23193.304521	2457.052000	1223.679688	-237.249817
23193.304521	2457.052000	1222.563477	-84.274460
23193.304521	2457.052000	1221.447266	-169.092499
23193.304521	2457.052000	1220.331055	-195.558884
23193.304521	2457.052000	1219.214844	-251.374222
23193.304521	2457.052000	1218.098633	-223.641434
23193.304521	2457.052000	1216.981445	-162.386520
23193.304521	2457.052000	1215.864258	-80.799210
23193.304521	2457.052000	1214.747070	87.753922
23193.304521	2457.052000	1213.629883	40.605545
23193.304521	2457.052000	1212.511719	74.559547
23193.304521	2457.052000	1211.393555	53.217525
23193.304521	2457.052000	1210.275391	226.261795
23193.304521	2457.052000	1209.157227	192.790695
23193.304521	2457.052000	1208.038086	163.916504
23193.304521	2457.052000	1206.918945	150.983337
23193.304521	2457.052000	1205.799805	292.482147
23193.304521	2457.052000	1204.680664	173.847305
23193.304521	2457.052000	1203.560547	144.413483
23193.304521	2457.052000	1202.441406	165.513565
23193.304521	2457.052000	1201.321289	186.515335
23193.304521	2457.052000	1200.200195	162.518982
23193.304521	2457.052000	1199.080078	143.020020
23193.304521	2457.052000	1197.958984	137.356491
23193.304521	2457.052000	1196.837891	121.412384
23193.304521	2457.052000	1195.716797	74.846779
23193.304521	2457.052000	1194.594727	152.007523
23193.304521	2457.052000	1193.473633	155.016022
23193.304521	2457.052000	1192.351563	-78.886139
23193.304521	2457.052000	1191.229492	-78.007813
23193.304521	2457.052000	1190.106445	-140.694824
23193.304521	2457.052000	1188.984375	154.051956
23193.304521	2457.052000	1187.861328	38.051609
23193.304521	2457.052000	1186.738281	103.991768
23193.304521	2457.052000	1185.614258	28.012671
23193.304521	2457.052000	1184.491211	-142.795959
23193.304521	2457.052000	1183.367188	-165.627396
23193.304521	2457.052000	1182.243164	46.556026
23193.304521	2457.052000	1181.119141	-48.949680
23193.304521	2457.052000	1179.994141	-108.213638
23193.304521	2457.052000	1178.869141	-193.070923
23193.304521	2457.052000	1177.744141	96.012825
23193.304521	2457.052000	1176.619141	-6.076474
23193.304521	2457.052000	1175.493164	-151.646530
23193.304521	2457.052000	1174.368164	-85.379242
23193.304521	2457.052000	1173.242188	-314.600250
23193.304521	2457.052000	1172.115234	-102.216858
23193.304521	2457.052000	1170.989258	-2.345822
23193.304521	2457.052000	1169.862305	-34.797737
23193.304521	2457.052000	1168.735352	-121.320724
23193.304521	2457.052000	1167.608398	-2.136134
23193.304521	2457.052000	1166.481445	-179.805161
23193.304521	2457.052000	1165.353516	-35.341331
23193.304521	2457.052000	1164.225586	7.161983
23193.304521	2457.052000	1163.097656	-23.778215
23193.304521	2457.052000	1161.968750	-107.220657
23193.304521	2457.052000	1160.840820	-157.125854
23193.304521	2457.052000	1159.711914	-238.628342
23193.304521	2457.052000	1158.583008	-4.834538
23193.304521	2457.052000	1157.453125	-19.883608
23193.304521	2457.052000	1156.324219	-103.076950
23193.304521	2457.052000	1155.194336	-128.987366
23193.304521	2457.052000	1154.064453	-144.990341
23193.304521	2457.052000	1152.933594	-170.235153
23193.304521	2457.052000	1151.803711	-96.336723
23193.304521	2457.052000	1150.672852	-125.356941
23193.304521	2457.052000	1149.541992	-111.528206
23193.304521	2457.052000	1148.411133	-38.591106
23193.304521	2457.052000	1147.279297	-61.941490
23193.304521	2457.052000	1146.147461	37.249180
23193.304521	2457.052000	1145.015625	-10.341686
23193.304521	2457.052000	1143.883789	206.230927
23193.304521	2457.052000	1142.750977	197.311050
23193.304521	2457.052000	1141.619141	30.826860
23193.304521	2457.052000	1140.486328	-18.047047
23193.304521	2457.052000	1139.352539	-7.162802
23193.304521	2457.052000	1138.219727	140.144836
23193.304521	2457.052000	1137.085938	-26.881826
23193.304521	2457.052000	1135.952148	145.336899
23193.304521	2457.052000	1134.818359	364.824280
23193.304521	2457.052000	1133.683594	326.626678
23193.304521	2457.052000	1132.549805	457.826569
23193.304521	2457.052000	1131.415039	642.792175
23193.304521	2457.052000	1130.279297	866.130493
23193.304521	2457.052000	1129.144531	808.791931
23193.304521	2457.052000	1128.008789	1060.026855
23193.304521	2457.052000	1126.873047	842.738159
23193.304521	2457.052000	1125.737305	1004.726685
23193.304521	2457.052000	1124.601563	858.756042
23193.304521	2457.052000	1123.464844	661.326843
23193.304521	2457.052000	1122.328125	475.694092
23193.304521	2457.052000	1121.191406	717.180115
23193.304521	2457.052000	1120.054688	619.019287
23193.304521	2457.052000	1118.916992	751.528198
23193.304521	2457.052000	1117.779297	601.985901
23193.304521	2457.052000	1116.641602	552.661987
23193.304521	2457.052000	1115.503906	600.837769
23193.304521	2457.052000	1114.365234	446.831482
23193.304521	2457.052000	1113.226563	619.567078
23193.304521	2457.052000	1112.087891	445.216614
23193.304521	2457.052000	1110.949219	464.004852
23193.304521	2457.052000	1109.809570	405.831604
23193.304521	2457.052000	1108.669922	565.918274
23193.304521	2457.052000	1107.530273	609.460388
23193.304521	2457.052000	1106.390625	620.745239
23193.304521	2457.052000	1105.250000	746.043396
23193.304521	2457.052000	1104.109375	747.975159
23193.304521	2457.052000	1102.968750	768.788818
23193.304521	2457.052000	1101.828125	785.557007
23193.304521	2457.052000	1100.686523	637.114197
23193.304521	2457.052000	1099.544922	745.327332
23193.304521	2457.052000	1098.403320	899.814026
23193.304521	2457.052000	1097.261719	677.494446
23193.304521	2457.052000	1096.120117	805.325928
23193.304521	2457.052000	1094.977539	1047.615234
23193.304521	2457.052000	1093.834961	801.335510
23193.304521	2457.052000	1092.691406	756.816589
23193.304521	2457.052000	1091.548828	891.325378
23193.304521	2457.052000	1090.405273	776.675720
23193.304521	2457.052000	1089.261719	641.870422
23193.304521	2457.052000	1088.118164	824.757507
23193.304521	2457.052000	1086.973633	852.984985
23193.304521	2457.052000	1085.829102	514.839050
23193.304521	2457.052000	1084.684570	673.382813
23193.304521	2457.052000	1083.540039	643.382324
23193.304521	2457.052000	1082.395508	688.838074
23193.304521	2457.052000	1081.250000	716.913086
23193.304521	2457.052000	1080.104492	672.226379
23193.304521	2457.052000	1078.958984	391.872223
23193.304521	2457.052000	1077.812500	692.579712
23193.304521	2457.052000	1076.666016	545.716370
23193.304521	2457.052000	1075.519531	442.122437
23193.304521	2457.052000	1074.373047	728.761475
23193.304521	2457.052000	1073.226563	748.501221
23193.304521	2457.052000	1072.079102	611.363342
23193.304521	2457.052000	1070.931641	673.319336
23193.304521	2457.052000	1069.784180	508.572876
23193.304521	2457.052000	1068.635742	752.774292
23193.304521	2457.052000	1067.487305	502.963806
23193.304521	2457.052000	1066.338867	663.733765
23193.304521	2457.052000	1065.190430	784.963745
23193.304521	2457.052000	1064.041992	648.394714
23193.304521	2457.052000	1062.892578	498.592407
23193.304521	2457.052000	1061.743164	728.872986
23193.304521	2457.052000	1060.593750	743.092651
23193.304521	2457.052000	1059.443359	798.285645
23193.304521	2457.052000	1058.292969	705.422852
23193.304521	2457.052000	1057.142578	709.411072
23193.304521	2457.052000	1055.992188	343.831177
23193.304521	2457.052000	1054.841797	344.965088
23193.304521	2457.052000	1053.690430	431.352600
23193.304521	2457.052000	1052.539063	318.642700
23193.304521	2457.052000	1051.387695	361.226746
23193.304521	2457.052000	1050.235352	457.685303
23193.304521	2457.052000	1049.083984	342.666016
23193.304521	2457.052000	1047.931641	337.473755
23193.304521	2457.052000	1046.778320	577.630432
23193.304521	2457.052000	1045.625977	572.124146
23193.304521	2457.052000	1044.472656	337.325653
23193.304521	2457.052000	1043.319336	216.343674
23193.304521	2457.052000	1042.166016	250.317627
23193.304521	2457.052000	1041.012695	375.002228
23193.304521	2457.052000	1039.858398	372.727325
23193.304521	2457.052000	1038.704102	407.516052
23193.304521	2457.052000	1037.549805	333.498169
23193.304521	2457.052000	1036.394531	688.579346
23193.304521	2457.052000	1035.239258	163.992126
23193.304521	2457.052000	1034.083984	362.282166
23193.304521	2457.052000	1032.928711	149.524551
23193.304521	2457.052000	1031.773438	405.520874
23193.304521	2457.052000	1030.617188	380.123779
23193.304521	2457.052000	1029.460938	270.972351
23193.304521	2457.052000	1028.304688	211.460068
23193.304521	2457.052000	1027.147461	364.841614
23193.304521	2457.052000	1025.991211	214.852173
23193.304521	2457.052000	1024.833984	89.219078
23193.304521	2457.052000	1023.675781	82.214432
23193.304521	2457.052000	1022.518555	380.974243
23193.304521	2457.052000	1021.360352	-33.837128
23193.304521	2457.052000	1020.202148	122.591988
23193.304521	2457.052000	1019.043945	75.987053
23193.304521	2457.052000	1017.884766	78.100281
23193.304521	2457.052000	1016.726563	328.388733
23193.304521	2457.052000	1015.567383	15.102041
23193.304521	2457.052000	1014.407227	317.094360
23193.304521	2457.052000	1013.248047	62.789944
23193.304521	2457.052000	1012.087891	327.748566
23193.304521	2457.052000	1010.927734	397.934784
23193.304521	2457.052000	1009.767578	598.445190
23193.304521	2457.052000	1008.606445	133.804871
23193.304521	2457.052000	1007.446289	-4.694014
23193.304521	2457.052000	1006.285156	289.413849
23193.304521	2457.052000	1005.123047	232.783463
23193.304521	2457.052000	1003.961914	66.705391
23193.304521	2457.052000	1002.799805	-34.957001
23193.304521	2457.052000	1001.637695	47.700844
23193.304521	2457.052000	1000.475586	150.890717
23193.304521	2457.052000	999.312500	141.982956
23193.304521	2457.052000	998.149414	267.802185
23193.304521	2457.052000	996.986328	19.359053
23193.304521	2457.052000	995.823242	217.054810
23193.304521	2457.052000	994.659180	-20.226816
23193.304521	2457.052000	993.496094	121.483597
23193.304521	2457.052000	992.332031	-57.473183
23193.304521	2457.052000	991.166992	-14.272250
23193.304521	2457.052000	990.002930	-66.721207
23193.304521	2457.052000	988.837891	52.284058
23193.304521	2457.052000	987.672852	235.994476
23193.304521	2457.052000	986.506836	-150.880447
23193.304521	2457.052000	985.341797	-162.565842
23193.304521	2457.052000	984.175781	-55.409233
23193.304521	2457.052000	983.009766	-29.925102
23193.304521	2457.052000	981.843750	-61.784500
23193.304521	2457.052000	980.676758	31.003057
23193.304521	2457.052000	979.509766	145.196671
23193.304521	2457.052000	978.342773	156.638931
23193.304521	2457.052000	977.175781	-64.429108
23193.304521	2457.052000	976.007813	136.871490
23193.304521	2457.052000	974.839844	-27.217566
23193.304521	2457.052000	973.671875	4.449026
23193.304521	2457.052000	972.503906	165.805649
23193.304521	2457.052000	971.334961	-140.331451
23193.304521	2457.052000	970.166016	40.353786
23193.304521	2457.052000	968.997070	-32.450352
23193.304521	2457.052000	967.828125	-1.629839
23193.304521	2457.052000	966.658203	-45.966282
23193.304521	2457.052000	965.488281	-29.864159
23193.304521	2457.052000	964.318359	41.987820
23193.304521	2457.052000	963.148438	-16.145947
23193.304521	2457.052000	961.977539	113.187119
23193.304521	2457.052000	960.806641	163.817047
23193.304521	2457.052000	959.635742	139.844177
23193.304521	2457.052000	958.463867	104.467018
23193.304521	2457.052000	957.292969	84.925346
23193.304521	2457.052000	956.121094	-168.993912
23193.304521	2457.052000	954.948242	-116.126114
23193.304521	2457.052000	953.776367	358.221802
23193.304521	2457.052000	952.603516	54.684219
23193.304521	2457.052000	951.430664	106.157791
23193.304521	2457.052000	950.257813	110.158798
23193.304521	2457.052000	949.084961	246.473038
23193.304521	2457.052000	947.911133	118.462700
23193.304521	2457.052000	946.737305	118.346840
23193.304521	2457.052000	945.563477	50.530376
23193.304521	2457.052000	944.388672	-109.265251
23193.304521	2457.052000	943.213867	285.661530
23193.304521	2457.052000	942.039063	171.977264
23193.304521	2457.052000	940.864258	199.811462
23193.304521	2457.052000	939.688477	229.832687
23193.304521	2457.052000	938.513672	152.254288
23193.304521	2457.052000	937.337891	79.057281
23193.304521	2457.052000	936.161133	-70.935593
23193.304521	2457.052000	934.985352	206.426636
23193.304521	2457.052000	933.808594	303.601379
23193.304521	2457.052000	932.631836	419.845032
23193.304521	2457.052000	931.454102	396.941132
23193.304521	2457.052000	930.277344	421.908051
23193.304521	2457.052000	929.099609	602.667725
23193.304521	2457.052000	927.921875	641.929810
23193.304521	2457.052000	926.743164	393.622223
23193.304521	2457.052000	925.565430	452.038818
23193.304521	2457.052000	924.386719	342.700958
23193.304521	2457.052000	923.208008	465.746063
23193.304521	2457.052000	922.028320	107.267883
23193.304521	2457.052000	920.849609	472.142517
23193.304521	2457.052000	919.669922	476.385223
23193.304521	2457.052000	919.474609	30.651386
23193.304521	2457.052000	918.309570	151.114410
23193.304521	2457.052000	917.143555	-125.795341
23193.304521	2457.052000	915.977539	78.350586
23193.304521	2457.052000	914.810547	-100.391350
23193.304521	2457.052000	913.644531	91.657867
23193.304521	2457.052000	912.477539	180.774841
23193.304521	2457.052000	911.310547	147.891983
23193.304521	2457.052000	910.143555	134.122833
23193.304521	2457.052000	908.975586	137.066666
23193.304521	2457.052000	907.807617	111.312172
23193.304521	2457.052000	906.639648	-79.296692
23193.304521	2457.052000	905.471680	-4.726485
23193.304521	2457.052000	904.303711	-47.223110
23193.304521	2457.052000	903.134766	-120.761688
23193.304521	2457.052000	901.965820	-139.392166
23193.304521	2457.052000	900.796875	32.887592
23193.304521	2457.052000	899.626953	-171.921082
23193.304521	2457.052000	898.457031	47.963932
23193.304521	2457.052000	897.287109	-82.873260
23193.304521	2457.052000	896.117188	-44.371990
23193.304521	2457.052000	894.947266	-39.286064
23193.304521	2457.052000	893.776367	461.575165
23193.304521	2457.052000	892.605469	6.564136
23193.304521	2457.052000	891.434570	221.245392
23193.304521	2457.052000	890.262695	190.455948
23193.304521	2457.052000	889.091797	276.357819
23193.304521	2457.052000	887.919922	185.994095
23193.304521	2457.052000	886.748047	202.779770
23193.304521	2457.052000	885.575195	124.327148
23193.304521	2457.052000	884.403320	302.895996
23193.304521	2457.052000	883.230469	231.548706
23193.304521	2457.052000	882.057617	131.663239
23193.304521	2457.052000	880.883789	207.791168
23193.304521	2457.052000	879.710938	-96.584953
23193.304521	2457.052000	878.537109	-77.541580
23193.304521	2457.052000	877.362305	38.925041
23193.304521	2457.052000	876.188477	-27.661469
23193.304521	2457.052000	875.013672	-110.871849
23193.304521	2457.052000	873.839844	-75.305489
23193.304521	2457.052000	872.664063	-82.518791
23193.304521	2457.052000	871.489258	-153.865799
23193.304521	2457.052000	870.313477	40.676311
23193.304521	2457.052000	869.138672	-151.759323
23193.304521	2457.052000	867.962891	-227.861923
23193.304521	2457.052000	866.786133	-282.603424
23193.304521	2457.052000	865.610352	134.673843
23193.304521	2457.052000	864.433594	-214.233200
23193.304521	2457.052000	863.256836	-231.082275
23193.304521	2457.052000	862.079102	-124.680649
23193.304521	2457.052000	860.902344	107.262222
23193.304521	2457.052000	859.724609	199.281372
23193.304521	2457.052000	858.546875	-73.596703
23193.304521	2457.052000	857.368164	158.118408
23193.304521	2457.052000	856.190430	-138.373428
23193.304521	2457.052000	855.011719	-22.805944
23193.304521	2457.052000	853.833008	19.304407
23193.304521	2457.052000	852.654297	120.537369
23193.304521	2457.052000	851.474609	60.803101
23193.304521	2457.052000	850.294922	-207.112061
23193.304521	2457.052000	849.115234	-131.996582
23193.304521	2457.052000	847.935547	146.421600
23193.304521	2457.052000	846.754883	-107.247276
23193.304521	2457.052000	845.575195	-223.749313
23193.304521	2457.052000	844.393555	-82.637909
23193.304521	2457.052000	843.212891	-38.489429
23193.304521	2457.052000	842.032227	38.679329
23193.304521	2457.052000	840.850586	-110.943466
23193.304521	2457.052000	839.668945	6.288009
23193.304521	2457.052000	838.486328	36.092117
23193.304521	2457.052000	837.304688	-63.971287
23193.304521	2457.052000	836.122070	-230.099808
23193.304521	2457.052000	834.939453	30.844622
23193.304521	2457.052000	833.756836	-62.179520
23193.304521	2457.052000	832.573242	-240.102493
23193.304521	2457.052000	831.389648	183.272415
23193.304521	2457.052000	830.206055	-51.277985
23193.304521	2457.052000	829.022461	-240.988617
23193.304521	2457.052000	827.838867	-105.471382
23193.304521	2457.052000	826.654297	-109.048332
23193.304521	2457.052000	825.469727	-206.881042
23193.304521	2457.052000	824.284180	69.729820
23193.304521	2457.052000	823.099609	21.263670
23193.304521	2457.052000	821.914063	-241.435944
23193.304521	2457.052000	820.728516	16.057386
23193.304521	2457.052000	819.542969	35.747936
23193.304521	2457.052000	818.356445	267.116058
23193.304521	2457.052000	817.169922	-16.756432
23193.304521	2457.052000	815.983398	-121.836037
23193.304521	2457.052000	814.796875	177.469391
23193.304521	2457.052000	813.609375	163.975967
23193.304521	2457.052000	812.422852	-39.918350
23193.304521	2457.052000	811.235352	122.766975
23193.304521	2457.052000	810.046875	73.915909
23193.304521	2457.052000	808.859375	41.476425
23193.304521	2457.052000	807.670898	-23.873936
23193.304521	2457.052000	806.482422	21.095308
23193.304521	2457.052000	805.293945	-25.547199
23193.304521	2457.052000	804.104492	5.221340
23193.304521	2457.052000	802.915039	-154.120438
23193.304521	2457.052000	801.725586	129.897461
23193.304521	2457.052000	800.536133	78.371002
23193.304521	2457.052000	799.345703	146.395065
23193.304521	2457.052000	798.155273	211.991379
23193.304521	2457.052000	796.964844	-235.789963
23193.304521	2457.052000	795.774414	-83.551270
23193.304521	2457.052000	794.583008	101.365601
23193.304521	2457.052000	793.392578	-149.529770
23193.304521	2457.052000	792.200195	96.095818
23193.304521	2457.052000	791.008789	-234.420456
23193.304521	2457.052000	789.816406	-14.750060
23193.304521	2457.052000	788.625000	281.999756
23193.304521	2457.052000	787.432617	-25.134718
23193.304521	2457.052000	786.239258	30.408144
23193.304521	2457.052000	785.046875	-145.693451
23193.304521	2457.052000	783.853516	33.659977
23193.304521	2457.052000	782.660156	63.243706
23193.304521	2457.052000	781.465820	342.859833
23193.304521	2457.052000	780.272461	54.397961
23193.304521	2457.052000	779.078125	79.084068
23193.304521	2457.052000	777.883789	40.616508
23193.304521	2457.052000	776.688477	261.342102
23193.304521	2457.052000	775.494141	309.109802
23193.304521	2457.052000	774.298828	125.662827
23193.304521	2457.052000	773.103516	271.326660
23193.304521	2457.052000	771.907227	134.490829
23193.304521	2457.052000	770.711914	-151.683624
23193.304521	2457.052000	769.515625	-146.232361
23193.304521	2457.052000	768.318359	-70.894569
23193.304521	2457.052000	767.122070	281.806549
23193.304521	2457.052000	765.924805	88.782242
23193.304521	2457.052000	764.727539	280.328217
23193.304521	2457.052000	763.530273	192.090256
23193.304521	2457.052000	762.333008	115.458244
23193.304521	2457.052000	761.134766	17.812437
23193.304521	2457.052000	759.936523	-173.023880
23193.304521	2457.052000	758.738281	141.375366
23193.304521	2457.052000	757.540039	83.113953
23193.304521	2457.052000	756.340820	173.740860
23193.304521	2457.052000	755.141602	19.927294
23193.304521	2457.052000	753.942383	245.288803
23193.304521	2457.052000	752.742188	100.658340
23193.304521	2457.052000	751.541992	-109.110031
23193.304521	2457.052000	750.341797	104.253555
23193.304521	2457.052000	749.141602	229.112701
23193.304521	2457.052000	747.941406	58.692375
23193.304521	2457.052000	746.740234	23.013683
23193.304521	2457.052000	745.539063	133.606873
23193.304521	2457.052000	744.337891	190.645142
23193.304521	2457.052000	743.135742	222.024460
23193.304521	2457.052000	741.933594	116.331917
23193.304521	2457.052000	740.731445	-242.399857
23193.304521	2457.052000	739.529297	-44.147964
23193.304521	2457.052000	738.326172	209.608246
23193.304521	2457.052000	737.124023	131.466354
23193.304521	2457.052000	735.919922	231.829102
23193.304521	2457.052000	734.716797	369.154022
23193.304521	2457.052000	733.513672	96.020340
23193.304521	2457.052000	732.309570	63.932808
23193.304521	2457.052000	731.105469	45.666813
23193.304521	2457.052000	729.900391	103.756256
23193.304521	2457.052000	728.696289	89.924850
23193.304521	2457.052000	727.491211	59.789639
23193.304521	2457.052000	726.286133	-2.846271
23193.304521	2457.052000	725.080078	161.283188
23193.304521	2457.052000	723.874023	290.530121
23193.304521	2457.052000	722.668945	58.680603
23193.304521	2457.052000	721.461914	28.076164
23193.304521	2457.052000	720.255859	277.231964
23193.304521	2457.052000	719.048828	262.576569
23193.304521	2457.052000	717.841797	178.470398
23193.304521	2457.052000	716.634766	189.061554
23193.304521	2457.052000	715.427734	278.113464
23193.304521	2457.052000	714.219727	-106.602501
23193.304521	2457.052000	713.011719	134.715836
23193.304521	2457.052000	711.803711	4.015526
23193.304521	2457.052000	710.594727	-122.118774
23193.304521	2457.052000	709.385742	116.425003
23193.304521	2457.052000	708.176758	1.649622
23193.304521	2457.052000	706.967773	-136.256577
23193.304521	2457.052000	705.758789	307.145752
23193.304521	2457.052000	704.548828	109.049301
23193.304521	2457.052000	703.338867	-204.368851
23193.304521	2457.052000	702.127930	93.196190
23193.304521	2457.052000	700.917969	-231.825592
23193.304521	2457.052000	699.707031	10.100440
23193.304521	2457.052000	698.496094	145.830460
23193.304521	2457.052000	697.285156	25.698484
23193.304521	2457.052000	696.073242	-89.886391
23193.304521	2457.052000	694.861328	-16.714167
23193.304521	2457.052000	693.649414	-63.390217
23193.304521	2457.052000	692.436523	-34.204834
23193.304521	2457.052000	691.224609	27.084978
23193.304521	2457.052000	690.011719	141.154343
23193.304521	2457.052000	688.798828	91.754791
23193.304521	2457.052000	687.584961	99.757912
23193.304521	2457.052000	686.372070	-78.580826
23193.304521	2457.052000	685.158203	251.069397
23193.304521	2457.052000	683.943359	-51.553101
23193.304521	2457.052000	682.729492	114.598724
23193.304521	2457.052000	681.514648	-89.295105
23193.304521	2457.052000	680.299805	382.056763
23193.304521	2457.052000	679.084961	265.244537
23193.304521	2457.052000	677.869141	169.035889
23193.304521	2457.052000	676.653320	137.033005
23193.304521	2457.052000	675.437500	173.787140
23193.304521	2457.052000	674.221680	88.820297
23193.304521	2457.052000	673.004883	116.183083
23193.304521	2457.052000	671.789063	47.115627
23193.304521	2457.052000	670.571289	156.811539
23193.304521	2457.052000	669.354492	204.469025
23193.304521	2457.052000	668.136719	371.184601
23193.304521	2457.052000	666.919922	388.789001
23193.304521	2457.052000	665.701172	149.680084
23193.304521	2457.052000	664.483398	13.654740
23193.304521	2457.052000	663.264648	65.365654
23193.304521	2457.052000	662.045898	130.695602
23193.304521	2457.052000	660.827148	-44.452263
23193.304521	2457.052000	659.608398	327.354523
23193.304521	2457.052000	658.388672	37.634792
23193.304521	2457.052000	657.168945	22.461163
23193.304521	2457.052000	655.949219	350.272064
23193.304521	2457.052000	654.728516	206.793198
23193.304521	2457.052000	653.507813	207.312378
23193.304521	2457.052000	652.287109	109.455582
23193.304521	2457.052000	651.066406	274.350800
23193.304521	2457.052000	649.844727	336.266602
23193.304521	2457.052000	648.623047	452.891479
23193.304521	2457.052000	647.401367	235.951233
23193.304521	2457.052000	646.179688	57.831749
23193.304521	2457.052000	644.957031	370.498688
23193.304521	2457.052000	643.734375	-79.343391
23193.304521	2457.052000	642.511719	141.781357
23193.304521	2457.052000	641.289063	339.919128
23193.304521	2457.052000	640.065430	220.844040
23193.304521	2457.052000	638.841797	352.583313
23193.304521	2457.052000	637.618164	413.515198
23193.304521	2457.052000	636.393555	234.995804
23193.304521	2457.052000	635.168945	163.587738
23193.304521	2457.052000	633.944336	-147.100159
23193.304521	2457.052000	632.719727	296.281250
23193.304521	2457.052000	631.494141	-32.671844
23193.304521	2457.052000	630.269531	-140.678665
23193.304521	2457.052000	629.042969	-64.322792
23193.304521	2457.052000	627.817383	105.259796
23193.304521	2457.052000	626.590820	-87.115082
23193.304521	2457.052000	625.365234	-26.929859
23193.304521	2457.052000	624.137695	-135.166977
23193.304521	2457.052000	622.911133	24.934706
23193.304521	2457.052000	621.683594	146.253265
23193.304521	2457.052000	620.456055	-3.042311
23193.304521	2457.052000	619.228516	-113.694420
23193.304521	2457.052000	618.000977	-310.693481
23193.304521	2457.052000	616.772461	-166.914169
23193.304521	2457.052000	615.543945	-227.654037
23193.304521	2457.052000	614.314453	-127.201866
23193.304521	2457.052000	613.085938	-128.990219
23193.304521	2457.052000	611.856445	-133.100418
23193.304521	2457.052000	610.626953	-5.632509
23193.304521	2457.052000	609.397461	33.259178
23193.304521	2457.052000	608.166992	-218.259079
23193.304521	2457.052000	606.936523	144.880798
23193.304521	2457.052000	605.706055	9.012802
23193.304521	2457.052000	604.474609	-101.905754
23193.304521	2457.052000	603.244141	-351.045166
23193.304521	2457.052000	602.012695	-155.996719
23193.304521	2457.052000	600.780273	54.790421
23193.304521	2457.052000	599.548828	38.980091
23193.304521	2457.052000	598.316406	-35.731930
23193.304521	2457.052000	597.083984	-128.544876
23193.304521	2457.052000	595.851563	-74.206612
23193.304521	2457.052000	594.618164	2.714791
23193.304521	2457.052000	593.384766	-119.514969
23193.304521	2457.052000	592.151367	149.633606
23193.304521	2457.052000	590.917969	145.008408
23193.304521	2457.052000	589.683594	138.105850
23193.304521	2457.052000	588.449219	83.730751
23193.304521	2457.052000	587.214844	-174.036560
23193.304521	2457.052000	585.979492	-106.314850
23193.304521	2457.052000	584.745117	35.944736
23193.304521	2457.052000	583.509766	33.580597
23193.304521	2457.052000	582.273438	-244.285873
23193.304521	2457.052000	581.038086	10.806239
23193.304521	2457.052000	579.801758	-41.193249
23193.304521	2457.052000	578.565430	94.155243
23193.304521	2457.052000	577.329102	186.592209
23193.304521	2457.052000	576.091797	12.811530
23193.304521	2457.052000	574.854492	267.637482
23193.304521	2457.052000	573.617188	148.074280
23193.304521	2457.052000	572.378906	195.397827
23193.304521	2457.052000	571.141602	276.545319
23193.304521	2457.052000	569.903320	229.236404
23193.304521	2457.052000	568.664063	26.516294
23193.304521	2457.052000	567.425781	314.956757
23193.304521	2457.052000	566.186523	193.445526
23193.304521	2457.052000	564.947266	405.240234
23193.304521	2457.052000	563.708008	434.655518
23193.304521	2457.052000	562.467773	446.086639
23193.304521	2457.052000	561.227539	432.806732
23193.304521	2457.052000	559.987305	327.349060
23193.304521	2457.052000	558.747070	471.629822
23193.304521	2457.052000	557.505859	240.376343
23193.304521	2457.052000	556.264648	418.429871
23193.304521	2457.052000	555.023438	266.059967
23193.304521	2457.052000	553.781250	262.115143
23193.304521	2457.052000	552.539063	363.825104
23193.304521	2457.052000	551.296875	25.299160
23193.304521	2457.052000	550.054688	243.916107
23193.304521	2457.052000	548.811523	435.549957
23193.304521	2457.052000	547.569336	445.354675
23193.304521	2457.052000	546.325195	316.062042
23193.304521	2457.052000	545.082031	308.066742
23193.304521	2457.052000	543.837891	149.835846
23193.304521	2457.052000	542.593750	159.959579
23193.304521	2457.052000	541.349609	149.970764
23193.304521	2457.052000	540.105469	216.286926
23193.304521	2457.052000	538.860352	222.125961
23193.304521	2457.052000	537.615234	420.761230
23193.304521	2457.052000	536.369141	290.041534
23193.304521	2457.052000	535.124023	163.947174
23193.304521	2457.052000	533.877930	-40.397953
23193.304521	2457.052000	532.631836	162.925476
23193.304521	2457.052000	531.384766	236.404968
23193.304521	2457.052000	530.138672	146.570740
23193.304521	2457.052000	528.891602	30.007946
23193.304521	2457.052000	527.643555	260.319214
23193.304521	2457.052000	526.396484	266.969696
23193.304521	2457.052000	525.148438	94.814232
23193.304521	2457.052000	523.900391	-1.164420
23193.304521	2457.052000	522.652344	-88.071198
23193.304521	2457.052000	521.403320	-262.006561
23193.304521	2457.052000	520.154297	-290.552734
23193.304521	2457.052000	518.905273	22.763216
23193.304521	2457.052000	517.656250	-204.400391
23193.304521	2457.052000	516.406250	-71.909706
23193.304521	2457.052000	515.156250	74.011711
23193.304521	2457.052000	513.906250	150.777740
23193.304521	2457.052000	512.655273	276.686188
23193.304521	2457.052000	511.404297	-101.532013
23193.304521	2457.052000	510.153320	60.247627
23193.304521	2457.052000	508.902344	-23.235317
23193.304521	2457.052000	507.650391	-131.122696
23193.304521	2457.052000	506.398438	-22.666790
23193.304521	2457.052000	505.146484	134.855972
23193.304521	2457.052000	503.893555	47.319149
23193.304521	2457.052000	502.641602	138.110641
23193.304521	2457.052000	501.388672	282.390656
23193.304521	2457.052000	500.134766	266.378510
23193.304521	2457.052000	498.881836	401.830322
23193.304521	2457.052000	497.627930	241.300781
23193.304521	2457.052000	496.374023	207.748779
23193.304521	2457.052000	495.119141	463.476959
23193.304521	2457.052000	493.865234	394.455078
23193.304521	2457.052000	492.610352	314.409607
23193.304521	2457.052000	491.355469	536.817932
23193.304521	2457.052000	490.099609	559.148254
23193.304521	2457.052000	488.843750	623.754456
23193.304521	2457.052000	487.587891	506.209290
23193.304521	2457.052000	486.332031	664.204529
23193.304521	2457.052000	485.075195	846.608093
23193.304521	2457.052000	483.818359	766.985779
23193.304521	2457.052000	482.561523	793.993530
23193.304521	2457.052000	481.304688	678.992126
23193.304521	2457.052000	480.046875	750.452332
23193.304521	2457.052000	478.789063	972.761108
23193.304521	2457.052000	477.531250	946.594971
23193.304521	2457.052000	476.272461	740.843994
23193.304521	2457.052000	475.013672	1118.249756
23193.304521	2457.052000	473.754883	1018.960754
23193.304521	2457.052000	472.496094	1074.838013
23193.304521	2457.052000	471.236328	1159.481445
23193.304521	2457.052000	469.976563	1239.647339
23193.304521	2457.052000	468.716797	1060.658691
23193.304521	2457.052000	467.456055	963.638184
23193.304521	2457.052000	466.196289	975.096130
23193.304521	2457.052000	464.935547	1044.045898
23193.304521	2457.052000	463.673828	1062.022461
23193.304521	2457.052000	462.413086	900.751953
23193.304521	2457.052000	461.151367	1157.490967
23193.304521	2457.052000	459.889648	1073.516968
23193.304521	2457.052000	458.626953	1345.416504
23193.304521	2457.052000	457.364258	1157.373047
23193.304521	2457.052000	456.101563	1349.385986
23193.304521	2457.052000	454.838867	1196.554565
23193.304521	2457.052000	453.575195	1120.963867
23193.304521	2457.052000	452.312500	1482.528198
23193.304521	2457.052000	451.047852	1452.984497
23193.304521	2457.052000	449.784180	1387.980713
23193.304521	2457.052000	448.519531	1316.205811
23193.304521	2457.052000	447.254883	1469.334595
23193.304521	2457.052000	445.990234	1322.188232
23193.304521	2457.052000	444.725586	1205.768921
23193.304521	2457.052000	443.459961	1419.919434
23193.304521	2457.052000	442.194336	1360.378052
23193.304521	2457.052000	440.927734	1450.472778
23193.304521	2457.052000	439.662109	1187.696655
23193.304521	2457.052000	438.395508	1195.720825
23193.304521	2457.052000	437.127930	1582.280762
23193.304521	2457.052000	435.861328	1382.594116
23193.304521	2457.052000	434.593750	1325.759155
23193.304521	2457.052000	433.326172	1275.197754
23193.304521	2457.052000	432.058594	1444.357178
23193.304521	2457.052000	430.790039	1474.430420
23193.304521	2457.052000	429.521484	1411.692505
23193.304521	2457.052000	428.252930	1443.120117
23193.304521	2457.052000	426.984375	1476.283447
23193.304521	2457.052000	425.714844	1489.168945
23193.304521	2457.052000	424.445313	1600.461060
23193.304521	2457.052000	423.174805	1361.796631
23193.304521	2457.052000	421.905273	1663.146851
23193.304521	2457.052000	420.634766	1506.942627
23193.304521	2457.052000	419.364258	1536.879028
23193.304521	2457.052000	418.092773	1605.700439
23193.304521	2457.052000	416.822266	1761.673950
23193.304521	2457.052000	415.550781	1559.203125
23193.304521	2457.052000	414.278320	2001.170776
23193.304521	2457.052000	413.006836	1586.761230
23193.304521	2457.052000	411.734375	1656.450928
23193.304521	2457.052000	410.461914	1534.588501
23193.304521	2457.052000	409.188477	1420.736206
23193.304521	2457.052000	407.916016	1505.566650
23193.304521	2457.052000	406.642578	1436.107300
23193.304521	2457.052000	405.368164	1490.644531
23193.304521	2457.052000	404.094727	1649.391724
23193.304521	2457.052000	402.820313	1645.059814
23193.304521	2457.052000	401.545898	1543.418701
23193.304521	2457.052000	400.270508	1462.671143
23193.304521	2457.052000	398.996094	1527.549072
23193.304521	2457.052000	397.720703	1788.197998
23193.304521	2457.052000	396.444336	1785.099365
23193.304521	2457.052000	395.168945	1577.485962
23193.304521	2457.052000	393.892578	1799.468140
23193.304521	2457.052000	392.616211	1318.423340
23193.304521	2457.052000	391.339844	1413.279907
23193.304521	2457.052000	390.062500	1591.965088
23193.304521	2457.052000	388.785156	1605.376221
23193.304521	2457.052000	387.507813	1608.643799
23193.304521	2457.052000	386.229492	1514.357788
23193.304521	2457.052000	384.951172	1632.569702
23193.304521	2457.052000	383.672852	1504.741821
23193.304521	2457.052000	382.394531	1563.055786
23193.304521	2457.052000	381.115234	1715.677124
23193.304521	2457.052000	379.835938	1672.431641
23193.304521	2457.052000	378.556641	1383.240601
23193.304521	2457.052000	377.277344	1487.030151
23193.304521	2457.052000	375.997070	1412.347046
23193.304521	2457.052000	374.716797	1388.123901
23193.304521	2457.052000	373.435547	1220.314453
23193.304521	2457.052000	372.155273	1227.086548
23193.304521	2457.052000	370.874023	1340.665283
23193.304521	2457.052000	369.591797	1434.631958
23193.304521	2457.052000	368.310547	1426.314453
23193.304521	2457.052000	367.028320	1252.503540
23193.304521	2457.052000	365.746094	1307.154053
23193.304521	2457.052000	364.463867	1385.552734
23193.304521	2457.052000	363.180664	1093.885498
23193.304521	2457.052000	361.897461	1041.265015
23193.304521	2457.052000	360.614258	1070.933594
23193.304521	2457.052000	359.330078	1247.919189
23193.304521	2457.052000	358.045898	924.518311
23193.304521	2457.052000	356.761719	863.602234
23193.304521	2457.052000	355.477539	1190.916138
23193.304521	2457.052000	354.192383	989.593811
23193.304521	2457.052000	352.907227	928.721863
23193.304521	2457.052000	351.622070	943.016113
23193.304521	2457.052000	350.336914	1101.800537
23193.304521	2457.052000	349.050781	775.571777
23193.304521	2457.052000	347.764648	832.388428
23193.304521	2457.052000	346.477539	855.413086
23193.304521	2457.052000	345.191406	805.721802
23193.304521	2457.052000	343.904297	524.849609
23193.304521	2457.052000	342.616211	788.807312
23193.304521	2457.052000	341.329102	448.832825
23193.304521	2457.052000	340.041016	564.475830
23193.304521	2457.052000	338.752930	832.195313
23193.304521	2457.052000	337.463867	463.427185
23193.304521	2457.052000	336.175781	482.800873
23193.304521	2457.052000	334.886719	547.743225
23193.304521	2457.052000	333.596680	584.538452
23193.304521	2457.052000	332.307617	149.782730
23193.304521	2457.052000	331.017578	351.020050
23193.304521	2457.052000	329.727539	359.517975
23193.304521	2457.052000	328.436523	25.975519
23193.304521	2457.052000	327.146484	438.157257
23193.304521	2457.052000	325.855469	110.374313
23193.304521	2457.052000	324.563477	97.493454
23193.304521	2457.052000	323.272461	101.342461
23193.304521	2457.052000	321.980469	147.437683
23193.304521	2457.052000	320.688477	65.183945
23193.304521	2457.052000	319.395508	-212.533722
23193.304521	2457.052000	318.103516	128.362762
23193.304521	2457.052000	316.810547	-136.570847
23193.304521	2457.052000	315.516602	196.849899
23193.304521	2457.052000	314.223633	-163.650681
23193.304521	2457.052000	312.929688	-316.616364
23193.304521	2457.052000	311.635742	-16.342119
23193.304521	2457.052000	310.340820	-257.199677
23193.304521	2457.052000	309.045898	-157.311218
23193.304521	2457.052000	307.750977	48.102226
23193.304521	2457.052000	306.456055	-158.182266
23193.304521	2457.052000	305.160156	70.201530
23193.304521	2457.052000	303.865234	270.272827
23193.304521	2457.052000	302.568359	170.021301
23193.304521	2457.052000	301.272461	-8.173206
23193.304521	2457.052000	299.975586	477.566895
23193.304521	2457.052000	298.678711	327.409424
