#X		#Y		#Wave		#Intensity
22959.208404	3265.737833	1999.980469	-84.883636
22959.208404	3265.737833	1999.016602	-109.476059
22959.208404	3265.737833	1998.052734	80.484619
22959.208404	3265.737833	1997.087891	-44.595707
22959.208404	3265.737833	1996.123047	48.158585
22959.208404	3265.737833	1995.158203	31.641745
22959.208404	3265.737833	1994.193359	121.398758
22959.208404	3265.737833	1993.228516	104.415886
22959.208404	3265.737833	1992.262695	-71.229912
22959.208404	3265.737833	1991.297852	-44.046486
22959.208404	3265.737833	1990.332031	69.545578
22959.208404	3265.737833	1989.366211	96.288414
22959.208404	3265.737833	1988.399414	-33.032372
22959.208404	3265.737833	1987.433594	-33.873142
22959.208404	3265.737833	1986.466797	-2.744463
22959.208404	3265.737833	1985.500977	134.515976
22959.208404	3265.737833	1984.534180	-10.270331
22959.208404	3265.737833	1983.567383	-125.509216
22959.208404	3265.737833	1982.599609	124.879082
22959.208404	3265.737833	1981.632813	43.932331
22959.208404	3265.737833	1980.665039	133.318375
22959.208404	3265.737833	1979.697266	91.622856
22959.208404	3265.737833	1978.729492	-48.974384
22959.208404	3265.737833	1977.761719	138.715179
22959.208404	3265.737833	1976.792969	57.138947
22959.208404	3265.737833	1975.825195	212.396820
22959.208404	3265.737833	1974.856445	115.782776
22959.208404	3265.737833	1973.887695	38.824074
22959.208404	3265.737833	1972.918945	-82.618889
22959.208404	3265.737833	1971.949219	40.028141
22959.208404	3265.737833	1970.980469	76.223671
22959.208404	3265.737833	1970.010742	-57.800011
22959.208404	3265.737833	1969.041016	126.092377
22959.208404	3265.737833	1968.071289	58.457535
22959.208404	3265.737833	1967.101563	136.129883
22959.208404	3265.737833	1966.130859	43.708954
22959.208404	3265.737833	1965.161133	-16.740215
22959.208404	3265.737833	1964.190430	-3.369297
22959.208404	3265.737833	1963.219727	7.459957
22959.208404	3265.737833	1962.249023	23.136719
22959.208404	3265.737833	1961.277344	14.127385
22959.208404	3265.737833	1960.306641	110.867455
22959.208404	3265.737833	1959.334961	121.400414
22959.208404	3265.737833	1958.363281	-32.935356
22959.208404	3265.737833	1957.391602	66.041901
22959.208404	3265.737833	1956.419922	88.704262
22959.208404	3265.737833	1955.447266	-58.323990
22959.208404	3265.737833	1954.474609	-50.493103
22959.208404	3265.737833	1953.501953	141.603455
22959.208404	3265.737833	1952.529297	23.998602
22959.208404	3265.737833	1951.556641	58.706646
22959.208404	3265.737833	1950.583984	-63.828022
22959.208404	3265.737833	1949.610352	132.885391
22959.208404	3265.737833	1948.636719	-4.416510
22959.208404	3265.737833	1947.663086	71.867203
22959.208404	3265.737833	1946.689453	133.369141
22959.208404	3265.737833	1945.715820	54.953266
22959.208404	3265.737833	1944.741211	143.372131
22959.208404	3265.737833	1943.767578	106.638603
22959.208404	3265.737833	1942.792969	72.350220
22959.208404	3265.737833	1941.818359	-45.311359
22959.208404	3265.737833	1940.842773	1.307946
22959.208404	3265.737833	1939.868164	-113.875305
22959.208404	3265.737833	1938.892578	30.739500
22959.208404	3265.737833	1937.916992	45.429543
22959.208404	3265.737833	1936.941406	99.300934
22959.208404	3265.737833	1935.965820	-55.044178
22959.208404	3265.737833	1934.990234	74.726768
22959.208404	3265.737833	1934.013672	106.507629
22959.208404	3265.737833	1933.037109	28.117836
22959.208404	3265.737833	1932.060547	52.548973
22959.208404	3265.737833	1931.083984	69.629486
22959.208404	3265.737833	1930.107422	25.540787
22959.208404	3265.737833	1929.129883	5.929903
22959.208404	3265.737833	1928.153320	-25.897001
22959.208404	3265.737833	1927.175781	79.220512
22959.208404	3265.737833	1926.198242	-13.718299
22959.208404	3265.737833	1925.219727	27.817215
22959.208404	3265.737833	1924.242188	169.542160
22959.208404	3265.737833	1923.263672	32.677898
22959.208404	3265.737833	1922.285156	-50.382008
22959.208404	3265.737833	1921.306641	49.782227
22959.208404	3265.737833	1920.328125	-162.654800
22959.208404	3265.737833	1919.349609	-106.432083
22959.208404	3265.737833	1918.370117	15.689287
22959.208404	3265.737833	1917.391602	88.966942
22959.208404	3265.737833	1916.412109	32.899929
22959.208404	3265.737833	1915.431641	-45.090721
22959.208404	3265.737833	1914.452148	81.861801
22959.208404	3265.737833	1913.472656	130.739899
22959.208404	3265.737833	1912.492188	82.080193
22959.208404	3265.737833	1911.511719	-3.113448
22959.208404	3265.737833	1910.531250	-98.009087
22959.208404	3265.737833	1909.550781	-46.633217
22959.208404	3265.737833	1908.569336	43.723576
22959.208404	3265.737833	1907.588867	-92.488884
22959.208404	3265.737833	1906.607422	66.075096
22959.208404	3265.737833	1905.625977	-70.056519
22959.208404	3265.737833	1904.644531	86.046173
22959.208404	3265.737833	1903.662109	71.709213
22959.208404	3265.737833	1902.680664	115.809326
22959.208404	3265.737833	1901.698242	-141.824356
22959.208404	3265.737833	1900.715820	-177.950226
22959.208404	3265.737833	1899.733398	-77.827515
22959.208404	3265.737833	1898.750000	27.139797
22959.208404	3265.737833	1897.767578	85.888657
22959.208404	3265.737833	1896.784180	-40.127712
22959.208404	3265.737833	1895.800781	-46.978016
22959.208404	3265.737833	1894.817383	-104.840057
22959.208404	3265.737833	1893.833984	53.581486
22959.208404	3265.737833	1892.850586	85.641953
22959.208404	3265.737833	1891.866211	127.422691
22959.208404	3265.737833	1890.881836	-95.482620
22959.208404	3265.737833	1889.897461	36.184635
22959.208404	3265.737833	1888.913086	-84.631912
22959.208404	3265.737833	1887.927734	-50.059914
22959.208404	3265.737833	1886.943359	50.033680
22959.208404	3265.737833	1885.958008	23.950888
22959.208404	3265.737833	1884.972656	-70.022942
22959.208404	3265.737833	1883.987305	47.044994
22959.208404	3265.737833	1883.001953	-122.030685
22959.208404	3265.737833	1882.015625	-118.905479
22959.208404	3265.737833	1881.029297	10.272223
22959.208404	3265.737833	1880.042969	100.642685
22959.208404	3265.737833	1879.056641	-114.289612
22959.208404	3265.737833	1878.070313	-142.598785
22959.208404	3265.737833	1877.083984	-6.188592
22959.208404	3265.737833	1876.096680	74.488602
22959.208404	3265.737833	1875.109375	41.357960
22959.208404	3265.737833	1874.122070	37.300362
22959.208404	3265.737833	1873.134766	110.702057
22959.208404	3265.737833	1872.146484	12.287908
22959.208404	3265.737833	1871.159180	78.432899
22959.208404	3265.737833	1870.170898	-80.386391
22959.208404	3265.737833	1869.182617	-14.228362
22959.208404	3265.737833	1868.194336	78.511436
22959.208404	3265.737833	1867.205078	-22.170153
22959.208404	3265.737833	1866.216797	19.797970
22959.208404	3265.737833	1865.227539	64.174660
22959.208404	3265.737833	1864.238281	-123.401802
22959.208404	3265.737833	1863.249023	-93.494003
22959.208404	3265.737833	1862.259766	-104.648926
22959.208404	3265.737833	1861.269531	-96.476173
22959.208404	3265.737833	1860.279297	22.755716
22959.208404	3265.737833	1859.290039	-10.122681
22959.208404	3265.737833	1858.298828	-64.706108
22959.208404	3265.737833	1857.308594	20.684391
22959.208404	3265.737833	1856.318359	79.508507
22959.208404	3265.737833	1855.327148	0.827498
22959.208404	3265.737833	1854.335938	76.517807
22959.208404	3265.737833	1853.344727	-47.941246
22959.208404	3265.737833	1852.353516	10.856437
22959.208404	3265.737833	1851.362305	-183.438919
22959.208404	3265.737833	1850.370117	-18.610807
22959.208404	3265.737833	1849.377930	83.511612
22959.208404	3265.737833	1848.385742	55.516544
22959.208404	3265.737833	1847.393555	32.345695
22959.208404	3265.737833	1846.401367	175.327499
22959.208404	3265.737833	1845.408203	48.613010
22959.208404	3265.737833	1844.415039	-68.431137
22959.208404	3265.737833	1843.421875	21.528843
22959.208404	3265.737833	1842.428711	-158.037018
22959.208404	3265.737833	1841.435547	8.874002
22959.208404	3265.737833	1840.441406	43.426613
22959.208404	3265.737833	1839.448242	51.506653
22959.208404	3265.737833	1838.454102	95.638031
22959.208404	3265.737833	1837.459961	-11.699806
22959.208404	3265.737833	1836.464844	56.440517
22959.208404	3265.737833	1835.470703	62.067471
22959.208404	3265.737833	1834.475586	120.534966
22959.208404	3265.737833	1833.480469	68.473366
22959.208404	3265.737833	1832.485352	62.048988
22959.208404	3265.737833	1831.490234	26.799240
22959.208404	3265.737833	1830.495117	51.565239
22959.208404	3265.737833	1829.499023	18.700525
22959.208404	3265.737833	1828.502930	101.021568
22959.208404	3265.737833	1827.506836	-44.641731
22959.208404	3265.737833	1826.510742	119.188469
22959.208404	3265.737833	1825.513672	-12.068913
22959.208404	3265.737833	1824.517578	5.379584
22959.208404	3265.737833	1823.520508	-44.328732
22959.208404	3265.737833	1822.523438	138.477219
22959.208404	3265.737833	1821.526367	210.949112
22959.208404	3265.737833	1820.529297	86.886620
22959.208404	3265.737833	1819.531250	53.885292
22959.208404	3265.737833	1818.533203	131.055267
22959.208404	3265.737833	1817.535156	9.404220
22959.208404	3265.737833	1816.537109	43.408070
22959.208404	3265.737833	1815.539063	-13.594453
22959.208404	3265.737833	1814.540039	108.908150
22959.208404	3265.737833	1813.541992	35.112690
22959.208404	3265.737833	1812.542969	68.982697
22959.208404	3265.737833	1811.543945	71.715416
22959.208404	3265.737833	1810.543945	14.626947
22959.208404	3265.737833	1809.544922	103.395767
22959.208404	3265.737833	1808.544922	91.689812
22959.208404	3265.737833	1807.544922	36.933014
22959.208404	3265.737833	1806.544922	113.608200
22959.208404	3265.737833	1805.544922	-110.839409
22959.208404	3265.737833	1804.544922	82.830353
22959.208404	3265.737833	1803.543945	35.156574
22959.208404	3265.737833	1802.542969	30.452509
22959.208404	3265.737833	1801.541992	25.717621
22959.208404	3265.737833	1800.541016	-5.307908
22959.208404	3265.737833	1799.539063	109.230339
22959.208404	3265.737833	1798.538086	73.359222
22959.208404	3265.737833	1797.536133	37.465336
22959.208404	3265.737833	1796.534180	8.704938
22959.208404	3265.737833	1795.532227	-144.094345
22959.208404	3265.737833	1794.529297	75.095116
22959.208404	3265.737833	1793.527344	3.322031
22959.208404	3265.737833	1792.524414	-13.643030
22959.208404	3265.737833	1791.521484	-78.300819
22959.208404	3265.737833	1790.518555	-47.668896
22959.208404	3265.737833	1789.514648	-183.841354
22959.208404	3265.737833	1788.511719	18.203102
22959.208404	3265.737833	1787.507813	89.159500
22959.208404	3265.737833	1786.503906	141.001938
22959.208404	3265.737833	1785.500000	123.752922
22959.208404	3265.737833	1784.496094	94.569290
22959.208404	3265.737833	1783.491211	103.423637
22959.208404	3265.737833	1782.486328	-49.539829
22959.208404	3265.737833	1781.481445	35.366482
22959.208404	3265.737833	1780.476563	13.183218
22959.208404	3265.737833	1779.471680	5.230323
22959.208404	3265.737833	1778.465820	21.006123
22959.208404	3265.737833	1777.460938	67.631027
22959.208404	3265.737833	1776.455078	52.407684
22959.208404	3265.737833	1775.449219	11.010419
22959.208404	3265.737833	1774.442383	-75.551346
22959.208404	3265.737833	1773.436523	25.496496
22959.208404	3265.737833	1772.429688	10.107164
22959.208404	3265.737833	1771.422852	99.134880
22959.208404	3265.737833	1770.416016	52.786884
22959.208404	3265.737833	1769.409180	151.170807
22959.208404	3265.737833	1768.402344	14.573985
22959.208404	3265.737833	1767.394531	-5.782495
22959.208404	3265.737833	1766.386719	-57.011913
22959.208404	3265.737833	1765.378906	83.807854
22959.208404	3265.737833	1764.371094	-81.319511
22959.208404	3265.737833	1763.362305	47.498814
22959.208404	3265.737833	1762.354492	-20.486885
22959.208404	3265.737833	1761.345703	146.084427
22959.208404	3265.737833	1760.336914	75.634453
22959.208404	3265.737833	1759.328125	137.805115
22959.208404	3265.737833	1758.318359	5.707781
22959.208404	3265.737833	1757.308594	67.764839
22959.208404	3265.737833	1756.299805	-52.530338
22959.208404	3265.737833	1755.290039	-71.059425
22959.208404	3265.737833	1754.279297	-28.109314
22959.208404	3265.737833	1753.269531	12.410087
22959.208404	3265.737833	1752.258789	109.631500
22959.208404	3265.737833	1751.249023	-6.084259
22959.208404	3265.737833	1750.238281	-107.623688
22959.208404	3265.737833	1749.226563	76.880180
22959.208404	3265.737833	1748.215820	29.625387
22959.208404	3265.737833	1747.204102	36.687580
22959.208404	3265.737833	1746.193359	131.121460
22959.208404	3265.737833	1745.181641	53.013744
22959.208404	3265.737833	1744.168945	15.032207
22959.208404	3265.737833	1743.157227	19.522402
22959.208404	3265.737833	1742.144531	82.979469
22959.208404	3265.737833	1741.132813	-61.361679
22959.208404	3265.737833	1740.120117	9.062283
22959.208404	3265.737833	1739.106445	-12.621822
22959.208404	3265.737833	1738.093750	-6.035690
22959.208404	3265.737833	1737.080078	-41.965382
22959.208404	3265.737833	1736.067383	-191.126617
22959.208404	3265.737833	1735.053711	86.478539
22959.208404	3265.737833	1734.040039	55.109730
22959.208404	3265.737833	1733.025391	-37.583561
22959.208404	3265.737833	1732.011719	-57.238022
22959.208404	3265.737833	1730.997070	-39.245705
22959.208404	3265.737833	1729.982422	-0.111883
22959.208404	3265.737833	1728.967773	-29.343283
22959.208404	3265.737833	1727.952148	-44.492279
22959.208404	3265.737833	1726.937500	142.780563
22959.208404	3265.737833	1725.921875	-34.908955
22959.208404	3265.737833	1724.906250	18.043079
22959.208404	3265.737833	1723.890625	73.276459
22959.208404	3265.737833	1722.875000	57.865082
22959.208404	3265.737833	1721.858398	75.331047
22959.208404	3265.737833	1720.841797	45.708656
22959.208404	3265.737833	1719.825195	27.801813
22959.208404	3265.737833	1718.808594	-27.758430
22959.208404	3265.737833	1717.791992	-43.395210
22959.208404	3265.737833	1716.774414	16.109196
22959.208404	3265.737833	1715.756836	-48.970406
22959.208404	3265.737833	1714.739258	-60.052235
22959.208404	3265.737833	1713.721680	-26.560373
22959.208404	3265.737833	1712.704102	-63.568790
22959.208404	3265.737833	1711.685547	-88.880463
22959.208404	3265.737833	1710.667969	64.147423
22959.208404	3265.737833	1709.649414	170.130798
22959.208404	3265.737833	1708.630859	121.180794
22959.208404	3265.737833	1707.611328	4.171538
22959.208404	3265.737833	1706.592773	187.352676
22959.208404	3265.737833	1705.573242	6.970187
22959.208404	3265.737833	1704.553711	-154.636078
22959.208404	3265.737833	1703.534180	-60.745564
22959.208404	3265.737833	1702.513672	42.429718
22959.208404	3265.737833	1701.494141	-65.343010
22959.208404	3265.737833	1700.473633	25.987986
22959.208404	3265.737833	1699.453125	-63.102413
22959.208404	3265.737833	1698.432617	-63.222252
22959.208404	3265.737833	1697.412109	-7.199288
22959.208404	3265.737833	1696.390625	-77.648056
22959.208404	3265.737833	1695.369141	137.398697
22959.208404	3265.737833	1694.347656	50.480919
22959.208404	3265.737833	1693.326172	19.697626
22959.208404	3265.737833	1692.304688	35.660549
22959.208404	3265.737833	1691.282227	-84.063362
22959.208404	3265.737833	1690.260742	118.869751
22959.208404	3265.737833	1689.238281	141.682205
22959.208404	3265.737833	1688.214844	33.558426
22959.208404	3265.737833	1687.192383	170.792206
22959.208404	3265.737833	1686.168945	165.415237
22959.208404	3265.737833	1685.146484	89.932449
22959.208404	3265.737833	1684.123047	247.964752
22959.208404	3265.737833	1683.099609	128.045364
22959.208404	3265.737833	1682.075195	85.162361
22959.208404	3265.737833	1681.051758	207.975754
22959.208404	3265.737833	1680.027344	202.352280
22959.208404	3265.737833	1679.002930	276.017242
22959.208404	3265.737833	1677.978516	235.316818
22959.208404	3265.737833	1676.953125	140.948425
22959.208404	3265.737833	1675.928711	228.461105
22959.208404	3265.737833	1674.903320	129.393677
22959.208404	3265.737833	1673.877930	144.539963
22959.208404	3265.737833	1672.852539	15.160763
22959.208404	3265.737833	1671.826172	265.569550
22959.208404	3265.737833	1670.800781	178.078384
22959.208404	3265.737833	1669.774414	269.915771
22959.208404	3265.737833	1668.748047	238.269272
22959.208404	3265.737833	1667.721680	194.961700
22959.208404	3265.737833	1666.694336	319.224884
22959.208404	3265.737833	1665.667969	294.471802
22959.208404	3265.737833	1664.640625	311.571777
22959.208404	3265.737833	1663.613281	270.476227
22959.208404	3265.737833	1662.585938	157.263840
22959.208404	3265.737833	1661.557617	246.371429
22959.208404	3265.737833	1660.530273	191.273285
22959.208404	3265.737833	1659.501953	150.108047
22959.208404	3265.737833	1658.473633	243.728134
22959.208404	3265.737833	1657.444336	304.746063
22959.208404	3265.737833	1656.416016	405.215424
22959.208404	3265.737833	1655.386719	354.633606
22959.208404	3265.737833	1654.358398	369.077209
22959.208404	3265.737833	1653.328125	511.177338
22959.208404	3265.737833	1652.298828	304.995026
22959.208404	3265.737833	1651.269531	532.886902
22959.208404	3265.737833	1650.239258	417.225037
22959.208404	3265.737833	1649.208984	322.465759
22959.208404	3265.737833	1648.178711	450.403046
22959.208404	3265.737833	1647.148438	492.460388
22959.208404	3265.737833	1646.117188	423.175446
22959.208404	3265.737833	1645.086914	488.363007
22959.208404	3265.737833	1644.055664	727.333984
22959.208404	3265.737833	1643.024414	567.607727
22959.208404	3265.737833	1641.992188	475.107544
22959.208404	3265.737833	1640.960938	556.367615
22959.208404	3265.737833	1639.928711	491.662567
22959.208404	3265.737833	1638.896484	519.588501
22959.208404	3265.737833	1637.864258	568.323853
22959.208404	3265.737833	1636.832031	640.171448
22959.208404	3265.737833	1635.798828	515.260559
22959.208404	3265.737833	1634.766602	457.491364
22959.208404	3265.737833	1633.733398	582.475281
22959.208404	3265.737833	1632.699219	580.183167
22959.208404	3265.737833	1631.666016	619.510742
22959.208404	3265.737833	1630.632813	661.123413
22959.208404	3265.737833	1629.598633	436.876617
22959.208404	3265.737833	1628.564453	476.169678
22959.208404	3265.737833	1627.530273	695.666382
22959.208404	3265.737833	1626.495117	503.849945
22959.208404	3265.737833	1625.460938	656.257385
22959.208404	3265.737833	1624.425781	704.672852
22959.208404	3265.737833	1623.390625	591.444458
22959.208404	3265.737833	1622.355469	690.624817
22959.208404	3265.737833	1621.319336	658.201843
22959.208404	3265.737833	1620.284180	842.697571
22959.208404	3265.737833	1619.248047	690.283264
22959.208404	3265.737833	1618.211914	853.926270
22959.208404	3265.737833	1617.174805	770.739319
22959.208404	3265.737833	1616.138672	657.615784
22959.208404	3265.737833	1615.101563	788.883301
22959.208404	3265.737833	1614.065430	816.390320
22959.208404	3265.737833	1613.027344	809.306641
22959.208404	3265.737833	1611.990234	816.057129
22959.208404	3265.737833	1610.953125	776.737854
22959.208404	3265.737833	1609.915039	735.125061
22959.208404	3265.737833	1608.876953	790.237854
22959.208404	3265.737833	1607.838867	585.195984
22959.208404	3265.737833	1606.800781	826.757507
22959.208404	3265.737833	1605.761719	957.764648
22959.208404	3265.737833	1604.723633	858.658508
22959.208404	3265.737833	1603.684570	750.388550
22959.208404	3265.737833	1602.644531	830.747803
22959.208404	3265.737833	1601.605469	1021.462646
22959.208404	3265.737833	1600.566406	927.039856
22959.208404	3265.737833	1599.526367	942.984253
22959.208404	3265.737833	1598.486328	908.373840
22959.208404	3265.737833	1597.446289	1103.548706
22959.208404	3265.737833	1596.405273	993.128052
22959.208404	3265.737833	1595.365234	1137.705078
22959.208404	3265.737833	1594.324219	1002.085388
22959.208404	3265.737833	1593.283203	1112.184326
22959.208404	3265.737833	1592.242188	997.307739
22959.208404	3265.737833	1591.200195	1118.859497
22959.208404	3265.737833	1590.159180	1148.607056
22959.208404	3265.737833	1589.117188	1086.590088
22959.208404	3265.737833	1588.075195	1189.751587
22959.208404	3265.737833	1587.032227	971.844238
22959.208404	3265.737833	1585.990234	1136.924316
22959.208404	3265.737833	1584.947266	1061.266479
22959.208404	3265.737833	1583.904297	1134.622803
22959.208404	3265.737833	1582.861328	1056.742432
22959.208404	3265.737833	1581.818359	1139.274536
22959.208404	3265.737833	1580.775391	974.427734
22959.208404	3265.737833	1579.731445	1068.428955
22959.208404	3265.737833	1578.687500	1089.150146
22959.208404	3265.737833	1577.643555	926.758545
22959.208404	3265.737833	1576.598633	949.827332
22959.208404	3265.737833	1575.554688	924.866394
22959.208404	3265.737833	1574.509766	851.890076
22959.208404	3265.737833	1573.464844	813.277100
22959.208404	3265.737833	1572.419922	911.916443
22959.208404	3265.737833	1571.374023	825.338684
22959.208404	3265.737833	1570.329102	946.850464
22959.208404	3265.737833	1569.283203	812.359436
22959.208404	3265.737833	1568.237305	824.193420
22959.208404	3265.737833	1567.191406	794.929260
22959.208404	3265.737833	1566.144531	676.617310
22959.208404	3265.737833	1565.098633	699.978943
22959.208404	3265.737833	1564.051758	597.776917
22959.208404	3265.737833	1563.004883	650.877686
22959.208404	3265.737833	1561.957031	628.665161
22959.208404	3265.737833	1560.910156	649.857971
22959.208404	3265.737833	1559.862305	748.639099
22959.208404	3265.737833	1558.814453	516.667297
22959.208404	3265.737833	1557.766602	439.901093
22959.208404	3265.737833	1556.718750	443.004608
22959.208404	3265.737833	1555.669922	587.475830
22959.208404	3265.737833	1554.621094	522.238403
22959.208404	3265.737833	1553.573242	582.403320
22959.208404	3265.737833	1552.523438	669.909363
22959.208404	3265.737833	1551.474609	531.915039
22959.208404	3265.737833	1550.424805	498.770020
22959.208404	3265.737833	1549.375000	554.479675
22959.208404	3265.737833	1548.325195	580.612976
22959.208404	3265.737833	1547.275391	531.665039
22959.208404	3265.737833	1546.225586	523.739441
22959.208404	3265.737833	1545.174805	734.271545
22959.208404	3265.737833	1544.124023	564.880310
22959.208404	3265.737833	1543.073242	657.142517
22959.208404	3265.737833	1542.022461	678.922791
22959.208404	3265.737833	1540.970703	632.530762
22959.208404	3265.737833	1539.919922	720.311279
22959.208404	3265.737833	1538.868164	878.544067
22959.208404	3265.737833	1537.815430	670.952942
22959.208404	3265.737833	1536.763672	729.273621
22959.208404	3265.737833	1535.710938	717.206482
22959.208404	3265.737833	1534.659180	843.710144
22959.208404	3265.737833	1533.606445	606.963806
22959.208404	3265.737833	1532.552734	810.697449
22959.208404	3265.737833	1531.500000	837.394470
22959.208404	3265.737833	1530.446289	909.503174
22959.208404	3265.737833	1529.393555	752.522278
22959.208404	3265.737833	1528.338867	840.589355
22959.208404	3265.737833	1527.285156	765.411987
22959.208404	3265.737833	1526.231445	654.041382
22959.208404	3265.737833	1525.176758	535.960999
22959.208404	3265.737833	1524.122070	540.355774
22959.208404	3265.737833	1523.067383	603.711975
22959.208404	3265.737833	1522.012695	503.991394
22959.208404	3265.737833	1520.957031	300.173920
22959.208404	3265.737833	1519.901367	245.943665
22959.208404	3265.737833	1518.845703	372.908997
22959.208404	3265.737833	1517.790039	318.794891
22959.208404	3265.737833	1516.734375	504.645691
22959.208404	3265.737833	1515.677734	475.521973
22959.208404	3265.737833	1514.621094	457.777130
22959.208404	3265.737833	1513.564453	415.216156
22959.208404	3265.737833	1512.507813	447.351654
22959.208404	3265.737833	1511.450195	373.266907
22959.208404	3265.737833	1510.393555	398.732025
22959.208404	3265.737833	1509.335938	372.260895
22959.208404	3265.737833	1508.278320	449.796295
22959.208404	3265.737833	1507.219727	312.744507
22959.208404	3265.737833	1506.162109	338.430847
22959.208404	3265.737833	1505.103516	314.482391
22959.208404	3265.737833	1504.044922	152.882233
22959.208404	3265.737833	1502.986328	307.424652
22959.208404	3265.737833	1501.926758	236.279770
22959.208404	3265.737833	1500.868164	185.535538
22959.208404	3265.737833	1499.808594	168.707748
22959.208404	3265.737833	1498.749023	-35.256950
22959.208404	3265.737833	1497.688477	164.569138
22959.208404	3265.737833	1496.628906	138.922852
22959.208404	3265.737833	1495.568359	68.262817
22959.208404	3265.737833	1494.507813	15.722946
22959.208404	3265.737833	1493.447266	102.969025
22959.208404	3265.737833	1492.386719	21.283516
22959.208404	3265.737833	1491.325195	-67.065727
22959.208404	3265.737833	1490.263672	-65.239998
22959.208404	3265.737833	1489.202148	-61.098927
22959.208404	3265.737833	1488.140625	-68.150101
22959.208404	3265.737833	1487.079102	109.412369
22959.208404	3265.737833	1486.016602	-163.056015
22959.208404	3265.737833	1484.954102	-172.140198
22959.208404	3265.737833	1483.891602	-37.205231
22959.208404	3265.737833	1482.829102	138.220291
22959.208404	3265.737833	1481.765625	73.069725
22959.208404	3265.737833	1480.702148	70.956093
22959.208404	3265.737833	1479.638672	-32.228340
22959.208404	3265.737833	1478.575195	-29.687511
22959.208404	3265.737833	1477.511719	-47.296261
22959.208404	3265.737833	1476.447266	33.966965
22959.208404	3265.737833	1475.382813	88.329094
22959.208404	3265.737833	1474.318359	-68.270782
22959.208404	3265.737833	1473.253906	31.124033
22959.208404	3265.737833	1472.189453	81.182602
22959.208404	3265.737833	1471.124023	133.505386
22959.208404	3265.737833	1470.058594	53.575302
22959.208404	3265.737833	1468.993164	-95.715935
22959.208404	3265.737833	1467.927734	-49.727116
22959.208404	3265.737833	1466.861328	80.998405
22959.208404	3265.737833	1465.794922	41.789463
22959.208404	3265.737833	1464.728516	-55.355324
22959.208404	3265.737833	1463.662109	64.323891
22959.208404	3265.737833	1462.594727	181.839630
22959.208404	3265.737833	1461.528320	116.239876
22959.208404	3265.737833	1460.460938	186.770844
22959.208404	3265.737833	1459.393555	49.990456
22959.208404	3265.737833	1458.326172	123.235168
22959.208404	3265.737833	1457.257813	214.122803
22959.208404	3265.737833	1456.189453	144.450302
22959.208404	3265.737833	1455.121094	17.084885
22959.208404	3265.737833	1454.052734	137.438675
22959.208404	3265.737833	1452.984375	254.882294
22959.208404	3265.737833	1451.915039	128.085602
22959.208404	3265.737833	1450.845703	232.380829
22959.208404	3265.737833	1449.776367	263.813873
22959.208404	3265.737833	1448.707031	236.881332
22959.208404	3265.737833	1447.636719	223.848969
22959.208404	3265.737833	1446.567383	254.968903
22959.208404	3265.737833	1445.497070	385.627777
22959.208404	3265.737833	1444.425781	284.371185
22959.208404	3265.737833	1443.355469	301.274994
22959.208404	3265.737833	1442.285156	371.667145
22959.208404	3265.737833	1441.213867	73.464188
22959.208404	3265.737833	1440.142578	254.719788
22959.208404	3265.737833	1439.070313	407.315979
22959.208404	3265.737833	1437.999023	95.301071
22959.208404	3265.737833	1436.926758	388.044220
22959.208404	3265.737833	1435.854492	315.846832
22959.208404	3265.737833	1434.782227	415.998383
22959.208404	3265.737833	1433.709961	194.883041
22959.208404	3265.737833	1432.636719	442.843140
22959.208404	3265.737833	1431.563477	349.322906
22959.208404	3265.737833	1430.490234	319.913513
22959.208404	3265.737833	1429.416992	364.252075
22959.208404	3265.737833	1428.343750	364.446350
22959.208404	3265.737833	1427.269531	298.572845
22959.208404	3265.737833	1426.195313	202.168228
22959.208404	3265.737833	1425.121094	257.103424
22959.208404	3265.737833	1424.046875	323.589233
22959.208404	3265.737833	1422.971680	404.280975
22959.208404	3265.737833	1421.896484	374.385437
22959.208404	3265.737833	1420.821289	349.643219
22959.208404	3265.737833	1419.746094	393.400757
22959.208404	3265.737833	1418.669922	329.727753
22959.208404	3265.737833	1417.594727	346.387726
22959.208404	3265.737833	1416.518555	269.277557
22959.208404	3265.737833	1415.442383	368.397491
22959.208404	3265.737833	1414.365234	225.984924
22959.208404	3265.737833	1413.289063	291.046539
22959.208404	3265.737833	1412.211914	251.883926
22959.208404	3265.737833	1411.134766	279.879944
22959.208404	3265.737833	1410.057617	221.207703
22959.208404	3265.737833	1408.979492	326.081421
22959.208404	3265.737833	1407.902344	272.054962
22959.208404	3265.737833	1406.824219	240.885635
22959.208404	3265.737833	1405.746094	247.464218
22959.208404	3265.737833	1404.666992	324.241974
22959.208404	3265.737833	1403.588867	294.733673
22959.208404	3265.737833	1402.509766	269.831879
22959.208404	3265.737833	1401.430664	301.903198
22959.208404	3265.737833	1400.351563	370.649475
22959.208404	3265.737833	1399.271484	233.551056
22959.208404	3265.737833	1398.192383	229.017151
22959.208404	3265.737833	1397.112305	161.667877
22959.208404	3265.737833	1396.031250	334.879608
22959.208404	3265.737833	1394.951172	210.810181
22959.208404	3265.737833	1393.871094	87.324799
22959.208404	3265.737833	1392.790039	112.525665
22959.208404	3265.737833	1391.708984	197.729996
22959.208404	3265.737833	1390.626953	286.146057
22959.208404	3265.737833	1389.545898	69.730461
22959.208404	3265.737833	1388.463867	65.893257
22959.208404	3265.737833	1387.381836	194.654068
22959.208404	3265.737833	1386.299805	179.673691
22959.208404	3265.737833	1385.217773	93.024536
22959.208404	3265.737833	1384.134766	212.549484
22959.208404	3265.737833	1383.051758	150.734177
22959.208404	3265.737833	1381.968750	196.962082
22959.208404	3265.737833	1380.885742	401.699615
22959.208404	3265.737833	1379.802734	152.086609
22959.208404	3265.737833	1378.718750	182.664352
22959.208404	3265.737833	1377.634766	349.533020
22959.208404	3265.737833	1376.550781	295.888977
22959.208404	3265.737833	1375.465820	348.259613
22959.208404	3265.737833	1374.381836	325.907471
22959.208404	3265.737833	1373.296875	356.026367
22959.208404	3265.737833	1372.211914	363.279114
22959.208404	3265.737833	1371.126953	435.046204
22959.208404	3265.737833	1370.041016	316.380066
22959.208404	3265.737833	1368.955078	308.816437
22959.208404	3265.737833	1367.869141	355.779205
22959.208404	3265.737833	1366.783203	292.687439
22959.208404	3265.737833	1365.697266	208.846863
22959.208404	3265.737833	1364.610352	275.415649
22959.208404	3265.737833	1363.523438	239.483459
22959.208404	3265.737833	1362.436523	94.108421
22959.208404	3265.737833	1361.349609	289.401459
22959.208404	3265.737833	1360.261719	415.549774
22959.208404	3265.737833	1359.174805	209.787109
22959.208404	3265.737833	1358.086914	287.833038
22959.208404	3265.737833	1356.998047	527.610657
22959.208404	3265.737833	1355.910156	448.918762
22959.208404	3265.737833	1354.821289	488.427002
22959.208404	3265.737833	1353.732422	592.088257
22959.208404	3265.737833	1352.643555	588.099365
22959.208404	3265.737833	1351.554688	582.120972
22959.208404	3265.737833	1350.464844	627.888000
22959.208404	3265.737833	1349.375000	742.516296
22959.208404	3265.737833	1348.285156	725.908691
22959.208404	3265.737833	1347.195313	795.655090
22959.208404	3265.737833	1346.105469	777.646606
22959.208404	3265.737833	1345.014648	716.258057
22959.208404	3265.737833	1343.923828	815.813965
22959.208404	3265.737833	1342.833008	788.375366
22959.208404	3265.737833	1341.741211	684.374817
22959.208404	3265.737833	1340.650391	791.957153
22959.208404	3265.737833	1339.558594	744.717773
22959.208404	3265.737833	1338.466797	693.558350
22959.208404	3265.737833	1337.374023	775.417236
22959.208404	3265.737833	1336.282227	738.101563
22959.208404	3265.737833	1335.189453	833.411316
22959.208404	3265.737833	1334.096680	642.065674
22959.208404	3265.737833	1333.003906	618.212524
22959.208404	3265.737833	1331.910156	604.935669
22959.208404	3265.737833	1330.817383	609.546570
22959.208404	3265.737833	1329.723633	510.917419
22959.208404	3265.737833	1328.629883	541.088440
22959.208404	3265.737833	1327.535156	521.147888
22959.208404	3265.737833	1326.441406	476.438263
22959.208404	3265.737833	1325.346680	441.568298
22959.208404	3265.737833	1324.251953	459.824677
22959.208404	3265.737833	1323.156250	472.132233
22959.208404	3265.737833	1322.061523	473.894684
22959.208404	3265.737833	1320.965820	400.199066
22959.208404	3265.737833	1319.870117	394.706421
22959.208404	3265.737833	1318.774414	359.151581
22959.208404	3265.737833	1317.678711	360.199066
22959.208404	3265.737833	1316.582031	176.182602
22959.208404	3265.737833	1315.485352	370.579010
22959.208404	3265.737833	1314.388672	308.643188
22959.208404	3265.737833	1313.291016	292.008636
22959.208404	3265.737833	1312.194336	404.139160
22959.208404	3265.737833	1311.096680	444.098816
22959.208404	3265.737833	1309.999023	333.235870
22959.208404	3265.737833	1308.901367	326.471222
22959.208404	3265.737833	1307.802734	366.698822
22959.208404	3265.737833	1306.705078	398.998322
22959.208404	3265.737833	1305.606445	418.680176
22959.208404	3265.737833	1304.506836	412.692230
22959.208404	3265.737833	1303.408203	486.485962
22959.208404	3265.737833	1302.308594	479.606873
22959.208404	3265.737833	1301.208984	428.515869
22959.208404	3265.737833	1300.109375	474.583923
22959.208404	3265.737833	1299.009766	464.193878
22959.208404	3265.737833	1297.909180	407.855591
22959.208404	3265.737833	1296.808594	399.835510
22959.208404	3265.737833	1295.708008	458.673615
22959.208404	3265.737833	1294.607422	264.680908
22959.208404	3265.737833	1293.506836	270.007721
22959.208404	3265.737833	1292.405273	272.760284
22959.208404	3265.737833	1291.303711	241.081833
22959.208404	3265.737833	1290.202148	293.921051
22959.208404	3265.737833	1289.099609	112.801247
22959.208404	3265.737833	1287.998047	86.518974
22959.208404	3265.737833	1286.895508	47.400177
22959.208404	3265.737833	1285.792969	111.306244
22959.208404	3265.737833	1284.689453	139.532990
22959.208404	3265.737833	1283.586914	74.853424
22959.208404	3265.737833	1282.483398	104.709816
22959.208404	3265.737833	1281.379883	35.917603
22959.208404	3265.737833	1280.276367	18.148617
22959.208404	3265.737833	1279.171875	-14.883764
22959.208404	3265.737833	1278.067383	-58.500881
22959.208404	3265.737833	1276.962891	-33.112438
22959.208404	3265.737833	1275.858398	-15.279026
22959.208404	3265.737833	1274.753906	-30.319038
22959.208404	3265.737833	1273.648438	53.028835
22959.208404	3265.737833	1272.542969	-74.184265
22959.208404	3265.737833	1271.437500	41.749149
22959.208404	3265.737833	1270.331055	61.691502
22959.208404	3265.737833	1269.225586	-69.722771
22959.208404	3265.737833	1268.119141	26.590599
22959.208404	3265.737833	1267.012695	29.085531
22959.208404	3265.737833	1265.906250	24.883581
22959.208404	3265.737833	1264.798828	45.239315
22959.208404	3265.737833	1263.691406	93.679382
22959.208404	3265.737833	1262.583984	87.748672
22959.208404	3265.737833	1261.476563	137.274307
22959.208404	3265.737833	1260.368164	-29.304035
22959.208404	3265.737833	1259.260742	89.770470
22959.208404	3265.737833	1258.152344	63.561287
22959.208404	3265.737833	1257.043945	74.023224
22959.208404	3265.737833	1255.934570	37.806927
22959.208404	3265.737833	1254.825195	4.504415
22959.208404	3265.737833	1253.716797	-137.509613
22959.208404	3265.737833	1252.606445	5.088923
22959.208404	3265.737833	1251.497070	-83.215485
22959.208404	3265.737833	1250.387695	11.837701
22959.208404	3265.737833	1249.277344	-101.351341
22959.208404	3265.737833	1248.166992	-74.286797
22959.208404	3265.737833	1247.055664	-33.033810
22959.208404	3265.737833	1245.945313	-51.709667
22959.208404	3265.737833	1244.833984	-23.801559
22959.208404	3265.737833	1243.722656	-94.310760
22959.208404	3265.737833	1242.611328	75.417526
22959.208404	3265.737833	1241.499023	-68.636902
22959.208404	3265.737833	1240.387695	-63.080105
22959.208404	3265.737833	1239.275391	-62.925625
22959.208404	3265.737833	1238.162109	-87.123146
22959.208404	3265.737833	1237.049805	-121.516045
22959.208404	3265.737833	1235.936523	-27.258467
22959.208404	3265.737833	1234.823242	-23.764275
22959.208404	3265.737833	1233.709961	-75.197014
22959.208404	3265.737833	1232.596680	-35.454121
22959.208404	3265.737833	1231.482422	-94.684685
22959.208404	3265.737833	1230.369141	-108.319923
22959.208404	3265.737833	1229.253906	-20.059626
22959.208404	3265.737833	1228.139648	2.941098
22959.208404	3265.737833	1227.025391	47.182571
22959.208404	3265.737833	1225.910156	-30.139584
22959.208404	3265.737833	1224.794922	-17.223347
22959.208404	3265.737833	1223.679688	125.041679
22959.208404	3265.737833	1222.563477	16.768597
22959.208404	3265.737833	1221.447266	58.739906
22959.208404	3265.737833	1220.331055	58.876080
22959.208404	3265.737833	1219.214844	159.736755
22959.208404	3265.737833	1218.098633	125.168175
22959.208404	3265.737833	1216.981445	134.891327
22959.208404	3265.737833	1215.864258	146.840637
22959.208404	3265.737833	1214.747070	129.841354
22959.208404	3265.737833	1213.629883	150.995636
22959.208404	3265.737833	1212.511719	188.691391
22959.208404	3265.737833	1211.393555	313.604828
22959.208404	3265.737833	1210.275391	359.167633
22959.208404	3265.737833	1209.157227	308.257843
22959.208404	3265.737833	1208.038086	106.000191
22959.208404	3265.737833	1206.918945	192.196869
22959.208404	3265.737833	1205.799805	192.304535
22959.208404	3265.737833	1204.680664	180.675323
22959.208404	3265.737833	1203.560547	237.069199
22959.208404	3265.737833	1202.441406	232.961670
22959.208404	3265.737833	1201.321289	198.372055
22959.208404	3265.737833	1200.200195	211.139313
22959.208404	3265.737833	1199.080078	124.484627
22959.208404	3265.737833	1197.958984	237.204117
22959.208404	3265.737833	1196.837891	180.886230
22959.208404	3265.737833	1195.716797	83.330925
22959.208404	3265.737833	1194.594727	140.498749
22959.208404	3265.737833	1193.473633	93.802467
22959.208404	3265.737833	1192.351563	107.565407
22959.208404	3265.737833	1191.229492	144.282867
22959.208404	3265.737833	1190.106445	113.022270
22959.208404	3265.737833	1188.984375	94.573013
22959.208404	3265.737833	1187.861328	111.125488
22959.208404	3265.737833	1186.738281	109.914803
22959.208404	3265.737833	1185.614258	119.343307
22959.208404	3265.737833	1184.491211	48.739609
22959.208404	3265.737833	1183.367188	125.860855
22959.208404	3265.737833	1182.243164	11.538454
22959.208404	3265.737833	1181.119141	55.793571
22959.208404	3265.737833	1179.994141	3.582200
22959.208404	3265.737833	1178.869141	145.111282
22959.208404	3265.737833	1177.744141	55.608074
22959.208404	3265.737833	1176.619141	59.176277
22959.208404	3265.737833	1175.493164	47.377293
22959.208404	3265.737833	1174.368164	48.076710
22959.208404	3265.737833	1173.242188	-41.875839
22959.208404	3265.737833	1172.115234	-94.854233
22959.208404	3265.737833	1170.989258	30.528748
22959.208404	3265.737833	1169.862305	-77.106880
22959.208404	3265.737833	1168.735352	-151.290283
22959.208404	3265.737833	1167.608398	-34.964096
22959.208404	3265.737833	1166.481445	-78.840004
22959.208404	3265.737833	1165.353516	-28.063309
22959.208404	3265.737833	1164.225586	-31.176744
22959.208404	3265.737833	1163.097656	24.726181
22959.208404	3265.737833	1161.968750	109.715446
22959.208404	3265.737833	1160.840820	-81.648453
22959.208404	3265.737833	1159.711914	34.167713
22959.208404	3265.737833	1158.583008	-89.916740
22959.208404	3265.737833	1157.453125	-52.745487
22959.208404	3265.737833	1156.324219	-33.696808
22959.208404	3265.737833	1155.194336	-157.945633
22959.208404	3265.737833	1154.064453	-187.897736
22959.208404	3265.737833	1152.933594	-54.683495
22959.208404	3265.737833	1151.803711	-58.354809
22959.208404	3265.737833	1150.672852	-116.642937
22959.208404	3265.737833	1149.541992	-24.858814
22959.208404	3265.737833	1148.411133	-68.206245
22959.208404	3265.737833	1147.279297	27.817106
22959.208404	3265.737833	1146.147461	-22.645510
22959.208404	3265.737833	1145.015625	-78.284698
22959.208404	3265.737833	1143.883789	-19.620647
22959.208404	3265.737833	1142.750977	11.634056
22959.208404	3265.737833	1141.619141	98.814224
22959.208404	3265.737833	1140.486328	-55.087692
22959.208404	3265.737833	1139.352539	-37.122700
22959.208404	3265.737833	1138.219727	-89.189705
22959.208404	3265.737833	1137.085938	-117.683121
22959.208404	3265.737833	1135.952148	22.408251
22959.208404	3265.737833	1134.818359	-69.441132
22959.208404	3265.737833	1133.683594	26.922197
22959.208404	3265.737833	1132.549805	-14.279304
22959.208404	3265.737833	1131.415039	55.872707
22959.208404	3265.737833	1130.279297	51.933697
22959.208404	3265.737833	1129.144531	126.616539
22959.208404	3265.737833	1128.008789	170.727127
22959.208404	3265.737833	1126.873047	86.305695
22959.208404	3265.737833	1125.737305	90.195892
22959.208404	3265.737833	1124.601563	71.823402
22959.208404	3265.737833	1123.464844	85.345383
22959.208404	3265.737833	1122.328125	-9.697329
22959.208404	3265.737833	1121.191406	-45.090939
22959.208404	3265.737833	1120.054688	65.877846
22959.208404	3265.737833	1118.916992	40.625854
22959.208404	3265.737833	1117.779297	-21.161900
22959.208404	3265.737833	1116.641602	33.452995
22959.208404	3265.737833	1115.503906	-26.888901
22959.208404	3265.737833	1114.365234	-60.780140
22959.208404	3265.737833	1113.226563	-48.558517
22959.208404	3265.737833	1112.087891	-17.391083
22959.208404	3265.737833	1110.949219	68.525826
22959.208404	3265.737833	1109.809570	57.073200
22959.208404	3265.737833	1108.669922	217.410431
22959.208404	3265.737833	1107.530273	213.485245
22959.208404	3265.737833	1106.390625	40.258060
22959.208404	3265.737833	1105.250000	113.719620
22959.208404	3265.737833	1104.109375	177.991852
22959.208404	3265.737833	1102.968750	251.538132
22959.208404	3265.737833	1101.828125	87.632339
22959.208404	3265.737833	1100.686523	159.327652
22959.208404	3265.737833	1099.544922	181.847198
22959.208404	3265.737833	1098.403320	75.713921
22959.208404	3265.737833	1097.261719	155.044510
22959.208404	3265.737833	1096.120117	94.806755
22959.208404	3265.737833	1094.977539	120.089813
22959.208404	3265.737833	1093.834961	109.187286
22959.208404	3265.737833	1092.691406	94.312309
22959.208404	3265.737833	1091.548828	103.228577
22959.208404	3265.737833	1090.405273	138.390152
22959.208404	3265.737833	1089.261719	47.989220
22959.208404	3265.737833	1088.118164	33.153236
22959.208404	3265.737833	1086.973633	130.979004
22959.208404	3265.737833	1085.829102	146.512314
22959.208404	3265.737833	1084.684570	156.048615
22959.208404	3265.737833	1083.540039	64.650940
22959.208404	3265.737833	1082.395508	122.029282
22959.208404	3265.737833	1081.250000	60.815983
22959.208404	3265.737833	1080.104492	12.127771
22959.208404	3265.737833	1078.958984	92.335320
22959.208404	3265.737833	1077.812500	169.784729
22959.208404	3265.737833	1076.666016	14.457123
22959.208404	3265.737833	1075.519531	-64.674309
22959.208404	3265.737833	1074.373047	95.215698
22959.208404	3265.737833	1073.226563	9.864041
22959.208404	3265.737833	1072.079102	-7.954090
22959.208404	3265.737833	1070.931641	17.184938
22959.208404	3265.737833	1069.784180	-101.955605
22959.208404	3265.737833	1068.635742	9.715803
22959.208404	3265.737833	1067.487305	-47.843903
22959.208404	3265.737833	1066.338867	30.950813
22959.208404	3265.737833	1065.190430	99.941353
22959.208404	3265.737833	1064.041992	148.054581
22959.208404	3265.737833	1062.892578	11.470759
22959.208404	3265.737833	1061.743164	80.312500
22959.208404	3265.737833	1060.593750	112.894859
22959.208404	3265.737833	1059.443359	-0.323170
22959.208404	3265.737833	1058.292969	220.323120
22959.208404	3265.737833	1057.142578	109.479340
22959.208404	3265.737833	1055.992188	54.294533
22959.208404	3265.737833	1054.841797	56.611599
22959.208404	3265.737833	1053.690430	136.730240
22959.208404	3265.737833	1052.539063	109.537964
22959.208404	3265.737833	1051.387695	124.165749
22959.208404	3265.737833	1050.235352	146.315094
22959.208404	3265.737833	1049.083984	170.189804
22959.208404	3265.737833	1047.931641	154.587265
22959.208404	3265.737833	1046.778320	179.588593
22959.208404	3265.737833	1045.625977	179.936340
22959.208404	3265.737833	1044.472656	27.504396
22959.208404	3265.737833	1043.319336	56.697567
22959.208404	3265.737833	1042.166016	116.493538
22959.208404	3265.737833	1041.012695	-37.038692
22959.208404	3265.737833	1039.858398	85.471107
22959.208404	3265.737833	1038.704102	96.245735
22959.208404	3265.737833	1037.549805	96.194031
22959.208404	3265.737833	1036.394531	91.785278
22959.208404	3265.737833	1035.239258	14.615903
22959.208404	3265.737833	1034.083984	-16.103008
22959.208404	3265.737833	1032.928711	-45.663280
22959.208404	3265.737833	1031.773438	-52.623837
22959.208404	3265.737833	1030.617188	82.302864
22959.208404	3265.737833	1029.460938	28.386696
22959.208404	3265.737833	1028.304688	-43.708103
22959.208404	3265.737833	1027.147461	198.101837
22959.208404	3265.737833	1025.991211	28.785030
22959.208404	3265.737833	1024.833984	153.029510
22959.208404	3265.737833	1023.675781	-6.498117
22959.208404	3265.737833	1022.518555	141.010666
22959.208404	3265.737833	1021.360352	237.707626
22959.208404	3265.737833	1020.202148	126.055214
22959.208404	3265.737833	1019.043945	18.113678
22959.208404	3265.737833	1017.884766	113.876854
22959.208404	3265.737833	1016.726563	39.280941
22959.208404	3265.737833	1015.567383	208.973068
22959.208404	3265.737833	1014.407227	205.460205
22959.208404	3265.737833	1013.248047	136.298798
22959.208404	3265.737833	1012.087891	271.449799
22959.208404	3265.737833	1010.927734	230.149841
22959.208404	3265.737833	1009.767578	208.021133
22959.208404	3265.737833	1008.606445	216.344986
22959.208404	3265.737833	1007.446289	273.543762
22959.208404	3265.737833	1006.285156	136.201279
22959.208404	3265.737833	1005.123047	154.126282
22959.208404	3265.737833	1003.961914	161.517151
22959.208404	3265.737833	1002.799805	133.117249
22959.208404	3265.737833	1001.637695	264.841553
22959.208404	3265.737833	1000.475586	196.660995
22959.208404	3265.737833	999.312500	175.540741
22959.208404	3265.737833	998.149414	76.100418
22959.208404	3265.737833	996.986328	239.772369
22959.208404	3265.737833	995.823242	194.207184
22959.208404	3265.737833	994.659180	203.461288
22959.208404	3265.737833	993.496094	101.965874
22959.208404	3265.737833	992.332031	61.213932
22959.208404	3265.737833	991.166992	-22.684040
22959.208404	3265.737833	990.002930	144.891754
22959.208404	3265.737833	988.837891	16.586029
22959.208404	3265.737833	987.672852	45.090893
22959.208404	3265.737833	986.506836	168.874252
22959.208404	3265.737833	985.341797	79.413933
22959.208404	3265.737833	984.175781	-21.611752
22959.208404	3265.737833	983.009766	-28.537519
22959.208404	3265.737833	981.843750	6.985469
22959.208404	3265.737833	980.676758	126.897209
22959.208404	3265.737833	979.509766	-25.230707
22959.208404	3265.737833	978.342773	11.262089
22959.208404	3265.737833	977.175781	64.625305
22959.208404	3265.737833	976.007813	-63.837368
22959.208404	3265.737833	974.839844	18.674746
22959.208404	3265.737833	973.671875	5.842511
22959.208404	3265.737833	972.503906	-111.822159
22959.208404	3265.737833	971.334961	17.672354
22959.208404	3265.737833	970.166016	-3.389816
22959.208404	3265.737833	968.997070	-56.009449
22959.208404	3265.737833	967.828125	89.007988
22959.208404	3265.737833	966.658203	-16.374769
22959.208404	3265.737833	965.488281	76.694839
22959.208404	3265.737833	964.318359	-26.657011
22959.208404	3265.737833	963.148438	-66.499474
22959.208404	3265.737833	961.977539	32.835209
22959.208404	3265.737833	960.806641	2.852484
22959.208404	3265.737833	959.635742	83.703911
22959.208404	3265.737833	958.463867	56.610901
22959.208404	3265.737833	957.292969	93.558411
22959.208404	3265.737833	956.121094	-72.761894
22959.208404	3265.737833	954.948242	16.261452
22959.208404	3265.737833	953.776367	55.442581
22959.208404	3265.737833	952.603516	1.366625
22959.208404	3265.737833	951.430664	-117.663506
22959.208404	3265.737833	950.257813	-50.902512
22959.208404	3265.737833	949.084961	-4.651978
22959.208404	3265.737833	947.911133	-127.607605
22959.208404	3265.737833	946.737305	-84.099251
22959.208404	3265.737833	945.563477	-85.604279
22959.208404	3265.737833	944.388672	-156.391190
22959.208404	3265.737833	943.213867	-1.074460
22959.208404	3265.737833	942.039063	-136.242310
22959.208404	3265.737833	940.864258	-30.636284
22959.208404	3265.737833	939.688477	-41.905785
22959.208404	3265.737833	938.513672	87.248985
22959.208404	3265.737833	937.337891	-16.772745
22959.208404	3265.737833	936.161133	43.269863
22959.208404	3265.737833	934.985352	72.418869
22959.208404	3265.737833	933.808594	3.939632
22959.208404	3265.737833	932.631836	199.702621
22959.208404	3265.737833	931.454102	26.558825
22959.208404	3265.737833	930.277344	29.479076
22959.208404	3265.737833	929.099609	82.327278
22959.208404	3265.737833	927.921875	213.625793
22959.208404	3265.737833	926.743164	209.365189
22959.208404	3265.737833	925.565430	214.577438
22959.208404	3265.737833	924.386719	188.896851
22959.208404	3265.737833	923.208008	113.300392
22959.208404	3265.737833	922.028320	156.516891
22959.208404	3265.737833	920.849609	178.330322
22959.208404	3265.737833	919.669922	179.679108
22959.208404	3265.737833	919.474609	43.590290
22959.208404	3265.737833	918.309570	63.002777
22959.208404	3265.737833	917.143555	42.037067
22959.208404	3265.737833	915.977539	246.565216
22959.208404	3265.737833	914.810547	111.637238
22959.208404	3265.737833	913.644531	145.212509
22959.208404	3265.737833	912.477539	-22.872736
22959.208404	3265.737833	911.310547	-69.943207
22959.208404	3265.737833	910.143555	6.299064
22959.208404	3265.737833	908.975586	35.085171
22959.208404	3265.737833	907.807617	144.438583
22959.208404	3265.737833	906.639648	40.455597
22959.208404	3265.737833	905.471680	85.771057
22959.208404	3265.737833	904.303711	22.091606
22959.208404	3265.737833	903.134766	29.479338
22959.208404	3265.737833	901.965820	-55.493416
22959.208404	3265.737833	900.796875	-10.235269
22959.208404	3265.737833	899.626953	-38.378971
22959.208404	3265.737833	898.457031	4.471058
22959.208404	3265.737833	897.287109	-30.781784
22959.208404	3265.737833	896.117188	-89.684303
22959.208404	3265.737833	894.947266	-42.149521
22959.208404	3265.737833	893.776367	-160.156921
22959.208404	3265.737833	892.605469	-32.269886
22959.208404	3265.737833	891.434570	-6.075749
22959.208404	3265.737833	890.262695	-3.531578
22959.208404	3265.737833	889.091797	27.351616
22959.208404	3265.737833	887.919922	79.472137
22959.208404	3265.737833	886.748047	136.285202
22959.208404	3265.737833	885.575195	44.316601
22959.208404	3265.737833	884.403320	11.390836
22959.208404	3265.737833	883.230469	9.151734
22959.208404	3265.737833	882.057617	-2.534338
22959.208404	3265.737833	880.883789	-61.407734
22959.208404	3265.737833	879.710938	-23.560419
22959.208404	3265.737833	878.537109	11.904297
22959.208404	3265.737833	877.362305	-23.386148
22959.208404	3265.737833	876.188477	-37.456783
22959.208404	3265.737833	875.013672	-9.108244
22959.208404	3265.737833	873.839844	59.275089
22959.208404	3265.737833	872.664063	49.881599
22959.208404	3265.737833	871.489258	14.573213
22959.208404	3265.737833	870.313477	87.593163
22959.208404	3265.737833	869.138672	9.894528
22959.208404	3265.737833	867.962891	14.604780
22959.208404	3265.737833	866.786133	106.379654
22959.208404	3265.737833	865.610352	59.285534
22959.208404	3265.737833	864.433594	63.955219
22959.208404	3265.737833	863.256836	28.631119
22959.208404	3265.737833	862.079102	-133.666550
22959.208404	3265.737833	860.902344	33.229244
22959.208404	3265.737833	859.724609	197.697296
22959.208404	3265.737833	858.546875	-65.614662
22959.208404	3265.737833	857.368164	-126.767052
22959.208404	3265.737833	856.190430	-89.245132
22959.208404	3265.737833	855.011719	-75.232658
22959.208404	3265.737833	853.833008	147.743774
22959.208404	3265.737833	852.654297	-89.511696
22959.208404	3265.737833	851.474609	62.943924
22959.208404	3265.737833	850.294922	-14.643982
22959.208404	3265.737833	849.115234	-68.748611
22959.208404	3265.737833	847.935547	-115.803612
22959.208404	3265.737833	846.754883	-5.721038
22959.208404	3265.737833	845.575195	26.930454
22959.208404	3265.737833	844.393555	-45.930927
22959.208404	3265.737833	843.212891	-81.273323
22959.208404	3265.737833	842.032227	-135.357941
22959.208404	3265.737833	840.850586	-37.148647
22959.208404	3265.737833	839.668945	11.821192
22959.208404	3265.737833	838.486328	-46.963108
22959.208404	3265.737833	837.304688	-61.248802
22959.208404	3265.737833	836.122070	41.503662
22959.208404	3265.737833	834.939453	-75.791794
22959.208404	3265.737833	833.756836	-115.833984
22959.208404	3265.737833	832.573242	117.841354
22959.208404	3265.737833	831.389648	94.126671
22959.208404	3265.737833	830.206055	-46.511822
22959.208404	3265.737833	829.022461	91.113770
22959.208404	3265.737833	827.838867	27.647858
22959.208404	3265.737833	826.654297	38.980923
22959.208404	3265.737833	825.469727	169.460052
22959.208404	3265.737833	824.284180	33.565525
22959.208404	3265.737833	823.099609	152.290512
22959.208404	3265.737833	821.914063	182.221664
22959.208404	3265.737833	820.728516	114.075256
22959.208404	3265.737833	819.542969	78.622131
22959.208404	3265.737833	818.356445	110.846428
22959.208404	3265.737833	817.169922	33.386799
22959.208404	3265.737833	815.983398	-100.037178
22959.208404	3265.737833	814.796875	60.435703
22959.208404	3265.737833	813.609375	127.561974
22959.208404	3265.737833	812.422852	103.729012
22959.208404	3265.737833	811.235352	-4.014328
22959.208404	3265.737833	810.046875	-13.855243
22959.208404	3265.737833	808.859375	6.581493
22959.208404	3265.737833	807.670898	71.252373
22959.208404	3265.737833	806.482422	-45.765415
22959.208404	3265.737833	805.293945	-20.720562
22959.208404	3265.737833	804.104492	-51.568542
22959.208404	3265.737833	802.915039	-112.674034
22959.208404	3265.737833	801.725586	61.246975
22959.208404	3265.737833	800.536133	-34.782719
22959.208404	3265.737833	799.345703	-72.639061
22959.208404	3265.737833	798.155273	42.984699
22959.208404	3265.737833	796.964844	12.071783
22959.208404	3265.737833	795.774414	-83.929237
22959.208404	3265.737833	794.583008	94.326332
22959.208404	3265.737833	793.392578	-83.006699
22959.208404	3265.737833	792.200195	-0.101945
22959.208404	3265.737833	791.008789	52.558586
22959.208404	3265.737833	789.816406	19.264002
22959.208404	3265.737833	788.625000	146.156998
22959.208404	3265.737833	787.432617	87.290779
22959.208404	3265.737833	786.239258	-8.698140
22959.208404	3265.737833	785.046875	-25.778818
22959.208404	3265.737833	783.853516	96.309883
22959.208404	3265.737833	782.660156	-36.780903
22959.208404	3265.737833	781.465820	27.256252
22959.208404	3265.737833	780.272461	-103.482651
22959.208404	3265.737833	779.078125	48.579815
22959.208404	3265.737833	777.883789	-45.069717
22959.208404	3265.737833	776.688477	32.743305
22959.208404	3265.737833	775.494141	68.811287
22959.208404	3265.737833	774.298828	42.317978
22959.208404	3265.737833	773.103516	-58.274834
22959.208404	3265.737833	771.907227	33.288391
22959.208404	3265.737833	770.711914	57.676647
22959.208404	3265.737833	769.515625	-38.287773
22959.208404	3265.737833	768.318359	39.273308
22959.208404	3265.737833	767.122070	-40.497395
22959.208404	3265.737833	765.924805	-53.194668
22959.208404	3265.737833	764.727539	42.755188
22959.208404	3265.737833	763.530273	177.939880
22959.208404	3265.737833	762.333008	116.610680
22959.208404	3265.737833	761.134766	36.801292
22959.208404	3265.737833	759.936523	-86.887642
22959.208404	3265.737833	758.738281	-37.328876
22959.208404	3265.737833	757.540039	-50.158344
22959.208404	3265.737833	756.340820	-12.215453
22959.208404	3265.737833	755.141602	-98.950279
22959.208404	3265.737833	753.942383	68.170197
22959.208404	3265.737833	752.742188	170.596542
22959.208404	3265.737833	751.541992	157.623383
22959.208404	3265.737833	750.341797	-0.659149
22959.208404	3265.737833	749.141602	69.367897
22959.208404	3265.737833	747.941406	21.774164
22959.208404	3265.737833	746.740234	130.900269
22959.208404	3265.737833	745.539063	37.179611
22959.208404	3265.737833	744.337891	164.638840
22959.208404	3265.737833	743.135742	105.450569
22959.208404	3265.737833	741.933594	131.467667
22959.208404	3265.737833	740.731445	92.982437
22959.208404	3265.737833	739.529297	105.129951
22959.208404	3265.737833	738.326172	156.369858
22959.208404	3265.737833	737.124023	189.156326
22959.208404	3265.737833	735.919922	159.790482
22959.208404	3265.737833	734.716797	266.108551
22959.208404	3265.737833	733.513672	241.286514
22959.208404	3265.737833	732.309570	131.384445
22959.208404	3265.737833	731.105469	205.383392
22959.208404	3265.737833	729.900391	109.269196
22959.208404	3265.737833	728.696289	231.436798
22959.208404	3265.737833	727.491211	169.759460
22959.208404	3265.737833	726.286133	57.556156
22959.208404	3265.737833	725.080078	117.579788
22959.208404	3265.737833	723.874023	44.403770
22959.208404	3265.737833	722.668945	198.451706
22959.208404	3265.737833	721.461914	40.330124
22959.208404	3265.737833	720.255859	19.899006
22959.208404	3265.737833	719.048828	29.265709
22959.208404	3265.737833	717.841797	27.133663
22959.208404	3265.737833	716.634766	79.999802
22959.208404	3265.737833	715.427734	9.032947
22959.208404	3265.737833	714.219727	-94.019073
22959.208404	3265.737833	713.011719	-82.491798
22959.208404	3265.737833	711.803711	50.415447
22959.208404	3265.737833	710.594727	-29.765882
22959.208404	3265.737833	709.385742	-27.507467
22959.208404	3265.737833	708.176758	-22.990082
22959.208404	3265.737833	706.967773	43.295937
22959.208404	3265.737833	705.758789	63.755756
22959.208404	3265.737833	704.548828	6.385590
22959.208404	3265.737833	703.338867	-147.063934
22959.208404	3265.737833	702.127930	-48.912094
22959.208404	3265.737833	700.917969	53.742542
22959.208404	3265.737833	699.707031	26.019337
22959.208404	3265.737833	698.496094	27.988848
22959.208404	3265.737833	697.285156	71.058228
22959.208404	3265.737833	696.073242	82.093193
22959.208404	3265.737833	694.861328	-14.259949
22959.208404	3265.737833	693.649414	53.817116
22959.208404	3265.737833	692.436523	112.701263
22959.208404	3265.737833	691.224609	123.594604
22959.208404	3265.737833	690.011719	31.752419
22959.208404	3265.737833	688.798828	206.877808
22959.208404	3265.737833	687.584961	133.242584
22959.208404	3265.737833	686.372070	180.488541
22959.208404	3265.737833	685.158203	350.816559
22959.208404	3265.737833	683.943359	247.464859
22959.208404	3265.737833	682.729492	385.733582
22959.208404	3265.737833	681.514648	323.374268
22959.208404	3265.737833	680.299805	361.257202
22959.208404	3265.737833	679.084961	449.205658
22959.208404	3265.737833	677.869141	297.957611
22959.208404	3265.737833	676.653320	372.156433
22959.208404	3265.737833	675.437500	252.795761
22959.208404	3265.737833	674.221680	163.041183
22959.208404	3265.737833	673.004883	255.328857
22959.208404	3265.737833	671.789063	306.598053
22959.208404	3265.737833	670.571289	216.790939
22959.208404	3265.737833	669.354492	199.760895
22959.208404	3265.737833	668.136719	150.875198
22959.208404	3265.737833	666.919922	101.980629
22959.208404	3265.737833	665.701172	191.700165
22959.208404	3265.737833	664.483398	195.012070
22959.208404	3265.737833	663.264648	177.844482
22959.208404	3265.737833	662.045898	178.822556
22959.208404	3265.737833	660.827148	141.168106
22959.208404	3265.737833	659.608398	151.172226
22959.208404	3265.737833	658.388672	108.935921
22959.208404	3265.737833	657.168945	53.071289
22959.208404	3265.737833	655.949219	62.993500
22959.208404	3265.737833	654.728516	136.390900
22959.208404	3265.737833	653.507813	44.177425
22959.208404	3265.737833	652.287109	101.615936
22959.208404	3265.737833	651.066406	-24.614204
22959.208404	3265.737833	649.844727	107.542465
22959.208404	3265.737833	648.623047	230.549820
22959.208404	3265.737833	647.401367	224.347504
22959.208404	3265.737833	646.179688	77.692551
22959.208404	3265.737833	644.957031	114.488495
22959.208404	3265.737833	643.734375	15.401499
22959.208404	3265.737833	642.511719	142.676880
22959.208404	3265.737833	641.289063	156.718689
22959.208404	3265.737833	640.065430	218.237045
22959.208404	3265.737833	638.841797	132.667267
22959.208404	3265.737833	637.618164	123.999352
22959.208404	3265.737833	636.393555	42.949734
22959.208404	3265.737833	635.168945	165.362503
22959.208404	3265.737833	633.944336	219.891739
22959.208404	3265.737833	632.719727	161.387833
22959.208404	3265.737833	631.494141	136.767349
22959.208404	3265.737833	630.269531	155.048065
22959.208404	3265.737833	629.042969	148.449371
22959.208404	3265.737833	627.817383	196.016144
22959.208404	3265.737833	626.590820	112.612968
22959.208404	3265.737833	625.365234	209.765121
22959.208404	3265.737833	624.137695	234.643921
22959.208404	3265.737833	622.911133	176.024536
22959.208404	3265.737833	621.683594	148.977463
22959.208404	3265.737833	620.456055	38.487247
22959.208404	3265.737833	619.228516	103.863846
22959.208404	3265.737833	618.000977	112.840538
22959.208404	3265.737833	616.772461	151.082809
22959.208404	3265.737833	615.543945	187.033340
22959.208404	3265.737833	614.314453	-9.062804
22959.208404	3265.737833	613.085938	29.114502
22959.208404	3265.737833	611.856445	-11.552420
22959.208404	3265.737833	610.626953	-25.210648
22959.208404	3265.737833	609.397461	3.877062
22959.208404	3265.737833	608.166992	-133.577454
22959.208404	3265.737833	606.936523	37.203583
22959.208404	3265.737833	605.706055	52.702576
22959.208404	3265.737833	604.474609	137.881332
22959.208404	3265.737833	603.244141	157.811264
22959.208404	3265.737833	602.012695	159.729965
22959.208404	3265.737833	600.780273	62.749737
22959.208404	3265.737833	599.548828	141.042648
22959.208404	3265.737833	598.316406	178.850159
22959.208404	3265.737833	597.083984	-55.115662
22959.208404	3265.737833	595.851563	18.610531
22959.208404	3265.737833	594.618164	38.411415
22959.208404	3265.737833	593.384766	31.256907
22959.208404	3265.737833	592.151367	-20.786058
22959.208404	3265.737833	590.917969	-12.248675
22959.208404	3265.737833	589.683594	-30.646227
22959.208404	3265.737833	588.449219	-51.290470
22959.208404	3265.737833	587.214844	-47.276062
22959.208404	3265.737833	585.979492	-110.523071
22959.208404	3265.737833	584.745117	-5.674036
22959.208404	3265.737833	583.509766	54.305836
22959.208404	3265.737833	582.273438	-29.116096
22959.208404	3265.737833	581.038086	-16.206333
22959.208404	3265.737833	579.801758	14.598701
22959.208404	3265.737833	578.565430	-41.923286
22959.208404	3265.737833	577.329102	76.147255
22959.208404	3265.737833	576.091797	178.494263
22959.208404	3265.737833	574.854492	-83.871628
22959.208404	3265.737833	573.617188	-10.623117
22959.208404	3265.737833	572.378906	-13.445899
22959.208404	3265.737833	571.141602	55.275955
22959.208404	3265.737833	569.903320	45.726612
22959.208404	3265.737833	568.664063	-91.208527
22959.208404	3265.737833	567.425781	19.926323
22959.208404	3265.737833	566.186523	37.187412
22959.208404	3265.737833	564.947266	-5.860856
22959.208404	3265.737833	563.708008	107.411568
22959.208404	3265.737833	562.467773	117.941101
22959.208404	3265.737833	561.227539	52.581703
22959.208404	3265.737833	559.987305	118.908264
22959.208404	3265.737833	558.747070	-57.969189
22959.208404	3265.737833	557.505859	-9.489202
22959.208404	3265.737833	556.264648	76.884308
22959.208404	3265.737833	555.023438	207.817047
22959.208404	3265.737833	553.781250	138.077515
22959.208404	3265.737833	552.539063	104.031387
22959.208404	3265.737833	551.296875	174.728638
22959.208404	3265.737833	550.054688	102.833031
22959.208404	3265.737833	548.811523	131.195114
22959.208404	3265.737833	547.569336	92.756439
22959.208404	3265.737833	546.325195	-34.712444
22959.208404	3265.737833	545.082031	49.332226
22959.208404	3265.737833	543.837891	28.760860
22959.208404	3265.737833	542.593750	34.906834
22959.208404	3265.737833	541.349609	-14.545592
22959.208404	3265.737833	540.105469	58.346619
22959.208404	3265.737833	538.860352	77.856949
22959.208404	3265.737833	537.615234	72.920769
22959.208404	3265.737833	536.369141	10.215878
22959.208404	3265.737833	535.124023	180.859344
22959.208404	3265.737833	533.877930	102.638741
22959.208404	3265.737833	532.631836	124.412697
22959.208404	3265.737833	531.384766	159.514328
22959.208404	3265.737833	530.138672	201.281769
22959.208404	3265.737833	528.891602	38.847385
22959.208404	3265.737833	527.643555	120.597588
22959.208404	3265.737833	526.396484	78.093544
22959.208404	3265.737833	525.148438	4.571695
22959.208404	3265.737833	523.900391	-193.086502
22959.208404	3265.737833	522.652344	39.493546
22959.208404	3265.737833	521.403320	90.223633
22959.208404	3265.737833	520.154297	-25.262426
22959.208404	3265.737833	518.905273	-83.065659
22959.208404	3265.737833	517.656250	107.289566
22959.208404	3265.737833	516.406250	42.883064
22959.208404	3265.737833	515.156250	-30.327768
22959.208404	3265.737833	513.906250	-99.054344
22959.208404	3265.737833	512.655273	-203.142120
22959.208404	3265.737833	511.404297	-176.598160
22959.208404	3265.737833	510.153320	-48.267700
22959.208404	3265.737833	508.902344	-178.762115
22959.208404	3265.737833	507.650391	-37.165134
22959.208404	3265.737833	506.398438	-74.690483
22959.208404	3265.737833	505.146484	-25.961807
22959.208404	3265.737833	503.893555	-17.007624
22959.208404	3265.737833	502.641602	-156.066635
22959.208404	3265.737833	501.388672	-60.875000
22959.208404	3265.737833	500.134766	47.554989
22959.208404	3265.737833	498.881836	12.442421
22959.208404	3265.737833	497.627930	45.810516
22959.208404	3265.737833	496.374023	-4.677869
22959.208404	3265.737833	495.119141	35.359417
22959.208404	3265.737833	493.865234	143.806702
22959.208404	3265.737833	492.610352	168.417770
22959.208404	3265.737833	491.355469	23.243000
22959.208404	3265.737833	490.099609	-24.828154
22959.208404	3265.737833	488.843750	-35.372387
22959.208404	3265.737833	487.587891	37.866711
22959.208404	3265.737833	486.332031	91.276390
22959.208404	3265.737833	485.075195	142.490250
22959.208404	3265.737833	483.818359	50.555382
22959.208404	3265.737833	482.561523	99.618225
22959.208404	3265.737833	481.304688	-3.210474
22959.208404	3265.737833	480.046875	-11.321064
22959.208404	3265.737833	478.789063	35.617493
22959.208404	3265.737833	477.531250	36.365742
22959.208404	3265.737833	476.272461	-15.646379
22959.208404	3265.737833	475.013672	-14.825820
22959.208404	3265.737833	473.754883	34.395470
22959.208404	3265.737833	472.496094	-13.093207
22959.208404	3265.737833	471.236328	-7.788246
22959.208404	3265.737833	469.976563	-52.991390
22959.208404	3265.737833	468.716797	-27.849602
22959.208404	3265.737833	467.456055	71.981979
22959.208404	3265.737833	466.196289	31.269569
22959.208404	3265.737833	464.935547	-9.399202
22959.208404	3265.737833	463.673828	-102.701202
22959.208404	3265.737833	462.413086	-101.576546
22959.208404	3265.737833	461.151367	-32.416622
22959.208404	3265.737833	459.889648	1.643243
22959.208404	3265.737833	458.626953	35.710892
22959.208404	3265.737833	457.364258	30.322731
22959.208404	3265.737833	456.101563	51.263420
22959.208404	3265.737833	454.838867	76.599800
22959.208404	3265.737833	453.575195	47.167099
22959.208404	3265.737833	452.312500	-10.709930
22959.208404	3265.737833	451.047852	71.620552
22959.208404	3265.737833	449.784180	-54.082695
22959.208404	3265.737833	448.519531	128.955215
22959.208404	3265.737833	447.254883	156.530792
22959.208404	3265.737833	445.990234	-109.114746
22959.208404	3265.737833	444.725586	121.984337
22959.208404	3265.737833	443.459961	-112.897705
22959.208404	3265.737833	442.194336	26.272141
22959.208404	3265.737833	440.927734	171.945236
22959.208404	3265.737833	439.662109	13.727198
22959.208404	3265.737833	438.395508	207.424698
22959.208404	3265.737833	437.127930	145.402939
22959.208404	3265.737833	435.861328	46.272636
22959.208404	3265.737833	434.593750	-76.844315
22959.208404	3265.737833	433.326172	59.921429
22959.208404	3265.737833	432.058594	-106.819656
22959.208404	3265.737833	430.790039	154.277176
22959.208404	3265.737833	429.521484	-95.356956
22959.208404	3265.737833	428.252930	-26.385298
22959.208404	3265.737833	426.984375	53.443401
22959.208404	3265.737833	425.714844	37.265465
22959.208404	3265.737833	424.445313	29.790958
22959.208404	3265.737833	423.174805	28.829800
22959.208404	3265.737833	421.905273	25.661366
22959.208404	3265.737833	420.634766	39.889179
22959.208404	3265.737833	419.364258	-37.414719
22959.208404	3265.737833	418.092773	-16.724615
22959.208404	3265.737833	416.822266	-72.293083
22959.208404	3265.737833	415.550781	65.855301
22959.208404	3265.737833	414.278320	127.716743
22959.208404	3265.737833	413.006836	8.895956
22959.208404	3265.737833	411.734375	116.313606
22959.208404	3265.737833	410.461914	112.696938
22959.208404	3265.737833	409.188477	43.777592
22959.208404	3265.737833	407.916016	135.697296
22959.208404	3265.737833	406.642578	94.911484
22959.208404	3265.737833	405.368164	64.925690
22959.208404	3265.737833	404.094727	69.632095
22959.208404	3265.737833	402.820313	113.342300
22959.208404	3265.737833	401.545898	80.929520
22959.208404	3265.737833	400.270508	-5.852538
22959.208404	3265.737833	398.996094	224.228180
22959.208404	3265.737833	397.720703	137.235535
22959.208404	3265.737833	396.444336	84.878166
22959.208404	3265.737833	395.168945	34.593246
22959.208404	3265.737833	393.892578	47.095547
22959.208404	3265.737833	392.616211	87.646492
22959.208404	3265.737833	391.339844	69.506111
22959.208404	3265.737833	390.062500	10.041876
22959.208404	3265.737833	388.785156	0.290428
22959.208404	3265.737833	387.507813	40.211994
22959.208404	3265.737833	386.229492	58.285507
22959.208404	3265.737833	384.951172	-10.445724
22959.208404	3265.737833	383.672852	-85.823242
22959.208404	3265.737833	382.394531	52.939659
22959.208404	3265.737833	381.115234	-83.404449
22959.208404	3265.737833	379.835938	-1.362220
22959.208404	3265.737833	378.556641	67.453094
22959.208404	3265.737833	377.277344	55.996910
22959.208404	3265.737833	375.997070	39.988190
22959.208404	3265.737833	374.716797	170.750717
22959.208404	3265.737833	373.435547	2.943093
22959.208404	3265.737833	372.155273	165.569275
22959.208404	3265.737833	370.874023	-9.164227
22959.208404	3265.737833	369.591797	25.410109
22959.208404	3265.737833	368.310547	-11.568944
22959.208404	3265.737833	367.028320	95.820580
22959.208404	3265.737833	365.746094	-41.050274
22959.208404	3265.737833	364.463867	91.579010
22959.208404	3265.737833	363.180664	-0.565561
22959.208404	3265.737833	361.897461	-99.475739
22959.208404	3265.737833	360.614258	23.444277
22959.208404	3265.737833	359.330078	25.202204
22959.208404	3265.737833	358.045898	-1.432911
22959.208404	3265.737833	356.761719	40.531479
22959.208404	3265.737833	355.477539	38.991001
22959.208404	3265.737833	354.192383	-46.977448
22959.208404	3265.737833	352.907227	-32.095905
22959.208404	3265.737833	351.622070	-88.709236
22959.208404	3265.737833	350.336914	-29.484808
22959.208404	3265.737833	349.050781	80.906319
22959.208404	3265.737833	347.764648	72.424950
22959.208404	3265.737833	346.477539	-82.844398
22959.208404	3265.737833	345.191406	-120.227768
22959.208404	3265.737833	343.904297	-44.138874
22959.208404	3265.737833	342.616211	12.028962
22959.208404	3265.737833	341.329102	1.007303
22959.208404	3265.737833	340.041016	-109.436707
22959.208404	3265.737833	338.752930	-82.890968
22959.208404	3265.737833	337.463867	69.785210
22959.208404	3265.737833	336.175781	77.908600
22959.208404	3265.737833	334.886719	-32.702648
22959.208404	3265.737833	333.596680	10.649584
22959.208404	3265.737833	332.307617	-62.555931
22959.208404	3265.737833	331.017578	61.000534
22959.208404	3265.737833	329.727539	-30.722567
22959.208404	3265.737833	328.436523	-50.203476
22959.208404	3265.737833	327.146484	-57.517303
22959.208404	3265.737833	325.855469	13.736139
22959.208404	3265.737833	324.563477	-59.438034
22959.208404	3265.737833	323.272461	-86.198555
22959.208404	3265.737833	321.980469	68.347366
22959.208404	3265.737833	320.688477	-56.469360
22959.208404	3265.737833	319.395508	-126.415291
22959.208404	3265.737833	318.103516	-100.822487
22959.208404	3265.737833	316.810547	-16.210831
22959.208404	3265.737833	315.516602	-39.578529
22959.208404	3265.737833	314.223633	-38.167419
22959.208404	3265.737833	312.929688	7.190775
22959.208404	3265.737833	311.635742	192.713074
22959.208404	3265.737833	310.340820	186.815765
22959.208404	3265.737833	309.045898	122.173042
22959.208404	3265.737833	307.750977	233.914719
22959.208404	3265.737833	306.456055	203.495911
22959.208404	3265.737833	305.160156	251.012207
22959.208404	3265.737833	303.865234	235.469360
22959.208404	3265.737833	302.568359	331.905273
22959.208404	3265.737833	301.272461	360.965210
22959.208404	3265.737833	299.975586	390.911255
22959.208404	3265.737833	298.678711	353.453766
