#X		#Y		#Wave		#Intensity
22957.087660	3069.636167	1999.980469	138.130402
22957.087660	3069.636167	1999.016602	62.525211
22957.087660	3069.636167	1998.052734	92.830399
22957.087660	3069.636167	1997.087891	19.228220
22957.087660	3069.636167	1996.123047	0.349450
22957.087660	3069.636167	1995.158203	-62.927361
22957.087660	3069.636167	1994.193359	44.895046
22957.087660	3069.636167	1993.228516	76.089851
22957.087660	3069.636167	1992.262695	70.303825
22957.087660	3069.636167	1991.297852	30.039398
22957.087660	3069.636167	1990.332031	-64.496323
22957.087660	3069.636167	1989.366211	-87.074425
22957.087660	3069.636167	1988.399414	46.373123
22957.087660	3069.636167	1987.433594	-114.419044
22957.087660	3069.636167	1986.466797	39.078972
22957.087660	3069.636167	1985.500977	-138.657043
22957.087660	3069.636167	1984.534180	76.889381
22957.087660	3069.636167	1983.567383	-159.821671
22957.087660	3069.636167	1982.599609	-13.264941
22957.087660	3069.636167	1981.632813	-49.459808
22957.087660	3069.636167	1980.665039	13.303391
22957.087660	3069.636167	1979.697266	105.813446
22957.087660	3069.636167	1978.729492	-41.114822
22957.087660	3069.636167	1977.761719	-5.160192
22957.087660	3069.636167	1976.792969	33.369621
22957.087660	3069.636167	1975.825195	69.539818
22957.087660	3069.636167	1974.856445	53.992512
22957.087660	3069.636167	1973.887695	6.492988
22957.087660	3069.636167	1972.918945	8.455910
22957.087660	3069.636167	1971.949219	-65.927139
22957.087660	3069.636167	1970.980469	47.222500
22957.087660	3069.636167	1970.010742	-21.998596
22957.087660	3069.636167	1969.041016	-91.093132
22957.087660	3069.636167	1968.071289	106.088120
22957.087660	3069.636167	1967.101563	-24.407166
22957.087660	3069.636167	1966.130859	-48.833851
22957.087660	3069.636167	1965.161133	-41.139473
22957.087660	3069.636167	1964.190430	173.492188
22957.087660	3069.636167	1963.219727	-109.209549
22957.087660	3069.636167	1962.249023	21.830532
22957.087660	3069.636167	1961.277344	69.222397
22957.087660	3069.636167	1960.306641	-33.425549
22957.087660	3069.636167	1959.334961	-8.027044
22957.087660	3069.636167	1958.363281	-154.748047
22957.087660	3069.636167	1957.391602	-8.681171
22957.087660	3069.636167	1956.419922	-115.862839
22957.087660	3069.636167	1955.447266	104.033371
22957.087660	3069.636167	1954.474609	9.293951
22957.087660	3069.636167	1953.501953	-97.633064
22957.087660	3069.636167	1952.529297	-15.266404
22957.087660	3069.636167	1951.556641	-70.439224
22957.087660	3069.636167	1950.583984	-110.797157
22957.087660	3069.636167	1949.610352	8.534621
22957.087660	3069.636167	1948.636719	24.756447
22957.087660	3069.636167	1947.663086	43.478634
22957.087660	3069.636167	1946.689453	-55.562496
22957.087660	3069.636167	1945.715820	9.888938
22957.087660	3069.636167	1944.741211	-25.226927
22957.087660	3069.636167	1943.767578	-23.491329
22957.087660	3069.636167	1942.792969	19.978504
22957.087660	3069.636167	1941.818359	-44.416092
22957.087660	3069.636167	1940.842773	-62.168297
22957.087660	3069.636167	1939.868164	91.700958
22957.087660	3069.636167	1938.892578	27.440586
22957.087660	3069.636167	1937.916992	24.492880
22957.087660	3069.636167	1936.941406	-71.511543
22957.087660	3069.636167	1935.965820	72.579453
22957.087660	3069.636167	1934.990234	-28.236769
22957.087660	3069.636167	1934.013672	32.604618
22957.087660	3069.636167	1933.037109	73.865189
22957.087660	3069.636167	1932.060547	73.528229
22957.087660	3069.636167	1931.083984	183.328491
22957.087660	3069.636167	1930.107422	77.812798
22957.087660	3069.636167	1929.129883	-30.089569
22957.087660	3069.636167	1928.153320	13.694809
22957.087660	3069.636167	1927.175781	52.589592
22957.087660	3069.636167	1926.198242	-94.314056
22957.087660	3069.636167	1925.219727	-4.054455
22957.087660	3069.636167	1924.242188	-18.901014
22957.087660	3069.636167	1923.263672	81.107719
22957.087660	3069.636167	1922.285156	73.600548
22957.087660	3069.636167	1921.306641	102.741142
22957.087660	3069.636167	1920.328125	-53.713509
22957.087660	3069.636167	1919.349609	-56.287663
22957.087660	3069.636167	1918.370117	21.699787
22957.087660	3069.636167	1917.391602	-24.811544
22957.087660	3069.636167	1916.412109	-98.145126
22957.087660	3069.636167	1915.431641	-98.258232
22957.087660	3069.636167	1914.452148	-86.176537
22957.087660	3069.636167	1913.472656	1.501369
22957.087660	3069.636167	1912.492188	137.911316
22957.087660	3069.636167	1911.511719	-57.287003
22957.087660	3069.636167	1910.531250	-103.734360
22957.087660	3069.636167	1909.550781	-42.943596
22957.087660	3069.636167	1908.569336	-52.841843
22957.087660	3069.636167	1907.588867	-60.309082
22957.087660	3069.636167	1906.607422	27.205849
22957.087660	3069.636167	1905.625977	92.760742
22957.087660	3069.636167	1904.644531	43.848709
22957.087660	3069.636167	1903.662109	-141.375809
22957.087660	3069.636167	1902.680664	31.222532
22957.087660	3069.636167	1901.698242	6.641640
22957.087660	3069.636167	1900.715820	130.459961
22957.087660	3069.636167	1899.733398	59.620865
22957.087660	3069.636167	1898.750000	-28.232904
22957.087660	3069.636167	1897.767578	61.428268
22957.087660	3069.636167	1896.784180	-21.569181
22957.087660	3069.636167	1895.800781	-75.388847
22957.087660	3069.636167	1894.817383	-41.723480
22957.087660	3069.636167	1893.833984	8.914332
22957.087660	3069.636167	1892.850586	-8.508470
22957.087660	3069.636167	1891.866211	102.777748
22957.087660	3069.636167	1890.881836	14.873735
22957.087660	3069.636167	1889.897461	-53.600208
22957.087660	3069.636167	1888.913086	33.280918
22957.087660	3069.636167	1887.927734	88.552322
22957.087660	3069.636167	1886.943359	153.480621
22957.087660	3069.636167	1885.958008	50.957317
22957.087660	3069.636167	1884.972656	-32.152439
22957.087660	3069.636167	1883.987305	-112.835686
22957.087660	3069.636167	1883.001953	10.155404
22957.087660	3069.636167	1882.015625	11.856441
22957.087660	3069.636167	1881.029297	35.338799
22957.087660	3069.636167	1880.042969	80.589607
22957.087660	3069.636167	1879.056641	99.138000
22957.087660	3069.636167	1878.070313	132.179153
22957.087660	3069.636167	1877.083984	92.513702
22957.087660	3069.636167	1876.096680	79.464729
22957.087660	3069.636167	1875.109375	-78.880493
22957.087660	3069.636167	1874.122070	0.017482
22957.087660	3069.636167	1873.134766	112.730843
22957.087660	3069.636167	1872.146484	34.206577
22957.087660	3069.636167	1871.159180	137.117844
22957.087660	3069.636167	1870.170898	34.352325
22957.087660	3069.636167	1869.182617	25.900919
22957.087660	3069.636167	1868.194336	-47.870193
22957.087660	3069.636167	1867.205078	81.410164
22957.087660	3069.636167	1866.216797	0.322800
22957.087660	3069.636167	1865.227539	-3.447058
22957.087660	3069.636167	1864.238281	-72.492264
22957.087660	3069.636167	1863.249023	37.202343
22957.087660	3069.636167	1862.259766	180.625092
22957.087660	3069.636167	1861.269531	-11.697280
22957.087660	3069.636167	1860.279297	177.462906
22957.087660	3069.636167	1859.290039	-10.047354
22957.087660	3069.636167	1858.298828	77.589653
22957.087660	3069.636167	1857.308594	124.129128
22957.087660	3069.636167	1856.318359	-106.827499
22957.087660	3069.636167	1855.327148	-43.479748
22957.087660	3069.636167	1854.335938	53.559052
22957.087660	3069.636167	1853.344727	-32.729519
22957.087660	3069.636167	1852.353516	64.176170
22957.087660	3069.636167	1851.362305	-48.690048
22957.087660	3069.636167	1850.370117	45.674759
22957.087660	3069.636167	1849.377930	53.221512
22957.087660	3069.636167	1848.385742	19.765333
22957.087660	3069.636167	1847.393555	94.650162
22957.087660	3069.636167	1846.401367	70.731651
22957.087660	3069.636167	1845.408203	80.475449
22957.087660	3069.636167	1844.415039	32.396702
22957.087660	3069.636167	1843.421875	99.801308
22957.087660	3069.636167	1842.428711	109.381889
22957.087660	3069.636167	1841.435547	22.681641
22957.087660	3069.636167	1840.441406	58.626442
22957.087660	3069.636167	1839.448242	77.674347
22957.087660	3069.636167	1838.454102	130.321823
22957.087660	3069.636167	1837.459961	62.704086
22957.087660	3069.636167	1836.464844	40.722408
22957.087660	3069.636167	1835.470703	76.368980
22957.087660	3069.636167	1834.475586	66.299568
22957.087660	3069.636167	1833.480469	142.654495
22957.087660	3069.636167	1832.485352	77.232895
22957.087660	3069.636167	1831.490234	74.212357
22957.087660	3069.636167	1830.495117	3.919857
22957.087660	3069.636167	1829.499023	137.617706
22957.087660	3069.636167	1828.502930	60.029549
22957.087660	3069.636167	1827.506836	-7.985886
22957.087660	3069.636167	1826.510742	31.918941
22957.087660	3069.636167	1825.513672	23.783506
22957.087660	3069.636167	1824.517578	147.486954
22957.087660	3069.636167	1823.520508	55.309486
22957.087660	3069.636167	1822.523438	-53.667984
22957.087660	3069.636167	1821.526367	156.091080
22957.087660	3069.636167	1820.529297	-75.179520
22957.087660	3069.636167	1819.531250	48.144867
22957.087660	3069.636167	1818.533203	-60.973259
22957.087660	3069.636167	1817.535156	38.242413
22957.087660	3069.636167	1816.537109	-15.874195
22957.087660	3069.636167	1815.539063	32.911739
22957.087660	3069.636167	1814.540039	-119.429665
22957.087660	3069.636167	1813.541992	13.000536
22957.087660	3069.636167	1812.542969	28.086920
22957.087660	3069.636167	1811.543945	-35.828194
22957.087660	3069.636167	1810.543945	-87.820282
22957.087660	3069.636167	1809.544922	137.532990
22957.087660	3069.636167	1808.544922	54.335060
22957.087660	3069.636167	1807.544922	-16.935789
22957.087660	3069.636167	1806.544922	64.713135
22957.087660	3069.636167	1805.544922	17.248148
22957.087660	3069.636167	1804.544922	65.302094
22957.087660	3069.636167	1803.543945	15.349952
22957.087660	3069.636167	1802.542969	-25.087698
22957.087660	3069.636167	1801.541992	63.362720
22957.087660	3069.636167	1800.541016	-41.634190
22957.087660	3069.636167	1799.539063	-46.410774
22957.087660	3069.636167	1798.538086	-60.783680
22957.087660	3069.636167	1797.536133	10.677035
22957.087660	3069.636167	1796.534180	146.457657
22957.087660	3069.636167	1795.532227	3.100233
22957.087660	3069.636167	1794.529297	91.026108
22957.087660	3069.636167	1793.527344	2.452392
22957.087660	3069.636167	1792.524414	-19.409246
22957.087660	3069.636167	1791.521484	8.725126
22957.087660	3069.636167	1790.518555	20.114403
22957.087660	3069.636167	1789.514648	60.025372
22957.087660	3069.636167	1788.511719	71.288994
22957.087660	3069.636167	1787.507813	-0.856229
22957.087660	3069.636167	1786.503906	0.774813
22957.087660	3069.636167	1785.500000	40.435665
22957.087660	3069.636167	1784.496094	-210.322754
22957.087660	3069.636167	1783.491211	-158.855515
22957.087660	3069.636167	1782.486328	-17.060789
22957.087660	3069.636167	1781.481445	-103.716743
22957.087660	3069.636167	1780.476563	-100.026825
22957.087660	3069.636167	1779.471680	112.839684
22957.087660	3069.636167	1778.465820	-90.444206
22957.087660	3069.636167	1777.460938	-1.360784
22957.087660	3069.636167	1776.455078	-159.505646
22957.087660	3069.636167	1775.449219	38.731766
22957.087660	3069.636167	1774.442383	-22.083651
22957.087660	3069.636167	1773.436523	-120.924484
22957.087660	3069.636167	1772.429688	27.160664
22957.087660	3069.636167	1771.422852	-33.780445
22957.087660	3069.636167	1770.416016	47.663528
22957.087660	3069.636167	1769.409180	-127.276253
22957.087660	3069.636167	1768.402344	-3.244108
22957.087660	3069.636167	1767.394531	54.259628
22957.087660	3069.636167	1766.386719	-25.875698
22957.087660	3069.636167	1765.378906	-172.430618
22957.087660	3069.636167	1764.371094	-96.119270
22957.087660	3069.636167	1763.362305	-91.008560
22957.087660	3069.636167	1762.354492	6.483763
22957.087660	3069.636167	1761.345703	-109.377495
22957.087660	3069.636167	1760.336914	-158.912140
22957.087660	3069.636167	1759.328125	-4.777141
22957.087660	3069.636167	1758.318359	-108.889740
22957.087660	3069.636167	1757.308594	-49.640869
22957.087660	3069.636167	1756.299805	23.744251
22957.087660	3069.636167	1755.290039	28.406349
22957.087660	3069.636167	1754.279297	-61.645161
22957.087660	3069.636167	1753.269531	-40.507805
22957.087660	3069.636167	1752.258789	-147.170502
22957.087660	3069.636167	1751.249023	-78.824356
22957.087660	3069.636167	1750.238281	-74.403267
22957.087660	3069.636167	1749.226563	0.883916
22957.087660	3069.636167	1748.215820	-108.266876
22957.087660	3069.636167	1747.204102	-224.521286
22957.087660	3069.636167	1746.193359	-191.918533
22957.087660	3069.636167	1745.181641	-24.729916
22957.087660	3069.636167	1744.168945	-164.703781
22957.087660	3069.636167	1743.157227	58.993954
22957.087660	3069.636167	1742.144531	-95.203651
22957.087660	3069.636167	1741.132813	-159.683044
22957.087660	3069.636167	1740.120117	-23.585035
22957.087660	3069.636167	1739.106445	3.865461
22957.087660	3069.636167	1738.093750	54.856976
22957.087660	3069.636167	1737.080078	9.069242
22957.087660	3069.636167	1736.067383	88.248085
22957.087660	3069.636167	1735.053711	11.728357
22957.087660	3069.636167	1734.040039	64.848251
22957.087660	3069.636167	1733.025391	21.262287
22957.087660	3069.636167	1732.011719	102.548172
22957.087660	3069.636167	1730.997070	40.035080
22957.087660	3069.636167	1729.982422	31.680033
22957.087660	3069.636167	1728.967773	30.350086
22957.087660	3069.636167	1727.952148	134.930542
22957.087660	3069.636167	1726.937500	84.056648
22957.087660	3069.636167	1725.921875	143.779846
22957.087660	3069.636167	1724.906250	76.358650
22957.087660	3069.636167	1723.890625	110.094704
22957.087660	3069.636167	1722.875000	84.966408
22957.087660	3069.636167	1721.858398	66.854958
22957.087660	3069.636167	1720.841797	-71.218292
22957.087660	3069.636167	1719.825195	-32.948257
22957.087660	3069.636167	1718.808594	40.526283
22957.087660	3069.636167	1717.791992	-1.225423
22957.087660	3069.636167	1716.774414	-10.111901
22957.087660	3069.636167	1715.756836	-47.224880
22957.087660	3069.636167	1714.739258	51.869152
22957.087660	3069.636167	1713.721680	-6.453428
22957.087660	3069.636167	1712.704102	-3.745920
22957.087660	3069.636167	1711.685547	97.509262
22957.087660	3069.636167	1710.667969	10.934882
22957.087660	3069.636167	1709.649414	27.597904
22957.087660	3069.636167	1708.630859	16.065552
22957.087660	3069.636167	1707.611328	13.876300
22957.087660	3069.636167	1706.592773	60.909996
22957.087660	3069.636167	1705.573242	-56.251484
22957.087660	3069.636167	1704.553711	-89.007095
22957.087660	3069.636167	1703.534180	84.476601
22957.087660	3069.636167	1702.513672	-173.338226
22957.087660	3069.636167	1701.494141	-121.806770
22957.087660	3069.636167	1700.473633	46.789761
22957.087660	3069.636167	1699.453125	-61.075348
22957.087660	3069.636167	1698.432617	100.355179
22957.087660	3069.636167	1697.412109	93.127190
22957.087660	3069.636167	1696.390625	15.641189
22957.087660	3069.636167	1695.369141	-0.999068
22957.087660	3069.636167	1694.347656	-97.217445
22957.087660	3069.636167	1693.326172	33.490913
22957.087660	3069.636167	1692.304688	117.340317
22957.087660	3069.636167	1691.282227	91.212112
22957.087660	3069.636167	1690.260742	67.410889
22957.087660	3069.636167	1689.238281	144.098251
22957.087660	3069.636167	1688.214844	113.212090
22957.087660	3069.636167	1687.192383	101.012238
22957.087660	3069.636167	1686.168945	25.703619
22957.087660	3069.636167	1685.146484	22.814705
22957.087660	3069.636167	1684.123047	-92.203568
22957.087660	3069.636167	1683.099609	206.071259
22957.087660	3069.636167	1682.075195	44.314259
22957.087660	3069.636167	1681.051758	10.972062
22957.087660	3069.636167	1680.027344	68.618011
22957.087660	3069.636167	1679.002930	77.222977
22957.087660	3069.636167	1677.978516	-0.506022
22957.087660	3069.636167	1676.953125	101.341385
22957.087660	3069.636167	1675.928711	133.184174
22957.087660	3069.636167	1674.903320	62.407532
22957.087660	3069.636167	1673.877930	140.809570
22957.087660	3069.636167	1672.852539	63.025063
22957.087660	3069.636167	1671.826172	234.544373
22957.087660	3069.636167	1670.800781	51.904327
22957.087660	3069.636167	1669.774414	179.068085
22957.087660	3069.636167	1668.748047	110.562355
22957.087660	3069.636167	1667.721680	205.034622
22957.087660	3069.636167	1666.694336	127.193939
22957.087660	3069.636167	1665.667969	298.389313
22957.087660	3069.636167	1664.640625	173.990448
22957.087660	3069.636167	1663.613281	277.604279
22957.087660	3069.636167	1662.585938	202.067703
22957.087660	3069.636167	1661.557617	307.921265
22957.087660	3069.636167	1660.530273	341.651825
22957.087660	3069.636167	1659.501953	466.003967
22957.087660	3069.636167	1658.473633	492.681335
22957.087660	3069.636167	1657.444336	352.022797
22957.087660	3069.636167	1656.416016	476.259369
22957.087660	3069.636167	1655.386719	474.997955
22957.087660	3069.636167	1654.358398	529.468628
22957.087660	3069.636167	1653.328125	532.807983
22957.087660	3069.636167	1652.298828	547.750549
22957.087660	3069.636167	1651.269531	537.146423
22957.087660	3069.636167	1650.239258	535.809509
22957.087660	3069.636167	1649.208984	385.979614
22957.087660	3069.636167	1648.178711	560.942932
22957.087660	3069.636167	1647.148438	515.510559
22957.087660	3069.636167	1646.117188	439.935303
22957.087660	3069.636167	1645.086914	688.946411
22957.087660	3069.636167	1644.055664	729.242371
22957.087660	3069.636167	1643.024414	757.929382
22957.087660	3069.636167	1641.992188	682.329102
22957.087660	3069.636167	1640.960938	768.913940
22957.087660	3069.636167	1639.928711	913.351196
22957.087660	3069.636167	1638.896484	1104.038940
22957.087660	3069.636167	1637.864258	998.314575
22957.087660	3069.636167	1636.832031	1080.115234
22957.087660	3069.636167	1635.798828	983.677124
22957.087660	3069.636167	1634.766602	1310.702637
22957.087660	3069.636167	1633.733398	1082.394287
22957.087660	3069.636167	1632.699219	1247.351196
22957.087660	3069.636167	1631.666016	1298.943604
22957.087660	3069.636167	1630.632813	1237.229248
22957.087660	3069.636167	1629.598633	1258.744629
22957.087660	3069.636167	1628.564453	1428.160645
22957.087660	3069.636167	1627.530273	1481.981079
22957.087660	3069.636167	1626.495117	1457.227417
22957.087660	3069.636167	1625.460938	1462.520874
22957.087660	3069.636167	1624.425781	1560.177002
22957.087660	3069.636167	1623.390625	1678.577759
22957.087660	3069.636167	1622.355469	1418.361572
22957.087660	3069.636167	1621.319336	1564.438354
22957.087660	3069.636167	1620.284180	1535.103271
22957.087660	3069.636167	1619.248047	1388.116943
22957.087660	3069.636167	1618.211914	1271.179321
22957.087660	3069.636167	1617.174805	1262.673584
22957.087660	3069.636167	1616.138672	1168.876099
22957.087660	3069.636167	1615.101563	1213.428223
22957.087660	3069.636167	1614.065430	1257.979736
22957.087660	3069.636167	1613.027344	1145.809570
22957.087660	3069.636167	1611.990234	1114.337158
22957.087660	3069.636167	1610.953125	972.320740
22957.087660	3069.636167	1609.915039	966.238586
22957.087660	3069.636167	1608.876953	925.630676
22957.087660	3069.636167	1607.838867	1078.426270
22957.087660	3069.636167	1606.800781	1109.186279
22957.087660	3069.636167	1605.761719	1040.986328
22957.087660	3069.636167	1604.723633	959.030029
22957.087660	3069.636167	1603.684570	1086.437988
22957.087660	3069.636167	1602.644531	1117.207275
22957.087660	3069.636167	1601.605469	1104.298584
22957.087660	3069.636167	1600.566406	983.358948
22957.087660	3069.636167	1599.526367	1129.100586
22957.087660	3069.636167	1598.486328	1134.619141
22957.087660	3069.636167	1597.446289	1066.628906
22957.087660	3069.636167	1596.405273	1170.960205
22957.087660	3069.636167	1595.365234	1135.177490
22957.087660	3069.636167	1594.324219	895.050537
22957.087660	3069.636167	1593.283203	1033.846069
22957.087660	3069.636167	1592.242188	1030.293091
22957.087660	3069.636167	1591.200195	1003.803650
22957.087660	3069.636167	1590.159180	947.524963
22957.087660	3069.636167	1589.117188	875.222473
22957.087660	3069.636167	1588.075195	1000.216675
22957.087660	3069.636167	1587.032227	815.603210
22957.087660	3069.636167	1585.990234	679.238647
22957.087660	3069.636167	1584.947266	856.977417
22957.087660	3069.636167	1583.904297	926.956238
22957.087660	3069.636167	1582.861328	818.207458
22957.087660	3069.636167	1581.818359	879.050842
22957.087660	3069.636167	1580.775391	898.667053
22957.087660	3069.636167	1579.731445	1021.342407
22957.087660	3069.636167	1578.687500	997.465027
22957.087660	3069.636167	1577.643555	1040.006958
22957.087660	3069.636167	1576.598633	1066.530640
22957.087660	3069.636167	1575.554688	1047.314697
22957.087660	3069.636167	1574.509766	925.178162
22957.087660	3069.636167	1573.464844	976.952332
22957.087660	3069.636167	1572.419922	1040.168823
22957.087660	3069.636167	1571.374023	1021.072266
22957.087660	3069.636167	1570.329102	1018.022095
22957.087660	3069.636167	1569.283203	1037.850342
22957.087660	3069.636167	1568.237305	1027.996582
22957.087660	3069.636167	1567.191406	915.370239
22957.087660	3069.636167	1566.144531	889.610718
22957.087660	3069.636167	1565.098633	1019.193359
22957.087660	3069.636167	1564.051758	1061.986084
22957.087660	3069.636167	1563.004883	1047.725098
22957.087660	3069.636167	1561.957031	1168.155762
22957.087660	3069.636167	1560.910156	1133.410278
22957.087660	3069.636167	1559.862305	1176.275391
22957.087660	3069.636167	1558.814453	1287.590210
22957.087660	3069.636167	1557.766602	1364.688110
22957.087660	3069.636167	1556.718750	1234.300537
22957.087660	3069.636167	1555.669922	1181.502197
22957.087660	3069.636167	1554.621094	1288.308228
22957.087660	3069.636167	1553.573242	1301.687256
22957.087660	3069.636167	1552.523438	1342.424561
22957.087660	3069.636167	1551.474609	1278.408569
22957.087660	3069.636167	1550.424805	1239.501953
22957.087660	3069.636167	1549.375000	1287.175537
22957.087660	3069.636167	1548.325195	1166.406494
22957.087660	3069.636167	1547.275391	1032.068604
22957.087660	3069.636167	1546.225586	845.484741
22957.087660	3069.636167	1545.174805	970.710815
22957.087660	3069.636167	1544.124023	902.576050
22957.087660	3069.636167	1543.073242	879.996460
22957.087660	3069.636167	1542.022461	773.335632
22957.087660	3069.636167	1540.970703	903.187378
22957.087660	3069.636167	1539.919922	905.752686
22957.087660	3069.636167	1538.868164	787.912109
22957.087660	3069.636167	1537.815430	872.368713
22957.087660	3069.636167	1536.763672	804.645996
22957.087660	3069.636167	1535.710938	807.394836
22957.087660	3069.636167	1534.659180	644.432861
22957.087660	3069.636167	1533.606445	654.115051
22957.087660	3069.636167	1532.552734	634.326843
22957.087660	3069.636167	1531.500000	616.868530
22957.087660	3069.636167	1530.446289	392.987518
22957.087660	3069.636167	1529.393555	548.083557
22957.087660	3069.636167	1528.338867	478.620209
22957.087660	3069.636167	1527.285156	295.860779
22957.087660	3069.636167	1526.231445	446.490265
22957.087660	3069.636167	1525.176758	415.770081
22957.087660	3069.636167	1524.122070	310.325928
22957.087660	3069.636167	1523.067383	494.995087
22957.087660	3069.636167	1522.012695	407.801361
22957.087660	3069.636167	1520.957031	522.263123
22957.087660	3069.636167	1519.901367	485.013702
22957.087660	3069.636167	1518.845703	484.054932
22957.087660	3069.636167	1517.790039	197.942795
22957.087660	3069.636167	1516.734375	235.619553
22957.087660	3069.636167	1515.677734	214.500351
22957.087660	3069.636167	1514.621094	193.443314
22957.087660	3069.636167	1513.564453	210.898453
22957.087660	3069.636167	1512.507813	-27.126053
22957.087660	3069.636167	1511.450195	-27.617212
22957.087660	3069.636167	1510.393555	12.640261
22957.087660	3069.636167	1509.335938	-100.744911
22957.087660	3069.636167	1508.278320	140.713959
22957.087660	3069.636167	1507.219727	61.341579
22957.087660	3069.636167	1506.162109	74.665306
22957.087660	3069.636167	1505.103516	-9.065094
22957.087660	3069.636167	1504.044922	15.665632
22957.087660	3069.636167	1502.986328	160.080444
22957.087660	3069.636167	1501.926758	-27.262745
22957.087660	3069.636167	1500.868164	24.708223
22957.087660	3069.636167	1499.808594	187.252945
22957.087660	3069.636167	1498.749023	-38.150734
22957.087660	3069.636167	1497.688477	18.469856
22957.087660	3069.636167	1496.628906	81.895889
22957.087660	3069.636167	1495.568359	19.120792
22957.087660	3069.636167	1494.507813	-133.716690
22957.087660	3069.636167	1493.447266	-153.491287
22957.087660	3069.636167	1492.386719	58.841709
22957.087660	3069.636167	1491.325195	145.015533
22957.087660	3069.636167	1490.263672	-25.499760
22957.087660	3069.636167	1489.202148	175.604660
22957.087660	3069.636167	1488.140625	354.182098
22957.087660	3069.636167	1487.079102	73.636581
22957.087660	3069.636167	1486.016602	103.776855
22957.087660	3069.636167	1484.954102	12.487180
22957.087660	3069.636167	1483.891602	236.187225
22957.087660	3069.636167	1482.829102	73.073044
22957.087660	3069.636167	1481.765625	240.581985
22957.087660	3069.636167	1480.702148	190.044357
22957.087660	3069.636167	1479.638672	344.099548
22957.087660	3069.636167	1478.575195	347.602234
22957.087660	3069.636167	1477.511719	450.003845
22957.087660	3069.636167	1476.447266	300.892426
22957.087660	3069.636167	1475.382813	302.374786
22957.087660	3069.636167	1474.318359	344.233337
22957.087660	3069.636167	1473.253906	451.269104
22957.087660	3069.636167	1472.189453	580.729309
22957.087660	3069.636167	1471.124023	396.267761
22957.087660	3069.636167	1470.058594	413.700867
22957.087660	3069.636167	1468.993164	426.770081
22957.087660	3069.636167	1467.927734	395.102966
22957.087660	3069.636167	1466.861328	417.365265
22957.087660	3069.636167	1465.794922	547.127075
22957.087660	3069.636167	1464.728516	618.795349
22957.087660	3069.636167	1463.662109	719.596252
22957.087660	3069.636167	1462.594727	986.396912
22957.087660	3069.636167	1461.528320	1237.721924
22957.087660	3069.636167	1460.460938	1553.367920
22957.087660	3069.636167	1459.393555	1678.870972
22957.087660	3069.636167	1458.326172	1935.875732
22957.087660	3069.636167	1457.257813	1935.318359
22957.087660	3069.636167	1456.189453	1894.488770
22957.087660	3069.636167	1455.121094	1660.319458
22957.087660	3069.636167	1454.052734	1436.729736
22957.087660	3069.636167	1452.984375	1213.190186
22957.087660	3069.636167	1451.915039	1340.758667
22957.087660	3069.636167	1450.845703	908.726379
22957.087660	3069.636167	1449.776367	875.989990
22957.087660	3069.636167	1448.707031	900.904053
22957.087660	3069.636167	1447.636719	779.299438
22957.087660	3069.636167	1446.567383	855.448792
22957.087660	3069.636167	1445.497070	866.329773
22957.087660	3069.636167	1444.425781	790.106323
22957.087660	3069.636167	1443.355469	1137.193604
22957.087660	3069.636167	1442.285156	1215.689819
22957.087660	3069.636167	1441.213867	1266.403198
22957.087660	3069.636167	1440.142578	1568.378296
22957.087660	3069.636167	1439.070313	1832.948853
22957.087660	3069.636167	1437.999023	2283.195557
22957.087660	3069.636167	1436.926758	2717.591797
22957.087660	3069.636167	1435.854492	3042.418945
22957.087660	3069.636167	1434.782227	3092.342285
22957.087660	3069.636167	1433.709961	2966.248291
22957.087660	3069.636167	1432.636719	2589.454834
22957.087660	3069.636167	1431.563477	2363.618896
22957.087660	3069.636167	1430.490234	2011.143066
22957.087660	3069.636167	1429.416992	1895.106201
22957.087660	3069.636167	1428.343750	1650.984985
22957.087660	3069.636167	1427.269531	1664.504639
22957.087660	3069.636167	1426.195313	1482.261353
22957.087660	3069.636167	1425.121094	1500.119507
22957.087660	3069.636167	1424.046875	1791.430542
22957.087660	3069.636167	1422.971680	1752.604492
22957.087660	3069.636167	1421.896484	1875.819336
22957.087660	3069.636167	1420.821289	1957.082886
22957.087660	3069.636167	1419.746094	2032.790527
22957.087660	3069.636167	1418.669922	2079.498291
22957.087660	3069.636167	1417.594727	1925.451782
22957.087660	3069.636167	1416.518555	1970.124023
22957.087660	3069.636167	1415.442383	1687.886963
22957.087660	3069.636167	1414.365234	1748.909790
22957.087660	3069.636167	1413.289063	1677.740723
22957.087660	3069.636167	1412.211914	1637.009277
22957.087660	3069.636167	1411.134766	1331.518921
22957.087660	3069.636167	1410.057617	1376.618042
22957.087660	3069.636167	1408.979492	1364.682373
22957.087660	3069.636167	1407.902344	1277.113770
22957.087660	3069.636167	1406.824219	1374.015259
22957.087660	3069.636167	1405.746094	1144.011841
22957.087660	3069.636167	1404.666992	1285.265747
22957.087660	3069.636167	1403.588867	1295.479126
22957.087660	3069.636167	1402.509766	1387.868530
22957.087660	3069.636167	1401.430664	1547.807983
22957.087660	3069.636167	1400.351563	1787.404907
22957.087660	3069.636167	1399.271484	1889.005981
22957.087660	3069.636167	1398.192383	1892.172241
22957.087660	3069.636167	1397.112305	2310.707764
22957.087660	3069.636167	1396.031250	2504.245850
22957.087660	3069.636167	1394.951172	2719.281006
22957.087660	3069.636167	1393.871094	3073.138916
22957.087660	3069.636167	1392.790039	2784.956055
22957.087660	3069.636167	1391.708984	2856.158203
22957.087660	3069.636167	1390.626953	2681.051025
22957.087660	3069.636167	1389.545898	2413.268311
22957.087660	3069.636167	1388.463867	2199.620117
22957.087660	3069.636167	1387.381836	2253.751221
22957.087660	3069.636167	1386.299805	2378.425049
22957.087660	3069.636167	1385.217773	2620.027100
22957.087660	3069.636167	1384.134766	2635.939209
22957.087660	3069.636167	1383.051758	2627.557861
22957.087660	3069.636167	1381.968750	2724.053467
22957.087660	3069.636167	1380.885742	2614.268799
22957.087660	3069.636167	1379.802734	2572.924316
22957.087660	3069.636167	1378.718750	2309.707031
22957.087660	3069.636167	1377.634766	2381.478271
22957.087660	3069.636167	1376.550781	2193.499756
22957.087660	3069.636167	1375.465820	2205.200928
22957.087660	3069.636167	1374.381836	1979.777954
22957.087660	3069.636167	1373.296875	1882.438599
22957.087660	3069.636167	1372.211914	1528.264771
22957.087660	3069.636167	1371.126953	1531.208252
22957.087660	3069.636167	1370.041016	1377.423462
22957.087660	3069.636167	1368.955078	1381.321167
22957.087660	3069.636167	1367.869141	1269.882690
22957.087660	3069.636167	1366.783203	1184.686768
22957.087660	3069.636167	1365.697266	1021.928406
22957.087660	3069.636167	1364.610352	894.492737
22957.087660	3069.636167	1363.523438	833.250122
22957.087660	3069.636167	1362.436523	945.153076
22957.087660	3069.636167	1361.349609	819.809631
22957.087660	3069.636167	1360.261719	980.490723
22957.087660	3069.636167	1359.174805	840.264160
22957.087660	3069.636167	1358.086914	985.102234
22957.087660	3069.636167	1356.998047	970.597595
22957.087660	3069.636167	1355.910156	811.311340
22957.087660	3069.636167	1354.821289	1025.467163
22957.087660	3069.636167	1353.732422	1013.217529
22957.087660	3069.636167	1352.643555	900.471069
22957.087660	3069.636167	1351.554688	1076.800659
22957.087660	3069.636167	1350.464844	1008.356445
22957.087660	3069.636167	1349.375000	1166.842285
22957.087660	3069.636167	1348.285156	930.541077
22957.087660	3069.636167	1347.195313	1006.038879
22957.087660	3069.636167	1346.105469	965.312866
22957.087660	3069.636167	1345.014648	932.749939
22957.087660	3069.636167	1343.923828	1048.384644
22957.087660	3069.636167	1342.833008	1012.801025
22957.087660	3069.636167	1341.741211	974.253357
22957.087660	3069.636167	1340.650391	1112.552490
22957.087660	3069.636167	1339.558594	816.971436
22957.087660	3069.636167	1338.466797	918.114258
22957.087660	3069.636167	1337.374023	941.391479
22957.087660	3069.636167	1336.282227	837.386658
22957.087660	3069.636167	1335.189453	762.182678
22957.087660	3069.636167	1334.096680	733.790100
22957.087660	3069.636167	1333.003906	777.047791
22957.087660	3069.636167	1331.910156	718.888794
22957.087660	3069.636167	1330.817383	744.723022
22957.087660	3069.636167	1329.723633	831.455750
22957.087660	3069.636167	1328.629883	830.339417
22957.087660	3069.636167	1327.535156	1099.780762
22957.087660	3069.636167	1326.441406	1171.544189
22957.087660	3069.636167	1325.346680	1281.673218
22957.087660	3069.636167	1324.251953	1325.049927
22957.087660	3069.636167	1323.156250	1330.374512
22957.087660	3069.636167	1322.061523	1269.671997
22957.087660	3069.636167	1320.965820	1100.564087
22957.087660	3069.636167	1319.870117	946.066711
22957.087660	3069.636167	1318.774414	1063.323730
22957.087660	3069.636167	1317.678711	972.326477
22957.087660	3069.636167	1316.582031	753.763000
22957.087660	3069.636167	1315.485352	773.100830
22957.087660	3069.636167	1314.388672	712.551331
22957.087660	3069.636167	1313.291016	768.877502
22957.087660	3069.636167	1312.194336	889.120178
22957.087660	3069.636167	1311.096680	708.950134
22957.087660	3069.636167	1309.999023	1017.301819
22957.087660	3069.636167	1308.901367	1137.008423
22957.087660	3069.636167	1307.802734	1256.379150
22957.087660	3069.636167	1306.705078	1460.961670
22957.087660	3069.636167	1305.606445	1542.981445
22957.087660	3069.636167	1304.506836	1766.931519
22957.087660	3069.636167	1303.408203	1783.223633
22957.087660	3069.636167	1302.308594	1731.017456
22957.087660	3069.636167	1301.208984	1890.905884
22957.087660	3069.636167	1300.109375	2011.595337
22957.087660	3069.636167	1299.009766	1998.008423
22957.087660	3069.636167	1297.909180	2324.007568
22957.087660	3069.636167	1296.808594	2511.159912
22957.087660	3069.636167	1295.708008	2447.299072
22957.087660	3069.636167	1294.607422	2387.919922
22957.087660	3069.636167	1293.506836	2314.270752
22957.087660	3069.636167	1292.405273	2009.445679
22957.087660	3069.636167	1291.303711	1943.831299
22957.087660	3069.636167	1290.202148	1536.307861
22957.087660	3069.636167	1289.099609	1333.552734
22957.087660	3069.636167	1287.998047	1236.940308
22957.087660	3069.636167	1286.895508	1109.444458
22957.087660	3069.636167	1285.792969	1003.518616
22957.087660	3069.636167	1284.689453	869.186462
22957.087660	3069.636167	1283.586914	870.129333
22957.087660	3069.636167	1282.483398	924.601990
22957.087660	3069.636167	1281.379883	807.837158
22957.087660	3069.636167	1280.276367	811.364136
22957.087660	3069.636167	1279.171875	824.206116
22957.087660	3069.636167	1278.067383	755.363403
22957.087660	3069.636167	1276.962891	661.675293
22957.087660	3069.636167	1275.858398	585.785339
22957.087660	3069.636167	1274.753906	384.009857
22957.087660	3069.636167	1273.648438	197.347443
22957.087660	3069.636167	1272.542969	100.605240
22957.087660	3069.636167	1271.437500	144.015640
22957.087660	3069.636167	1270.331055	161.910248
22957.087660	3069.636167	1269.225586	194.560852
22957.087660	3069.636167	1268.119141	-30.395147
22957.087660	3069.636167	1267.012695	-24.480835
22957.087660	3069.636167	1265.906250	-6.713826
22957.087660	3069.636167	1264.798828	101.848000
22957.087660	3069.636167	1263.691406	192.064758
22957.087660	3069.636167	1262.583984	225.344604
22957.087660	3069.636167	1261.476563	376.225586
22957.087660	3069.636167	1260.368164	498.122101
22957.087660	3069.636167	1259.260742	403.156433
22957.087660	3069.636167	1258.152344	566.315186
22957.087660	3069.636167	1257.043945	535.186707
22957.087660	3069.636167	1255.934570	401.288635
22957.087660	3069.636167	1254.825195	191.611664
22957.087660	3069.636167	1253.716797	184.805603
22957.087660	3069.636167	1252.606445	181.010635
22957.087660	3069.636167	1251.497070	144.230042
22957.087660	3069.636167	1250.387695	278.686951
22957.087660	3069.636167	1249.277344	279.899994
22957.087660	3069.636167	1248.166992	306.879791
22957.087660	3069.636167	1247.055664	119.927689
22957.087660	3069.636167	1245.945313	96.412003
22957.087660	3069.636167	1244.833984	131.843292
22957.087660	3069.636167	1243.722656	127.408325
22957.087660	3069.636167	1242.611328	-11.396353
22957.087660	3069.636167	1241.499023	-33.326889
22957.087660	3069.636167	1240.387695	-203.616760
22957.087660	3069.636167	1239.275391	-206.410492
22957.087660	3069.636167	1238.162109	-235.373611
22957.087660	3069.636167	1237.049805	-215.612259
22957.087660	3069.636167	1235.936523	-205.112198
22957.087660	3069.636167	1234.823242	-273.916748
22957.087660	3069.636167	1233.709961	-111.178299
22957.087660	3069.636167	1232.596680	-153.903290
22957.087660	3069.636167	1231.482422	-199.785187
22957.087660	3069.636167	1230.369141	-85.781410
22957.087660	3069.636167	1229.253906	-0.516232
22957.087660	3069.636167	1228.139648	107.690163
22957.087660	3069.636167	1227.025391	52.785904
22957.087660	3069.636167	1225.910156	63.121994
22957.087660	3069.636167	1224.794922	222.999191
22957.087660	3069.636167	1223.679688	144.373978
22957.087660	3069.636167	1222.563477	88.864487
22957.087660	3069.636167	1221.447266	201.873489
22957.087660	3069.636167	1220.331055	82.249565
22957.087660	3069.636167	1219.214844	59.641575
22957.087660	3069.636167	1218.098633	-80.665863
22957.087660	3069.636167	1216.981445	-22.842169
22957.087660	3069.636167	1215.864258	68.927490
22957.087660	3069.636167	1214.747070	-62.934090
22957.087660	3069.636167	1213.629883	-63.322468
22957.087660	3069.636167	1212.511719	-120.844536
22957.087660	3069.636167	1211.393555	-80.631287
22957.087660	3069.636167	1210.275391	35.844563
22957.087660	3069.636167	1209.157227	3.883750
22957.087660	3069.636167	1208.038086	50.017593
22957.087660	3069.636167	1206.918945	51.437340
22957.087660	3069.636167	1205.799805	-4.529428
22957.087660	3069.636167	1204.680664	53.749569
22957.087660	3069.636167	1203.560547	110.888191
22957.087660	3069.636167	1202.441406	-2.663195
22957.087660	3069.636167	1201.321289	109.150330
22957.087660	3069.636167	1200.200195	69.549431
22957.087660	3069.636167	1199.080078	109.504478
22957.087660	3069.636167	1197.958984	130.716415
22957.087660	3069.636167	1196.837891	90.559067
22957.087660	3069.636167	1195.716797	40.839046
22957.087660	3069.636167	1194.594727	50.794247
22957.087660	3069.636167	1193.473633	76.331085
22957.087660	3069.636167	1192.351563	285.712494
22957.087660	3069.636167	1191.229492	213.432953
22957.087660	3069.636167	1190.106445	128.157104
22957.087660	3069.636167	1188.984375	265.515991
22957.087660	3069.636167	1187.861328	155.193436
22957.087660	3069.636167	1186.738281	253.295242
22957.087660	3069.636167	1185.614258	263.597870
22957.087660	3069.636167	1184.491211	278.085449
22957.087660	3069.636167	1183.367188	223.907089
22957.087660	3069.636167	1182.243164	339.103180
22957.087660	3069.636167	1181.119141	377.660034
22957.087660	3069.636167	1179.994141	558.642212
22957.087660	3069.636167	1178.869141	395.939697
22957.087660	3069.636167	1177.744141	497.893280
22957.087660	3069.636167	1176.619141	431.242249
22957.087660	3069.636167	1175.493164	407.395844
22957.087660	3069.636167	1174.368164	368.001831
22957.087660	3069.636167	1173.242188	388.537384
22957.087660	3069.636167	1172.115234	407.979065
22957.087660	3069.636167	1170.989258	360.084595
22957.087660	3069.636167	1169.862305	343.054688
22957.087660	3069.636167	1168.735352	447.360077
22957.087660	3069.636167	1167.608398	541.072510
22957.087660	3069.636167	1166.481445	466.263245
22957.087660	3069.636167	1165.353516	562.086670
22957.087660	3069.636167	1164.225586	484.989471
22957.087660	3069.636167	1163.097656	552.335999
22957.087660	3069.636167	1161.968750	565.427429
22957.087660	3069.636167	1160.840820	358.101318
22957.087660	3069.636167	1159.711914	355.416138
22957.087660	3069.636167	1158.583008	359.589294
22957.087660	3069.636167	1157.453125	230.657776
22957.087660	3069.636167	1156.324219	259.654572
22957.087660	3069.636167	1155.194336	143.349960
22957.087660	3069.636167	1154.064453	123.727493
22957.087660	3069.636167	1152.933594	210.387619
22957.087660	3069.636167	1151.803711	137.245300
22957.087660	3069.636167	1150.672852	21.088251
22957.087660	3069.636167	1149.541992	82.456284
22957.087660	3069.636167	1148.411133	58.425617
22957.087660	3069.636167	1147.279297	56.099049
22957.087660	3069.636167	1146.147461	48.176598
22957.087660	3069.636167	1145.015625	-37.150764
22957.087660	3069.636167	1143.883789	-66.069984
22957.087660	3069.636167	1142.750977	-61.802540
22957.087660	3069.636167	1141.619141	-3.349123
22957.087660	3069.636167	1140.486328	31.101118
22957.087660	3069.636167	1139.352539	32.220074
22957.087660	3069.636167	1138.219727	84.721542
22957.087660	3069.636167	1137.085938	98.774666
22957.087660	3069.636167	1135.952148	158.160233
22957.087660	3069.636167	1134.818359	269.146881
22957.087660	3069.636167	1133.683594	296.827423
22957.087660	3069.636167	1132.549805	315.439819
22957.087660	3069.636167	1131.415039	417.456726
22957.087660	3069.636167	1130.279297	429.730713
22957.087660	3069.636167	1129.144531	574.182007
22957.087660	3069.636167	1128.008789	512.502441
22957.087660	3069.636167	1126.873047	517.965515
22957.087660	3069.636167	1125.737305	443.364960
22957.087660	3069.636167	1124.601563	336.026001
22957.087660	3069.636167	1123.464844	364.863098
22957.087660	3069.636167	1122.328125	270.012817
22957.087660	3069.636167	1121.191406	90.573929
22957.087660	3069.636167	1120.054688	197.146652
22957.087660	3069.636167	1118.916992	213.932907
22957.087660	3069.636167	1117.779297	283.016174
22957.087660	3069.636167	1116.641602	180.334564
22957.087660	3069.636167	1115.503906	229.702728
22957.087660	3069.636167	1114.365234	263.816589
22957.087660	3069.636167	1113.226563	367.582520
22957.087660	3069.636167	1112.087891	283.001648
22957.087660	3069.636167	1110.949219	470.162048
22957.087660	3069.636167	1109.809570	548.601868
22957.087660	3069.636167	1108.669922	652.002930
22957.087660	3069.636167	1107.530273	714.523132
22957.087660	3069.636167	1106.390625	559.691101
22957.087660	3069.636167	1105.250000	426.715149
22957.087660	3069.636167	1104.109375	245.541000
22957.087660	3069.636167	1102.968750	209.792389
22957.087660	3069.636167	1101.828125	204.748322
22957.087660	3069.636167	1100.686523	214.348114
22957.087660	3069.636167	1099.544922	54.924767
22957.087660	3069.636167	1098.403320	161.735336
22957.087660	3069.636167	1097.261719	153.218506
22957.087660	3069.636167	1096.120117	140.550308
22957.087660	3069.636167	1094.977539	109.096626
22957.087660	3069.636167	1093.834961	48.156017
22957.087660	3069.636167	1092.691406	141.547455
22957.087660	3069.636167	1091.548828	72.244003
22957.087660	3069.636167	1090.405273	168.546448
22957.087660	3069.636167	1089.261719	186.069397
22957.087660	3069.636167	1088.118164	182.067017
22957.087660	3069.636167	1086.973633	228.712128
22957.087660	3069.636167	1085.829102	174.119446
22957.087660	3069.636167	1084.684570	128.288284
22957.087660	3069.636167	1083.540039	180.946426
22957.087660	3069.636167	1082.395508	113.078514
22957.087660	3069.636167	1081.250000	94.078941
22957.087660	3069.636167	1080.104492	175.028915
22957.087660	3069.636167	1078.958984	94.031250
22957.087660	3069.636167	1077.812500	93.233650
22957.087660	3069.636167	1076.666016	23.272141
22957.087660	3069.636167	1075.519531	-42.687950
22957.087660	3069.636167	1074.373047	-9.073564
22957.087660	3069.636167	1073.226563	101.304085
22957.087660	3069.636167	1072.079102	-77.811264
22957.087660	3069.636167	1070.931641	-93.127640
22957.087660	3069.636167	1069.784180	24.132620
22957.087660	3069.636167	1068.635742	-13.019260
22957.087660	3069.636167	1067.487305	-80.909348
22957.087660	3069.636167	1066.338867	-109.592003
22957.087660	3069.636167	1065.190430	34.617699
22957.087660	3069.636167	1064.041992	-53.522099
22957.087660	3069.636167	1062.892578	-18.266453
22957.087660	3069.636167	1061.743164	-104.261536
22957.087660	3069.636167	1060.593750	-111.417137
22957.087660	3069.636167	1059.443359	29.535496
22957.087660	3069.636167	1058.292969	-89.660027
22957.087660	3069.636167	1057.142578	-79.479408
22957.087660	3069.636167	1055.992188	4.371674
22957.087660	3069.636167	1054.841797	-37.665977
22957.087660	3069.636167	1053.690430	-34.396027
22957.087660	3069.636167	1052.539063	28.712454
22957.087660	3069.636167	1051.387695	27.523621
22957.087660	3069.636167	1050.235352	114.976868
22957.087660	3069.636167	1049.083984	19.959225
22957.087660	3069.636167	1047.931641	97.917885
22957.087660	3069.636167	1046.778320	37.657841
22957.087660	3069.636167	1045.625977	211.480896
22957.087660	3069.636167	1044.472656	160.785217
22957.087660	3069.636167	1043.319336	65.827187
22957.087660	3069.636167	1042.166016	-129.129120
22957.087660	3069.636167	1041.012695	-63.945072
22957.087660	3069.636167	1039.858398	15.296922
22957.087660	3069.636167	1038.704102	-27.308214
22957.087660	3069.636167	1037.549805	68.306374
22957.087660	3069.636167	1036.394531	220.580154
22957.087660	3069.636167	1035.239258	134.385025
22957.087660	3069.636167	1034.083984	98.926033
22957.087660	3069.636167	1032.928711	144.148483
22957.087660	3069.636167	1031.773438	-44.821194
22957.087660	3069.636167	1030.617188	68.111084
22957.087660	3069.636167	1029.460938	-30.492134
22957.087660	3069.636167	1028.304688	42.042976
22957.087660	3069.636167	1027.147461	48.940758
22957.087660	3069.636167	1025.991211	71.728065
22957.087660	3069.636167	1024.833984	90.571823
22957.087660	3069.636167	1023.675781	49.481186
22957.087660	3069.636167	1022.518555	75.917847
22957.087660	3069.636167	1021.360352	108.703270
22957.087660	3069.636167	1020.202148	62.915997
22957.087660	3069.636167	1019.043945	120.974503
22957.087660	3069.636167	1017.884766	137.706375
22957.087660	3069.636167	1016.726563	67.490677
22957.087660	3069.636167	1015.567383	31.326267
22957.087660	3069.636167	1014.407227	96.563164
22957.087660	3069.636167	1013.248047	19.065557
22957.087660	3069.636167	1012.087891	58.999550
22957.087660	3069.636167	1010.927734	65.937668
22957.087660	3069.636167	1009.767578	5.862887
22957.087660	3069.636167	1008.606445	129.036575
22957.087660	3069.636167	1007.446289	122.345322
22957.087660	3069.636167	1006.285156	-43.294182
22957.087660	3069.636167	1005.123047	-76.961075
22957.087660	3069.636167	1003.961914	77.207062
22957.087660	3069.636167	1002.799805	10.393791
22957.087660	3069.636167	1001.637695	75.190544
22957.087660	3069.636167	1000.475586	-9.545173
22957.087660	3069.636167	999.312500	39.313465
22957.087660	3069.636167	998.149414	81.012314
22957.087660	3069.636167	996.986328	190.471390
22957.087660	3069.636167	995.823242	100.417366
22957.087660	3069.636167	994.659180	72.763542
22957.087660	3069.636167	993.496094	36.240253
22957.087660	3069.636167	992.332031	72.965942
22957.087660	3069.636167	991.166992	81.615433
22957.087660	3069.636167	990.002930	-11.000635
22957.087660	3069.636167	988.837891	-107.042343
22957.087660	3069.636167	987.672852	-71.622345
22957.087660	3069.636167	986.506836	-18.156197
22957.087660	3069.636167	985.341797	-22.597576
22957.087660	3069.636167	984.175781	13.090405
22957.087660	3069.636167	983.009766	-57.038723
22957.087660	3069.636167	981.843750	-22.009716
22957.087660	3069.636167	980.676758	-39.149433
22957.087660	3069.636167	979.509766	-18.042892
22957.087660	3069.636167	978.342773	-81.304688
22957.087660	3069.636167	977.175781	-130.322342
22957.087660	3069.636167	976.007813	106.170387
22957.087660	3069.636167	974.839844	85.366989
22957.087660	3069.636167	973.671875	61.465862
22957.087660	3069.636167	972.503906	56.208389
22957.087660	3069.636167	971.334961	-43.464973
22957.087660	3069.636167	970.166016	28.879627
22957.087660	3069.636167	968.997070	6.707702
22957.087660	3069.636167	967.828125	29.478909
22957.087660	3069.636167	966.658203	77.110130
22957.087660	3069.636167	965.488281	10.548564
22957.087660	3069.636167	964.318359	80.755821
22957.087660	3069.636167	963.148438	180.468918
22957.087660	3069.636167	961.977539	40.004509
22957.087660	3069.636167	960.806641	61.761112
22957.087660	3069.636167	959.635742	34.902016
22957.087660	3069.636167	958.463867	108.276009
22957.087660	3069.636167	957.292969	67.991272
22957.087660	3069.636167	956.121094	71.769562
22957.087660	3069.636167	954.948242	34.196449
22957.087660	3069.636167	953.776367	37.905220
22957.087660	3069.636167	952.603516	-58.464104
22957.087660	3069.636167	951.430664	-113.447281
22957.087660	3069.636167	950.257813	33.882668
22957.087660	3069.636167	949.084961	-112.098061
22957.087660	3069.636167	947.911133	-94.392998
22957.087660	3069.636167	946.737305	-117.846375
22957.087660	3069.636167	945.563477	-81.148857
22957.087660	3069.636167	944.388672	-66.975967
22957.087660	3069.636167	943.213867	17.593815
22957.087660	3069.636167	942.039063	-41.211243
22957.087660	3069.636167	940.864258	-33.367958
22957.087660	3069.636167	939.688477	34.260548
22957.087660	3069.636167	938.513672	-8.187162
22957.087660	3069.636167	937.337891	90.914925
22957.087660	3069.636167	936.161133	-39.036545
22957.087660	3069.636167	934.985352	193.091324
22957.087660	3069.636167	933.808594	142.217819
22957.087660	3069.636167	932.631836	1.717405
22957.087660	3069.636167	931.454102	127.652519
22957.087660	3069.636167	930.277344	-81.504807
22957.087660	3069.636167	929.099609	17.275795
22957.087660	3069.636167	927.921875	-12.964091
22957.087660	3069.636167	926.743164	21.236794
22957.087660	3069.636167	925.565430	-13.229856
22957.087660	3069.636167	924.386719	-16.527735
22957.087660	3069.636167	923.208008	156.847748
22957.087660	3069.636167	922.028320	-50.233089
22957.087660	3069.636167	920.849609	-7.896860
22957.087660	3069.636167	919.669922	-6.235219
22957.087660	3069.636167	919.474609	61.675385
22957.087660	3069.636167	918.309570	16.638716
22957.087660	3069.636167	917.143555	-121.868629
22957.087660	3069.636167	915.977539	13.737213
22957.087660	3069.636167	914.810547	-64.571548
22957.087660	3069.636167	913.644531	-41.177563
22957.087660	3069.636167	912.477539	-82.153282
22957.087660	3069.636167	911.310547	-42.228699
22957.087660	3069.636167	910.143555	-64.580803
22957.087660	3069.636167	908.975586	60.293728
22957.087660	3069.636167	907.807617	-92.758835
22957.087660	3069.636167	906.639648	-21.889603
22957.087660	3069.636167	905.471680	-139.688644
22957.087660	3069.636167	904.303711	-4.659606
22957.087660	3069.636167	903.134766	-66.534142
22957.087660	3069.636167	901.965820	-132.555222
22957.087660	3069.636167	900.796875	-30.831472
22957.087660	3069.636167	899.626953	31.482531
22957.087660	3069.636167	898.457031	10.938815
22957.087660	3069.636167	897.287109	-65.506302
22957.087660	3069.636167	896.117188	-44.692894
22957.087660	3069.636167	894.947266	-48.741787
22957.087660	3069.636167	893.776367	-42.474190
22957.087660	3069.636167	892.605469	-121.023491
22957.087660	3069.636167	891.434570	-98.257118
22957.087660	3069.636167	890.262695	-46.586182
22957.087660	3069.636167	889.091797	42.237602
22957.087660	3069.636167	887.919922	-96.293823
22957.087660	3069.636167	886.748047	-106.710236
22957.087660	3069.636167	885.575195	-129.540512
22957.087660	3069.636167	884.403320	-113.151917
22957.087660	3069.636167	883.230469	-34.856403
22957.087660	3069.636167	882.057617	-63.956116
22957.087660	3069.636167	880.883789	-218.958038
22957.087660	3069.636167	879.710938	-89.179985
22957.087660	3069.636167	878.537109	-171.960403
22957.087660	3069.636167	877.362305	-155.729782
22957.087660	3069.636167	876.188477	-13.743783
22957.087660	3069.636167	875.013672	-20.278498
22957.087660	3069.636167	873.839844	-131.958160
22957.087660	3069.636167	872.664063	-47.836376
22957.087660	3069.636167	871.489258	-60.610996
22957.087660	3069.636167	870.313477	-34.263851
22957.087660	3069.636167	869.138672	45.598553
22957.087660	3069.636167	867.962891	-64.034508
22957.087660	3069.636167	866.786133	46.637951
22957.087660	3069.636167	865.610352	74.910889
22957.087660	3069.636167	864.433594	88.746132
22957.087660	3069.636167	863.256836	1.738800
22957.087660	3069.636167	862.079102	-163.420166
22957.087660	3069.636167	860.902344	-57.061657
22957.087660	3069.636167	859.724609	78.019676
22957.087660	3069.636167	858.546875	-25.443287
22957.087660	3069.636167	857.368164	-83.666924
22957.087660	3069.636167	856.190430	-49.415073
22957.087660	3069.636167	855.011719	81.363640
22957.087660	3069.636167	853.833008	-24.149601
22957.087660	3069.636167	852.654297	184.570343
22957.087660	3069.636167	851.474609	37.975941
22957.087660	3069.636167	850.294922	-44.940533
22957.087660	3069.636167	849.115234	17.878265
22957.087660	3069.636167	847.935547	129.899353
22957.087660	3069.636167	846.754883	3.876415
22957.087660	3069.636167	845.575195	-109.805695
22957.087660	3069.636167	844.393555	20.574060
22957.087660	3069.636167	843.212891	-11.090189
22957.087660	3069.636167	842.032227	100.731590
22957.087660	3069.636167	840.850586	19.842314
22957.087660	3069.636167	839.668945	-7.756844
22957.087660	3069.636167	838.486328	54.776554
22957.087660	3069.636167	837.304688	-1.526942
22957.087660	3069.636167	836.122070	110.091545
22957.087660	3069.636167	834.939453	53.766533
22957.087660	3069.636167	833.756836	216.467453
22957.087660	3069.636167	832.573242	246.063034
22957.087660	3069.636167	831.389648	253.123856
22957.087660	3069.636167	830.206055	278.576355
22957.087660	3069.636167	829.022461	432.851898
22957.087660	3069.636167	827.838867	388.702118
22957.087660	3069.636167	826.654297	536.727112
22957.087660	3069.636167	825.469727	727.598572
22957.087660	3069.636167	824.284180	803.938049
22957.087660	3069.636167	823.099609	818.937561
22957.087660	3069.636167	821.914063	1015.715454
22957.087660	3069.636167	820.728516	875.422485
22957.087660	3069.636167	819.542969	937.316162
22957.087660	3069.636167	818.356445	882.808472
22957.087660	3069.636167	817.169922	891.579529
22957.087660	3069.636167	815.983398	859.521545
22957.087660	3069.636167	814.796875	647.928101
22957.087660	3069.636167	813.609375	644.461670
22957.087660	3069.636167	812.422852	536.977478
22957.087660	3069.636167	811.235352	492.729950
22957.087660	3069.636167	810.046875	540.218689
22957.087660	3069.636167	808.859375	361.450287
22957.087660	3069.636167	807.670898	284.623993
22957.087660	3069.636167	806.482422	346.346680
22957.087660	3069.636167	805.293945	236.940720
22957.087660	3069.636167	804.104492	298.621674
22957.087660	3069.636167	802.915039	138.345627
22957.087660	3069.636167	801.725586	271.239624
22957.087660	3069.636167	800.536133	58.097706
22957.087660	3069.636167	799.345703	62.742340
22957.087660	3069.636167	798.155273	61.270214
22957.087660	3069.636167	796.964844	-35.804401
22957.087660	3069.636167	795.774414	23.723181
22957.087660	3069.636167	794.583008	22.223202
22957.087660	3069.636167	793.392578	-109.373154
22957.087660	3069.636167	792.200195	35.446468
22957.087660	3069.636167	791.008789	-25.011751
22957.087660	3069.636167	789.816406	99.393883
22957.087660	3069.636167	788.625000	112.037010
22957.087660	3069.636167	787.432617	27.199400
22957.087660	3069.636167	786.239258	58.098396
22957.087660	3069.636167	785.046875	54.469978
22957.087660	3069.636167	783.853516	119.824387
22957.087660	3069.636167	782.660156	142.535736
22957.087660	3069.636167	781.465820	238.247101
22957.087660	3069.636167	780.272461	-41.263496
22957.087660	3069.636167	779.078125	-30.732483
22957.087660	3069.636167	777.883789	-85.084541
22957.087660	3069.636167	776.688477	-11.744522
22957.087660	3069.636167	775.494141	81.817604
22957.087660	3069.636167	774.298828	13.261333
22957.087660	3069.636167	773.103516	19.662983
22957.087660	3069.636167	771.907227	86.801262
22957.087660	3069.636167	770.711914	228.810272
22957.087660	3069.636167	769.515625	22.592569
22957.087660	3069.636167	768.318359	8.704819
22957.087660	3069.636167	767.122070	21.115625
22957.087660	3069.636167	765.924805	102.288536
22957.087660	3069.636167	764.727539	151.057251
22957.087660	3069.636167	763.530273	5.676640
22957.087660	3069.636167	762.333008	78.682877
22957.087660	3069.636167	761.134766	109.201721
22957.087660	3069.636167	759.936523	38.656727
22957.087660	3069.636167	758.738281	125.720261
22957.087660	3069.636167	757.540039	73.359123
22957.087660	3069.636167	756.340820	29.086742
22957.087660	3069.636167	755.141602	23.184593
22957.087660	3069.636167	753.942383	-45.304848
22957.087660	3069.636167	752.742188	-18.918968
22957.087660	3069.636167	751.541992	17.534370
22957.087660	3069.636167	750.341797	203.251938
22957.087660	3069.636167	749.141602	126.669250
22957.087660	3069.636167	747.941406	120.688156
22957.087660	3069.636167	746.740234	211.473846
22957.087660	3069.636167	745.539063	153.045166
22957.087660	3069.636167	744.337891	60.368858
22957.087660	3069.636167	743.135742	-16.160898
22957.087660	3069.636167	741.933594	72.517708
22957.087660	3069.636167	740.731445	-10.047495
22957.087660	3069.636167	739.529297	-1.975204
22957.087660	3069.636167	738.326172	20.174114
22957.087660	3069.636167	737.124023	36.264927
22957.087660	3069.636167	735.919922	46.298981
22957.087660	3069.636167	734.716797	-4.040500
22957.087660	3069.636167	733.513672	94.483856
22957.087660	3069.636167	732.309570	56.197754
22957.087660	3069.636167	731.105469	116.440895
22957.087660	3069.636167	729.900391	76.131744
22957.087660	3069.636167	728.696289	148.381454
22957.087660	3069.636167	727.491211	186.427383
22957.087660	3069.636167	726.286133	89.840706
22957.087660	3069.636167	725.080078	117.815216
22957.087660	3069.636167	723.874023	135.724854
22957.087660	3069.636167	722.668945	187.748260
22957.087660	3069.636167	721.461914	-45.307972
22957.087660	3069.636167	720.255859	95.011154
22957.087660	3069.636167	719.048828	120.886696
22957.087660	3069.636167	717.841797	108.623787
22957.087660	3069.636167	716.634766	80.307793
22957.087660	3069.636167	715.427734	78.059738
22957.087660	3069.636167	714.219727	71.789162
22957.087660	3069.636167	713.011719	69.517517
22957.087660	3069.636167	711.803711	83.265732
22957.087660	3069.636167	710.594727	16.851498
22957.087660	3069.636167	709.385742	-75.588943
22957.087660	3069.636167	708.176758	-43.833992
22957.087660	3069.636167	706.967773	75.995186
22957.087660	3069.636167	705.758789	35.610416
22957.087660	3069.636167	704.548828	85.294205
22957.087660	3069.636167	703.338867	162.958206
22957.087660	3069.636167	702.127930	160.549942
22957.087660	3069.636167	700.917969	328.147766
22957.087660	3069.636167	699.707031	423.668274
22957.087660	3069.636167	698.496094	461.153046
22957.087660	3069.636167	697.285156	332.695740
22957.087660	3069.636167	696.073242	272.227203
22957.087660	3069.636167	694.861328	231.750992
22957.087660	3069.636167	693.649414	173.298767
22957.087660	3069.636167	692.436523	288.617279
22957.087660	3069.636167	691.224609	288.057495
22957.087660	3069.636167	690.011719	283.489441
22957.087660	3069.636167	688.798828	348.769257
22957.087660	3069.636167	687.584961	400.036194
22957.087660	3069.636167	686.372070	509.128204
22957.087660	3069.636167	685.158203	494.484039
22957.087660	3069.636167	683.943359	485.812561
22957.087660	3069.636167	682.729492	503.052338
22957.087660	3069.636167	681.514648	661.806152
22957.087660	3069.636167	680.299805	754.706116
22957.087660	3069.636167	679.084961	652.272644
22957.087660	3069.636167	677.869141	593.694702
22957.087660	3069.636167	676.653320	654.634277
22957.087660	3069.636167	675.437500	580.118591
22957.087660	3069.636167	674.221680	527.519226
22957.087660	3069.636167	673.004883	506.774078
22957.087660	3069.636167	671.789063	432.289276
22957.087660	3069.636167	670.571289	532.912537
22957.087660	3069.636167	669.354492	307.234955
22957.087660	3069.636167	668.136719	236.767303
22957.087660	3069.636167	666.919922	241.875687
22957.087660	3069.636167	665.701172	290.700226
22957.087660	3069.636167	664.483398	256.009857
22957.087660	3069.636167	663.264648	129.905121
22957.087660	3069.636167	662.045898	272.053009
22957.087660	3069.636167	660.827148	281.038361
22957.087660	3069.636167	659.608398	216.523834
22957.087660	3069.636167	658.388672	318.802216
22957.087660	3069.636167	657.168945	307.870605
22957.087660	3069.636167	655.949219	229.447769
22957.087660	3069.636167	654.728516	214.536942
22957.087660	3069.636167	653.507813	84.552765
22957.087660	3069.636167	652.287109	133.114838
22957.087660	3069.636167	651.066406	94.388199
22957.087660	3069.636167	649.844727	39.798935
22957.087660	3069.636167	648.623047	153.700211
22957.087660	3069.636167	647.401367	43.599339
22957.087660	3069.636167	646.179688	216.858643
22957.087660	3069.636167	644.957031	235.515488
22957.087660	3069.636167	643.734375	186.810806
22957.087660	3069.636167	642.511719	144.050278
22957.087660	3069.636167	641.289063	196.314972
22957.087660	3069.636167	640.065430	232.705246
22957.087660	3069.636167	638.841797	217.614410
22957.087660	3069.636167	637.618164	157.010284
22957.087660	3069.636167	636.393555	112.237328
22957.087660	3069.636167	635.168945	108.995560
22957.087660	3069.636167	633.944336	22.698606
22957.087660	3069.636167	632.719727	189.442703
22957.087660	3069.636167	631.494141	4.315465
22957.087660	3069.636167	630.269531	70.189690
22957.087660	3069.636167	629.042969	165.647858
22957.087660	3069.636167	627.817383	67.496811
22957.087660	3069.636167	626.590820	160.908203
22957.087660	3069.636167	625.365234	307.569427
22957.087660	3069.636167	624.137695	645.606323
22957.087660	3069.636167	622.911133	728.921082
22957.087660	3069.636167	621.683594	790.480225
22957.087660	3069.636167	620.456055	589.649963
22957.087660	3069.636167	619.228516	400.721985
22957.087660	3069.636167	618.000977	209.886795
22957.087660	3069.636167	616.772461	92.052734
22957.087660	3069.636167	615.543945	29.437681
22957.087660	3069.636167	614.314453	87.028564
22957.087660	3069.636167	613.085938	-103.640739
22957.087660	3069.636167	611.856445	11.042642
22957.087660	3069.636167	610.626953	15.388466
22957.087660	3069.636167	609.397461	127.999916
22957.087660	3069.636167	608.166992	171.654434
22957.087660	3069.636167	606.936523	2.739466
22957.087660	3069.636167	605.706055	182.132614
22957.087660	3069.636167	604.474609	113.579102
22957.087660	3069.636167	603.244141	216.143768
22957.087660	3069.636167	602.012695	182.977463
22957.087660	3069.636167	600.780273	132.117493
22957.087660	3069.636167	599.548828	12.477897
22957.087660	3069.636167	598.316406	18.634314
22957.087660	3069.636167	597.083984	-38.091122
22957.087660	3069.636167	595.851563	-24.094648
22957.087660	3069.636167	594.618164	-80.813705
22957.087660	3069.636167	593.384766	-68.804031
22957.087660	3069.636167	592.151367	-62.700138
22957.087660	3069.636167	590.917969	-182.210251
22957.087660	3069.636167	589.683594	-215.351379
22957.087660	3069.636167	588.449219	-285.760773
22957.087660	3069.636167	587.214844	-152.181290
22957.087660	3069.636167	585.979492	-124.556236
22957.087660	3069.636167	584.745117	-91.069908
22957.087660	3069.636167	583.509766	-45.849411
22957.087660	3069.636167	582.273438	-198.577072
22957.087660	3069.636167	581.038086	-67.169060
22957.087660	3069.636167	579.801758	-121.907791
22957.087660	3069.636167	578.565430	-204.048996
22957.087660	3069.636167	577.329102	-106.035721
22957.087660	3069.636167	576.091797	-43.309280
22957.087660	3069.636167	574.854492	-119.568756
22957.087660	3069.636167	573.617188	-168.409973
22957.087660	3069.636167	572.378906	-160.508133
22957.087660	3069.636167	571.141602	-70.470200
22957.087660	3069.636167	569.903320	-93.891586
22957.087660	3069.636167	568.664063	-50.841721
22957.087660	3069.636167	567.425781	-119.223427
22957.087660	3069.636167	566.186523	-70.334251
22957.087660	3069.636167	564.947266	-3.886374
22957.087660	3069.636167	563.708008	-5.836897
22957.087660	3069.636167	562.467773	21.500822
22957.087660	3069.636167	561.227539	62.490807
22957.087660	3069.636167	559.987305	89.796577
22957.087660	3069.636167	558.747070	122.943001
22957.087660	3069.636167	557.505859	154.120163
22957.087660	3069.636167	556.264648	177.479202
22957.087660	3069.636167	555.023438	138.415131
22957.087660	3069.636167	553.781250	70.115608
22957.087660	3069.636167	552.539063	148.061386
22957.087660	3069.636167	551.296875	101.230019
22957.087660	3069.636167	550.054688	17.393944
22957.087660	3069.636167	548.811523	136.216446
22957.087660	3069.636167	547.569336	34.881226
22957.087660	3069.636167	546.325195	40.698448
22957.087660	3069.636167	545.082031	194.494217
22957.087660	3069.636167	543.837891	190.547745
22957.087660	3069.636167	542.593750	336.466278
22957.087660	3069.636167	541.349609	324.716675
22957.087660	3069.636167	540.105469	351.884857
22957.087660	3069.636167	538.860352	342.090210
22957.087660	3069.636167	537.615234	202.020615
22957.087660	3069.636167	536.369141	130.061050
22957.087660	3069.636167	535.124023	89.240402
22957.087660	3069.636167	533.877930	211.680786
22957.087660	3069.636167	532.631836	196.131516
22957.087660	3069.636167	531.384766	213.618301
22957.087660	3069.636167	530.138672	293.253937
22957.087660	3069.636167	528.891602	279.664978
22957.087660	3069.636167	527.643555	229.206985
22957.087660	3069.636167	526.396484	283.587433
22957.087660	3069.636167	525.148438	254.516907
22957.087660	3069.636167	523.900391	423.348236
22957.087660	3069.636167	522.652344	336.098511
22957.087660	3069.636167	521.403320	578.550354
22957.087660	3069.636167	520.154297	791.831421
22957.087660	3069.636167	518.905273	797.636108
22957.087660	3069.636167	517.656250	950.732971
22957.087660	3069.636167	516.406250	1051.465210
22957.087660	3069.636167	515.156250	1094.058716
22957.087660	3069.636167	513.906250	1080.487305
22957.087660	3069.636167	512.655273	1287.666260
22957.087660	3069.636167	511.404297	1227.631836
22957.087660	3069.636167	510.153320	1128.933594
22957.087660	3069.636167	508.902344	966.441345
22957.087660	3069.636167	507.650391	836.923645
22957.087660	3069.636167	506.398438	740.361877
22957.087660	3069.636167	505.146484	591.650635
22957.087660	3069.636167	503.893555	433.354889
22957.087660	3069.636167	502.641602	367.929474
22957.087660	3069.636167	501.388672	238.779373
22957.087660	3069.636167	500.134766	250.745834
22957.087660	3069.636167	498.881836	239.551743
22957.087660	3069.636167	497.627930	129.889633
22957.087660	3069.636167	496.374023	93.669464
22957.087660	3069.636167	495.119141	130.841522
22957.087660	3069.636167	493.865234	27.134287
22957.087660	3069.636167	492.610352	102.944542
22957.087660	3069.636167	491.355469	117.013634
22957.087660	3069.636167	490.099609	154.244980
22957.087660	3069.636167	488.843750	224.267059
22957.087660	3069.636167	487.587891	261.509857
22957.087660	3069.636167	486.332031	285.270020
22957.087660	3069.636167	485.075195	214.617477
22957.087660	3069.636167	483.818359	151.728394
22957.087660	3069.636167	482.561523	86.966751
22957.087660	3069.636167	481.304688	-29.738085
22957.087660	3069.636167	480.046875	44.249748
22957.087660	3069.636167	478.789063	64.332802
22957.087660	3069.636167	477.531250	-134.969299
22957.087660	3069.636167	476.272461	52.599899
22957.087660	3069.636167	475.013672	86.214775
22957.087660	3069.636167	473.754883	46.755222
22957.087660	3069.636167	472.496094	126.562050
22957.087660	3069.636167	471.236328	192.902908
22957.087660	3069.636167	469.976563	93.942192
22957.087660	3069.636167	468.716797	192.984467
22957.087660	3069.636167	467.456055	49.929691
22957.087660	3069.636167	466.196289	77.921364
22957.087660	3069.636167	464.935547	94.403984
22957.087660	3069.636167	463.673828	-25.417072
22957.087660	3069.636167	462.413086	83.274796
22957.087660	3069.636167	461.151367	26.893337
22957.087660	3069.636167	459.889648	78.013596
22957.087660	3069.636167	458.626953	46.646221
22957.087660	3069.636167	457.364258	103.542870
22957.087660	3069.636167	456.101563	166.192291
22957.087660	3069.636167	454.838867	-26.139984
22957.087660	3069.636167	453.575195	-88.030838
22957.087660	3069.636167	452.312500	-15.730278
22957.087660	3069.636167	451.047852	-69.889618
22957.087660	3069.636167	449.784180	-5.244803
22957.087660	3069.636167	448.519531	65.136345
22957.087660	3069.636167	447.254883	-77.018997
22957.087660	3069.636167	445.990234	-52.556522
22957.087660	3069.636167	444.725586	-154.399139
22957.087660	3069.636167	443.459961	-97.370636
22957.087660	3069.636167	442.194336	49.559052
22957.087660	3069.636167	440.927734	-86.622948
22957.087660	3069.636167	439.662109	18.199621
22957.087660	3069.636167	438.395508	27.400045
22957.087660	3069.636167	437.127930	-49.404926
22957.087660	3069.636167	435.861328	55.369934
22957.087660	3069.636167	434.593750	11.085516
22957.087660	3069.636167	433.326172	121.542793
22957.087660	3069.636167	432.058594	104.007095
22957.087660	3069.636167	430.790039	118.937141
22957.087660	3069.636167	429.521484	168.219574
22957.087660	3069.636167	428.252930	196.484680
22957.087660	3069.636167	426.984375	144.596588
22957.087660	3069.636167	425.714844	106.076630
22957.087660	3069.636167	424.445313	231.582535
22957.087660	3069.636167	423.174805	250.241882
22957.087660	3069.636167	421.905273	184.999771
22957.087660	3069.636167	420.634766	96.897194
22957.087660	3069.636167	419.364258	266.060760
22957.087660	3069.636167	418.092773	273.192261
22957.087660	3069.636167	416.822266	261.249664
22957.087660	3069.636167	415.550781	253.091263
22957.087660	3069.636167	414.278320	302.020477
22957.087660	3069.636167	413.006836	272.852478
22957.087660	3069.636167	411.734375	177.050980
22957.087660	3069.636167	410.461914	157.354752
22957.087660	3069.636167	409.188477	137.620773
22957.087660	3069.636167	407.916016	136.865585
22957.087660	3069.636167	406.642578	86.619583
22957.087660	3069.636167	405.368164	127.585114
22957.087660	3069.636167	404.094727	221.688690
22957.087660	3069.636167	402.820313	45.859440
22957.087660	3069.636167	401.545898	134.102921
22957.087660	3069.636167	400.270508	-68.368744
22957.087660	3069.636167	398.996094	78.572968
22957.087660	3069.636167	397.720703	79.177864
22957.087660	3069.636167	396.444336	22.747290
22957.087660	3069.636167	395.168945	15.587857
22957.087660	3069.636167	393.892578	6.430913
22957.087660	3069.636167	392.616211	71.149483
22957.087660	3069.636167	391.339844	56.076149
22957.087660	3069.636167	390.062500	-103.211693
22957.087660	3069.636167	388.785156	-101.425797
22957.087660	3069.636167	387.507813	17.731695
22957.087660	3069.636167	386.229492	170.803604
22957.087660	3069.636167	384.951172	202.422134
22957.087660	3069.636167	383.672852	294.482666
22957.087660	3069.636167	382.394531	212.134857
22957.087660	3069.636167	381.115234	254.601868
22957.087660	3069.636167	379.835938	296.876343
22957.087660	3069.636167	378.556641	403.289886
22957.087660	3069.636167	377.277344	195.405807
22957.087660	3069.636167	375.997070	350.582062
22957.087660	3069.636167	374.716797	183.995041
22957.087660	3069.636167	373.435547	244.143478
22957.087660	3069.636167	372.155273	173.615265
22957.087660	3069.636167	370.874023	83.979927
22957.087660	3069.636167	369.591797	135.844681
22957.087660	3069.636167	368.310547	-73.252090
22957.087660	3069.636167	367.028320	81.980408
22957.087660	3069.636167	365.746094	51.824413
22957.087660	3069.636167	364.463867	61.040470
22957.087660	3069.636167	363.180664	120.910835
22957.087660	3069.636167	361.897461	93.645241
22957.087660	3069.636167	360.614258	86.825195
22957.087660	3069.636167	359.330078	68.353897
22957.087660	3069.636167	358.045898	58.976067
22957.087660	3069.636167	356.761719	17.195633
22957.087660	3069.636167	355.477539	7.109012
22957.087660	3069.636167	354.192383	-112.664650
22957.087660	3069.636167	352.907227	-127.270485
22957.087660	3069.636167	351.622070	17.836170
22957.087660	3069.636167	350.336914	-104.971237
22957.087660	3069.636167	349.050781	-98.251427
22957.087660	3069.636167	347.764648	-123.988548
22957.087660	3069.636167	346.477539	4.137634
22957.087660	3069.636167	345.191406	-73.365585
22957.087660	3069.636167	343.904297	-108.074974
22957.087660	3069.636167	342.616211	-86.869865
22957.087660	3069.636167	341.329102	29.705908
22957.087660	3069.636167	340.041016	-46.089981
22957.087660	3069.636167	338.752930	-86.707100
22957.087660	3069.636167	337.463867	91.962273
22957.087660	3069.636167	336.175781	-98.278191
22957.087660	3069.636167	334.886719	41.524323
22957.087660	3069.636167	333.596680	-63.524307
22957.087660	3069.636167	332.307617	-18.969471
22957.087660	3069.636167	331.017578	66.168243
22957.087660	3069.636167	329.727539	-91.530777
22957.087660	3069.636167	328.436523	-77.276802
22957.087660	3069.636167	327.146484	-76.888275
22957.087660	3069.636167	325.855469	-84.783928
22957.087660	3069.636167	324.563477	-20.352554
22957.087660	3069.636167	323.272461	-108.592705
22957.087660	3069.636167	321.980469	19.769169
22957.087660	3069.636167	320.688477	-43.918442
22957.087660	3069.636167	319.395508	37.648972
22957.087660	3069.636167	318.103516	80.831375
22957.087660	3069.636167	316.810547	151.130920
22957.087660	3069.636167	315.516602	51.916615
22957.087660	3069.636167	314.223633	84.679909
22957.087660	3069.636167	312.929688	211.834503
22957.087660	3069.636167	311.635742	264.922699
22957.087660	3069.636167	310.340820	416.033478
22957.087660	3069.636167	309.045898	249.917007
22957.087660	3069.636167	307.750977	131.357483
22957.087660	3069.636167	306.456055	342.568237
22957.087660	3069.636167	305.160156	348.751556
22957.087660	3069.636167	303.865234	215.466766
22957.087660	3069.636167	302.568359	303.234863
22957.087660	3069.636167	301.272461	234.685654
22957.087660	3069.636167	299.975586	327.271729
22957.087660	3069.636167	298.678711	267.240814
