#X		#Y		#Wave		#Intensity
22967.451117	3074.288000	1999.980469	62.533527
22967.451117	3074.288000	1999.016602	48.482250
22967.451117	3074.288000	1998.052734	-35.423935
22967.451117	3074.288000	1997.087891	56.595661
22967.451117	3074.288000	1996.123047	-7.563581
22967.451117	3074.288000	1995.158203	-19.728151
22967.451117	3074.288000	1994.193359	-39.367390
22967.451117	3074.288000	1993.228516	-34.283916
22967.451117	3074.288000	1992.262695	139.108032
22967.451117	3074.288000	1991.297852	12.870060
22967.451117	3074.288000	1990.332031	-36.642170
22967.451117	3074.288000	1989.366211	84.558456
22967.451117	3074.288000	1988.399414	96.817207
22967.451117	3074.288000	1987.433594	156.028000
22967.451117	3074.288000	1986.466797	19.804819
22967.451117	3074.288000	1985.500977	64.094940
22967.451117	3074.288000	1984.534180	-59.774937
22967.451117	3074.288000	1983.567383	-50.162788
22967.451117	3074.288000	1982.599609	70.616875
22967.451117	3074.288000	1981.632813	-48.347866
22967.451117	3074.288000	1980.665039	-19.081747
22967.451117	3074.288000	1979.697266	-12.086962
22967.451117	3074.288000	1978.729492	-22.411320
22967.451117	3074.288000	1977.761719	11.679577
22967.451117	3074.288000	1976.792969	-62.884472
22967.451117	3074.288000	1975.825195	47.653584
22967.451117	3074.288000	1974.856445	0.199182
22967.451117	3074.288000	1973.887695	63.756302
22967.451117	3074.288000	1972.918945	-15.801352
22967.451117	3074.288000	1971.949219	67.415276
22967.451117	3074.288000	1970.980469	7.565003
22967.451117	3074.288000	1970.010742	80.839310
22967.451117	3074.288000	1969.041016	8.639909
22967.451117	3074.288000	1968.071289	143.453217
22967.451117	3074.288000	1967.101563	-24.864771
22967.451117	3074.288000	1966.130859	31.034258
22967.451117	3074.288000	1965.161133	-31.329403
22967.451117	3074.288000	1964.190430	46.676285
22967.451117	3074.288000	1963.219727	-15.702947
22967.451117	3074.288000	1962.249023	0.696454
22967.451117	3074.288000	1961.277344	-29.688526
22967.451117	3074.288000	1960.306641	33.429596
22967.451117	3074.288000	1959.334961	91.588852
22967.451117	3074.288000	1958.363281	-29.852217
22967.451117	3074.288000	1957.391602	1.217358
22967.451117	3074.288000	1956.419922	108.487640
22967.451117	3074.288000	1955.447266	63.283382
22967.451117	3074.288000	1954.474609	20.542215
22967.451117	3074.288000	1953.501953	-36.938915
22967.451117	3074.288000	1952.529297	16.157919
22967.451117	3074.288000	1951.556641	-97.823112
22967.451117	3074.288000	1950.583984	-42.297886
22967.451117	3074.288000	1949.610352	-8.904060
22967.451117	3074.288000	1948.636719	-9.904117
22967.451117	3074.288000	1947.663086	-35.459442
22967.451117	3074.288000	1946.689453	-43.832516
22967.451117	3074.288000	1945.715820	-44.848324
22967.451117	3074.288000	1944.741211	10.557374
22967.451117	3074.288000	1943.767578	-2.745804
22967.451117	3074.288000	1942.792969	91.858940
22967.451117	3074.288000	1941.818359	-7.287027
22967.451117	3074.288000	1940.842773	45.595558
22967.451117	3074.288000	1939.868164	2.860917
22967.451117	3074.288000	1938.892578	-59.467991
22967.451117	3074.288000	1937.916992	-11.519066
22967.451117	3074.288000	1936.941406	-0.337388
22967.451117	3074.288000	1935.965820	-28.352079
22967.451117	3074.288000	1934.990234	115.058746
22967.451117	3074.288000	1934.013672	-52.530830
22967.451117	3074.288000	1933.037109	22.283472
22967.451117	3074.288000	1932.060547	65.250702
22967.451117	3074.288000	1931.083984	-21.491419
22967.451117	3074.288000	1930.107422	14.124491
22967.451117	3074.288000	1929.129883	22.818197
22967.451117	3074.288000	1928.153320	19.279785
22967.451117	3074.288000	1927.175781	-57.614464
22967.451117	3074.288000	1926.198242	-7.355113
22967.451117	3074.288000	1925.219727	-49.998070
22967.451117	3074.288000	1924.242188	-31.529566
22967.451117	3074.288000	1923.263672	133.532349
22967.451117	3074.288000	1922.285156	-21.487232
22967.451117	3074.288000	1921.306641	40.928677
22967.451117	3074.288000	1920.328125	32.503860
22967.451117	3074.288000	1919.349609	60.705498
22967.451117	3074.288000	1918.370117	-45.362965
22967.451117	3074.288000	1917.391602	29.215738
22967.451117	3074.288000	1916.412109	35.441811
22967.451117	3074.288000	1915.431641	-21.766916
22967.451117	3074.288000	1914.452148	-8.214157
22967.451117	3074.288000	1913.472656	22.406126
22967.451117	3074.288000	1912.492188	-10.381520
22967.451117	3074.288000	1911.511719	-11.463311
22967.451117	3074.288000	1910.531250	43.517506
22967.451117	3074.288000	1909.550781	-35.554745
22967.451117	3074.288000	1908.569336	9.665745
22967.451117	3074.288000	1907.588867	35.382999
22967.451117	3074.288000	1906.607422	24.557123
22967.451117	3074.288000	1905.625977	13.736421
22967.451117	3074.288000	1904.644531	44.311287
22967.451117	3074.288000	1903.662109	9.150937
22967.451117	3074.288000	1902.680664	32.416615
22967.451117	3074.288000	1901.698242	58.107712
22967.451117	3074.288000	1900.715820	35.132843
22967.451117	3074.288000	1899.733398	-9.723832
22967.451117	3074.288000	1898.750000	54.875866
22967.451117	3074.288000	1897.767578	-43.458626
22967.451117	3074.288000	1896.784180	-27.495502
22967.451117	3074.288000	1895.800781	73.534401
22967.451117	3074.288000	1894.817383	23.857586
22967.451117	3074.288000	1893.833984	34.943485
22967.451117	3074.288000	1892.850586	-41.426960
22967.451117	3074.288000	1891.866211	10.957694
22967.451117	3074.288000	1890.881836	63.323601
22967.451117	3074.288000	1889.897461	-8.151335
22967.451117	3074.288000	1888.913086	58.764729
22967.451117	3074.288000	1887.927734	60.127460
22967.451117	3074.288000	1886.943359	22.666317
22967.451117	3074.288000	1885.958008	-31.763393
22967.451117	3074.288000	1884.972656	32.682858
22967.451117	3074.288000	1883.987305	-16.877367
22967.451117	3074.288000	1883.001953	45.117832
22967.451117	3074.288000	1882.015625	-33.517849
22967.451117	3074.288000	1881.029297	-46.681358
22967.451117	3074.288000	1880.042969	0.743145
22967.451117	3074.288000	1879.056641	79.647369
22967.451117	3074.288000	1878.070313	-40.118469
22967.451117	3074.288000	1877.083984	46.028728
22967.451117	3074.288000	1876.096680	23.173147
22967.451117	3074.288000	1875.109375	-108.623199
22967.451117	3074.288000	1874.122070	25.897346
22967.451117	3074.288000	1873.134766	-74.390366
22967.451117	3074.288000	1872.146484	16.515055
22967.451117	3074.288000	1871.159180	-11.158214
22967.451117	3074.288000	1870.170898	77.279053
22967.451117	3074.288000	1869.182617	-90.664131
22967.451117	3074.288000	1868.194336	31.601664
22967.451117	3074.288000	1867.205078	-97.596016
22967.451117	3074.288000	1866.216797	51.207581
22967.451117	3074.288000	1865.227539	-41.702168
22967.451117	3074.288000	1864.238281	-42.768398
22967.451117	3074.288000	1863.249023	-55.915611
22967.451117	3074.288000	1862.259766	66.189262
22967.451117	3074.288000	1861.269531	11.969195
22967.451117	3074.288000	1860.279297	-32.577053
22967.451117	3074.288000	1859.290039	-40.902374
22967.451117	3074.288000	1858.298828	-17.856146
22967.451117	3074.288000	1857.308594	41.371799
22967.451117	3074.288000	1856.318359	18.549395
22967.451117	3074.288000	1855.327148	-23.565710
22967.451117	3074.288000	1854.335938	50.084827
22967.451117	3074.288000	1853.344727	-61.952080
22967.451117	3074.288000	1852.353516	-46.187618
22967.451117	3074.288000	1851.362305	61.152905
22967.451117	3074.288000	1850.370117	-21.922886
22967.451117	3074.288000	1849.377930	-3.783148
22967.451117	3074.288000	1848.385742	11.934944
22967.451117	3074.288000	1847.393555	-27.751974
22967.451117	3074.288000	1846.401367	-84.286011
22967.451117	3074.288000	1845.408203	34.939793
22967.451117	3074.288000	1844.415039	12.099532
22967.451117	3074.288000	1843.421875	42.205204
22967.451117	3074.288000	1842.428711	45.824703
22967.451117	3074.288000	1841.435547	-8.300481
22967.451117	3074.288000	1840.441406	31.389448
22967.451117	3074.288000	1839.448242	3.723699
22967.451117	3074.288000	1838.454102	31.358700
22967.451117	3074.288000	1837.459961	3.686121
22967.451117	3074.288000	1836.464844	21.679062
22967.451117	3074.288000	1835.470703	6.015911
22967.451117	3074.288000	1834.475586	-12.053706
22967.451117	3074.288000	1833.480469	-39.734276
22967.451117	3074.288000	1832.485352	47.862652
22967.451117	3074.288000	1831.490234	-30.261917
22967.451117	3074.288000	1830.495117	26.071245
22967.451117	3074.288000	1829.499023	-37.639439
22967.451117	3074.288000	1828.502930	35.450909
22967.451117	3074.288000	1827.506836	-47.453342
22967.451117	3074.288000	1826.510742	104.752815
22967.451117	3074.288000	1825.513672	45.828033
22967.451117	3074.288000	1824.517578	190.742889
22967.451117	3074.288000	1823.520508	-4.857924
22967.451117	3074.288000	1822.523438	34.516521
22967.451117	3074.288000	1821.526367	-48.363720
22967.451117	3074.288000	1820.529297	-28.189535
22967.451117	3074.288000	1819.531250	-10.432324
22967.451117	3074.288000	1818.533203	-78.923866
22967.451117	3074.288000	1817.535156	1.075877
22967.451117	3074.288000	1816.537109	-26.713829
22967.451117	3074.288000	1815.539063	10.128934
22967.451117	3074.288000	1814.540039	-91.876816
22967.451117	3074.288000	1813.541992	-35.918911
22967.451117	3074.288000	1812.542969	94.172234
22967.451117	3074.288000	1811.543945	-50.891613
22967.451117	3074.288000	1810.543945	21.723955
22967.451117	3074.288000	1809.544922	-37.217365
22967.451117	3074.288000	1808.544922	40.120407
22967.451117	3074.288000	1807.544922	26.582651
22967.451117	3074.288000	1806.544922	-41.931648
22967.451117	3074.288000	1805.544922	35.317547
22967.451117	3074.288000	1804.544922	-35.592316
22967.451117	3074.288000	1803.543945	46.370590
22967.451117	3074.288000	1802.542969	23.213099
22967.451117	3074.288000	1801.541992	-47.703396
22967.451117	3074.288000	1800.541016	-30.285572
22967.451117	3074.288000	1799.539063	65.867966
22967.451117	3074.288000	1798.538086	4.478780
22967.451117	3074.288000	1797.536133	5.124730
22967.451117	3074.288000	1796.534180	5.753433
22967.451117	3074.288000	1795.532227	49.292210
22967.451117	3074.288000	1794.529297	47.491501
22967.451117	3074.288000	1793.527344	-40.147655
22967.451117	3074.288000	1792.524414	-8.597117
22967.451117	3074.288000	1791.521484	6.242193
22967.451117	3074.288000	1790.518555	-26.594727
22967.451117	3074.288000	1789.514648	78.726479
22967.451117	3074.288000	1788.511719	29.179438
22967.451117	3074.288000	1787.507813	39.162495
22967.451117	3074.288000	1786.503906	11.029706
22967.451117	3074.288000	1785.500000	35.256756
22967.451117	3074.288000	1784.496094	45.175777
22967.451117	3074.288000	1783.491211	71.726257
22967.451117	3074.288000	1782.486328	24.498178
22967.451117	3074.288000	1781.481445	10.568059
22967.451117	3074.288000	1780.476563	22.782444
22967.451117	3074.288000	1779.471680	46.860443
22967.451117	3074.288000	1778.465820	75.662117
22967.451117	3074.288000	1777.460938	-23.910254
22967.451117	3074.288000	1776.455078	66.637001
22967.451117	3074.288000	1775.449219	-11.555931
22967.451117	3074.288000	1774.442383	10.025235
22967.451117	3074.288000	1773.436523	0.704815
22967.451117	3074.288000	1772.429688	-1.511201
22967.451117	3074.288000	1771.422852	43.733513
22967.451117	3074.288000	1770.416016	-60.596546
22967.451117	3074.288000	1769.409180	22.570049
22967.451117	3074.288000	1768.402344	17.894089
22967.451117	3074.288000	1767.394531	-29.503803
22967.451117	3074.288000	1766.386719	10.850979
22967.451117	3074.288000	1765.378906	84.367279
22967.451117	3074.288000	1764.371094	-19.982580
22967.451117	3074.288000	1763.362305	29.761559
22967.451117	3074.288000	1762.354492	17.847084
22967.451117	3074.288000	1761.345703	13.022011
22967.451117	3074.288000	1760.336914	-20.252832
22967.451117	3074.288000	1759.328125	-18.007545
22967.451117	3074.288000	1758.318359	-32.365070
22967.451117	3074.288000	1757.308594	-15.958745
22967.451117	3074.288000	1756.299805	-20.884958
22967.451117	3074.288000	1755.290039	-32.934494
22967.451117	3074.288000	1754.279297	9.422799
22967.451117	3074.288000	1753.269531	-21.600931
22967.451117	3074.288000	1752.258789	-31.348104
22967.451117	3074.288000	1751.249023	-10.367222
22967.451117	3074.288000	1750.238281	48.414013
22967.451117	3074.288000	1749.226563	29.131241
22967.451117	3074.288000	1748.215820	14.562510
22967.451117	3074.288000	1747.204102	7.063448
22967.451117	3074.288000	1746.193359	-9.904699
22967.451117	3074.288000	1745.181641	39.253365
22967.451117	3074.288000	1744.168945	71.833939
22967.451117	3074.288000	1743.157227	-30.220142
22967.451117	3074.288000	1742.144531	94.392593
22967.451117	3074.288000	1741.132813	18.292311
22967.451117	3074.288000	1740.120117	-81.405624
22967.451117	3074.288000	1739.106445	24.196182
22967.451117	3074.288000	1738.093750	-9.454821
22967.451117	3074.288000	1737.080078	30.001732
22967.451117	3074.288000	1736.067383	-34.341839
22967.451117	3074.288000	1735.053711	-44.456795
22967.451117	3074.288000	1734.040039	89.208420
22967.451117	3074.288000	1733.025391	-38.821888
22967.451117	3074.288000	1732.011719	-58.426392
22967.451117	3074.288000	1730.997070	-108.677834
22967.451117	3074.288000	1729.982422	-17.599270
22967.451117	3074.288000	1728.967773	40.449463
22967.451117	3074.288000	1727.952148	56.065590
22967.451117	3074.288000	1726.937500	-50.764351
22967.451117	3074.288000	1725.921875	-2.230726
22967.451117	3074.288000	1724.906250	-54.931664
22967.451117	3074.288000	1723.890625	99.416573
22967.451117	3074.288000	1722.875000	25.497866
22967.451117	3074.288000	1721.858398	38.604160
22967.451117	3074.288000	1720.841797	-18.863310
22967.451117	3074.288000	1719.825195	-78.683289
22967.451117	3074.288000	1718.808594	80.104240
22967.451117	3074.288000	1717.791992	8.491284
22967.451117	3074.288000	1716.774414	-74.868973
22967.451117	3074.288000	1715.756836	-33.708961
22967.451117	3074.288000	1714.739258	-20.773481
22967.451117	3074.288000	1713.721680	17.966356
22967.451117	3074.288000	1712.704102	7.361949
22967.451117	3074.288000	1711.685547	-76.035660
22967.451117	3074.288000	1710.667969	37.728813
22967.451117	3074.288000	1709.649414	59.907738
22967.451117	3074.288000	1708.630859	-49.327091
22967.451117	3074.288000	1707.611328	-76.447403
22967.451117	3074.288000	1706.592773	-40.255310
22967.451117	3074.288000	1705.573242	14.655713
22967.451117	3074.288000	1704.553711	-61.758759
22967.451117	3074.288000	1703.534180	16.529465
22967.451117	3074.288000	1702.513672	38.520489
22967.451117	3074.288000	1701.494141	-35.577572
22967.451117	3074.288000	1700.473633	14.481472
22967.451117	3074.288000	1699.453125	36.394764
22967.451117	3074.288000	1698.432617	27.836992
22967.451117	3074.288000	1697.412109	-41.609684
22967.451117	3074.288000	1696.390625	-99.350525
22967.451117	3074.288000	1695.369141	9.069038
22967.451117	3074.288000	1694.347656	91.687706
22967.451117	3074.288000	1693.326172	78.339127
22967.451117	3074.288000	1692.304688	142.159424
22967.451117	3074.288000	1691.282227	105.376572
22967.451117	3074.288000	1690.260742	47.548481
22967.451117	3074.288000	1689.238281	83.221748
22967.451117	3074.288000	1688.214844	130.543213
22967.451117	3074.288000	1687.192383	-30.134665
22967.451117	3074.288000	1686.168945	61.538570
22967.451117	3074.288000	1685.146484	69.071976
22967.451117	3074.288000	1684.123047	60.231926
22967.451117	3074.288000	1683.099609	-44.354382
22967.451117	3074.288000	1682.075195	93.857285
22967.451117	3074.288000	1681.051758	80.291412
22967.451117	3074.288000	1680.027344	-61.636086
22967.451117	3074.288000	1679.002930	8.782635
22967.451117	3074.288000	1677.978516	18.506979
22967.451117	3074.288000	1676.953125	70.184631
22967.451117	3074.288000	1675.928711	37.885033
22967.451117	3074.288000	1674.903320	24.226597
22967.451117	3074.288000	1673.877930	106.119392
22967.451117	3074.288000	1672.852539	34.157368
22967.451117	3074.288000	1671.826172	111.317734
22967.451117	3074.288000	1670.800781	30.029230
22967.451117	3074.288000	1669.774414	97.809540
22967.451117	3074.288000	1668.748047	135.275131
22967.451117	3074.288000	1667.721680	42.333435
22967.451117	3074.288000	1666.694336	135.622238
22967.451117	3074.288000	1665.667969	93.882477
22967.451117	3074.288000	1664.640625	198.726639
22967.451117	3074.288000	1663.613281	115.080635
22967.451117	3074.288000	1662.585938	96.575760
22967.451117	3074.288000	1661.557617	140.845856
22967.451117	3074.288000	1660.530273	89.762123
22967.451117	3074.288000	1659.501953	101.442078
22967.451117	3074.288000	1658.473633	136.343399
22967.451117	3074.288000	1657.444336	145.652390
22967.451117	3074.288000	1656.416016	154.947113
22967.451117	3074.288000	1655.386719	217.643127
22967.451117	3074.288000	1654.358398	178.123718
22967.451117	3074.288000	1653.328125	87.516998
22967.451117	3074.288000	1652.298828	173.362350
22967.451117	3074.288000	1651.269531	122.224686
22967.451117	3074.288000	1650.239258	182.474075
22967.451117	3074.288000	1649.208984	108.123978
22967.451117	3074.288000	1648.178711	200.801620
22967.451117	3074.288000	1647.148438	114.855888
22967.451117	3074.288000	1646.117188	56.751766
22967.451117	3074.288000	1645.086914	179.486313
22967.451117	3074.288000	1644.055664	237.259018
22967.451117	3074.288000	1643.024414	218.525085
22967.451117	3074.288000	1641.992188	264.656708
22967.451117	3074.288000	1640.960938	271.383942
22967.451117	3074.288000	1639.928711	333.677948
22967.451117	3074.288000	1638.896484	280.159241
22967.451117	3074.288000	1637.864258	309.995331
22967.451117	3074.288000	1636.832031	328.236542
22967.451117	3074.288000	1635.798828	286.287750
22967.451117	3074.288000	1634.766602	348.469177
22967.451117	3074.288000	1633.733398	271.814423
22967.451117	3074.288000	1632.699219	315.445557
22967.451117	3074.288000	1631.666016	393.741943
22967.451117	3074.288000	1630.632813	293.977814
22967.451117	3074.288000	1629.598633	298.258759
22967.451117	3074.288000	1628.564453	362.618408
22967.451117	3074.288000	1627.530273	355.316345
22967.451117	3074.288000	1626.495117	336.454926
22967.451117	3074.288000	1625.460938	345.314941
22967.451117	3074.288000	1624.425781	335.686737
22967.451117	3074.288000	1623.390625	358.379425
22967.451117	3074.288000	1622.355469	521.868896
22967.451117	3074.288000	1621.319336	429.104126
22967.451117	3074.288000	1620.284180	511.743195
22967.451117	3074.288000	1619.248047	497.445557
22967.451117	3074.288000	1618.211914	522.360413
22967.451117	3074.288000	1617.174805	602.604248
22967.451117	3074.288000	1616.138672	489.139069
22967.451117	3074.288000	1615.101563	490.971771
22967.451117	3074.288000	1614.065430	497.414215
22967.451117	3074.288000	1613.027344	425.494659
22967.451117	3074.288000	1611.990234	468.799225
22967.451117	3074.288000	1610.953125	445.284210
22967.451117	3074.288000	1609.915039	467.831512
22967.451117	3074.288000	1608.876953	497.275940
22967.451117	3074.288000	1607.838867	540.519409
22967.451117	3074.288000	1606.800781	473.265564
22967.451117	3074.288000	1605.761719	562.514221
22967.451117	3074.288000	1604.723633	541.295288
22967.451117	3074.288000	1603.684570	639.695923
22967.451117	3074.288000	1602.644531	496.568756
22967.451117	3074.288000	1601.605469	594.939270
22967.451117	3074.288000	1600.566406	557.633484
22967.451117	3074.288000	1599.526367	538.726868
22967.451117	3074.288000	1598.486328	731.250183
22967.451117	3074.288000	1597.446289	581.355225
22967.451117	3074.288000	1596.405273	661.232910
22967.451117	3074.288000	1595.365234	699.744751
22967.451117	3074.288000	1594.324219	653.277649
22967.451117	3074.288000	1593.283203	659.634888
22967.451117	3074.288000	1592.242188	668.288147
22967.451117	3074.288000	1591.200195	472.689209
22967.451117	3074.288000	1590.159180	607.578247
22967.451117	3074.288000	1589.117188	655.241455
22967.451117	3074.288000	1588.075195	654.725281
22967.451117	3074.288000	1587.032227	638.157776
22967.451117	3074.288000	1585.990234	550.532532
22967.451117	3074.288000	1584.947266	609.645203
22967.451117	3074.288000	1583.904297	616.029480
22967.451117	3074.288000	1582.861328	727.818176
22967.451117	3074.288000	1581.818359	619.644287
22967.451117	3074.288000	1580.775391	674.140137
22967.451117	3074.288000	1579.731445	593.508301
22967.451117	3074.288000	1578.687500	686.919617
22967.451117	3074.288000	1577.643555	658.980225
22967.451117	3074.288000	1576.598633	603.591614
22967.451117	3074.288000	1575.554688	552.813171
22967.451117	3074.288000	1574.509766	563.828125
22967.451117	3074.288000	1573.464844	583.996704
22967.451117	3074.288000	1572.419922	583.584473
22967.451117	3074.288000	1571.374023	555.740967
22967.451117	3074.288000	1570.329102	502.776550
22967.451117	3074.288000	1569.283203	573.256042
22967.451117	3074.288000	1568.237305	511.184998
22967.451117	3074.288000	1567.191406	506.264160
22967.451117	3074.288000	1566.144531	542.466919
22967.451117	3074.288000	1565.098633	514.726746
22967.451117	3074.288000	1564.051758	452.756134
22967.451117	3074.288000	1563.004883	543.770203
22967.451117	3074.288000	1561.957031	502.379425
22967.451117	3074.288000	1560.910156	543.170471
22967.451117	3074.288000	1559.862305	556.576843
22967.451117	3074.288000	1558.814453	364.699127
22967.451117	3074.288000	1557.766602	410.089874
22967.451117	3074.288000	1556.718750	441.795563
22967.451117	3074.288000	1555.669922	418.787018
22967.451117	3074.288000	1554.621094	484.691711
22967.451117	3074.288000	1553.573242	400.189453
22967.451117	3074.288000	1552.523438	384.077820
22967.451117	3074.288000	1551.474609	431.772247
22967.451117	3074.288000	1550.424805	443.020935
22967.451117	3074.288000	1549.375000	474.773926
22967.451117	3074.288000	1548.325195	415.469025
22967.451117	3074.288000	1547.275391	388.069183
22967.451117	3074.288000	1546.225586	378.902344
22967.451117	3074.288000	1545.174805	242.341599
22967.451117	3074.288000	1544.124023	328.777130
22967.451117	3074.288000	1543.073242	303.755890
22967.451117	3074.288000	1542.022461	308.322601
22967.451117	3074.288000	1540.970703	306.081848
22967.451117	3074.288000	1539.919922	242.494705
22967.451117	3074.288000	1538.868164	276.665680
22967.451117	3074.288000	1537.815430	258.581421
22967.451117	3074.288000	1536.763672	183.737259
22967.451117	3074.288000	1535.710938	195.242981
22967.451117	3074.288000	1534.659180	320.303528
22967.451117	3074.288000	1533.606445	379.494080
22967.451117	3074.288000	1532.552734	268.441925
22967.451117	3074.288000	1531.500000	304.967346
22967.451117	3074.288000	1530.446289	264.352692
22967.451117	3074.288000	1529.393555	364.424316
22967.451117	3074.288000	1528.338867	321.585999
22967.451117	3074.288000	1527.285156	414.844879
22967.451117	3074.288000	1526.231445	285.910492
22967.451117	3074.288000	1525.176758	297.580444
22967.451117	3074.288000	1524.122070	288.872894
22967.451117	3074.288000	1523.067383	194.092300
22967.451117	3074.288000	1522.012695	128.821930
22967.451117	3074.288000	1520.957031	120.220016
22967.451117	3074.288000	1519.901367	73.150360
22967.451117	3074.288000	1518.845703	191.394958
22967.451117	3074.288000	1517.790039	164.750427
22967.451117	3074.288000	1516.734375	52.143795
22967.451117	3074.288000	1515.677734	122.878403
22967.451117	3074.288000	1514.621094	121.219788
22967.451117	3074.288000	1513.564453	110.540497
22967.451117	3074.288000	1512.507813	43.358597
22967.451117	3074.288000	1511.450195	68.921883
22967.451117	3074.288000	1510.393555	151.014542
22967.451117	3074.288000	1509.335938	133.660019
22967.451117	3074.288000	1508.278320	75.668121
22967.451117	3074.288000	1507.219727	103.567986
22967.451117	3074.288000	1506.162109	63.728306
22967.451117	3074.288000	1505.103516	78.125610
22967.451117	3074.288000	1504.044922	-2.279287
22967.451117	3074.288000	1502.986328	61.841217
22967.451117	3074.288000	1501.926758	69.541534
22967.451117	3074.288000	1500.868164	72.757210
22967.451117	3074.288000	1499.808594	143.675735
22967.451117	3074.288000	1498.749023	13.856891
22967.451117	3074.288000	1497.688477	48.734097
22967.451117	3074.288000	1496.628906	-13.317642
22967.451117	3074.288000	1495.568359	21.610332
22967.451117	3074.288000	1494.507813	29.510294
22967.451117	3074.288000	1493.447266	-142.822403
22967.451117	3074.288000	1492.386719	7.093647
22967.451117	3074.288000	1491.325195	-34.471317
22967.451117	3074.288000	1490.263672	14.087162
22967.451117	3074.288000	1489.202148	-79.184097
22967.451117	3074.288000	1488.140625	-53.083752
22967.451117	3074.288000	1487.079102	-128.237579
22967.451117	3074.288000	1486.016602	-147.079330
22967.451117	3074.288000	1484.954102	-98.391876
22967.451117	3074.288000	1483.891602	-29.448755
22967.451117	3074.288000	1482.829102	-120.163368
22967.451117	3074.288000	1481.765625	-21.952221
22967.451117	3074.288000	1480.702148	-119.310768
22967.451117	3074.288000	1479.638672	-12.087000
22967.451117	3074.288000	1478.575195	-39.685535
22967.451117	3074.288000	1477.511719	-65.004417
22967.451117	3074.288000	1476.447266	-0.419971
22967.451117	3074.288000	1475.382813	-128.936371
22967.451117	3074.288000	1474.318359	-71.037346
22967.451117	3074.288000	1473.253906	-44.546242
22967.451117	3074.288000	1472.189453	17.822231
22967.451117	3074.288000	1471.124023	-22.851807
22967.451117	3074.288000	1470.058594	-68.098328
22967.451117	3074.288000	1468.993164	10.039092
22967.451117	3074.288000	1467.927734	27.689251
22967.451117	3074.288000	1466.861328	-8.363029
22967.451117	3074.288000	1465.794922	-6.342687
22967.451117	3074.288000	1464.728516	-4.263518
22967.451117	3074.288000	1463.662109	80.613853
22967.451117	3074.288000	1462.594727	67.074860
22967.451117	3074.288000	1461.528320	26.747244
22967.451117	3074.288000	1460.460938	-11.223010
22967.451117	3074.288000	1459.393555	73.621071
22967.451117	3074.288000	1458.326172	145.354050
22967.451117	3074.288000	1457.257813	223.432892
22967.451117	3074.288000	1456.189453	73.783463
22967.451117	3074.288000	1455.121094	234.365082
22967.451117	3074.288000	1454.052734	152.180283
22967.451117	3074.288000	1452.984375	102.890533
22967.451117	3074.288000	1451.915039	156.466141
22967.451117	3074.288000	1450.845703	208.237808
22967.451117	3074.288000	1449.776367	255.202194
22967.451117	3074.288000	1448.707031	92.929436
22967.451117	3074.288000	1447.636719	235.595795
22967.451117	3074.288000	1446.567383	316.331177
22967.451117	3074.288000	1445.497070	209.865753
22967.451117	3074.288000	1444.425781	254.931107
22967.451117	3074.288000	1443.355469	200.150360
22967.451117	3074.288000	1442.285156	229.008911
22967.451117	3074.288000	1441.213867	148.143875
22967.451117	3074.288000	1440.142578	179.044769
22967.451117	3074.288000	1439.070313	280.931793
22967.451117	3074.288000	1437.999023	224.664032
22967.451117	3074.288000	1436.926758	182.771942
22967.451117	3074.288000	1435.854492	165.276886
22967.451117	3074.288000	1434.782227	194.013840
22967.451117	3074.288000	1433.709961	172.901291
22967.451117	3074.288000	1432.636719	127.607651
22967.451117	3074.288000	1431.563477	161.983917
22967.451117	3074.288000	1430.490234	51.579666
22967.451117	3074.288000	1429.416992	99.247231
22967.451117	3074.288000	1428.343750	17.527622
22967.451117	3074.288000	1427.269531	87.760796
22967.451117	3074.288000	1426.195313	25.511185
22967.451117	3074.288000	1425.121094	93.546135
22967.451117	3074.288000	1424.046875	71.444511
22967.451117	3074.288000	1422.971680	87.446030
22967.451117	3074.288000	1421.896484	14.708245
22967.451117	3074.288000	1420.821289	167.319046
22967.451117	3074.288000	1419.746094	163.661469
22967.451117	3074.288000	1418.669922	40.596725
22967.451117	3074.288000	1417.594727	110.940483
22967.451117	3074.288000	1416.518555	91.425438
22967.451117	3074.288000	1415.442383	84.413986
22967.451117	3074.288000	1414.365234	106.931755
22967.451117	3074.288000	1413.289063	177.205032
22967.451117	3074.288000	1412.211914	-32.539097
22967.451117	3074.288000	1411.134766	72.302834
22967.451117	3074.288000	1410.057617	111.310120
22967.451117	3074.288000	1408.979492	205.027603
22967.451117	3074.288000	1407.902344	236.850876
22967.451117	3074.288000	1406.824219	244.634064
22967.451117	3074.288000	1405.746094	237.814423
22967.451117	3074.288000	1404.666992	162.479889
22967.451117	3074.288000	1403.588867	191.011108
22967.451117	3074.288000	1402.509766	171.918976
22967.451117	3074.288000	1401.430664	134.473587
22967.451117	3074.288000	1400.351563	146.547699
22967.451117	3074.288000	1399.271484	187.200836
22967.451117	3074.288000	1398.192383	260.751007
22967.451117	3074.288000	1397.112305	207.489212
22967.451117	3074.288000	1396.031250	199.692871
22967.451117	3074.288000	1394.951172	178.555740
22967.451117	3074.288000	1393.871094	83.771423
22967.451117	3074.288000	1392.790039	151.698471
22967.451117	3074.288000	1391.708984	204.129837
22967.451117	3074.288000	1390.626953	171.620422
22967.451117	3074.288000	1389.545898	224.752060
22967.451117	3074.288000	1388.463867	173.630524
22967.451117	3074.288000	1387.381836	88.849640
22967.451117	3074.288000	1386.299805	170.864853
22967.451117	3074.288000	1385.217773	141.794250
22967.451117	3074.288000	1384.134766	249.099121
22967.451117	3074.288000	1383.051758	122.556030
22967.451117	3074.288000	1381.968750	175.826462
22967.451117	3074.288000	1380.885742	178.459152
22967.451117	3074.288000	1379.802734	214.302078
22967.451117	3074.288000	1378.718750	192.112656
22967.451117	3074.288000	1377.634766	101.614723
22967.451117	3074.288000	1376.550781	228.083069
22967.451117	3074.288000	1375.465820	123.047127
22967.451117	3074.288000	1374.381836	100.332153
22967.451117	3074.288000	1373.296875	244.309204
22967.451117	3074.288000	1372.211914	288.259338
22967.451117	3074.288000	1371.126953	232.203171
22967.451117	3074.288000	1370.041016	46.279167
22967.451117	3074.288000	1368.955078	264.740448
22967.451117	3074.288000	1367.869141	70.373505
22967.451117	3074.288000	1366.783203	168.364182
22967.451117	3074.288000	1365.697266	160.572418
22967.451117	3074.288000	1364.610352	48.621479
22967.451117	3074.288000	1363.523438	57.194473
22967.451117	3074.288000	1362.436523	94.600075
22967.451117	3074.288000	1361.349609	104.003632
22967.451117	3074.288000	1360.261719	30.845636
22967.451117	3074.288000	1359.174805	129.065887
22967.451117	3074.288000	1358.086914	65.426682
22967.451117	3074.288000	1356.998047	175.488953
22967.451117	3074.288000	1355.910156	204.006760
22967.451117	3074.288000	1354.821289	161.428131
22967.451117	3074.288000	1353.732422	121.274742
22967.451117	3074.288000	1352.643555	95.671638
22967.451117	3074.288000	1351.554688	251.001694
22967.451117	3074.288000	1350.464844	1.440733
22967.451117	3074.288000	1349.375000	104.648270
22967.451117	3074.288000	1348.285156	262.312347
22967.451117	3074.288000	1347.195313	127.209076
22967.451117	3074.288000	1346.105469	139.281158
22967.451117	3074.288000	1345.014648	256.729462
22967.451117	3074.288000	1343.923828	290.063904
22967.451117	3074.288000	1342.833008	277.451538
22967.451117	3074.288000	1341.741211	263.903809
22967.451117	3074.288000	1340.650391	371.174469
22967.451117	3074.288000	1339.558594	294.588257
22967.451117	3074.288000	1338.466797	241.317551
22967.451117	3074.288000	1337.374023	178.071945
22967.451117	3074.288000	1336.282227	232.700394
22967.451117	3074.288000	1335.189453	171.829117
22967.451117	3074.288000	1334.096680	191.717041
22967.451117	3074.288000	1333.003906	51.468662
22967.451117	3074.288000	1331.910156	20.312267
22967.451117	3074.288000	1330.817383	67.921455
22967.451117	3074.288000	1329.723633	219.365112
22967.451117	3074.288000	1328.629883	3.271146
22967.451117	3074.288000	1327.535156	105.942154
22967.451117	3074.288000	1326.441406	88.229752
22967.451117	3074.288000	1325.346680	80.000374
22967.451117	3074.288000	1324.251953	162.932129
22967.451117	3074.288000	1323.156250	43.285446
22967.451117	3074.288000	1322.061523	75.430305
22967.451117	3074.288000	1320.965820	91.111008
22967.451117	3074.288000	1319.870117	100.532898
22967.451117	3074.288000	1318.774414	199.243073
22967.451117	3074.288000	1317.678711	145.438782
22967.451117	3074.288000	1316.582031	144.504105
22967.451117	3074.288000	1315.485352	151.221481
22967.451117	3074.288000	1314.388672	135.709000
22967.451117	3074.288000	1313.291016	236.751480
22967.451117	3074.288000	1312.194336	259.962616
22967.451117	3074.288000	1311.096680	177.670807
22967.451117	3074.288000	1309.999023	178.514069
22967.451117	3074.288000	1308.901367	138.437668
22967.451117	3074.288000	1307.802734	117.396431
22967.451117	3074.288000	1306.705078	129.169083
22967.451117	3074.288000	1305.606445	139.094528
22967.451117	3074.288000	1304.506836	109.602959
22967.451117	3074.288000	1303.408203	255.185883
22967.451117	3074.288000	1302.308594	186.396896
22967.451117	3074.288000	1301.208984	196.659225
22967.451117	3074.288000	1300.109375	137.496964
22967.451117	3074.288000	1299.009766	141.938171
22967.451117	3074.288000	1297.909180	163.610657
22967.451117	3074.288000	1296.808594	123.449753
22967.451117	3074.288000	1295.708008	165.382904
22967.451117	3074.288000	1294.607422	163.632935
22967.451117	3074.288000	1293.506836	136.595566
22967.451117	3074.288000	1292.405273	61.263447
22967.451117	3074.288000	1291.303711	47.981480
22967.451117	3074.288000	1290.202148	98.214203
22967.451117	3074.288000	1289.099609	1.440658
22967.451117	3074.288000	1287.998047	66.746536
22967.451117	3074.288000	1286.895508	18.440823
22967.451117	3074.288000	1285.792969	-5.571859
22967.451117	3074.288000	1284.689453	32.954441
22967.451117	3074.288000	1283.586914	11.196340
22967.451117	3074.288000	1282.483398	-30.441343
22967.451117	3074.288000	1281.379883	12.389789
22967.451117	3074.288000	1280.276367	5.961152
22967.451117	3074.288000	1279.171875	-25.965857
22967.451117	3074.288000	1278.067383	-145.520905
22967.451117	3074.288000	1276.962891	-62.218246
22967.451117	3074.288000	1275.858398	-60.129715
22967.451117	3074.288000	1274.753906	27.743147
22967.451117	3074.288000	1273.648438	-26.226871
22967.451117	3074.288000	1272.542969	-70.777916
22967.451117	3074.288000	1271.437500	-32.445713
22967.451117	3074.288000	1270.331055	-12.491714
22967.451117	3074.288000	1269.225586	-0.552649
22967.451117	3074.288000	1268.119141	-28.862770
22967.451117	3074.288000	1267.012695	95.501335
22967.451117	3074.288000	1265.906250	-22.185511
22967.451117	3074.288000	1264.798828	42.765484
22967.451117	3074.288000	1263.691406	70.672226
22967.451117	3074.288000	1262.583984	63.774384
22967.451117	3074.288000	1261.476563	54.922699
22967.451117	3074.288000	1260.368164	98.551376
22967.451117	3074.288000	1259.260742	103.739296
22967.451117	3074.288000	1258.152344	49.686485
22967.451117	3074.288000	1257.043945	56.054531
22967.451117	3074.288000	1255.934570	65.038887
22967.451117	3074.288000	1254.825195	80.955437
22967.451117	3074.288000	1253.716797	108.911270
22967.451117	3074.288000	1252.606445	125.845993
22967.451117	3074.288000	1251.497070	93.584236
22967.451117	3074.288000	1250.387695	103.887161
22967.451117	3074.288000	1249.277344	118.493706
22967.451117	3074.288000	1248.166992	185.148178
22967.451117	3074.288000	1247.055664	185.988449
22967.451117	3074.288000	1245.945313	157.843750
22967.451117	3074.288000	1244.833984	168.934265
22967.451117	3074.288000	1243.722656	105.975945
22967.451117	3074.288000	1242.611328	111.454071
22967.451117	3074.288000	1241.499023	105.849571
22967.451117	3074.288000	1240.387695	72.443748
22967.451117	3074.288000	1239.275391	36.917553
22967.451117	3074.288000	1238.162109	-62.955647
22967.451117	3074.288000	1237.049805	-3.975873
22967.451117	3074.288000	1235.936523	-3.865961
22967.451117	3074.288000	1234.823242	-54.773033
22967.451117	3074.288000	1233.709961	-71.915184
22967.451117	3074.288000	1232.596680	-76.767593
22967.451117	3074.288000	1231.482422	-20.873949
22967.451117	3074.288000	1230.369141	-56.295532
22967.451117	3074.288000	1229.253906	-8.611261
22967.451117	3074.288000	1228.139648	-134.350769
22967.451117	3074.288000	1227.025391	-46.243290
22967.451117	3074.288000	1225.910156	-37.561024
22967.451117	3074.288000	1224.794922	-13.573910
22967.451117	3074.288000	1223.679688	-23.043495
22967.451117	3074.288000	1222.563477	29.448940
22967.451117	3074.288000	1221.447266	2.837806
22967.451117	3074.288000	1220.331055	70.286362
22967.451117	3074.288000	1219.214844	83.688332
22967.451117	3074.288000	1218.098633	109.894722
22967.451117	3074.288000	1216.981445	137.257370
22967.451117	3074.288000	1215.864258	113.133766
22967.451117	3074.288000	1214.747070	117.915466
22967.451117	3074.288000	1213.629883	201.047226
22967.451117	3074.288000	1212.511719	138.886215
22967.451117	3074.288000	1211.393555	140.042923
22967.451117	3074.288000	1210.275391	140.841217
22967.451117	3074.288000	1209.157227	135.241776
22967.451117	3074.288000	1208.038086	64.980171
22967.451117	3074.288000	1206.918945	-90.263054
22967.451117	3074.288000	1205.799805	30.214193
22967.451117	3074.288000	1204.680664	41.756096
22967.451117	3074.288000	1203.560547	49.799168
22967.451117	3074.288000	1202.441406	23.545166
22967.451117	3074.288000	1201.321289	7.763168
22967.451117	3074.288000	1200.200195	0.856428
22967.451117	3074.288000	1199.080078	-47.425411
22967.451117	3074.288000	1197.958984	14.487971
22967.451117	3074.288000	1196.837891	11.687807
22967.451117	3074.288000	1195.716797	-9.785910
22967.451117	3074.288000	1194.594727	-35.951046
22967.451117	3074.288000	1193.473633	-19.957054
22967.451117	3074.288000	1192.351563	-45.607948
22967.451117	3074.288000	1191.229492	-84.843697
22967.451117	3074.288000	1190.106445	-84.778389
22967.451117	3074.288000	1188.984375	-51.723522
22967.451117	3074.288000	1187.861328	-40.026855
22967.451117	3074.288000	1186.738281	-147.041656
22967.451117	3074.288000	1185.614258	-63.403294
22967.451117	3074.288000	1184.491211	-70.084793
22967.451117	3074.288000	1183.367188	-38.425198
22967.451117	3074.288000	1182.243164	-55.353909
22967.451117	3074.288000	1181.119141	-119.435638
22967.451117	3074.288000	1179.994141	56.666378
22967.451117	3074.288000	1178.869141	-5.751869
22967.451117	3074.288000	1177.744141	-74.403786
22967.451117	3074.288000	1176.619141	-40.168526
22967.451117	3074.288000	1175.493164	-93.808228
22967.451117	3074.288000	1174.368164	-17.053310
22967.451117	3074.288000	1173.242188	6.702826
22967.451117	3074.288000	1172.115234	-2.145328
22967.451117	3074.288000	1170.989258	-30.957998
22967.451117	3074.288000	1169.862305	50.324474
22967.451117	3074.288000	1168.735352	-31.857285
22967.451117	3074.288000	1167.608398	-22.187847
22967.451117	3074.288000	1166.481445	-37.098358
22967.451117	3074.288000	1165.353516	-38.635220
22967.451117	3074.288000	1164.225586	-61.784267
22967.451117	3074.288000	1163.097656	-23.491531
22967.451117	3074.288000	1161.968750	45.461441
22967.451117	3074.288000	1160.840820	70.725662
22967.451117	3074.288000	1159.711914	0.868388
22967.451117	3074.288000	1158.583008	40.736874
22967.451117	3074.288000	1157.453125	48.284149
22967.451117	3074.288000	1156.324219	-83.278603
22967.451117	3074.288000	1155.194336	-86.614685
22967.451117	3074.288000	1154.064453	37.844643
22967.451117	3074.288000	1152.933594	-87.064819
22967.451117	3074.288000	1151.803711	-66.904701
22967.451117	3074.288000	1150.672852	-50.080372
22967.451117	3074.288000	1149.541992	-20.322330
22967.451117	3074.288000	1148.411133	-45.189854
22967.451117	3074.288000	1147.279297	-0.337695
22967.451117	3074.288000	1146.147461	58.364300
22967.451117	3074.288000	1145.015625	12.763596
22967.451117	3074.288000	1143.883789	116.057510
22967.451117	3074.288000	1142.750977	63.805832
22967.451117	3074.288000	1141.619141	104.942360
22967.451117	3074.288000	1140.486328	-1.488594
22967.451117	3074.288000	1139.352539	34.940727
22967.451117	3074.288000	1138.219727	10.140782
22967.451117	3074.288000	1137.085938	47.992958
22967.451117	3074.288000	1135.952148	11.293598
22967.451117	3074.288000	1134.818359	43.952442
22967.451117	3074.288000	1133.683594	48.821407
22967.451117	3074.288000	1132.549805	16.975201
22967.451117	3074.288000	1131.415039	117.623177
22967.451117	3074.288000	1130.279297	114.450668
22967.451117	3074.288000	1129.144531	18.128939
22967.451117	3074.288000	1128.008789	140.410446
22967.451117	3074.288000	1126.873047	-23.101645
22967.451117	3074.288000	1125.737305	-19.518583
22967.451117	3074.288000	1124.601563	-6.614434
22967.451117	3074.288000	1123.464844	25.742849
22967.451117	3074.288000	1122.328125	59.743168
22967.451117	3074.288000	1121.191406	7.406652
22967.451117	3074.288000	1120.054688	-4.345933
22967.451117	3074.288000	1118.916992	85.575157
22967.451117	3074.288000	1117.779297	-24.300007
22967.451117	3074.288000	1116.641602	38.681534
22967.451117	3074.288000	1115.503906	-11.060416
22967.451117	3074.288000	1114.365234	41.031586
22967.451117	3074.288000	1113.226563	-7.377277
22967.451117	3074.288000	1112.087891	28.047840
22967.451117	3074.288000	1110.949219	46.298531
22967.451117	3074.288000	1109.809570	45.973675
22967.451117	3074.288000	1108.669922	44.138939
22967.451117	3074.288000	1107.530273	56.906769
22967.451117	3074.288000	1106.390625	121.955780
22967.451117	3074.288000	1105.250000	97.811295
22967.451117	3074.288000	1104.109375	264.405792
22967.451117	3074.288000	1102.968750	216.875366
22967.451117	3074.288000	1101.828125	153.364502
22967.451117	3074.288000	1100.686523	180.024170
22967.451117	3074.288000	1099.544922	150.004715
22967.451117	3074.288000	1098.403320	145.536270
22967.451117	3074.288000	1097.261719	137.084091
22967.451117	3074.288000	1096.120117	152.677414
22967.451117	3074.288000	1094.977539	151.447845
22967.451117	3074.288000	1093.834961	213.333908
22967.451117	3074.288000	1092.691406	190.941559
22967.451117	3074.288000	1091.548828	190.828964
22967.451117	3074.288000	1090.405273	131.780334
22967.451117	3074.288000	1089.261719	186.416656
22967.451117	3074.288000	1088.118164	105.845055
22967.451117	3074.288000	1086.973633	109.204353
22967.451117	3074.288000	1085.829102	159.388062
22967.451117	3074.288000	1084.684570	97.255791
22967.451117	3074.288000	1083.540039	98.500351
22967.451117	3074.288000	1082.395508	196.812149
22967.451117	3074.288000	1081.250000	155.874817
22967.451117	3074.288000	1080.104492	75.636955
22967.451117	3074.288000	1078.958984	139.338028
22967.451117	3074.288000	1077.812500	67.175056
22967.451117	3074.288000	1076.666016	70.143318
22967.451117	3074.288000	1075.519531	32.870255
22967.451117	3074.288000	1074.373047	103.566055
22967.451117	3074.288000	1073.226563	92.402344
22967.451117	3074.288000	1072.079102	94.630722
22967.451117	3074.288000	1070.931641	94.858665
22967.451117	3074.288000	1069.784180	29.556639
22967.451117	3074.288000	1068.635742	69.475204
22967.451117	3074.288000	1067.487305	141.070313
22967.451117	3074.288000	1066.338867	150.112473
22967.451117	3074.288000	1065.190430	78.028709
22967.451117	3074.288000	1064.041992	91.193054
22967.451117	3074.288000	1062.892578	151.373810
22967.451117	3074.288000	1061.743164	151.039734
22967.451117	3074.288000	1060.593750	111.788757
22967.451117	3074.288000	1059.443359	121.636917
22967.451117	3074.288000	1058.292969	136.346268
22967.451117	3074.288000	1057.142578	157.776443
22967.451117	3074.288000	1055.992188	170.235626
22967.451117	3074.288000	1054.841797	134.171341
22967.451117	3074.288000	1053.690430	137.723801
22967.451117	3074.288000	1052.539063	182.185211
22967.451117	3074.288000	1051.387695	209.413040
22967.451117	3074.288000	1050.235352	174.988632
22967.451117	3074.288000	1049.083984	137.737244
22967.451117	3074.288000	1047.931641	38.538757
22967.451117	3074.288000	1046.778320	135.378265
22967.451117	3074.288000	1045.625977	65.991096
22967.451117	3074.288000	1044.472656	104.115654
22967.451117	3074.288000	1043.319336	46.020153
22967.451117	3074.288000	1042.166016	3.515461
22967.451117	3074.288000	1041.012695	58.109711
22967.451117	3074.288000	1039.858398	105.052994
22967.451117	3074.288000	1038.704102	14.573360
22967.451117	3074.288000	1037.549805	91.944328
22967.451117	3074.288000	1036.394531	-39.075268
22967.451117	3074.288000	1035.239258	72.409431
22967.451117	3074.288000	1034.083984	86.285240
22967.451117	3074.288000	1032.928711	53.118904
22967.451117	3074.288000	1031.773438	100.765984
22967.451117	3074.288000	1030.617188	80.950798
22967.451117	3074.288000	1029.460938	143.040497
22967.451117	3074.288000	1028.304688	27.775173
22967.451117	3074.288000	1027.147461	160.561707
22967.451117	3074.288000	1025.991211	195.876190
22967.451117	3074.288000	1024.833984	95.454147
22967.451117	3074.288000	1023.675781	151.757050
22967.451117	3074.288000	1022.518555	115.044556
22967.451117	3074.288000	1021.360352	95.504967
22967.451117	3074.288000	1020.202148	178.952133
22967.451117	3074.288000	1019.043945	69.277054
22967.451117	3074.288000	1017.884766	118.634758
22967.451117	3074.288000	1016.726563	72.646706
22967.451117	3074.288000	1015.567383	92.338387
22967.451117	3074.288000	1014.407227	80.837318
22967.451117	3074.288000	1013.248047	3.877875
22967.451117	3074.288000	1012.087891	11.245934
22967.451117	3074.288000	1010.927734	-5.642649
22967.451117	3074.288000	1009.767578	-45.269909
22967.451117	3074.288000	1008.606445	-46.810299
22967.451117	3074.288000	1007.446289	63.022022
22967.451117	3074.288000	1006.285156	101.122139
22967.451117	3074.288000	1005.123047	111.485260
22967.451117	3074.288000	1003.961914	29.501841
22967.451117	3074.288000	1002.799805	85.248253
22967.451117	3074.288000	1001.637695	-5.484242
22967.451117	3074.288000	1000.475586	30.256908
22967.451117	3074.288000	999.312500	-13.338129
22967.451117	3074.288000	998.149414	-63.017826
22967.451117	3074.288000	996.986328	-26.684605
22967.451117	3074.288000	995.823242	-20.149336
22967.451117	3074.288000	994.659180	28.719984
22967.451117	3074.288000	993.496094	23.592457
22967.451117	3074.288000	992.332031	107.900612
22967.451117	3074.288000	991.166992	155.454620
22967.451117	3074.288000	990.002930	64.768669
22967.451117	3074.288000	988.837891	145.351608
22967.451117	3074.288000	987.672852	264.128479
22967.451117	3074.288000	986.506836	192.287292
22967.451117	3074.288000	985.341797	178.612198
22967.451117	3074.288000	984.175781	103.263733
22967.451117	3074.288000	983.009766	107.990509
22967.451117	3074.288000	981.843750	37.740223
22967.451117	3074.288000	980.676758	68.477951
22967.451117	3074.288000	979.509766	98.275085
22967.451117	3074.288000	978.342773	30.414549
22967.451117	3074.288000	977.175781	59.090126
22967.451117	3074.288000	976.007813	9.177490
22967.451117	3074.288000	974.839844	11.079651
22967.451117	3074.288000	973.671875	-46.598461
22967.451117	3074.288000	972.503906	-31.233597
22967.451117	3074.288000	971.334961	-99.508247
22967.451117	3074.288000	970.166016	-16.436573
22967.451117	3074.288000	968.997070	106.799004
22967.451117	3074.288000	967.828125	-37.512974
22967.451117	3074.288000	966.658203	-30.599731
22967.451117	3074.288000	965.488281	-22.970728
22967.451117	3074.288000	964.318359	63.980927
22967.451117	3074.288000	963.148438	5.211256
22967.451117	3074.288000	961.977539	74.421211
22967.451117	3074.288000	960.806641	140.055008
22967.451117	3074.288000	959.635742	106.589645
22967.451117	3074.288000	958.463867	11.329825
22967.451117	3074.288000	957.292969	18.652138
22967.451117	3074.288000	956.121094	21.710901
22967.451117	3074.288000	954.948242	-60.016663
22967.451117	3074.288000	953.776367	63.597836
22967.451117	3074.288000	952.603516	83.880028
22967.451117	3074.288000	951.430664	117.964157
22967.451117	3074.288000	950.257813	142.450302
22967.451117	3074.288000	949.084961	62.673134
22967.451117	3074.288000	947.911133	125.838623
22967.451117	3074.288000	946.737305	136.935059
22967.451117	3074.288000	945.563477	176.963165
22967.451117	3074.288000	944.388672	251.553162
22967.451117	3074.288000	943.213867	148.502213
22967.451117	3074.288000	942.039063	192.489517
22967.451117	3074.288000	940.864258	220.803864
22967.451117	3074.288000	939.688477	183.424805
22967.451117	3074.288000	938.513672	180.798141
22967.451117	3074.288000	937.337891	135.624237
22967.451117	3074.288000	936.161133	146.566147
22967.451117	3074.288000	934.985352	114.926140
22967.451117	3074.288000	933.808594	118.034439
22967.451117	3074.288000	932.631836	142.425598
22967.451117	3074.288000	931.454102	101.166512
22967.451117	3074.288000	930.277344	158.395752
22967.451117	3074.288000	929.099609	118.961502
22967.451117	3074.288000	927.921875	174.228195
22967.451117	3074.288000	926.743164	67.235855
22967.451117	3074.288000	925.565430	91.554482
22967.451117	3074.288000	924.386719	38.653801
22967.451117	3074.288000	923.208008	111.225418
22967.451117	3074.288000	922.028320	29.370352
22967.451117	3074.288000	920.849609	159.789291
22967.451117	3074.288000	919.669922	159.465561
22967.451117	3074.288000	919.474609	66.307381
22967.451117	3074.288000	918.309570	11.488535
22967.451117	3074.288000	917.143555	43.463032
22967.451117	3074.288000	915.977539	38.784813
22967.451117	3074.288000	914.810547	20.607595
22967.451117	3074.288000	913.644531	-9.132289
22967.451117	3074.288000	912.477539	65.182930
22967.451117	3074.288000	911.310547	170.284698
22967.451117	3074.288000	910.143555	205.998917
22967.451117	3074.288000	908.975586	193.550293
22967.451117	3074.288000	907.807617	136.819473
22967.451117	3074.288000	906.639648	35.833519
22967.451117	3074.288000	905.471680	-51.645424
22967.451117	3074.288000	904.303711	99.494904
22967.451117	3074.288000	903.134766	100.518753
22967.451117	3074.288000	901.965820	43.837299
22967.451117	3074.288000	900.796875	-60.898876
22967.451117	3074.288000	899.626953	9.353518
22967.451117	3074.288000	898.457031	48.818653
22967.451117	3074.288000	897.287109	103.637337
22967.451117	3074.288000	896.117188	18.170357
22967.451117	3074.288000	894.947266	-9.636551
22967.451117	3074.288000	893.776367	64.354370
22967.451117	3074.288000	892.605469	44.222523
22967.451117	3074.288000	891.434570	-20.059748
22967.451117	3074.288000	890.262695	-59.367149
22967.451117	3074.288000	889.091797	14.560772
22967.451117	3074.288000	887.919922	71.187790
22967.451117	3074.288000	886.748047	-41.015335
22967.451117	3074.288000	885.575195	-13.173079
22967.451117	3074.288000	884.403320	-35.197830
22967.451117	3074.288000	883.230469	-78.303818
22967.451117	3074.288000	882.057617	-8.310801
22967.451117	3074.288000	880.883789	-45.659920
22967.451117	3074.288000	879.710938	-151.966446
22967.451117	3074.288000	878.537109	-60.936317
22967.451117	3074.288000	877.362305	-98.256393
22967.451117	3074.288000	876.188477	-97.268013
22967.451117	3074.288000	875.013672	-73.309692
22967.451117	3074.288000	873.839844	-41.705936
22967.451117	3074.288000	872.664063	-36.905769
22967.451117	3074.288000	871.489258	-97.154442
22967.451117	3074.288000	870.313477	-0.534381
22967.451117	3074.288000	869.138672	-91.363991
22967.451117	3074.288000	867.962891	-67.439568
22967.451117	3074.288000	866.786133	-20.586163
22967.451117	3074.288000	865.610352	-44.464966
22967.451117	3074.288000	864.433594	-104.639114
22967.451117	3074.288000	863.256836	-96.014099
22967.451117	3074.288000	862.079102	-89.302078
22967.451117	3074.288000	860.902344	-50.128616
22967.451117	3074.288000	859.724609	-51.064182
22967.451117	3074.288000	858.546875	-99.719101
22967.451117	3074.288000	857.368164	-24.305067
22967.451117	3074.288000	856.190430	24.367296
22967.451117	3074.288000	855.011719	-29.992947
22967.451117	3074.288000	853.833008	28.199177
22967.451117	3074.288000	852.654297	-14.695379
22967.451117	3074.288000	851.474609	-36.599491
22967.451117	3074.288000	850.294922	50.154079
22967.451117	3074.288000	849.115234	85.420174
22967.451117	3074.288000	847.935547	63.514576
22967.451117	3074.288000	846.754883	100.672112
22967.451117	3074.288000	845.575195	126.389717
22967.451117	3074.288000	844.393555	119.728165
22967.451117	3074.288000	843.212891	151.146637
22967.451117	3074.288000	842.032227	161.618256
22967.451117	3074.288000	840.850586	99.775070
22967.451117	3074.288000	839.668945	-19.116840
22967.451117	3074.288000	838.486328	65.575058
22967.451117	3074.288000	837.304688	146.431870
22967.451117	3074.288000	836.122070	63.738136
22967.451117	3074.288000	834.939453	38.111462
22967.451117	3074.288000	833.756836	99.926430
22967.451117	3074.288000	832.573242	-26.402687
22967.451117	3074.288000	831.389648	-34.887436
22967.451117	3074.288000	830.206055	-3.477464
22967.451117	3074.288000	829.022461	-91.716660
22967.451117	3074.288000	827.838867	-45.112049
22967.451117	3074.288000	826.654297	-99.131187
22967.451117	3074.288000	825.469727	-16.478045
22967.451117	3074.288000	824.284180	-81.858940
22967.451117	3074.288000	823.099609	-42.869396
22967.451117	3074.288000	821.914063	-28.549543
22967.451117	3074.288000	820.728516	-82.498886
22967.451117	3074.288000	819.542969	-16.979841
22967.451117	3074.288000	818.356445	67.470940
22967.451117	3074.288000	817.169922	34.392376
22967.451117	3074.288000	815.983398	-32.774109
22967.451117	3074.288000	814.796875	30.801338
22967.451117	3074.288000	813.609375	16.701462
22967.451117	3074.288000	812.422852	78.354340
22967.451117	3074.288000	811.235352	16.928854
22967.451117	3074.288000	810.046875	-97.465607
22967.451117	3074.288000	808.859375	2.031870
22967.451117	3074.288000	807.670898	31.487635
22967.451117	3074.288000	806.482422	-65.802628
22967.451117	3074.288000	805.293945	-7.968801
22967.451117	3074.288000	804.104492	-40.915207
22967.451117	3074.288000	802.915039	-11.459460
22967.451117	3074.288000	801.725586	34.998280
22967.451117	3074.288000	800.536133	22.861559
22967.451117	3074.288000	799.345703	71.189682
22967.451117	3074.288000	798.155273	23.169167
22967.451117	3074.288000	796.964844	107.365891
22967.451117	3074.288000	795.774414	-29.374947
22967.451117	3074.288000	794.583008	96.334808
22967.451117	3074.288000	793.392578	35.152576
22967.451117	3074.288000	792.200195	64.571037
22967.451117	3074.288000	791.008789	82.662125
22967.451117	3074.288000	789.816406	49.823296
22967.451117	3074.288000	788.625000	-3.741441
22967.451117	3074.288000	787.432617	10.592181
22967.451117	3074.288000	786.239258	28.693016
22967.451117	3074.288000	785.046875	93.904442
22967.451117	3074.288000	783.853516	87.492836
22967.451117	3074.288000	782.660156	60.365566
22967.451117	3074.288000	781.465820	-21.366064
22967.451117	3074.288000	780.272461	-18.325254
22967.451117	3074.288000	779.078125	-30.343527
22967.451117	3074.288000	777.883789	-51.764755
22967.451117	3074.288000	776.688477	-35.537933
22967.451117	3074.288000	775.494141	23.958570
22967.451117	3074.288000	774.298828	-44.478825
22967.451117	3074.288000	773.103516	-35.777756
22967.451117	3074.288000	771.907227	-55.281994
22967.451117	3074.288000	770.711914	-54.096992
22967.451117	3074.288000	769.515625	-81.102341
22967.451117	3074.288000	768.318359	47.871040
22967.451117	3074.288000	767.122070	50.919601
22967.451117	3074.288000	765.924805	82.143478
22967.451117	3074.288000	764.727539	51.385010
22967.451117	3074.288000	763.530273	30.028618
22967.451117	3074.288000	762.333008	-8.211460
22967.451117	3074.288000	761.134766	-1.391652
22967.451117	3074.288000	759.936523	80.481255
22967.451117	3074.288000	758.738281	53.515038
22967.451117	3074.288000	757.540039	22.810171
22967.451117	3074.288000	756.340820	3.370274
22967.451117	3074.288000	755.141602	96.427795
22967.451117	3074.288000	753.942383	-16.738098
22967.451117	3074.288000	752.742188	38.805901
22967.451117	3074.288000	751.541992	19.382318
22967.451117	3074.288000	750.341797	74.896774
22967.451117	3074.288000	749.141602	-10.075429
22967.451117	3074.288000	747.941406	75.382309
22967.451117	3074.288000	746.740234	39.119549
22967.451117	3074.288000	745.539063	51.535458
22967.451117	3074.288000	744.337891	50.846928
22967.451117	3074.288000	743.135742	121.252632
22967.451117	3074.288000	741.933594	103.714226
22967.451117	3074.288000	740.731445	26.338745
22967.451117	3074.288000	739.529297	109.791298
22967.451117	3074.288000	738.326172	103.479546
22967.451117	3074.288000	737.124023	1.853316
22967.451117	3074.288000	735.919922	38.540905
22967.451117	3074.288000	734.716797	15.430536
22967.451117	3074.288000	733.513672	57.700356
22967.451117	3074.288000	732.309570	77.541931
22967.451117	3074.288000	731.105469	67.501389
22967.451117	3074.288000	729.900391	1.464132
22967.451117	3074.288000	728.696289	-55.216427
22967.451117	3074.288000	727.491211	46.719227
22967.451117	3074.288000	726.286133	-24.876148
22967.451117	3074.288000	725.080078	45.299103
22967.451117	3074.288000	723.874023	-30.001621
22967.451117	3074.288000	722.668945	-8.332042
22967.451117	3074.288000	721.461914	18.916512
22967.451117	3074.288000	720.255859	-32.116470
22967.451117	3074.288000	719.048828	11.885855
22967.451117	3074.288000	717.841797	46.552135
22967.451117	3074.288000	716.634766	25.330177
22967.451117	3074.288000	715.427734	56.246647
22967.451117	3074.288000	714.219727	8.960827
22967.451117	3074.288000	713.011719	-12.254097
22967.451117	3074.288000	711.803711	-35.325809
22967.451117	3074.288000	710.594727	-97.461014
22967.451117	3074.288000	709.385742	-72.156525
22967.451117	3074.288000	708.176758	42.391415
22967.451117	3074.288000	706.967773	37.897202
22967.451117	3074.288000	705.758789	59.422165
22967.451117	3074.288000	704.548828	66.064262
22967.451117	3074.288000	703.338867	35.536659
22967.451117	3074.288000	702.127930	-4.273148
22967.451117	3074.288000	700.917969	-38.501114
22967.451117	3074.288000	699.707031	-48.582981
22967.451117	3074.288000	698.496094	60.146084
22967.451117	3074.288000	697.285156	57.457367
22967.451117	3074.288000	696.073242	88.164124
22967.451117	3074.288000	694.861328	-9.165225
22967.451117	3074.288000	693.649414	73.464233
22967.451117	3074.288000	692.436523	126.377937
22967.451117	3074.288000	691.224609	199.656586
22967.451117	3074.288000	690.011719	126.450523
22967.451117	3074.288000	688.798828	118.133118
22967.451117	3074.288000	687.584961	152.427994
22967.451117	3074.288000	686.372070	147.795547
22967.451117	3074.288000	685.158203	107.963921
22967.451117	3074.288000	683.943359	69.990532
22967.451117	3074.288000	682.729492	139.404907
22967.451117	3074.288000	681.514648	249.501587
22967.451117	3074.288000	680.299805	292.919373
22967.451117	3074.288000	679.084961	358.511108
22967.451117	3074.288000	677.869141	257.578705
22967.451117	3074.288000	676.653320	347.171204
22967.451117	3074.288000	675.437500	359.053986
22967.451117	3074.288000	674.221680	350.585327
22967.451117	3074.288000	673.004883	264.480652
22967.451117	3074.288000	671.789063	267.099487
22967.451117	3074.288000	670.571289	254.924500
22967.451117	3074.288000	669.354492	96.821083
22967.451117	3074.288000	668.136719	71.735909
22967.451117	3074.288000	666.919922	39.263935
22967.451117	3074.288000	665.701172	95.397270
22967.451117	3074.288000	664.483398	92.436920
22967.451117	3074.288000	663.264648	178.032394
22967.451117	3074.288000	662.045898	130.754578
22967.451117	3074.288000	660.827148	135.126480
22967.451117	3074.288000	659.608398	137.638657
22967.451117	3074.288000	658.388672	116.168846
22967.451117	3074.288000	657.168945	11.749390
22967.451117	3074.288000	655.949219	124.813965
22967.451117	3074.288000	654.728516	75.681190
22967.451117	3074.288000	653.507813	138.920059
22967.451117	3074.288000	652.287109	100.826347
22967.451117	3074.288000	651.066406	112.448471
22967.451117	3074.288000	649.844727	105.641411
22967.451117	3074.288000	648.623047	187.166107
22967.451117	3074.288000	647.401367	160.074677
22967.451117	3074.288000	646.179688	149.537155
22967.451117	3074.288000	644.957031	295.331085
22967.451117	3074.288000	643.734375	244.281204
22967.451117	3074.288000	642.511719	454.311432
22967.451117	3074.288000	641.289063	359.102356
22967.451117	3074.288000	640.065430	357.643158
22967.451117	3074.288000	638.841797	251.437775
22967.451117	3074.288000	637.618164	211.393143
22967.451117	3074.288000	636.393555	233.793060
22967.451117	3074.288000	635.168945	182.718475
22967.451117	3074.288000	633.944336	150.007187
22967.451117	3074.288000	632.719727	139.318542
22967.451117	3074.288000	631.494141	135.957321
22967.451117	3074.288000	630.269531	193.125214
22967.451117	3074.288000	629.042969	136.525803
22967.451117	3074.288000	627.817383	129.449020
22967.451117	3074.288000	626.590820	102.189041
22967.451117	3074.288000	625.365234	82.256783
22967.451117	3074.288000	624.137695	62.314156
22967.451117	3074.288000	622.911133	31.369545
22967.451117	3074.288000	621.683594	-72.857407
22967.451117	3074.288000	620.456055	-70.827545
22967.451117	3074.288000	619.228516	-65.153450
22967.451117	3074.288000	618.000977	59.501274
22967.451117	3074.288000	616.772461	8.367594
22967.451117	3074.288000	615.543945	-44.591923
22967.451117	3074.288000	614.314453	-46.318199
22967.451117	3074.288000	613.085938	-46.231186
22967.451117	3074.288000	611.856445	-42.504963
22967.451117	3074.288000	610.626953	43.482300
22967.451117	3074.288000	609.397461	70.917618
22967.451117	3074.288000	608.166992	32.526527
22967.451117	3074.288000	606.936523	34.334728
22967.451117	3074.288000	605.706055	59.873981
22967.451117	3074.288000	604.474609	10.497246
22967.451117	3074.288000	603.244141	-18.787434
22967.451117	3074.288000	602.012695	8.519032
22967.451117	3074.288000	600.780273	12.066312
22967.451117	3074.288000	599.548828	152.466797
22967.451117	3074.288000	598.316406	112.157516
22967.451117	3074.288000	597.083984	142.990967
22967.451117	3074.288000	595.851563	99.018974
22967.451117	3074.288000	594.618164	44.107143
22967.451117	3074.288000	593.384766	-12.621449
22967.451117	3074.288000	592.151367	92.870148
22967.451117	3074.288000	590.917969	94.432869
22967.451117	3074.288000	589.683594	-20.621181
22967.451117	3074.288000	588.449219	-13.605140
22967.451117	3074.288000	587.214844	71.696938
22967.451117	3074.288000	585.979492	-23.302280
22967.451117	3074.288000	584.745117	47.370579
22967.451117	3074.288000	583.509766	-63.994675
22967.451117	3074.288000	582.273438	-37.046612
22967.451117	3074.288000	581.038086	59.002197
22967.451117	3074.288000	579.801758	-19.606344
22967.451117	3074.288000	578.565430	-41.827789
22967.451117	3074.288000	577.329102	-9.516456
22967.451117	3074.288000	576.091797	-9.952108
22967.451117	3074.288000	574.854492	-37.660557
22967.451117	3074.288000	573.617188	36.368885
22967.451117	3074.288000	572.378906	83.104248
22967.451117	3074.288000	571.141602	75.325386
22967.451117	3074.288000	569.903320	125.634666
22967.451117	3074.288000	568.664063	61.546188
22967.451117	3074.288000	567.425781	97.289604
22967.451117	3074.288000	566.186523	-15.784237
22967.451117	3074.288000	564.947266	61.655685
22967.451117	3074.288000	563.708008	6.649164
22967.451117	3074.288000	562.467773	20.557503
22967.451117	3074.288000	561.227539	106.963966
22967.451117	3074.288000	559.987305	-0.620700
22967.451117	3074.288000	558.747070	127.407776
22967.451117	3074.288000	557.505859	52.450493
22967.451117	3074.288000	556.264648	51.779728
22967.451117	3074.288000	555.023438	132.592056
22967.451117	3074.288000	553.781250	54.024387
22967.451117	3074.288000	552.539063	55.128357
22967.451117	3074.288000	551.296875	117.755341
22967.451117	3074.288000	550.054688	80.826035
22967.451117	3074.288000	548.811523	257.368713
22967.451117	3074.288000	547.569336	327.116364
22967.451117	3074.288000	546.325195	253.967560
22967.451117	3074.288000	545.082031	256.773865
22967.451117	3074.288000	543.837891	125.813141
22967.451117	3074.288000	542.593750	164.768982
22967.451117	3074.288000	541.349609	82.648781
22967.451117	3074.288000	540.105469	27.651123
22967.451117	3074.288000	538.860352	-9.272634
22967.451117	3074.288000	537.615234	26.034742
22967.451117	3074.288000	536.369141	8.968454
22967.451117	3074.288000	535.124023	9.952277
22967.451117	3074.288000	533.877930	-3.507175
22967.451117	3074.288000	532.631836	-33.203079
22967.451117	3074.288000	531.384766	-59.286133
22967.451117	3074.288000	530.138672	-45.689938
22967.451117	3074.288000	528.891602	-50.134708
22967.451117	3074.288000	527.643555	-65.398399
22967.451117	3074.288000	526.396484	-51.824505
22967.451117	3074.288000	525.148438	-81.502632
22967.451117	3074.288000	523.900391	-57.131920
22967.451117	3074.288000	522.652344	-140.830154
22967.451117	3074.288000	521.403320	-15.633791
22967.451117	3074.288000	520.154297	5.097649
22967.451117	3074.288000	518.905273	-4.777795
22967.451117	3074.288000	517.656250	-41.640846
22967.451117	3074.288000	516.406250	-44.310177
22967.451117	3074.288000	515.156250	-73.958061
22967.451117	3074.288000	513.906250	-82.014786
22967.451117	3074.288000	512.655273	-28.943068
22967.451117	3074.288000	511.404297	-99.917862
22967.451117	3074.288000	510.153320	-134.920013
22967.451117	3074.288000	508.902344	-44.138348
22967.451117	3074.288000	507.650391	-16.266050
22967.451117	3074.288000	506.398438	-26.117756
22967.451117	3074.288000	505.146484	-97.010727
22967.451117	3074.288000	503.893555	-54.778530
22967.451117	3074.288000	502.641602	-1.791541
22967.451117	3074.288000	501.388672	-25.983124
22967.451117	3074.288000	500.134766	-41.192276
22967.451117	3074.288000	498.881836	58.400520
22967.451117	3074.288000	497.627930	-30.333393
22967.451117	3074.288000	496.374023	-52.689915
22967.451117	3074.288000	495.119141	-48.146908
22967.451117	3074.288000	493.865234	44.211288
22967.451117	3074.288000	492.610352	-121.465187
22967.451117	3074.288000	491.355469	49.695213
22967.451117	3074.288000	490.099609	-47.846668
22967.451117	3074.288000	488.843750	-2.099941
22967.451117	3074.288000	487.587891	-2.909313
22967.451117	3074.288000	486.332031	-1.921260
22967.451117	3074.288000	485.075195	83.171242
22967.451117	3074.288000	483.818359	85.942253
22967.451117	3074.288000	482.561523	181.725998
22967.451117	3074.288000	481.304688	121.903755
22967.451117	3074.288000	480.046875	224.804016
22967.451117	3074.288000	478.789063	100.666313
22967.451117	3074.288000	477.531250	64.155090
22967.451117	3074.288000	476.272461	-58.092342
22967.451117	3074.288000	475.013672	9.065554
22967.451117	3074.288000	473.754883	-11.304705
22967.451117	3074.288000	472.496094	71.901466
22967.451117	3074.288000	471.236328	124.732445
22967.451117	3074.288000	469.976563	100.806732
22967.451117	3074.288000	468.716797	85.822350
22967.451117	3074.288000	467.456055	53.012463
22967.451117	3074.288000	466.196289	16.660261
22967.451117	3074.288000	464.935547	57.008152
22967.451117	3074.288000	463.673828	116.956970
22967.451117	3074.288000	462.413086	84.205070
22967.451117	3074.288000	461.151367	94.243362
22967.451117	3074.288000	459.889648	163.080231
22967.451117	3074.288000	458.626953	32.394016
22967.451117	3074.288000	457.364258	81.640297
22967.451117	3074.288000	456.101563	168.264160
22967.451117	3074.288000	454.838867	238.837357
22967.451117	3074.288000	453.575195	191.924881
22967.451117	3074.288000	452.312500	264.256714
22967.451117	3074.288000	451.047852	272.519501
22967.451117	3074.288000	449.784180	236.322495
22967.451117	3074.288000	448.519531	281.942291
22967.451117	3074.288000	447.254883	197.768936
22967.451117	3074.288000	445.990234	156.294876
22967.451117	3074.288000	444.725586	173.485367
22967.451117	3074.288000	443.459961	151.585312
22967.451117	3074.288000	442.194336	127.921593
22967.451117	3074.288000	440.927734	40.338165
22967.451117	3074.288000	439.662109	107.263733
22967.451117	3074.288000	438.395508	106.706345
22967.451117	3074.288000	437.127930	177.136871
22967.451117	3074.288000	435.861328	208.502670
22967.451117	3074.288000	434.593750	209.695190
22967.451117	3074.288000	433.326172	299.563202
22967.451117	3074.288000	432.058594	369.884216
22967.451117	3074.288000	430.790039	378.120941
22967.451117	3074.288000	429.521484	326.086609
22967.451117	3074.288000	428.252930	249.259705
22967.451117	3074.288000	426.984375	163.599976
22967.451117	3074.288000	425.714844	111.620842
22967.451117	3074.288000	424.445313	-37.744583
22967.451117	3074.288000	423.174805	50.187653
22967.451117	3074.288000	421.905273	72.575539
22967.451117	3074.288000	420.634766	43.615189
22967.451117	3074.288000	419.364258	-11.889693
22967.451117	3074.288000	418.092773	68.819977
22967.451117	3074.288000	416.822266	27.443750
22967.451117	3074.288000	415.550781	-33.388077
22967.451117	3074.288000	414.278320	50.741711
22967.451117	3074.288000	413.006836	42.903873
22967.451117	3074.288000	411.734375	12.068458
22967.451117	3074.288000	410.461914	101.349030
22967.451117	3074.288000	409.188477	31.591639
22967.451117	3074.288000	407.916016	20.105650
22967.451117	3074.288000	406.642578	66.847649
22967.451117	3074.288000	405.368164	67.634369
22967.451117	3074.288000	404.094727	4.849061
22967.451117	3074.288000	402.820313	-33.254791
22967.451117	3074.288000	401.545898	43.267967
22967.451117	3074.288000	400.270508	137.340866
22967.451117	3074.288000	398.996094	79.684456
22967.451117	3074.288000	397.720703	205.328125
22967.451117	3074.288000	396.444336	71.775391
22967.451117	3074.288000	395.168945	68.611229
22967.451117	3074.288000	393.892578	49.524124
22967.451117	3074.288000	392.616211	44.464615
22967.451117	3074.288000	391.339844	127.378769
22967.451117	3074.288000	390.062500	83.417862
22967.451117	3074.288000	388.785156	122.120621
22967.451117	3074.288000	387.507813	70.972298
22967.451117	3074.288000	386.229492	195.691223
22967.451117	3074.288000	384.951172	144.361099
22967.451117	3074.288000	383.672852	57.781246
22967.451117	3074.288000	382.394531	62.563358
22967.451117	3074.288000	381.115234	54.926884
22967.451117	3074.288000	379.835938	17.303165
22967.451117	3074.288000	378.556641	7.690444
22967.451117	3074.288000	377.277344	1.471582
22967.451117	3074.288000	375.997070	14.442715
22967.451117	3074.288000	374.716797	46.588905
22967.451117	3074.288000	373.435547	71.555374
22967.451117	3074.288000	372.155273	-22.984217
22967.451117	3074.288000	370.874023	6.952442
22967.451117	3074.288000	369.591797	36.714214
22967.451117	3074.288000	368.310547	55.777683
22967.451117	3074.288000	367.028320	6.265553
22967.451117	3074.288000	365.746094	40.754292
22967.451117	3074.288000	364.463867	-19.612406
22967.451117	3074.288000	363.180664	-50.356236
22967.451117	3074.288000	361.897461	-35.730221
22967.451117	3074.288000	360.614258	-26.572182
22967.451117	3074.288000	359.330078	17.390318
22967.451117	3074.288000	358.045898	-19.433041
22967.451117	3074.288000	356.761719	-40.714886
22967.451117	3074.288000	355.477539	-83.227898
22967.451117	3074.288000	354.192383	-43.731915
22967.451117	3074.288000	352.907227	-79.734642
22967.451117	3074.288000	351.622070	20.441790
22967.451117	3074.288000	350.336914	39.861744
22967.451117	3074.288000	349.050781	57.236603
22967.451117	3074.288000	347.764648	16.630089
22967.451117	3074.288000	346.477539	-95.916527
22967.451117	3074.288000	345.191406	-27.014170
22967.451117	3074.288000	343.904297	-35.329029
22967.451117	3074.288000	342.616211	-31.755899
22967.451117	3074.288000	341.329102	-58.202606
22967.451117	3074.288000	340.041016	-23.902758
22967.451117	3074.288000	338.752930	4.780528
22967.451117	3074.288000	337.463867	-26.260790
22967.451117	3074.288000	336.175781	29.555851
22967.451117	3074.288000	334.886719	30.870031
22967.451117	3074.288000	333.596680	-3.114704
22967.451117	3074.288000	332.307617	117.657104
22967.451117	3074.288000	331.017578	0.881657
22967.451117	3074.288000	329.727539	-34.393913
22967.451117	3074.288000	328.436523	-30.060442
22967.451117	3074.288000	327.146484	-19.231377
22967.451117	3074.288000	325.855469	-57.673668
22967.451117	3074.288000	324.563477	-30.459972
22967.451117	3074.288000	323.272461	-92.546204
22967.451117	3074.288000	321.980469	-40.296303
22967.451117	3074.288000	320.688477	-79.101067
22967.451117	3074.288000	319.395508	-66.287231
22967.451117	3074.288000	318.103516	-127.098061
22967.451117	3074.288000	316.810547	-54.612877
22967.451117	3074.288000	315.516602	-22.779217
22967.451117	3074.288000	314.223633	-41.986160
22967.451117	3074.288000	312.929688	7.649914
22967.451117	3074.288000	311.635742	-115.400375
22967.451117	3074.288000	310.340820	-63.680061
22967.451117	3074.288000	309.045898	-24.850655
22967.451117	3074.288000	307.750977	47.953411
22967.451117	3074.288000	306.456055	118.238922
22967.451117	3074.288000	305.160156	50.608952
22967.451117	3074.288000	303.865234	239.016174
22967.451117	3074.288000	302.568359	254.761505
22967.451117	3074.288000	301.272461	319.978821
22967.451117	3074.288000	299.975586	370.419556
22967.451117	3074.288000	298.678711	513.567749
