#X		#Y		#Wave		#Intensity
23202.703936	2450.441500	1999.980469	-190.630005
23202.703936	2450.441500	1999.016602	4.047088
23202.703936	2450.441500	1998.052734	-277.882233
23202.703936	2450.441500	1997.087891	26.649548
23202.703936	2450.441500	1996.123047	-9.333557
23202.703936	2450.441500	1995.158203	-90.826515
23202.703936	2450.441500	1994.193359	173.544373
23202.703936	2450.441500	1993.228516	43.203056
23202.703936	2450.441500	1992.262695	30.913248
23202.703936	2450.441500	1991.297852	-63.917267
23202.703936	2450.441500	1990.332031	11.264829
23202.703936	2450.441500	1989.366211	300.906708
23202.703936	2450.441500	1988.399414	-36.227100
23202.703936	2450.441500	1987.433594	251.803284
23202.703936	2450.441500	1986.466797	405.478577
23202.703936	2450.441500	1985.500977	269.080658
23202.703936	2450.441500	1984.534180	144.430176
23202.703936	2450.441500	1983.567383	488.788910
23202.703936	2450.441500	1982.599609	78.668503
23202.703936	2450.441500	1981.632813	518.012817
23202.703936	2450.441500	1980.665039	324.205872
23202.703936	2450.441500	1979.697266	8.864018
23202.703936	2450.441500	1978.729492	70.896942
23202.703936	2450.441500	1977.761719	253.338898
23202.703936	2450.441500	1976.792969	346.334381
23202.703936	2450.441500	1975.825195	367.199005
23202.703936	2450.441500	1974.856445	49.518661
23202.703936	2450.441500	1973.887695	207.633469
23202.703936	2450.441500	1972.918945	377.564056
23202.703936	2450.441500	1971.949219	470.544464
23202.703936	2450.441500	1970.980469	683.877686
23202.703936	2450.441500	1970.010742	391.342285
23202.703936	2450.441500	1969.041016	478.101288
23202.703936	2450.441500	1968.071289	56.788765
23202.703936	2450.441500	1967.101563	285.733826
23202.703936	2450.441500	1966.130859	428.027374
23202.703936	2450.441500	1965.161133	94.562943
23202.703936	2450.441500	1964.190430	359.298157
23202.703936	2450.441500	1963.219727	224.765381
23202.703936	2450.441500	1962.249023	412.452240
23202.703936	2450.441500	1961.277344	501.341003
23202.703936	2450.441500	1960.306641	223.268188
23202.703936	2450.441500	1959.334961	471.532532
23202.703936	2450.441500	1958.363281	500.531586
23202.703936	2450.441500	1957.391602	320.231964
23202.703936	2450.441500	1956.419922	397.953369
23202.703936	2450.441500	1955.447266	278.754974
23202.703936	2450.441500	1954.474609	375.690460
23202.703936	2450.441500	1953.501953	270.875610
23202.703936	2450.441500	1952.529297	129.054916
23202.703936	2450.441500	1951.556641	230.310333
23202.703936	2450.441500	1950.583984	353.461945
23202.703936	2450.441500	1949.610352	427.294617
23202.703936	2450.441500	1948.636719	-107.946930
23202.703936	2450.441500	1947.663086	196.396393
23202.703936	2450.441500	1946.689453	586.391663
23202.703936	2450.441500	1945.715820	446.080261
23202.703936	2450.441500	1944.741211	111.887764
23202.703936	2450.441500	1943.767578	633.779541
23202.703936	2450.441500	1942.792969	424.535645
23202.703936	2450.441500	1941.818359	149.066040
23202.703936	2450.441500	1940.842773	263.410187
23202.703936	2450.441500	1939.868164	139.869278
23202.703936	2450.441500	1938.892578	38.352573
23202.703936	2450.441500	1937.916992	110.767578
23202.703936	2450.441500	1936.941406	212.487595
23202.703936	2450.441500	1935.965820	120.616219
23202.703936	2450.441500	1934.990234	89.946220
23202.703936	2450.441500	1934.013672	250.214325
23202.703936	2450.441500	1933.037109	314.911316
23202.703936	2450.441500	1932.060547	66.270790
23202.703936	2450.441500	1931.083984	121.119911
23202.703936	2450.441500	1930.107422	-29.589365
23202.703936	2450.441500	1929.129883	123.048462
23202.703936	2450.441500	1928.153320	168.001343
23202.703936	2450.441500	1927.175781	44.206215
23202.703936	2450.441500	1926.198242	-20.880423
23202.703936	2450.441500	1925.219727	-288.824554
23202.703936	2450.441500	1924.242188	-187.658829
23202.703936	2450.441500	1923.263672	-76.755684
23202.703936	2450.441500	1922.285156	141.596603
23202.703936	2450.441500	1921.306641	-104.192642
23202.703936	2450.441500	1920.328125	-66.608757
23202.703936	2450.441500	1919.349609	100.372528
23202.703936	2450.441500	1918.370117	-47.591267
23202.703936	2450.441500	1917.391602	-295.551636
23202.703936	2450.441500	1916.412109	54.442291
23202.703936	2450.441500	1915.431641	145.718887
23202.703936	2450.441500	1914.452148	349.188995
23202.703936	2450.441500	1913.472656	130.696945
23202.703936	2450.441500	1912.492188	-202.289902
23202.703936	2450.441500	1911.511719	-103.616356
23202.703936	2450.441500	1910.531250	-100.011414
23202.703936	2450.441500	1909.550781	42.534069
23202.703936	2450.441500	1908.569336	-148.745377
23202.703936	2450.441500	1907.588867	103.442551
23202.703936	2450.441500	1906.607422	-80.401321
23202.703936	2450.441500	1905.625977	32.949516
23202.703936	2450.441500	1904.644531	-189.697571
23202.703936	2450.441500	1903.662109	21.075117
23202.703936	2450.441500	1902.680664	-45.648109
23202.703936	2450.441500	1901.698242	152.928299
23202.703936	2450.441500	1900.715820	183.596497
23202.703936	2450.441500	1899.733398	-350.030060
23202.703936	2450.441500	1898.750000	-153.825027
23202.703936	2450.441500	1897.767578	-237.281189
23202.703936	2450.441500	1896.784180	-199.112885
23202.703936	2450.441500	1895.800781	-345.647797
23202.703936	2450.441500	1894.817383	-54.661663
23202.703936	2450.441500	1893.833984	168.222076
23202.703936	2450.441500	1892.850586	12.094722
23202.703936	2450.441500	1891.866211	84.373207
23202.703936	2450.441500	1890.881836	13.385482
23202.703936	2450.441500	1889.897461	377.052643
23202.703936	2450.441500	1888.913086	39.090668
23202.703936	2450.441500	1887.927734	-145.812210
23202.703936	2450.441500	1886.943359	142.558441
23202.703936	2450.441500	1885.958008	-190.220840
23202.703936	2450.441500	1884.972656	1.087347
23202.703936	2450.441500	1883.987305	-115.641251
23202.703936	2450.441500	1883.001953	-40.747768
23202.703936	2450.441500	1882.015625	-41.005146
23202.703936	2450.441500	1881.029297	41.171299
23202.703936	2450.441500	1880.042969	-29.329294
23202.703936	2450.441500	1879.056641	147.352859
23202.703936	2450.441500	1878.070313	248.891953
23202.703936	2450.441500	1877.083984	-259.926575
23202.703936	2450.441500	1876.096680	-20.282116
23202.703936	2450.441500	1875.109375	-168.086609
23202.703936	2450.441500	1874.122070	44.853447
23202.703936	2450.441500	1873.134766	-160.965759
23202.703936	2450.441500	1872.146484	8.360185
23202.703936	2450.441500	1871.159180	8.278399
23202.703936	2450.441500	1870.170898	-28.074299
23202.703936	2450.441500	1869.182617	51.669113
23202.703936	2450.441500	1868.194336	150.727249
23202.703936	2450.441500	1867.205078	39.432056
23202.703936	2450.441500	1866.216797	114.283150
23202.703936	2450.441500	1865.227539	85.192558
23202.703936	2450.441500	1864.238281	-4.297120
23202.703936	2450.441500	1863.249023	87.409500
23202.703936	2450.441500	1862.259766	99.368713
23202.703936	2450.441500	1861.269531	-127.744041
23202.703936	2450.441500	1860.279297	142.549286
23202.703936	2450.441500	1859.290039	65.133018
23202.703936	2450.441500	1858.298828	151.834824
23202.703936	2450.441500	1857.308594	347.060486
23202.703936	2450.441500	1856.318359	71.756729
23202.703936	2450.441500	1855.327148	167.979599
23202.703936	2450.441500	1854.335938	-112.068275
23202.703936	2450.441500	1853.344727	135.987518
23202.703936	2450.441500	1852.353516	46.421791
23202.703936	2450.441500	1851.362305	72.542549
23202.703936	2450.441500	1850.370117	240.786392
23202.703936	2450.441500	1849.377930	329.416595
23202.703936	2450.441500	1848.385742	109.635582
23202.703936	2450.441500	1847.393555	190.936905
23202.703936	2450.441500	1846.401367	118.046432
23202.703936	2450.441500	1845.408203	59.576271
23202.703936	2450.441500	1844.415039	-104.839073
23202.703936	2450.441500	1843.421875	159.118088
23202.703936	2450.441500	1842.428711	-51.092014
23202.703936	2450.441500	1841.435547	-157.847000
23202.703936	2450.441500	1840.441406	163.501984
23202.703936	2450.441500	1839.448242	63.823055
23202.703936	2450.441500	1838.454102	36.240715
23202.703936	2450.441500	1837.459961	140.802002
23202.703936	2450.441500	1836.464844	-100.842590
23202.703936	2450.441500	1835.470703	-3.662234
23202.703936	2450.441500	1834.475586	-86.788879
23202.703936	2450.441500	1833.480469	-153.159576
23202.703936	2450.441500	1832.485352	-25.064045
23202.703936	2450.441500	1831.490234	218.145477
23202.703936	2450.441500	1830.495117	259.511292
23202.703936	2450.441500	1829.499023	12.734157
23202.703936	2450.441500	1828.502930	-18.067844
23202.703936	2450.441500	1827.506836	334.930847
23202.703936	2450.441500	1826.510742	25.598736
23202.703936	2450.441500	1825.513672	40.063934
23202.703936	2450.441500	1824.517578	308.597656
23202.703936	2450.441500	1823.520508	193.313995
23202.703936	2450.441500	1822.523438	-68.265884
23202.703936	2450.441500	1821.526367	-106.978485
23202.703936	2450.441500	1820.529297	-107.459084
23202.703936	2450.441500	1819.531250	57.240116
23202.703936	2450.441500	1818.533203	30.129044
23202.703936	2450.441500	1817.535156	261.537292
23202.703936	2450.441500	1816.537109	157.519119
23202.703936	2450.441500	1815.539063	70.161957
23202.703936	2450.441500	1814.540039	16.209948
23202.703936	2450.441500	1813.541992	84.183228
23202.703936	2450.441500	1812.542969	245.296967
23202.703936	2450.441500	1811.543945	-2.842187
23202.703936	2450.441500	1810.543945	272.734070
23202.703936	2450.441500	1809.544922	203.728668
23202.703936	2450.441500	1808.544922	156.113602
23202.703936	2450.441500	1807.544922	313.925842
23202.703936	2450.441500	1806.544922	-16.002800
23202.703936	2450.441500	1805.544922	57.843109
23202.703936	2450.441500	1804.544922	-145.616684
23202.703936	2450.441500	1803.543945	-19.551476
23202.703936	2450.441500	1802.542969	275.850037
23202.703936	2450.441500	1801.541992	-42.634869
23202.703936	2450.441500	1800.541016	345.423401
23202.703936	2450.441500	1799.539063	-30.578526
23202.703936	2450.441500	1798.538086	-82.078583
23202.703936	2450.441500	1797.536133	69.052238
23202.703936	2450.441500	1796.534180	138.847107
23202.703936	2450.441500	1795.532227	172.665482
23202.703936	2450.441500	1794.529297	215.823166
23202.703936	2450.441500	1793.527344	-29.674461
23202.703936	2450.441500	1792.524414	246.719955
23202.703936	2450.441500	1791.521484	-256.437927
23202.703936	2450.441500	1790.518555	481.750610
23202.703936	2450.441500	1789.514648	373.793976
23202.703936	2450.441500	1788.511719	51.338150
23202.703936	2450.441500	1787.507813	71.706245
23202.703936	2450.441500	1786.503906	96.632706
23202.703936	2450.441500	1785.500000	-264.264832
23202.703936	2450.441500	1784.496094	117.307030
23202.703936	2450.441500	1783.491211	127.332420
23202.703936	2450.441500	1782.486328	-15.105692
23202.703936	2450.441500	1781.481445	1.671017
23202.703936	2450.441500	1780.476563	201.350662
23202.703936	2450.441500	1779.471680	-112.823914
23202.703936	2450.441500	1778.465820	-113.304970
23202.703936	2450.441500	1777.460938	171.222137
23202.703936	2450.441500	1776.455078	-38.845207
23202.703936	2450.441500	1775.449219	45.558098
23202.703936	2450.441500	1774.442383	-136.333359
23202.703936	2450.441500	1773.436523	94.876884
23202.703936	2450.441500	1772.429688	-120.630074
23202.703936	2450.441500	1771.422852	214.508698
23202.703936	2450.441500	1770.416016	-22.735117
23202.703936	2450.441500	1769.409180	-46.524529
23202.703936	2450.441500	1768.402344	268.770447
23202.703936	2450.441500	1767.394531	7.260174
23202.703936	2450.441500	1766.386719	-36.167763
23202.703936	2450.441500	1765.378906	-41.861778
23202.703936	2450.441500	1764.371094	-38.291332
23202.703936	2450.441500	1763.362305	112.008713
23202.703936	2450.441500	1762.354492	43.998455
23202.703936	2450.441500	1761.345703	160.600906
23202.703936	2450.441500	1760.336914	-182.669846
23202.703936	2450.441500	1759.328125	151.392731
23202.703936	2450.441500	1758.318359	23.291965
23202.703936	2450.441500	1757.308594	164.931381
23202.703936	2450.441500	1756.299805	-44.056087
23202.703936	2450.441500	1755.290039	139.687759
23202.703936	2450.441500	1754.279297	3.656107
23202.703936	2450.441500	1753.269531	-71.026588
23202.703936	2450.441500	1752.258789	-155.388077
23202.703936	2450.441500	1751.249023	-12.890833
23202.703936	2450.441500	1750.238281	-38.579014
23202.703936	2450.441500	1749.226563	-90.510025
23202.703936	2450.441500	1748.215820	67.730080
23202.703936	2450.441500	1747.204102	3.517838
23202.703936	2450.441500	1746.193359	206.106033
23202.703936	2450.441500	1745.181641	-201.110062
23202.703936	2450.441500	1744.168945	192.257675
23202.703936	2450.441500	1743.157227	82.273979
23202.703936	2450.441500	1742.144531	-105.829140
23202.703936	2450.441500	1741.132813	62.361671
23202.703936	2450.441500	1740.120117	206.638153
23202.703936	2450.441500	1739.106445	95.773376
23202.703936	2450.441500	1738.093750	27.197763
23202.703936	2450.441500	1737.080078	191.914764
23202.703936	2450.441500	1736.067383	73.359634
23202.703936	2450.441500	1735.053711	237.538956
23202.703936	2450.441500	1734.040039	-67.690590
23202.703936	2450.441500	1733.025391	-28.943346
23202.703936	2450.441500	1732.011719	2.506893
23202.703936	2450.441500	1730.997070	-18.135651
23202.703936	2450.441500	1729.982422	24.600019
23202.703936	2450.441500	1728.967773	22.343491
23202.703936	2450.441500	1727.952148	307.110413
23202.703936	2450.441500	1726.937500	90.109756
23202.703936	2450.441500	1725.921875	193.057510
23202.703936	2450.441500	1724.906250	27.461067
23202.703936	2450.441500	1723.890625	-119.475563
23202.703936	2450.441500	1722.875000	-28.985847
23202.703936	2450.441500	1721.858398	-49.318855
23202.703936	2450.441500	1720.841797	113.551392
23202.703936	2450.441500	1719.825195	106.858337
23202.703936	2450.441500	1718.808594	17.673361
23202.703936	2450.441500	1717.791992	304.329590
23202.703936	2450.441500	1716.774414	14.952095
23202.703936	2450.441500	1715.756836	331.579803
23202.703936	2450.441500	1714.739258	72.405350
23202.703936	2450.441500	1713.721680	-168.099365
23202.703936	2450.441500	1712.704102	213.471268
23202.703936	2450.441500	1711.685547	169.766891
23202.703936	2450.441500	1710.667969	76.599350
23202.703936	2450.441500	1709.649414	41.897434
23202.703936	2450.441500	1708.630859	42.189964
23202.703936	2450.441500	1707.611328	-189.971680
23202.703936	2450.441500	1706.592773	46.813931
23202.703936	2450.441500	1705.573242	-5.127404
23202.703936	2450.441500	1704.553711	62.304367
23202.703936	2450.441500	1703.534180	96.692856
23202.703936	2450.441500	1702.513672	-44.917175
23202.703936	2450.441500	1701.494141	-20.298061
23202.703936	2450.441500	1700.473633	-197.369827
23202.703936	2450.441500	1699.453125	-285.572327
23202.703936	2450.441500	1698.432617	-284.956573
23202.703936	2450.441500	1697.412109	-214.302048
23202.703936	2450.441500	1696.390625	12.937113
23202.703936	2450.441500	1695.369141	71.398026
23202.703936	2450.441500	1694.347656	96.887245
23202.703936	2450.441500	1693.326172	-50.935127
23202.703936	2450.441500	1692.304688	-114.686310
23202.703936	2450.441500	1691.282227	139.409317
23202.703936	2450.441500	1690.260742	2.800371
23202.703936	2450.441500	1689.238281	104.469627
23202.703936	2450.441500	1688.214844	121.758499
23202.703936	2450.441500	1687.192383	-80.758354
23202.703936	2450.441500	1686.168945	-110.518936
23202.703936	2450.441500	1685.146484	240.317734
23202.703936	2450.441500	1684.123047	-98.100998
23202.703936	2450.441500	1683.099609	77.116280
23202.703936	2450.441500	1682.075195	305.763580
23202.703936	2450.441500	1681.051758	142.075775
23202.703936	2450.441500	1680.027344	169.609283
23202.703936	2450.441500	1679.002930	374.287476
23202.703936	2450.441500	1677.978516	457.429047
23202.703936	2450.441500	1676.953125	71.589157
23202.703936	2450.441500	1675.928711	648.773743
23202.703936	2450.441500	1674.903320	558.811401
23202.703936	2450.441500	1673.877930	289.259155
23202.703936	2450.441500	1672.852539	571.965088
23202.703936	2450.441500	1671.826172	635.374451
23202.703936	2450.441500	1670.800781	747.562988
23202.703936	2450.441500	1669.774414	1008.600281
23202.703936	2450.441500	1668.748047	526.577271
23202.703936	2450.441500	1667.721680	489.281708
23202.703936	2450.441500	1666.694336	405.283325
23202.703936	2450.441500	1665.667969	619.102478
23202.703936	2450.441500	1664.640625	720.995239
23202.703936	2450.441500	1663.613281	1039.074707
23202.703936	2450.441500	1662.585938	1280.154053
23202.703936	2450.441500	1661.557617	1334.953125
23202.703936	2450.441500	1660.530273	978.120300
23202.703936	2450.441500	1659.501953	1202.416504
23202.703936	2450.441500	1658.473633	1017.471191
23202.703936	2450.441500	1657.444336	1234.451050
23202.703936	2450.441500	1656.416016	1335.106812
23202.703936	2450.441500	1655.386719	1245.124756
23202.703936	2450.441500	1654.358398	1475.582275
23202.703936	2450.441500	1653.328125	1448.066895
23202.703936	2450.441500	1652.298828	1552.815063
23202.703936	2450.441500	1651.269531	1717.772583
23202.703936	2450.441500	1650.239258	1664.419922
23202.703936	2450.441500	1649.208984	1817.483398
23202.703936	2450.441500	1648.178711	1977.360229
23202.703936	2450.441500	1647.148438	2561.496582
23202.703936	2450.441500	1646.117188	2315.201172
23202.703936	2450.441500	1645.086914	2333.236572
23202.703936	2450.441500	1644.055664	2735.914063
23202.703936	2450.441500	1643.024414	2776.856934
23202.703936	2450.441500	1641.992188	2859.390869
23202.703936	2450.441500	1640.960938	3185.083984
23202.703936	2450.441500	1639.928711	3378.545654
23202.703936	2450.441500	1638.896484	3708.489502
23202.703936	2450.441500	1637.864258	3464.102051
23202.703936	2450.441500	1636.832031	3599.358643
23202.703936	2450.441500	1635.798828	3880.276611
23202.703936	2450.441500	1634.766602	4348.484863
23202.703936	2450.441500	1633.733398	3909.612305
23202.703936	2450.441500	1632.699219	4018.988281
23202.703936	2450.441500	1631.666016	4172.249512
23202.703936	2450.441500	1630.632813	4336.973633
23202.703936	2450.441500	1629.598633	4115.546875
23202.703936	2450.441500	1628.564453	4418.788574
23202.703936	2450.441500	1627.530273	4689.537109
23202.703936	2450.441500	1626.495117	4724.485840
23202.703936	2450.441500	1625.460938	5297.600098
23202.703936	2450.441500	1624.425781	5103.757813
23202.703936	2450.441500	1623.390625	5090.068359
23202.703936	2450.441500	1622.355469	4942.482910
23202.703936	2450.441500	1621.319336	5175.724609
23202.703936	2450.441500	1620.284180	5157.388672
23202.703936	2450.441500	1619.248047	4730.677246
23202.703936	2450.441500	1618.211914	5033.011719
23202.703936	2450.441500	1617.174805	4864.753906
23202.703936	2450.441500	1616.138672	4837.239746
23202.703936	2450.441500	1615.101563	4648.352051
23202.703936	2450.441500	1614.065430	4346.645508
23202.703936	2450.441500	1613.027344	4420.619629
23202.703936	2450.441500	1611.990234	4533.778809
23202.703936	2450.441500	1610.953125	4584.725098
23202.703936	2450.441500	1609.915039	4584.975586
23202.703936	2450.441500	1608.876953	4824.722168
23202.703936	2450.441500	1607.838867	4544.132324
23202.703936	2450.441500	1606.800781	4335.035156
23202.703936	2450.441500	1605.761719	4289.415039
23202.703936	2450.441500	1604.723633	4676.421387
23202.703936	2450.441500	1603.684570	4467.512695
23202.703936	2450.441500	1602.644531	4525.486816
23202.703936	2450.441500	1601.605469	4721.481445
23202.703936	2450.441500	1600.566406	4466.856445
23202.703936	2450.441500	1599.526367	4632.983398
23202.703936	2450.441500	1598.486328	4900.219238
23202.703936	2450.441500	1597.446289	5206.473145
23202.703936	2450.441500	1596.405273	4878.625488
23202.703936	2450.441500	1595.365234	5262.983887
23202.703936	2450.441500	1594.324219	5031.836426
23202.703936	2450.441500	1593.283203	5179.665039
23202.703936	2450.441500	1592.242188	5155.354980
23202.703936	2450.441500	1591.200195	4917.681152
23202.703936	2450.441500	1590.159180	5077.158691
23202.703936	2450.441500	1589.117188	5495.852539
23202.703936	2450.441500	1588.075195	5116.310547
23202.703936	2450.441500	1587.032227	5055.726074
23202.703936	2450.441500	1585.990234	5355.237793
23202.703936	2450.441500	1584.947266	5196.255859
23202.703936	2450.441500	1583.904297	5284.952637
23202.703936	2450.441500	1582.861328	5417.252930
23202.703936	2450.441500	1581.818359	5176.199219
23202.703936	2450.441500	1580.775391	5459.855957
23202.703936	2450.441500	1579.731445	5372.507324
23202.703936	2450.441500	1578.687500	5580.664551
23202.703936	2450.441500	1577.643555	5129.600098
23202.703936	2450.441500	1576.598633	5012.949219
23202.703936	2450.441500	1575.554688	4951.411621
23202.703936	2450.441500	1574.509766	4958.632813
23202.703936	2450.441500	1573.464844	4993.433594
23202.703936	2450.441500	1572.419922	4445.202637
23202.703936	2450.441500	1571.374023	4176.240234
23202.703936	2450.441500	1570.329102	4177.294922
23202.703936	2450.441500	1569.283203	3968.193848
23202.703936	2450.441500	1568.237305	3720.479248
23202.703936	2450.441500	1567.191406	3843.114502
23202.703936	2450.441500	1566.144531	3641.478027
23202.703936	2450.441500	1565.098633	3522.313477
23202.703936	2450.441500	1564.051758	3458.125000
23202.703936	2450.441500	1563.004883	3279.981201
23202.703936	2450.441500	1561.957031	3417.007080
23202.703936	2450.441500	1560.910156	3268.936768
23202.703936	2450.441500	1559.862305	3718.807373
23202.703936	2450.441500	1558.814453	3347.506836
23202.703936	2450.441500	1557.766602	3535.267822
23202.703936	2450.441500	1556.718750	3187.300293
23202.703936	2450.441500	1555.669922	3375.347656
23202.703936	2450.441500	1554.621094	3631.878662
23202.703936	2450.441500	1553.573242	3505.685791
23202.703936	2450.441500	1552.523438	3725.984131
23202.703936	2450.441500	1551.474609	3358.715576
23202.703936	2450.441500	1550.424805	3374.370361
23202.703936	2450.441500	1549.375000	3365.166016
23202.703936	2450.441500	1548.325195	3422.183105
23202.703936	2450.441500	1547.275391	3188.037354
23202.703936	2450.441500	1546.225586	3325.117920
23202.703936	2450.441500	1545.174805	2743.361328
23202.703936	2450.441500	1544.124023	3133.359375
23202.703936	2450.441500	1543.073242	3136.782471
23202.703936	2450.441500	1542.022461	3108.585938
23202.703936	2450.441500	1540.970703	2944.183594
23202.703936	2450.441500	1539.919922	3414.243164
23202.703936	2450.441500	1538.868164	3236.648682
23202.703936	2450.441500	1537.815430	3302.434326
23202.703936	2450.441500	1536.763672	3543.355713
23202.703936	2450.441500	1535.710938	3445.982422
23202.703936	2450.441500	1534.659180	3326.194336
23202.703936	2450.441500	1533.606445	3381.467529
23202.703936	2450.441500	1532.552734	3216.765869
23202.703936	2450.441500	1531.500000	3358.744873
23202.703936	2450.441500	1530.446289	3251.308350
23202.703936	2450.441500	1529.393555	3384.626465
23202.703936	2450.441500	1528.338867	3186.967041
23202.703936	2450.441500	1527.285156	3347.925781
23202.703936	2450.441500	1526.231445	3028.438232
23202.703936	2450.441500	1525.176758	2892.905762
23202.703936	2450.441500	1524.122070	2361.083252
23202.703936	2450.441500	1523.067383	2645.410400
23202.703936	2450.441500	1522.012695	2363.545166
23202.703936	2450.441500	1520.957031	2634.659424
23202.703936	2450.441500	1519.901367	2083.936768
23202.703936	2450.441500	1518.845703	2262.695557
23202.703936	2450.441500	1517.790039	2217.558350
23202.703936	2450.441500	1516.734375	2122.914063
23202.703936	2450.441500	1515.677734	1892.796265
23202.703936	2450.441500	1514.621094	1687.923096
23202.703936	2450.441500	1513.564453	1895.039917
23202.703936	2450.441500	1512.507813	2011.892822
23202.703936	2450.441500	1511.450195	1988.786255
23202.703936	2450.441500	1510.393555	1550.062988
23202.703936	2450.441500	1509.335938	1699.364258
23202.703936	2450.441500	1508.278320	1335.976440
23202.703936	2450.441500	1507.219727	1605.537109
23202.703936	2450.441500	1506.162109	1240.615234
23202.703936	2450.441500	1505.103516	1013.856201
23202.703936	2450.441500	1504.044922	974.863281
23202.703936	2450.441500	1502.986328	1139.327271
23202.703936	2450.441500	1501.926758	999.328552
23202.703936	2450.441500	1500.868164	832.612976
23202.703936	2450.441500	1499.808594	736.173950
23202.703936	2450.441500	1498.749023	660.367371
23202.703936	2450.441500	1497.688477	878.026428
23202.703936	2450.441500	1496.628906	850.156494
23202.703936	2450.441500	1495.568359	576.881958
23202.703936	2450.441500	1494.507813	635.307556
23202.703936	2450.441500	1493.447266	786.391235
23202.703936	2450.441500	1492.386719	611.059875
23202.703936	2450.441500	1491.325195	942.870972
23202.703936	2450.441500	1490.263672	554.242188
23202.703936	2450.441500	1489.202148	521.803467
23202.703936	2450.441500	1488.140625	586.475586
23202.703936	2450.441500	1487.079102	453.380585
23202.703936	2450.441500	1486.016602	802.161133
23202.703936	2450.441500	1484.954102	498.708099
23202.703936	2450.441500	1483.891602	344.135498
23202.703936	2450.441500	1482.829102	16.780071
23202.703936	2450.441500	1481.765625	312.637115
23202.703936	2450.441500	1480.702148	258.029785
23202.703936	2450.441500	1479.638672	39.685329
23202.703936	2450.441500	1478.575195	-149.016724
23202.703936	2450.441500	1477.511719	-310.341339
23202.703936	2450.441500	1476.447266	-341.079041
23202.703936	2450.441500	1475.382813	-160.429779
23202.703936	2450.441500	1474.318359	-244.375427
23202.703936	2450.441500	1473.253906	-2.581501
23202.703936	2450.441500	1472.189453	-85.910820
23202.703936	2450.441500	1471.124023	59.839645
23202.703936	2450.441500	1470.058594	-67.572701
23202.703936	2450.441500	1468.993164	114.483383
23202.703936	2450.441500	1467.927734	86.578560
23202.703936	2450.441500	1466.861328	132.727478
23202.703936	2450.441500	1465.794922	89.756538
23202.703936	2450.441500	1464.728516	432.468750
23202.703936	2450.441500	1463.662109	392.122101
23202.703936	2450.441500	1462.594727	372.121063
23202.703936	2450.441500	1461.528320	930.011169
23202.703936	2450.441500	1460.460938	310.048553
23202.703936	2450.441500	1459.393555	418.741241
23202.703936	2450.441500	1458.326172	341.229889
23202.703936	2450.441500	1457.257813	618.342163
23202.703936	2450.441500	1456.189453	622.602661
23202.703936	2450.441500	1455.121094	782.052368
23202.703936	2450.441500	1454.052734	693.130737
23202.703936	2450.441500	1452.984375	649.708740
23202.703936	2450.441500	1451.915039	662.619263
23202.703936	2450.441500	1450.845703	577.357971
23202.703936	2450.441500	1449.776367	291.174683
23202.703936	2450.441500	1448.707031	730.094604
23202.703936	2450.441500	1447.636719	649.979004
23202.703936	2450.441500	1446.567383	677.225952
23202.703936	2450.441500	1445.497070	927.753906
23202.703936	2450.441500	1444.425781	802.772400
23202.703936	2450.441500	1443.355469	1076.761597
23202.703936	2450.441500	1442.285156	918.653625
23202.703936	2450.441500	1441.213867	923.387634
23202.703936	2450.441500	1440.142578	1402.658936
23202.703936	2450.441500	1439.070313	1133.290039
23202.703936	2450.441500	1437.999023	1408.505981
23202.703936	2450.441500	1436.926758	1467.470093
23202.703936	2450.441500	1435.854492	1705.515015
23202.703936	2450.441500	1434.782227	1472.030762
23202.703936	2450.441500	1433.709961	1631.061890
23202.703936	2450.441500	1432.636719	1866.723267
23202.703936	2450.441500	1431.563477	1794.434326
23202.703936	2450.441500	1430.490234	1935.797974
23202.703936	2450.441500	1429.416992	1801.973633
23202.703936	2450.441500	1428.343750	1517.610840
23202.703936	2450.441500	1427.269531	957.240112
23202.703936	2450.441500	1426.195313	608.513672
23202.703936	2450.441500	1425.121094	623.594727
23202.703936	2450.441500	1424.046875	360.634674
23202.703936	2450.441500	1422.971680	460.133911
23202.703936	2450.441500	1421.896484	270.967834
23202.703936	2450.441500	1420.821289	330.301544
23202.703936	2450.441500	1419.746094	634.331299
23202.703936	2450.441500	1418.669922	148.302673
23202.703936	2450.441500	1417.594727	86.426979
23202.703936	2450.441500	1416.518555	202.874176
23202.703936	2450.441500	1415.442383	296.662323
23202.703936	2450.441500	1414.365234	91.002823
23202.703936	2450.441500	1413.289063	-11.139488
23202.703936	2450.441500	1412.211914	121.126236
23202.703936	2450.441500	1411.134766	25.539499
23202.703936	2450.441500	1410.057617	150.577606
23202.703936	2450.441500	1408.979492	213.009827
23202.703936	2450.441500	1407.902344	-76.580803
23202.703936	2450.441500	1406.824219	-18.095694
23202.703936	2450.441500	1405.746094	266.603516
23202.703936	2450.441500	1404.666992	163.099564
23202.703936	2450.441500	1403.588867	170.844299
23202.703936	2450.441500	1402.509766	312.629791
23202.703936	2450.441500	1401.430664	245.063934
23202.703936	2450.441500	1400.351563	298.428467
23202.703936	2450.441500	1399.271484	440.617950
23202.703936	2450.441500	1398.192383	404.536469
23202.703936	2450.441500	1397.112305	332.279419
23202.703936	2450.441500	1396.031250	212.789474
23202.703936	2450.441500	1394.951172	699.004211
23202.703936	2450.441500	1393.871094	320.316559
23202.703936	2450.441500	1392.790039	484.913574
23202.703936	2450.441500	1391.708984	601.183655
23202.703936	2450.441500	1390.626953	130.892487
23202.703936	2450.441500	1389.545898	467.965057
23202.703936	2450.441500	1388.463867	270.512543
23202.703936	2450.441500	1387.381836	501.031647
23202.703936	2450.441500	1386.299805	700.909302
23202.703936	2450.441500	1385.217773	738.098877
23202.703936	2450.441500	1384.134766	781.816467
23202.703936	2450.441500	1383.051758	762.975708
23202.703936	2450.441500	1381.968750	1424.391235
23202.703936	2450.441500	1380.885742	1079.736816
23202.703936	2450.441500	1379.802734	1045.190552
23202.703936	2450.441500	1378.718750	1568.098511
23202.703936	2450.441500	1377.634766	1431.275146
23202.703936	2450.441500	1376.550781	1487.087891
23202.703936	2450.441500	1375.465820	1403.684204
23202.703936	2450.441500	1374.381836	1445.034912
23202.703936	2450.441500	1373.296875	1375.743896
23202.703936	2450.441500	1372.211914	1356.058105
23202.703936	2450.441500	1371.126953	1490.073242
23202.703936	2450.441500	1370.041016	1601.160522
23202.703936	2450.441500	1368.955078	1423.767212
23202.703936	2450.441500	1367.869141	1473.602417
23202.703936	2450.441500	1366.783203	1424.066162
23202.703936	2450.441500	1365.697266	1136.056885
23202.703936	2450.441500	1364.610352	1105.521118
23202.703936	2450.441500	1363.523438	1157.326782
23202.703936	2450.441500	1362.436523	1298.581177
23202.703936	2450.441500	1361.349609	1076.871948
23202.703936	2450.441500	1360.261719	1329.451172
23202.703936	2450.441500	1359.174805	1095.419678
23202.703936	2450.441500	1358.086914	1084.840576
23202.703936	2450.441500	1356.998047	876.739624
23202.703936	2450.441500	1355.910156	1186.923462
23202.703936	2450.441500	1354.821289	774.190674
23202.703936	2450.441500	1353.732422	690.914978
23202.703936	2450.441500	1352.643555	935.416504
23202.703936	2450.441500	1351.554688	684.073608
23202.703936	2450.441500	1350.464844	803.237793
23202.703936	2450.441500	1349.375000	1122.420532
23202.703936	2450.441500	1348.285156	1147.467285
23202.703936	2450.441500	1347.195313	1134.082520
23202.703936	2450.441500	1346.105469	1212.969116
23202.703936	2450.441500	1345.014648	1017.139343
23202.703936	2450.441500	1343.923828	1236.359619
23202.703936	2450.441500	1342.833008	1356.965576
23202.703936	2450.441500	1341.741211	1668.409302
23202.703936	2450.441500	1340.650391	1374.402222
23202.703936	2450.441500	1339.558594	1209.869263
23202.703936	2450.441500	1338.466797	1141.354858
23202.703936	2450.441500	1337.374023	860.603271
23202.703936	2450.441500	1336.282227	794.357483
23202.703936	2450.441500	1335.189453	828.694031
23202.703936	2450.441500	1334.096680	1040.826782
23202.703936	2450.441500	1333.003906	1080.216187
23202.703936	2450.441500	1331.910156	683.354980
23202.703936	2450.441500	1330.817383	768.199524
23202.703936	2450.441500	1329.723633	1284.278931
23202.703936	2450.441500	1328.629883	736.499756
23202.703936	2450.441500	1327.535156	736.581787
23202.703936	2450.441500	1326.441406	987.126648
23202.703936	2450.441500	1325.346680	1069.770142
23202.703936	2450.441500	1324.251953	1039.927856
23202.703936	2450.441500	1323.156250	1136.216675
23202.703936	2450.441500	1322.061523	1268.020264
23202.703936	2450.441500	1320.965820	934.129822
23202.703936	2450.441500	1319.870117	977.389954
23202.703936	2450.441500	1318.774414	997.831299
23202.703936	2450.441500	1317.678711	917.533325
23202.703936	2450.441500	1316.582031	936.015930
23202.703936	2450.441500	1315.485352	1082.875366
23202.703936	2450.441500	1314.388672	1386.431152
23202.703936	2450.441500	1313.291016	1346.600098
23202.703936	2450.441500	1312.194336	1473.613159
23202.703936	2450.441500	1311.096680	1626.105469
23202.703936	2450.441500	1309.999023	1283.057373
23202.703936	2450.441500	1308.901367	1836.114502
23202.703936	2450.441500	1307.802734	1607.981323
23202.703936	2450.441500	1306.705078	1567.153320
23202.703936	2450.441500	1305.606445	1742.573364
23202.703936	2450.441500	1304.506836	1515.004639
23202.703936	2450.441500	1303.408203	1555.397095
23202.703936	2450.441500	1302.308594	1558.022217
23202.703936	2450.441500	1301.208984	1348.798828
23202.703936	2450.441500	1300.109375	1518.769287
23202.703936	2450.441500	1299.009766	1542.942627
23202.703936	2450.441500	1297.909180	1476.252686
23202.703936	2450.441500	1296.808594	1398.674438
23202.703936	2450.441500	1295.708008	1403.342041
23202.703936	2450.441500	1294.607422	1309.467529
23202.703936	2450.441500	1293.506836	984.874695
23202.703936	2450.441500	1292.405273	1105.536499
23202.703936	2450.441500	1291.303711	792.916016
23202.703936	2450.441500	1290.202148	735.877808
23202.703936	2450.441500	1289.099609	551.612122
23202.703936	2450.441500	1287.998047	732.740295
23202.703936	2450.441500	1286.895508	464.813477
23202.703936	2450.441500	1285.792969	260.100983
23202.703936	2450.441500	1284.689453	72.619469
23202.703936	2450.441500	1283.586914	142.462555
23202.703936	2450.441500	1282.483398	81.974754
23202.703936	2450.441500	1281.379883	102.536514
23202.703936	2450.441500	1280.276367	-80.889946
23202.703936	2450.441500	1279.171875	191.714188
23202.703936	2450.441500	1278.067383	9.613967
23202.703936	2450.441500	1276.962891	103.101707
23202.703936	2450.441500	1275.858398	-47.723660
23202.703936	2450.441500	1274.753906	106.174324
23202.703936	2450.441500	1273.648438	-80.505630
23202.703936	2450.441500	1272.542969	27.167383
23202.703936	2450.441500	1271.437500	-33.317047
23202.703936	2450.441500	1270.331055	258.556305
23202.703936	2450.441500	1269.225586	64.575417
23202.703936	2450.441500	1268.119141	194.210876
23202.703936	2450.441500	1267.012695	61.080948
23202.703936	2450.441500	1265.906250	-217.957535
23202.703936	2450.441500	1264.798828	65.847092
23202.703936	2450.441500	1263.691406	-78.433792
23202.703936	2450.441500	1262.583984	-93.539063
23202.703936	2450.441500	1261.476563	106.944778
23202.703936	2450.441500	1260.368164	-37.519604
23202.703936	2450.441500	1259.260742	140.324341
23202.703936	2450.441500	1258.152344	-142.062286
23202.703936	2450.441500	1257.043945	94.180946
23202.703936	2450.441500	1255.934570	25.303850
23202.703936	2450.441500	1254.825195	223.684464
23202.703936	2450.441500	1253.716797	140.452774
23202.703936	2450.441500	1252.606445	168.876877
23202.703936	2450.441500	1251.497070	12.922079
23202.703936	2450.441500	1250.387695	-114.206696
23202.703936	2450.441500	1249.277344	-130.966660
23202.703936	2450.441500	1248.166992	-143.835159
23202.703936	2450.441500	1247.055664	43.724724
23202.703936	2450.441500	1245.945313	-22.164907
23202.703936	2450.441500	1244.833984	120.634659
23202.703936	2450.441500	1243.722656	-211.633102
23202.703936	2450.441500	1242.611328	-92.511543
23202.703936	2450.441500	1241.499023	-108.223610
23202.703936	2450.441500	1240.387695	-11.142952
23202.703936	2450.441500	1239.275391	-68.015854
23202.703936	2450.441500	1238.162109	129.075195
23202.703936	2450.441500	1237.049805	79.211868
23202.703936	2450.441500	1235.936523	-44.463623
23202.703936	2450.441500	1234.823242	-4.828534
23202.703936	2450.441500	1233.709961	0.282858
23202.703936	2450.441500	1232.596680	104.874184
23202.703936	2450.441500	1231.482422	298.485931
23202.703936	2450.441500	1230.369141	171.819534
23202.703936	2450.441500	1229.253906	76.668678
23202.703936	2450.441500	1228.139648	32.237278
23202.703936	2450.441500	1227.025391	256.686920
23202.703936	2450.441500	1225.910156	317.995361
23202.703936	2450.441500	1224.794922	332.362091
23202.703936	2450.441500	1223.679688	281.312378
23202.703936	2450.441500	1222.563477	345.220337
23202.703936	2450.441500	1221.447266	246.850098
23202.703936	2450.441500	1220.331055	223.949646
23202.703936	2450.441500	1219.214844	295.102844
23202.703936	2450.441500	1218.098633	127.108498
23202.703936	2450.441500	1216.981445	108.834579
23202.703936	2450.441500	1215.864258	-35.507065
23202.703936	2450.441500	1214.747070	-60.932068
23202.703936	2450.441500	1213.629883	-43.856445
23202.703936	2450.441500	1212.511719	72.095375
23202.703936	2450.441500	1211.393555	-118.762817
23202.703936	2450.441500	1210.275391	104.942062
23202.703936	2450.441500	1209.157227	-100.662941
23202.703936	2450.441500	1208.038086	80.067009
23202.703936	2450.441500	1206.918945	-228.042191
23202.703936	2450.441500	1205.799805	103.628723
23202.703936	2450.441500	1204.680664	-108.511887
23202.703936	2450.441500	1203.560547	-65.069466
23202.703936	2450.441500	1202.441406	120.868492
23202.703936	2450.441500	1201.321289	-176.903275
23202.703936	2450.441500	1200.200195	-146.091873
23202.703936	2450.441500	1199.080078	-107.092728
23202.703936	2450.441500	1197.958984	-143.051102
23202.703936	2450.441500	1196.837891	130.037643
23202.703936	2450.441500	1195.716797	-59.455082
23202.703936	2450.441500	1194.594727	-208.008423
23202.703936	2450.441500	1193.473633	-77.286232
23202.703936	2450.441500	1192.351563	-67.221802
23202.703936	2450.441500	1191.229492	111.045601
23202.703936	2450.441500	1190.106445	-19.621727
23202.703936	2450.441500	1188.984375	-174.015594
23202.703936	2450.441500	1187.861328	-128.484146
23202.703936	2450.441500	1186.738281	-40.937630
23202.703936	2450.441500	1185.614258	161.864807
23202.703936	2450.441500	1184.491211	163.690933
23202.703936	2450.441500	1183.367188	112.789429
23202.703936	2450.441500	1182.243164	20.926386
23202.703936	2450.441500	1181.119141	218.225433
23202.703936	2450.441500	1179.994141	74.503082
23202.703936	2450.441500	1178.869141	-82.952660
23202.703936	2450.441500	1177.744141	237.231903
23202.703936	2450.441500	1176.619141	257.623840
23202.703936	2450.441500	1175.493164	138.384979
23202.703936	2450.441500	1174.368164	237.642899
23202.703936	2450.441500	1173.242188	-62.611580
23202.703936	2450.441500	1172.115234	176.325027
23202.703936	2450.441500	1170.989258	57.649525
23202.703936	2450.441500	1169.862305	-144.985886
23202.703936	2450.441500	1168.735352	-135.153214
23202.703936	2450.441500	1167.608398	28.021458
23202.703936	2450.441500	1166.481445	-148.015686
23202.703936	2450.441500	1165.353516	-125.385063
23202.703936	2450.441500	1164.225586	2.906403
23202.703936	2450.441500	1163.097656	238.470978
23202.703936	2450.441500	1161.968750	-36.692940
23202.703936	2450.441500	1160.840820	-82.442596
23202.703936	2450.441500	1159.711914	16.231367
23202.703936	2450.441500	1158.583008	234.510330
23202.703936	2450.441500	1157.453125	22.425396
23202.703936	2450.441500	1156.324219	-152.973190
23202.703936	2450.441500	1155.194336	-52.206413
23202.703936	2450.441500	1154.064453	-118.289497
23202.703936	2450.441500	1152.933594	11.960526
23202.703936	2450.441500	1151.803711	-67.750572
23202.703936	2450.441500	1150.672852	-219.874512
23202.703936	2450.441500	1149.541992	-71.099670
23202.703936	2450.441500	1148.411133	-55.961926
23202.703936	2450.441500	1147.279297	113.672264
23202.703936	2450.441500	1146.147461	3.054464
23202.703936	2450.441500	1145.015625	-8.782751
23202.703936	2450.441500	1143.883789	25.388531
23202.703936	2450.441500	1142.750977	58.902512
23202.703936	2450.441500	1141.619141	116.159233
23202.703936	2450.441500	1140.486328	274.847107
23202.703936	2450.441500	1139.352539	371.810883
23202.703936	2450.441500	1138.219727	344.613678
23202.703936	2450.441500	1137.085938	399.833679
23202.703936	2450.441500	1135.952148	612.979919
23202.703936	2450.441500	1134.818359	600.975708
23202.703936	2450.441500	1133.683594	504.242218
23202.703936	2450.441500	1132.549805	513.652771
23202.703936	2450.441500	1131.415039	1102.194336
23202.703936	2450.441500	1130.279297	1052.336792
23202.703936	2450.441500	1129.144531	1185.634155
23202.703936	2450.441500	1128.008789	1012.088257
23202.703936	2450.441500	1126.873047	1055.375366
23202.703936	2450.441500	1125.737305	1006.343079
23202.703936	2450.441500	1124.601563	906.532043
23202.703936	2450.441500	1123.464844	817.934448
23202.703936	2450.441500	1122.328125	768.618103
23202.703936	2450.441500	1121.191406	464.106293
23202.703936	2450.441500	1120.054688	762.586365
23202.703936	2450.441500	1118.916992	850.934753
23202.703936	2450.441500	1117.779297	613.094849
23202.703936	2450.441500	1116.641602	833.445557
23202.703936	2450.441500	1115.503906	693.389221
23202.703936	2450.441500	1114.365234	666.569214
23202.703936	2450.441500	1113.226563	663.742249
23202.703936	2450.441500	1112.087891	721.701294
23202.703936	2450.441500	1110.949219	670.262939
23202.703936	2450.441500	1109.809570	417.392212
23202.703936	2450.441500	1108.669922	465.834839
23202.703936	2450.441500	1107.530273	539.594849
23202.703936	2450.441500	1106.390625	640.137268
23202.703936	2450.441500	1105.250000	551.713806
23202.703936	2450.441500	1104.109375	586.168518
23202.703936	2450.441500	1102.968750	637.628540
23202.703936	2450.441500	1101.828125	821.891052
23202.703936	2450.441500	1100.686523	812.119324
23202.703936	2450.441500	1099.544922	728.677612
23202.703936	2450.441500	1098.403320	1012.544739
23202.703936	2450.441500	1097.261719	931.648865
23202.703936	2450.441500	1096.120117	961.972656
23202.703936	2450.441500	1094.977539	906.627930
23202.703936	2450.441500	1093.834961	947.849121
23202.703936	2450.441500	1092.691406	752.355164
23202.703936	2450.441500	1091.548828	767.986450
23202.703936	2450.441500	1090.405273	803.950073
23202.703936	2450.441500	1089.261719	850.318909
23202.703936	2450.441500	1088.118164	639.579712
23202.703936	2450.441500	1086.973633	700.566162
23202.703936	2450.441500	1085.829102	574.621094
23202.703936	2450.441500	1084.684570	638.471741
23202.703936	2450.441500	1083.540039	488.843170
23202.703936	2450.441500	1082.395508	597.780945
23202.703936	2450.441500	1081.250000	833.862122
23202.703936	2450.441500	1080.104492	771.791809
23202.703936	2450.441500	1078.958984	906.535522
23202.703936	2450.441500	1077.812500	795.792969
23202.703936	2450.441500	1076.666016	626.842041
23202.703936	2450.441500	1075.519531	836.683411
23202.703936	2450.441500	1074.373047	742.767029
23202.703936	2450.441500	1073.226563	1026.828003
23202.703936	2450.441500	1072.079102	801.684570
23202.703936	2450.441500	1070.931641	814.310730
23202.703936	2450.441500	1069.784180	616.797119
23202.703936	2450.441500	1068.635742	901.877625
23202.703936	2450.441500	1067.487305	889.257202
23202.703936	2450.441500	1066.338867	899.965942
23202.703936	2450.441500	1065.190430	1066.914917
23202.703936	2450.441500	1064.041992	679.940979
23202.703936	2450.441500	1062.892578	892.869019
23202.703936	2450.441500	1061.743164	970.955688
23202.703936	2450.441500	1060.593750	913.906921
23202.703936	2450.441500	1059.443359	902.877502
23202.703936	2450.441500	1058.292969	777.813904
23202.703936	2450.441500	1057.142578	521.861633
23202.703936	2450.441500	1055.992188	818.468811
23202.703936	2450.441500	1054.841797	521.908081
23202.703936	2450.441500	1053.690430	687.993591
23202.703936	2450.441500	1052.539063	958.489075
23202.703936	2450.441500	1051.387695	683.239258
23202.703936	2450.441500	1050.235352	590.696777
23202.703936	2450.441500	1049.083984	648.889099
23202.703936	2450.441500	1047.931641	730.493774
23202.703936	2450.441500	1046.778320	568.103210
23202.703936	2450.441500	1045.625977	561.689087
23202.703936	2450.441500	1044.472656	543.539551
23202.703936	2450.441500	1043.319336	466.382294
23202.703936	2450.441500	1042.166016	661.692993
23202.703936	2450.441500	1041.012695	432.168121
23202.703936	2450.441500	1039.858398	465.608856
23202.703936	2450.441500	1038.704102	461.540344
23202.703936	2450.441500	1037.549805	439.555511
23202.703936	2450.441500	1036.394531	463.367340
23202.703936	2450.441500	1035.239258	559.159546
23202.703936	2450.441500	1034.083984	378.140350
23202.703936	2450.441500	1032.928711	611.920349
23202.703936	2450.441500	1031.773438	564.182434
23202.703936	2450.441500	1030.617188	722.308899
23202.703936	2450.441500	1029.460938	470.196991
23202.703936	2450.441500	1028.304688	648.129272
23202.703936	2450.441500	1027.147461	538.411499
23202.703936	2450.441500	1025.991211	688.043152
23202.703936	2450.441500	1024.833984	149.103302
23202.703936	2450.441500	1023.675781	375.397583
23202.703936	2450.441500	1022.518555	336.984619
23202.703936	2450.441500	1021.360352	347.759369
23202.703936	2450.441500	1020.202148	611.141479
23202.703936	2450.441500	1019.043945	235.673218
23202.703936	2450.441500	1017.884766	329.870697
23202.703936	2450.441500	1016.726563	147.422455
23202.703936	2450.441500	1015.567383	333.648224
23202.703936	2450.441500	1014.407227	350.679871
23202.703936	2450.441500	1013.248047	380.456604
23202.703936	2450.441500	1012.087891	578.606201
23202.703936	2450.441500	1010.927734	336.562775
23202.703936	2450.441500	1009.767578	430.360931
23202.703936	2450.441500	1008.606445	340.392853
23202.703936	2450.441500	1007.446289	226.253128
23202.703936	2450.441500	1006.285156	318.744232
23202.703936	2450.441500	1005.123047	303.425873
23202.703936	2450.441500	1003.961914	266.504425
23202.703936	2450.441500	1002.799805	174.324890
23202.703936	2450.441500	1001.637695	661.736328
23202.703936	2450.441500	1000.475586	472.966644
23202.703936	2450.441500	999.312500	445.387848
23202.703936	2450.441500	998.149414	491.216431
23202.703936	2450.441500	996.986328	315.319031
23202.703936	2450.441500	995.823242	352.806396
23202.703936	2450.441500	994.659180	262.561859
23202.703936	2450.441500	993.496094	478.660645
23202.703936	2450.441500	992.332031	290.192261
23202.703936	2450.441500	991.166992	431.985931
23202.703936	2450.441500	990.002930	457.431793
23202.703936	2450.441500	988.837891	190.279037
23202.703936	2450.441500	987.672852	72.403137
23202.703936	2450.441500	986.506836	177.563873
23202.703936	2450.441500	985.341797	313.958557
23202.703936	2450.441500	984.175781	29.994003
23202.703936	2450.441500	983.009766	150.534256
23202.703936	2450.441500	981.843750	-48.630276
23202.703936	2450.441500	980.676758	-2.609294
23202.703936	2450.441500	979.509766	205.998520
23202.703936	2450.441500	978.342773	263.747253
23202.703936	2450.441500	977.175781	56.085499
23202.703936	2450.441500	976.007813	48.616180
23202.703936	2450.441500	974.839844	277.684235
23202.703936	2450.441500	973.671875	16.113226
23202.703936	2450.441500	972.503906	368.259979
23202.703936	2450.441500	971.334961	200.434128
23202.703936	2450.441500	970.166016	244.324631
23202.703936	2450.441500	968.997070	219.559723
23202.703936	2450.441500	967.828125	60.279362
23202.703936	2450.441500	966.658203	347.289093
23202.703936	2450.441500	965.488281	368.549500
23202.703936	2450.441500	964.318359	352.805969
23202.703936	2450.441500	963.148438	121.098869
23202.703936	2450.441500	961.977539	40.602623
23202.703936	2450.441500	960.806641	239.526047
23202.703936	2450.441500	959.635742	22.889910
23202.703936	2450.441500	958.463867	283.784515
23202.703936	2450.441500	957.292969	282.636383
23202.703936	2450.441500	956.121094	279.613129
23202.703936	2450.441500	954.948242	104.387688
23202.703936	2450.441500	953.776367	72.724731
23202.703936	2450.441500	952.603516	123.994682
23202.703936	2450.441500	951.430664	347.394928
23202.703936	2450.441500	950.257813	367.284027
23202.703936	2450.441500	949.084961	-18.721588
23202.703936	2450.441500	947.911133	-204.612213
23202.703936	2450.441500	946.737305	132.137787
23202.703936	2450.441500	945.563477	128.902588
23202.703936	2450.441500	944.388672	12.422256
23202.703936	2450.441500	943.213867	80.370941
23202.703936	2450.441500	942.039063	42.642296
23202.703936	2450.441500	940.864258	224.567459
23202.703936	2450.441500	939.688477	113.292572
23202.703936	2450.441500	938.513672	58.417122
23202.703936	2450.441500	937.337891	160.204926
23202.703936	2450.441500	936.161133	457.133484
23202.703936	2450.441500	934.985352	521.956726
23202.703936	2450.441500	933.808594	297.709686
23202.703936	2450.441500	932.631836	452.908569
23202.703936	2450.441500	931.454102	573.826111
23202.703936	2450.441500	930.277344	628.440979
23202.703936	2450.441500	929.099609	859.122070
23202.703936	2450.441500	927.921875	696.016357
23202.703936	2450.441500	926.743164	738.337891
23202.703936	2450.441500	925.565430	587.436523
23202.703936	2450.441500	924.386719	571.012939
23202.703936	2450.441500	923.208008	310.178986
23202.703936	2450.441500	922.028320	616.330200
23202.703936	2450.441500	920.849609	328.662323
23202.703936	2450.441500	919.669922	333.565155
23202.703936	2450.441500	919.474609	229.975922
23202.703936	2450.441500	918.309570	489.417236
23202.703936	2450.441500	917.143555	231.122742
23202.703936	2450.441500	915.977539	72.997299
23202.703936	2450.441500	914.810547	-163.177078
23202.703936	2450.441500	913.644531	191.221191
23202.703936	2450.441500	912.477539	196.601120
23202.703936	2450.441500	911.310547	-166.343384
23202.703936	2450.441500	910.143555	48.792587
23202.703936	2450.441500	908.975586	132.169785
23202.703936	2450.441500	907.807617	-254.959274
23202.703936	2450.441500	906.639648	13.634489
23202.703936	2450.441500	905.471680	-402.583557
23202.703936	2450.441500	904.303711	-90.245682
23202.703936	2450.441500	903.134766	-150.695206
23202.703936	2450.441500	901.965820	-103.988235
23202.703936	2450.441500	900.796875	242.145218
23202.703936	2450.441500	899.626953	-52.046440
23202.703936	2450.441500	898.457031	-112.500198
23202.703936	2450.441500	897.287109	9.542150
23202.703936	2450.441500	896.117188	7.461868
23202.703936	2450.441500	894.947266	126.976120
23202.703936	2450.441500	893.776367	236.710114
23202.703936	2450.441500	892.605469	392.582275
23202.703936	2450.441500	891.434570	178.919067
23202.703936	2450.441500	890.262695	230.226501
23202.703936	2450.441500	889.091797	208.608673
23202.703936	2450.441500	887.919922	101.973709
23202.703936	2450.441500	886.748047	187.239975
23202.703936	2450.441500	885.575195	148.628159
23202.703936	2450.441500	884.403320	219.265823
23202.703936	2450.441500	883.230469	-13.526967
23202.703936	2450.441500	882.057617	108.062637
23202.703936	2450.441500	880.883789	3.964224
23202.703936	2450.441500	879.710938	-78.272827
23202.703936	2450.441500	878.537109	-228.387161
23202.703936	2450.441500	877.362305	142.869308
23202.703936	2450.441500	876.188477	363.661163
23202.703936	2450.441500	875.013672	-77.316742
23202.703936	2450.441500	873.839844	203.996658
23202.703936	2450.441500	872.664063	371.325134
23202.703936	2450.441500	871.489258	-132.385208
23202.703936	2450.441500	870.313477	226.245850
23202.703936	2450.441500	869.138672	20.568401
23202.703936	2450.441500	867.962891	-8.312743
23202.703936	2450.441500	866.786133	134.649139
23202.703936	2450.441500	865.610352	161.393967
23202.703936	2450.441500	864.433594	-17.514603
23202.703936	2450.441500	863.256836	183.386459
23202.703936	2450.441500	862.079102	183.485260
23202.703936	2450.441500	860.902344	19.161173
23202.703936	2450.441500	859.724609	-120.926590
23202.703936	2450.441500	858.546875	118.466171
23202.703936	2450.441500	857.368164	-123.083054
23202.703936	2450.441500	856.190430	-74.655891
23202.703936	2450.441500	855.011719	109.002441
23202.703936	2450.441500	853.833008	186.323608
23202.703936	2450.441500	852.654297	22.172470
23202.703936	2450.441500	851.474609	29.458378
23202.703936	2450.441500	850.294922	198.423508
23202.703936	2450.441500	849.115234	321.461945
23202.703936	2450.441500	847.935547	434.786133
23202.703936	2450.441500	846.754883	227.283829
23202.703936	2450.441500	845.575195	-6.675442
23202.703936	2450.441500	844.393555	-322.513489
23202.703936	2450.441500	843.212891	94.499046
23202.703936	2450.441500	842.032227	154.669769
23202.703936	2450.441500	840.850586	-192.377441
23202.703936	2450.441500	839.668945	-35.847729
23202.703936	2450.441500	838.486328	127.828049
23202.703936	2450.441500	837.304688	221.587830
23202.703936	2450.441500	836.122070	-248.029099
23202.703936	2450.441500	834.939453	-192.776779
23202.703936	2450.441500	833.756836	33.285515
23202.703936	2450.441500	832.573242	18.650591
23202.703936	2450.441500	831.389648	90.593719
23202.703936	2450.441500	830.206055	-150.149521
23202.703936	2450.441500	829.022461	-27.755650
23202.703936	2450.441500	827.838867	-78.514511
23202.703936	2450.441500	826.654297	-256.654175
23202.703936	2450.441500	825.469727	151.561523
23202.703936	2450.441500	824.284180	-129.906067
23202.703936	2450.441500	823.099609	-147.075821
23202.703936	2450.441500	821.914063	92.686562
23202.703936	2450.441500	820.728516	265.097778
23202.703936	2450.441500	819.542969	-90.686836
23202.703936	2450.441500	818.356445	-16.766703
23202.703936	2450.441500	817.169922	54.694019
23202.703936	2450.441500	815.983398	214.852600
23202.703936	2450.441500	814.796875	55.917072
23202.703936	2450.441500	813.609375	120.026100
23202.703936	2450.441500	812.422852	16.249025
23202.703936	2450.441500	811.235352	-231.337082
23202.703936	2450.441500	810.046875	-76.250923
23202.703936	2450.441500	808.859375	-81.799934
23202.703936	2450.441500	807.670898	-13.124101
23202.703936	2450.441500	806.482422	-73.846420
23202.703936	2450.441500	805.293945	-177.686691
23202.703936	2450.441500	804.104492	-140.278122
23202.703936	2450.441500	802.915039	-40.698730
23202.703936	2450.441500	801.725586	34.862900
23202.703936	2450.441500	800.536133	143.843155
23202.703936	2450.441500	799.345703	102.034439
23202.703936	2450.441500	798.155273	-16.330631
23202.703936	2450.441500	796.964844	106.793686
23202.703936	2450.441500	795.774414	-131.152344
23202.703936	2450.441500	794.583008	-10.546460
23202.703936	2450.441500	793.392578	114.732430
23202.703936	2450.441500	792.200195	-6.161561
23202.703936	2450.441500	791.008789	16.249868
23202.703936	2450.441500	789.816406	-166.776138
23202.703936	2450.441500	788.625000	-330.686523
23202.703936	2450.441500	787.432617	44.888962
23202.703936	2450.441500	786.239258	21.693079
23202.703936	2450.441500	785.046875	210.802612
23202.703936	2450.441500	783.853516	359.218323
23202.703936	2450.441500	782.660156	-79.221214
23202.703936	2450.441500	781.465820	76.215027
23202.703936	2450.441500	780.272461	-42.649677
23202.703936	2450.441500	779.078125	19.620537
23202.703936	2450.441500	777.883789	-94.555481
23202.703936	2450.441500	776.688477	-34.821945
23202.703936	2450.441500	775.494141	62.924141
23202.703936	2450.441500	774.298828	-249.079086
23202.703936	2450.441500	773.103516	-46.705509
23202.703936	2450.441500	771.907227	165.029297
23202.703936	2450.441500	770.711914	-18.503611
23202.703936	2450.441500	769.515625	24.027170
23202.703936	2450.441500	768.318359	-104.836830
23202.703936	2450.441500	767.122070	-140.962463
23202.703936	2450.441500	765.924805	-1.172998
23202.703936	2450.441500	764.727539	171.761612
23202.703936	2450.441500	763.530273	166.250275
23202.703936	2450.441500	762.333008	153.524200
23202.703936	2450.441500	761.134766	138.340652
23202.703936	2450.441500	759.936523	225.228821
23202.703936	2450.441500	758.738281	259.734344
23202.703936	2450.441500	757.540039	168.275940
23202.703936	2450.441500	756.340820	76.761009
23202.703936	2450.441500	755.141602	77.765907
23202.703936	2450.441500	753.942383	0.355856
23202.703936	2450.441500	752.742188	98.463432
23202.703936	2450.441500	751.541992	298.436737
23202.703936	2450.441500	750.341797	163.813644
23202.703936	2450.441500	749.141602	62.343010
23202.703936	2450.441500	747.941406	155.211182
23202.703936	2450.441500	746.740234	-74.413284
23202.703936	2450.441500	745.539063	41.933392
23202.703936	2450.441500	744.337891	162.865326
23202.703936	2450.441500	743.135742	-95.361252
23202.703936	2450.441500	741.933594	-130.971725
23202.703936	2450.441500	740.731445	-36.449600
23202.703936	2450.441500	739.529297	20.043917
23202.703936	2450.441500	738.326172	-207.608292
23202.703936	2450.441500	737.124023	-75.604889
23202.703936	2450.441500	735.919922	-43.135212
23202.703936	2450.441500	734.716797	31.781040
23202.703936	2450.441500	733.513672	170.401733
23202.703936	2450.441500	732.309570	88.964836
23202.703936	2450.441500	731.105469	78.357262
23202.703936	2450.441500	729.900391	10.914474
23202.703936	2450.441500	728.696289	-125.140831
23202.703936	2450.441500	727.491211	300.972565
23202.703936	2450.441500	726.286133	-50.258415
23202.703936	2450.441500	725.080078	-0.039565
23202.703936	2450.441500	723.874023	-252.155182
23202.703936	2450.441500	722.668945	-46.379379
23202.703936	2450.441500	721.461914	36.468372
23202.703936	2450.441500	720.255859	-24.762695
23202.703936	2450.441500	719.048828	-133.276962
23202.703936	2450.441500	717.841797	218.009094
23202.703936	2450.441500	716.634766	78.579208
23202.703936	2450.441500	715.427734	243.182724
23202.703936	2450.441500	714.219727	153.038925
23202.703936	2450.441500	713.011719	-24.385328
23202.703936	2450.441500	711.803711	135.026596
23202.703936	2450.441500	710.594727	251.841415
23202.703936	2450.441500	709.385742	-13.024403
23202.703936	2450.441500	708.176758	-89.557640
23202.703936	2450.441500	706.967773	73.907310
23202.703936	2450.441500	705.758789	-38.182674
23202.703936	2450.441500	704.548828	-20.952656
23202.703936	2450.441500	703.338867	214.912964
23202.703936	2450.441500	702.127930	-146.857513
23202.703936	2450.441500	700.917969	114.530350
23202.703936	2450.441500	699.707031	201.695526
23202.703936	2450.441500	698.496094	-23.926693
23202.703936	2450.441500	697.285156	86.458496
23202.703936	2450.441500	696.073242	123.819275
23202.703936	2450.441500	694.861328	172.773026
23202.703936	2450.441500	693.649414	-95.477127
23202.703936	2450.441500	692.436523	148.107101
23202.703936	2450.441500	691.224609	67.497955
23202.703936	2450.441500	690.011719	125.256355
23202.703936	2450.441500	688.798828	32.674263
23202.703936	2450.441500	687.584961	329.430328
23202.703936	2450.441500	686.372070	34.853291
23202.703936	2450.441500	685.158203	-74.484894
23202.703936	2450.441500	683.943359	113.839600
23202.703936	2450.441500	682.729492	355.867249
23202.703936	2450.441500	681.514648	431.257355
23202.703936	2450.441500	680.299805	272.172089
23202.703936	2450.441500	679.084961	455.035797
23202.703936	2450.441500	677.869141	511.208282
23202.703936	2450.441500	676.653320	461.850220
23202.703936	2450.441500	675.437500	285.958313
23202.703936	2450.441500	674.221680	315.980591
23202.703936	2450.441500	673.004883	582.204346
23202.703936	2450.441500	671.789063	188.414566
23202.703936	2450.441500	670.571289	302.237122
23202.703936	2450.441500	669.354492	93.157257
23202.703936	2450.441500	668.136719	159.928238
23202.703936	2450.441500	666.919922	51.226692
23202.703936	2450.441500	665.701172	183.154083
23202.703936	2450.441500	664.483398	-68.304924
23202.703936	2450.441500	663.264648	479.176605
23202.703936	2450.441500	662.045898	710.987732
23202.703936	2450.441500	660.827148	344.770416
23202.703936	2450.441500	659.608398	244.738770
23202.703936	2450.441500	658.388672	62.923782
23202.703936	2450.441500	657.168945	585.843994
23202.703936	2450.441500	655.949219	427.127930
23202.703936	2450.441500	654.728516	475.966461
23202.703936	2450.441500	653.507813	571.312256
23202.703936	2450.441500	652.287109	479.965851
23202.703936	2450.441500	651.066406	577.374207
23202.703936	2450.441500	649.844727	227.120758
23202.703936	2450.441500	648.623047	349.947815
23202.703936	2450.441500	647.401367	351.466614
23202.703936	2450.441500	646.179688	338.905640
23202.703936	2450.441500	644.957031	158.565109
23202.703936	2450.441500	643.734375	101.599915
23202.703936	2450.441500	642.511719	442.611786
23202.703936	2450.441500	641.289063	196.901718
23202.703936	2450.441500	640.065430	197.832336
23202.703936	2450.441500	638.841797	26.523928
23202.703936	2450.441500	637.618164	-5.253560
23202.703936	2450.441500	636.393555	104.729630
23202.703936	2450.441500	635.168945	251.777802
23202.703936	2450.441500	633.944336	215.057526
23202.703936	2450.441500	632.719727	117.852676
23202.703936	2450.441500	631.494141	-123.448807
23202.703936	2450.441500	630.269531	32.496429
23202.703936	2450.441500	629.042969	125.581322
23202.703936	2450.441500	627.817383	121.045479
23202.703936	2450.441500	626.590820	83.935608
23202.703936	2450.441500	625.365234	-62.294933
23202.703936	2450.441500	624.137695	113.992538
23202.703936	2450.441500	622.911133	157.919312
23202.703936	2450.441500	621.683594	64.918671
23202.703936	2450.441500	620.456055	87.850960
23202.703936	2450.441500	619.228516	-72.432938
23202.703936	2450.441500	618.000977	138.177689
23202.703936	2450.441500	616.772461	119.217476
23202.703936	2450.441500	615.543945	292.535431
23202.703936	2450.441500	614.314453	-57.788815
23202.703936	2450.441500	613.085938	1.941563
23202.703936	2450.441500	611.856445	-51.849945
23202.703936	2450.441500	610.626953	-103.329643
23202.703936	2450.441500	609.397461	-66.859108
23202.703936	2450.441500	608.166992	-328.936615
23202.703936	2450.441500	606.936523	-338.743896
23202.703936	2450.441500	605.706055	-309.236115
23202.703936	2450.441500	604.474609	-286.694611
23202.703936	2450.441500	603.244141	1.730390
23202.703936	2450.441500	602.012695	-128.367432
23202.703936	2450.441500	600.780273	-52.728138
23202.703936	2450.441500	599.548828	-55.662052
23202.703936	2450.441500	598.316406	77.704041
23202.703936	2450.441500	597.083984	-19.926441
23202.703936	2450.441500	595.851563	41.833523
23202.703936	2450.441500	594.618164	-23.388693
23202.703936	2450.441500	593.384766	-155.487259
23202.703936	2450.441500	592.151367	-299.033997
23202.703936	2450.441500	590.917969	-248.680801
23202.703936	2450.441500	589.683594	-228.299973
23202.703936	2450.441500	588.449219	-177.898941
23202.703936	2450.441500	587.214844	84.653748
23202.703936	2450.441500	585.979492	5.980162
23202.703936	2450.441500	584.745117	33.424011
23202.703936	2450.441500	583.509766	-164.896042
23202.703936	2450.441500	582.273438	113.796280
23202.703936	2450.441500	581.038086	173.651062
23202.703936	2450.441500	579.801758	171.379227
23202.703936	2450.441500	578.565430	40.270061
23202.703936	2450.441500	577.329102	77.332207
23202.703936	2450.441500	576.091797	52.333023
23202.703936	2450.441500	574.854492	96.465965
23202.703936	2450.441500	573.617188	140.685028
23202.703936	2450.441500	572.378906	306.875092
23202.703936	2450.441500	571.141602	-9.728925
23202.703936	2450.441500	569.903320	347.454498
23202.703936	2450.441500	568.664063	281.717621
23202.703936	2450.441500	567.425781	82.874847
23202.703936	2450.441500	566.186523	178.297409
23202.703936	2450.441500	564.947266	-155.685196
23202.703936	2450.441500	563.708008	146.701385
23202.703936	2450.441500	562.467773	242.475800
23202.703936	2450.441500	561.227539	-164.317963
23202.703936	2450.441500	559.987305	156.692093
23202.703936	2450.441500	558.747070	-201.403305
23202.703936	2450.441500	557.505859	78.514587
23202.703936	2450.441500	556.264648	108.506775
23202.703936	2450.441500	555.023438	-44.767689
23202.703936	2450.441500	553.781250	175.864990
23202.703936	2450.441500	552.539063	-109.923347
23202.703936	2450.441500	551.296875	305.782135
23202.703936	2450.441500	550.054688	-169.666275
23202.703936	2450.441500	548.811523	340.177216
23202.703936	2450.441500	547.569336	21.054054
23202.703936	2450.441500	546.325195	57.132698
23202.703936	2450.441500	545.082031	-137.765869
23202.703936	2450.441500	543.837891	79.562431
23202.703936	2450.441500	542.593750	148.305405
23202.703936	2450.441500	541.349609	18.234926
23202.703936	2450.441500	540.105469	-157.283447
23202.703936	2450.441500	538.860352	1.339674
23202.703936	2450.441500	537.615234	-258.204987
23202.703936	2450.441500	536.369141	145.414398
23202.703936	2450.441500	535.124023	156.085403
23202.703936	2450.441500	533.877930	-168.825272
23202.703936	2450.441500	532.631836	-95.905342
23202.703936	2450.441500	531.384766	-57.011967
23202.703936	2450.441500	530.138672	192.181824
23202.703936	2450.441500	528.891602	-10.418896
23202.703936	2450.441500	527.643555	65.758255
23202.703936	2450.441500	526.396484	119.366737
23202.703936	2450.441500	525.148438	339.755951
23202.703936	2450.441500	523.900391	222.800812
23202.703936	2450.441500	522.652344	-114.991943
23202.703936	2450.441500	521.403320	-187.908310
23202.703936	2450.441500	520.154297	152.032928
23202.703936	2450.441500	518.905273	211.847855
23202.703936	2450.441500	517.656250	91.956757
23202.703936	2450.441500	516.406250	286.741913
23202.703936	2450.441500	515.156250	178.878296
23202.703936	2450.441500	513.906250	121.455589
23202.703936	2450.441500	512.655273	232.807465
23202.703936	2450.441500	511.404297	5.332263
23202.703936	2450.441500	510.153320	413.066345
23202.703936	2450.441500	508.902344	209.022476
23202.703936	2450.441500	507.650391	519.370483
23202.703936	2450.441500	506.398438	327.389648
23202.703936	2450.441500	505.146484	347.224976
23202.703936	2450.441500	503.893555	253.726013
23202.703936	2450.441500	502.641602	419.629608
23202.703936	2450.441500	501.388672	688.011536
23202.703936	2450.441500	500.134766	983.852356
23202.703936	2450.441500	498.881836	553.199219
23202.703936	2450.441500	497.627930	1144.720337
23202.703936	2450.441500	496.374023	1089.378784
23202.703936	2450.441500	495.119141	850.557007
23202.703936	2450.441500	493.865234	1009.201538
23202.703936	2450.441500	492.610352	1183.969604
23202.703936	2450.441500	491.355469	1055.066162
23202.703936	2450.441500	490.099609	1561.408813
23202.703936	2450.441500	488.843750	1281.197266
23202.703936	2450.441500	487.587891	1339.109741
23202.703936	2450.441500	486.332031	1404.087524
23202.703936	2450.441500	485.075195	1625.649536
23202.703936	2450.441500	483.818359	1432.905151
23202.703936	2450.441500	482.561523	1684.370972
23202.703936	2450.441500	481.304688	1555.643188
23202.703936	2450.441500	480.046875	1515.526855
23202.703936	2450.441500	478.789063	1514.160400
23202.703936	2450.441500	477.531250	1399.924072
23202.703936	2450.441500	476.272461	1871.874023
23202.703936	2450.441500	475.013672	1740.016113
23202.703936	2450.441500	473.754883	1732.811035
23202.703936	2450.441500	472.496094	1795.916504
23202.703936	2450.441500	471.236328	1843.397583
23202.703936	2450.441500	469.976563	1891.067749
23202.703936	2450.441500	468.716797	2076.725830
23202.703936	2450.441500	467.456055	1887.562500
23202.703936	2450.441500	466.196289	1953.824951
23202.703936	2450.441500	464.935547	2155.695313
23202.703936	2450.441500	463.673828	2152.236328
23202.703936	2450.441500	462.413086	2069.928711
23202.703936	2450.441500	461.151367	2425.502686
23202.703936	2450.441500	459.889648	2384.029541
23202.703936	2450.441500	458.626953	2374.260254
23202.703936	2450.441500	457.364258	2260.862061
23202.703936	2450.441500	456.101563	2273.823730
23202.703936	2450.441500	454.838867	2410.795166
23202.703936	2450.441500	453.575195	2358.477295
23202.703936	2450.441500	452.312500	2276.906982
23202.703936	2450.441500	451.047852	2724.692139
23202.703936	2450.441500	449.784180	2345.830566
23202.703936	2450.441500	448.519531	2653.771240
23202.703936	2450.441500	447.254883	2473.084717
23202.703936	2450.441500	445.990234	2494.933350
23202.703936	2450.441500	444.725586	2629.168457
23202.703936	2450.441500	443.459961	2700.250244
23202.703936	2450.441500	442.194336	2748.666260
23202.703936	2450.441500	440.927734	2644.005615
23202.703936	2450.441500	439.662109	2860.643066
23202.703936	2450.441500	438.395508	3090.460938
23202.703936	2450.441500	437.127930	2713.252686
23202.703936	2450.441500	435.861328	2812.181641
23202.703936	2450.441500	434.593750	2838.898438
23202.703936	2450.441500	433.326172	2802.393311
23202.703936	2450.441500	432.058594	2940.651123
23202.703936	2450.441500	430.790039	3098.658447
23202.703936	2450.441500	429.521484	3078.885986
23202.703936	2450.441500	428.252930	3529.809570
23202.703936	2450.441500	426.984375	3237.576660
23202.703936	2450.441500	425.714844	3480.921875
23202.703936	2450.441500	424.445313	3618.209473
23202.703936	2450.441500	423.174805	3792.938721
23202.703936	2450.441500	421.905273	3702.484375
23202.703936	2450.441500	420.634766	3960.925293
23202.703936	2450.441500	419.364258	3577.831787
23202.703936	2450.441500	418.092773	4072.090576
23202.703936	2450.441500	416.822266	3801.746582
23202.703936	2450.441500	415.550781	3631.398193
23202.703936	2450.441500	414.278320	3836.235596
23202.703936	2450.441500	413.006836	3639.468018
23202.703936	2450.441500	411.734375	3739.334229
23202.703936	2450.441500	410.461914	3708.364990
23202.703936	2450.441500	409.188477	3591.315918
23202.703936	2450.441500	407.916016	3763.811279
23202.703936	2450.441500	406.642578	3608.652100
23202.703936	2450.441500	405.368164	3501.444336
23202.703936	2450.441500	404.094727	3495.737061
23202.703936	2450.441500	402.820313	3466.294189
23202.703936	2450.441500	401.545898	3821.784912
23202.703936	2450.441500	400.270508	3666.494873
23202.703936	2450.441500	398.996094	3741.874268
23202.703936	2450.441500	397.720703	3456.224121
23202.703936	2450.441500	396.444336	3780.385010
23202.703936	2450.441500	395.168945	3814.845215
23202.703936	2450.441500	393.892578	3604.301514
23202.703936	2450.441500	392.616211	3481.123291
23202.703936	2450.441500	391.339844	3565.572266
23202.703936	2450.441500	390.062500	3574.333008
23202.703936	2450.441500	388.785156	3886.243408
23202.703936	2450.441500	387.507813	3912.824951
23202.703936	2450.441500	386.229492	3622.968506
23202.703936	2450.441500	384.951172	3564.681152
23202.703936	2450.441500	383.672852	4056.131104
23202.703936	2450.441500	382.394531	3959.330811
23202.703936	2450.441500	381.115234	3957.805908
23202.703936	2450.441500	379.835938	3960.203857
23202.703936	2450.441500	378.556641	3750.637695
23202.703936	2450.441500	377.277344	3887.416748
23202.703936	2450.441500	375.997070	3794.239258
23202.703936	2450.441500	374.716797	3844.693604
23202.703936	2450.441500	373.435547	3760.693359
23202.703936	2450.441500	372.155273	3768.988037
23202.703936	2450.441500	370.874023	3631.583740
23202.703936	2450.441500	369.591797	3743.840088
23202.703936	2450.441500	368.310547	3768.039307
23202.703936	2450.441500	367.028320	3630.734375
23202.703936	2450.441500	365.746094	3651.630615
23202.703936	2450.441500	364.463867	3885.984619
23202.703936	2450.441500	363.180664	3605.684326
23202.703936	2450.441500	361.897461	3629.582520
23202.703936	2450.441500	360.614258	3524.868408
23202.703936	2450.441500	359.330078	3453.286865
23202.703936	2450.441500	358.045898	3048.963623
23202.703936	2450.441500	356.761719	3145.365234
23202.703936	2450.441500	355.477539	3139.287354
23202.703936	2450.441500	354.192383	3012.835693
23202.703936	2450.441500	352.907227	3058.415039
23202.703936	2450.441500	351.622070	3220.400635
23202.703936	2450.441500	350.336914	2978.275879
23202.703936	2450.441500	349.050781	3126.698730
23202.703936	2450.441500	347.764648	2910.711182
23202.703936	2450.441500	346.477539	2653.309814
23202.703936	2450.441500	345.191406	2863.378174
23202.703936	2450.441500	343.904297	2956.332520
23202.703936	2450.441500	342.616211	2602.607910
23202.703936	2450.441500	341.329102	2505.583984
23202.703936	2450.441500	340.041016	2333.109863
23202.703936	2450.441500	338.752930	2465.262939
23202.703936	2450.441500	337.463867	2369.084961
23202.703936	2450.441500	336.175781	2164.122803
23202.703936	2450.441500	334.886719	1991.265259
23202.703936	2450.441500	333.596680	2404.425293
23202.703936	2450.441500	332.307617	1834.001099
23202.703936	2450.441500	331.017578	1732.148560
23202.703936	2450.441500	329.727539	1646.235474
23202.703936	2450.441500	328.436523	1339.824951
23202.703936	2450.441500	327.146484	1258.720703
23202.703936	2450.441500	325.855469	1466.097168
23202.703936	2450.441500	324.563477	1366.339966
23202.703936	2450.441500	323.272461	1347.750366
23202.703936	2450.441500	321.980469	1182.644897
23202.703936	2450.441500	320.688477	1084.796387
23202.703936	2450.441500	319.395508	840.031860
23202.703936	2450.441500	318.103516	867.079590
23202.703936	2450.441500	316.810547	748.925842
23202.703936	2450.441500	315.516602	617.451050
23202.703936	2450.441500	314.223633	248.500137
23202.703936	2450.441500	312.929688	33.018959
23202.703936	2450.441500	311.635742	100.696503
23202.703936	2450.441500	310.340820	-0.043925
23202.703936	2450.441500	309.045898	-403.191345
23202.703936	2450.441500	307.750977	84.764282
23202.703936	2450.441500	306.456055	124.584267
23202.703936	2450.441500	305.160156	122.406685
23202.703936	2450.441500	303.865234	-22.392719
23202.703936	2450.441500	302.568359	-139.791260
23202.703936	2450.441500	301.272461	60.797913
23202.703936	2450.441500	299.975586	121.510384
23202.703936	2450.441500	298.678711	-89.203529
