#X		#Y		#Wave		#Intensity
22966.246064	3069.636167	1999.980469	-6.116933
22966.246064	3069.636167	1999.016602	40.534966
22966.246064	3069.636167	1998.052734	-64.803825
22966.246064	3069.636167	1997.087891	-26.525320
22966.246064	3069.636167	1996.123047	58.664219
22966.246064	3069.636167	1995.158203	64.405609
22966.246064	3069.636167	1994.193359	94.771461
22966.246064	3069.636167	1993.228516	1.174875
22966.246064	3069.636167	1992.262695	-43.001213
22966.246064	3069.636167	1991.297852	-87.289536
22966.246064	3069.636167	1990.332031	-54.961514
22966.246064	3069.636167	1989.366211	34.147560
22966.246064	3069.636167	1988.399414	41.467167
22966.246064	3069.636167	1987.433594	-10.692260
22966.246064	3069.636167	1986.466797	-6.058274
22966.246064	3069.636167	1985.500977	-75.707870
22966.246064	3069.636167	1984.534180	-53.961231
22966.246064	3069.636167	1983.567383	51.719593
22966.246064	3069.636167	1982.599609	28.764442
22966.246064	3069.636167	1981.632813	-28.861702
22966.246064	3069.636167	1980.665039	-34.674686
22966.246064	3069.636167	1979.697266	60.697258
22966.246064	3069.636167	1978.729492	25.076862
22966.246064	3069.636167	1977.761719	120.248932
22966.246064	3069.636167	1976.792969	141.258347
22966.246064	3069.636167	1975.825195	-27.846401
22966.246064	3069.636167	1974.856445	146.038071
22966.246064	3069.636167	1973.887695	11.405624
22966.246064	3069.636167	1972.918945	-19.637020
22966.246064	3069.636167	1971.949219	72.583977
22966.246064	3069.636167	1970.980469	-35.007607
22966.246064	3069.636167	1970.010742	59.541489
22966.246064	3069.636167	1969.041016	-38.249519
22966.246064	3069.636167	1968.071289	132.565353
22966.246064	3069.636167	1967.101563	24.851185
22966.246064	3069.636167	1966.130859	96.966705
22966.246064	3069.636167	1965.161133	68.034821
22966.246064	3069.636167	1964.190430	46.463448
22966.246064	3069.636167	1963.219727	-53.920692
22966.246064	3069.636167	1962.249023	-33.680309
22966.246064	3069.636167	1961.277344	-45.473766
22966.246064	3069.636167	1960.306641	-3.153928
22966.246064	3069.636167	1959.334961	9.600056
22966.246064	3069.636167	1958.363281	32.164585
22966.246064	3069.636167	1957.391602	98.966896
22966.246064	3069.636167	1956.419922	-80.163483
22966.246064	3069.636167	1955.447266	21.012794
22966.246064	3069.636167	1954.474609	50.854187
22966.246064	3069.636167	1953.501953	14.317003
22966.246064	3069.636167	1952.529297	-49.247475
22966.246064	3069.636167	1951.556641	91.097427
22966.246064	3069.636167	1950.583984	-4.408685
22966.246064	3069.636167	1949.610352	-45.864239
22966.246064	3069.636167	1948.636719	-18.565310
22966.246064	3069.636167	1947.663086	35.720238
22966.246064	3069.636167	1946.689453	58.075310
22966.246064	3069.636167	1945.715820	33.796150
22966.246064	3069.636167	1944.741211	24.243065
22966.246064	3069.636167	1943.767578	44.130119
22966.246064	3069.636167	1942.792969	32.126518
22966.246064	3069.636167	1941.818359	25.033545
22966.246064	3069.636167	1940.842773	76.782135
22966.246064	3069.636167	1939.868164	94.201637
22966.246064	3069.636167	1938.892578	-47.674385
22966.246064	3069.636167	1937.916992	31.026215
22966.246064	3069.636167	1936.941406	28.863194
22966.246064	3069.636167	1935.965820	7.114538
22966.246064	3069.636167	1934.990234	17.217371
22966.246064	3069.636167	1934.013672	64.049911
22966.246064	3069.636167	1933.037109	-48.239082
22966.246064	3069.636167	1932.060547	15.741995
22966.246064	3069.636167	1931.083984	143.332947
22966.246064	3069.636167	1930.107422	14.001219
22966.246064	3069.636167	1929.129883	70.632233
22966.246064	3069.636167	1928.153320	46.551228
22966.246064	3069.636167	1927.175781	24.937298
22966.246064	3069.636167	1926.198242	118.247955
22966.246064	3069.636167	1925.219727	30.662003
22966.246064	3069.636167	1924.242188	-27.548803
22966.246064	3069.636167	1923.263672	41.331493
22966.246064	3069.636167	1922.285156	-36.371380
22966.246064	3069.636167	1921.306641	-48.082359
22966.246064	3069.636167	1920.328125	-50.004005
22966.246064	3069.636167	1919.349609	-25.050327
22966.246064	3069.636167	1918.370117	34.085552
22966.246064	3069.636167	1917.391602	-48.337521
22966.246064	3069.636167	1916.412109	69.380829
22966.246064	3069.636167	1915.431641	11.413194
22966.246064	3069.636167	1914.452148	4.711350
22966.246064	3069.636167	1913.472656	22.418987
22966.246064	3069.636167	1912.492188	-89.094810
22966.246064	3069.636167	1911.511719	-122.535576
22966.246064	3069.636167	1910.531250	58.549606
22966.246064	3069.636167	1909.550781	56.812626
22966.246064	3069.636167	1908.569336	-13.128183
22966.246064	3069.636167	1907.588867	53.396759
22966.246064	3069.636167	1906.607422	-21.350519
22966.246064	3069.636167	1905.625977	-93.616104
22966.246064	3069.636167	1904.644531	19.202219
22966.246064	3069.636167	1903.662109	-94.389297
22966.246064	3069.636167	1902.680664	-27.817814
22966.246064	3069.636167	1901.698242	-31.820478
22966.246064	3069.636167	1900.715820	-43.102070
22966.246064	3069.636167	1899.733398	72.125542
22966.246064	3069.636167	1898.750000	90.047821
22966.246064	3069.636167	1897.767578	-40.340813
22966.246064	3069.636167	1896.784180	28.683771
22966.246064	3069.636167	1895.800781	-33.553371
22966.246064	3069.636167	1894.817383	8.746796
22966.246064	3069.636167	1893.833984	21.891348
22966.246064	3069.636167	1892.850586	90.920006
22966.246064	3069.636167	1891.866211	21.496990
22966.246064	3069.636167	1890.881836	-30.885826
22966.246064	3069.636167	1889.897461	-29.820105
22966.246064	3069.636167	1888.913086	70.785080
22966.246064	3069.636167	1887.927734	-10.656781
22966.246064	3069.636167	1886.943359	-19.257517
22966.246064	3069.636167	1885.958008	-112.754242
22966.246064	3069.636167	1884.972656	-84.921600
22966.246064	3069.636167	1883.987305	8.393037
22966.246064	3069.636167	1883.001953	-9.851315
22966.246064	3069.636167	1882.015625	59.196091
22966.246064	3069.636167	1881.029297	-63.250984
22966.246064	3069.636167	1880.042969	-35.393703
22966.246064	3069.636167	1879.056641	-34.187649
22966.246064	3069.636167	1878.070313	46.968479
22966.246064	3069.636167	1877.083984	40.912292
22966.246064	3069.636167	1876.096680	-6.298675
22966.246064	3069.636167	1875.109375	21.569719
22966.246064	3069.636167	1874.122070	-23.182775
22966.246064	3069.636167	1873.134766	-4.986403
22966.246064	3069.636167	1872.146484	71.282768
22966.246064	3069.636167	1871.159180	-72.622620
22966.246064	3069.636167	1870.170898	-64.083786
22966.246064	3069.636167	1869.182617	-62.797840
22966.246064	3069.636167	1868.194336	-83.268784
22966.246064	3069.636167	1867.205078	-159.329727
22966.246064	3069.636167	1866.216797	-46.832863
22966.246064	3069.636167	1865.227539	-130.115189
22966.246064	3069.636167	1864.238281	54.821423
22966.246064	3069.636167	1863.249023	-21.198189
22966.246064	3069.636167	1862.259766	108.102196
22966.246064	3069.636167	1861.269531	-83.804893
22966.246064	3069.636167	1860.279297	-14.898375
22966.246064	3069.636167	1859.290039	-44.985069
22966.246064	3069.636167	1858.298828	26.298700
22966.246064	3069.636167	1857.308594	-129.259933
22966.246064	3069.636167	1856.318359	36.094254
22966.246064	3069.636167	1855.327148	37.365753
22966.246064	3069.636167	1854.335938	89.275330
22966.246064	3069.636167	1853.344727	-42.082966
22966.246064	3069.636167	1852.353516	125.522888
22966.246064	3069.636167	1851.362305	23.117609
22966.246064	3069.636167	1850.370117	79.786705
22966.246064	3069.636167	1849.377930	105.105919
22966.246064	3069.636167	1848.385742	-6.895863
22966.246064	3069.636167	1847.393555	66.580971
22966.246064	3069.636167	1846.401367	36.479614
22966.246064	3069.636167	1845.408203	18.416267
22966.246064	3069.636167	1844.415039	-2.058181
22966.246064	3069.636167	1843.421875	-10.503481
22966.246064	3069.636167	1842.428711	14.727645
22966.246064	3069.636167	1841.435547	-5.771234
22966.246064	3069.636167	1840.441406	93.984207
22966.246064	3069.636167	1839.448242	46.997910
22966.246064	3069.636167	1838.454102	62.525803
22966.246064	3069.636167	1837.459961	-15.718064
22966.246064	3069.636167	1836.464844	-5.023598
22966.246064	3069.636167	1835.470703	128.201172
22966.246064	3069.636167	1834.475586	64.352417
22966.246064	3069.636167	1833.480469	26.931868
22966.246064	3069.636167	1832.485352	6.317768
22966.246064	3069.636167	1831.490234	64.929390
22966.246064	3069.636167	1830.495117	-10.939980
22966.246064	3069.636167	1829.499023	90.814919
22966.246064	3069.636167	1828.502930	110.917328
22966.246064	3069.636167	1827.506836	13.422524
22966.246064	3069.636167	1826.510742	57.475372
22966.246064	3069.636167	1825.513672	103.885635
22966.246064	3069.636167	1824.517578	-12.807236
22966.246064	3069.636167	1823.520508	136.643112
22966.246064	3069.636167	1822.523438	12.745239
22966.246064	3069.636167	1821.526367	-3.283937
22966.246064	3069.636167	1820.529297	64.532021
22966.246064	3069.636167	1819.531250	50.839409
22966.246064	3069.636167	1818.533203	-1.200256
22966.246064	3069.636167	1817.535156	56.912426
22966.246064	3069.636167	1816.537109	-4.744039
22966.246064	3069.636167	1815.539063	31.743088
22966.246064	3069.636167	1814.540039	53.823952
22966.246064	3069.636167	1813.541992	-55.748730
22966.246064	3069.636167	1812.542969	54.801876
22966.246064	3069.636167	1811.543945	71.986382
22966.246064	3069.636167	1810.543945	-25.668501
22966.246064	3069.636167	1809.544922	29.717648
22966.246064	3069.636167	1808.544922	-5.800979
22966.246064	3069.636167	1807.544922	-15.047357
22966.246064	3069.636167	1806.544922	-5.206838
22966.246064	3069.636167	1805.544922	2.204907
22966.246064	3069.636167	1804.544922	109.912941
22966.246064	3069.636167	1803.543945	19.297533
22966.246064	3069.636167	1802.542969	117.333755
22966.246064	3069.636167	1801.541992	88.753036
22966.246064	3069.636167	1800.541016	12.402292
22966.246064	3069.636167	1799.539063	64.920212
22966.246064	3069.636167	1798.538086	-11.475752
22966.246064	3069.636167	1797.536133	55.262024
22966.246064	3069.636167	1796.534180	112.392815
22966.246064	3069.636167	1795.532227	93.145149
22966.246064	3069.636167	1794.529297	35.710560
22966.246064	3069.636167	1793.527344	149.903336
22966.246064	3069.636167	1792.524414	47.108654
22966.246064	3069.636167	1791.521484	3.886547
22966.246064	3069.636167	1790.518555	27.350603
22966.246064	3069.636167	1789.514648	69.817413
22966.246064	3069.636167	1788.511719	28.865891
22966.246064	3069.636167	1787.507813	75.989716
22966.246064	3069.636167	1786.503906	77.815331
22966.246064	3069.636167	1785.500000	55.791077
22966.246064	3069.636167	1784.496094	-99.545578
22966.246064	3069.636167	1783.491211	30.662767
22966.246064	3069.636167	1782.486328	115.573761
22966.246064	3069.636167	1781.481445	41.042519
22966.246064	3069.636167	1780.476563	106.799896
22966.246064	3069.636167	1779.471680	101.155136
22966.246064	3069.636167	1778.465820	52.671978
22966.246064	3069.636167	1777.460938	70.710182
22966.246064	3069.636167	1776.455078	31.659033
22966.246064	3069.636167	1775.449219	59.096962
22966.246064	3069.636167	1774.442383	46.090260
22966.246064	3069.636167	1773.436523	-21.582214
22966.246064	3069.636167	1772.429688	-41.792263
22966.246064	3069.636167	1771.422852	23.420366
22966.246064	3069.636167	1770.416016	107.546135
22966.246064	3069.636167	1769.409180	18.349442
22966.246064	3069.636167	1768.402344	-21.038116
22966.246064	3069.636167	1767.394531	-20.137445
22966.246064	3069.636167	1766.386719	25.774685
22966.246064	3069.636167	1765.378906	-23.236021
22966.246064	3069.636167	1764.371094	-72.280853
22966.246064	3069.636167	1763.362305	-52.620140
22966.246064	3069.636167	1762.354492	-21.166721
22966.246064	3069.636167	1761.345703	62.348225
22966.246064	3069.636167	1760.336914	-5.843424
22966.246064	3069.636167	1759.328125	32.525749
22966.246064	3069.636167	1758.318359	85.032135
22966.246064	3069.636167	1757.308594	28.548893
22966.246064	3069.636167	1756.299805	-1.923148
22966.246064	3069.636167	1755.290039	14.895027
22966.246064	3069.636167	1754.279297	-27.510767
22966.246064	3069.636167	1753.269531	161.909775
22966.246064	3069.636167	1752.258789	117.017403
22966.246064	3069.636167	1751.249023	98.106316
22966.246064	3069.636167	1750.238281	-8.345978
22966.246064	3069.636167	1749.226563	-72.262306
22966.246064	3069.636167	1748.215820	-22.749033
22966.246064	3069.636167	1747.204102	76.313896
22966.246064	3069.636167	1746.193359	-23.185513
22966.246064	3069.636167	1745.181641	23.757622
22966.246064	3069.636167	1744.168945	4.490530
22966.246064	3069.636167	1743.157227	13.516779
22966.246064	3069.636167	1742.144531	-64.876556
22966.246064	3069.636167	1741.132813	-37.067764
22966.246064	3069.636167	1740.120117	-122.613220
22966.246064	3069.636167	1739.106445	18.337765
22966.246064	3069.636167	1738.093750	-20.113512
22966.246064	3069.636167	1737.080078	-49.175564
22966.246064	3069.636167	1736.067383	-101.860397
22966.246064	3069.636167	1735.053711	26.966787
22966.246064	3069.636167	1734.040039	-14.041620
22966.246064	3069.636167	1733.025391	-76.307373
22966.246064	3069.636167	1732.011719	-72.618874
22966.246064	3069.636167	1730.997070	-90.196205
22966.246064	3069.636167	1729.982422	-63.066902
22966.246064	3069.636167	1728.967773	-28.937897
22966.246064	3069.636167	1727.952148	40.437794
22966.246064	3069.636167	1726.937500	6.150731
22966.246064	3069.636167	1725.921875	-6.999604
22966.246064	3069.636167	1724.906250	-24.906668
22966.246064	3069.636167	1723.890625	-40.509037
22966.246064	3069.636167	1722.875000	-70.274811
22966.246064	3069.636167	1721.858398	-90.681641
22966.246064	3069.636167	1720.841797	48.768139
22966.246064	3069.636167	1719.825195	11.779534
22966.246064	3069.636167	1718.808594	-20.547901
22966.246064	3069.636167	1717.791992	-50.566998
22966.246064	3069.636167	1716.774414	-28.940659
22966.246064	3069.636167	1715.756836	-54.361618
22966.246064	3069.636167	1714.739258	23.521423
22966.246064	3069.636167	1713.721680	-41.929737
22966.246064	3069.636167	1712.704102	12.334941
22966.246064	3069.636167	1711.685547	85.299812
22966.246064	3069.636167	1710.667969	26.756392
22966.246064	3069.636167	1709.649414	-8.357662
22966.246064	3069.636167	1708.630859	-13.011048
22966.246064	3069.636167	1707.611328	-130.313080
22966.246064	3069.636167	1706.592773	-69.379059
22966.246064	3069.636167	1705.573242	-22.595158
22966.246064	3069.636167	1704.553711	-32.144455
22966.246064	3069.636167	1703.534180	-1.895298
22966.246064	3069.636167	1702.513672	-102.946693
22966.246064	3069.636167	1701.494141	-30.623653
22966.246064	3069.636167	1700.473633	32.244850
22966.246064	3069.636167	1699.453125	3.698416
22966.246064	3069.636167	1698.432617	21.945395
22966.246064	3069.636167	1697.412109	58.865288
22966.246064	3069.636167	1696.390625	65.286095
22966.246064	3069.636167	1695.369141	-66.420570
22966.246064	3069.636167	1694.347656	35.857224
22966.246064	3069.636167	1693.326172	2.363999
22966.246064	3069.636167	1692.304688	-10.113973
22966.246064	3069.636167	1691.282227	108.313393
22966.246064	3069.636167	1690.260742	172.880493
22966.246064	3069.636167	1689.238281	148.540894
22966.246064	3069.636167	1688.214844	-41.778091
22966.246064	3069.636167	1687.192383	29.644753
22966.246064	3069.636167	1686.168945	68.280365
22966.246064	3069.636167	1685.146484	25.110649
22966.246064	3069.636167	1684.123047	213.103699
22966.246064	3069.636167	1683.099609	43.743038
22966.246064	3069.636167	1682.075195	131.184052
22966.246064	3069.636167	1681.051758	-68.524574
22966.246064	3069.636167	1680.027344	0.149390
22966.246064	3069.636167	1679.002930	50.089554
22966.246064	3069.636167	1677.978516	62.646488
22966.246064	3069.636167	1676.953125	44.830902
22966.246064	3069.636167	1675.928711	166.892303
22966.246064	3069.636167	1674.903320	48.735901
22966.246064	3069.636167	1673.877930	51.788467
22966.246064	3069.636167	1672.852539	75.773163
22966.246064	3069.636167	1671.826172	146.300644
22966.246064	3069.636167	1670.800781	172.509003
22966.246064	3069.636167	1669.774414	131.119019
22966.246064	3069.636167	1668.748047	52.449760
22966.246064	3069.636167	1667.721680	13.351380
22966.246064	3069.636167	1666.694336	118.540840
22966.246064	3069.636167	1665.667969	181.769852
22966.246064	3069.636167	1664.640625	77.402466
22966.246064	3069.636167	1663.613281	282.442993
22966.246064	3069.636167	1662.585938	154.766998
22966.246064	3069.636167	1661.557617	157.322769
22966.246064	3069.636167	1660.530273	208.676788
22966.246064	3069.636167	1659.501953	311.109344
22966.246064	3069.636167	1658.473633	262.403229
22966.246064	3069.636167	1657.444336	267.119934
22966.246064	3069.636167	1656.416016	367.062042
22966.246064	3069.636167	1655.386719	223.037949
22966.246064	3069.636167	1654.358398	346.111053
22966.246064	3069.636167	1653.328125	222.974701
22966.246064	3069.636167	1652.298828	313.433319
22966.246064	3069.636167	1651.269531	371.334961
22966.246064	3069.636167	1650.239258	234.255615
22966.246064	3069.636167	1649.208984	213.203934
22966.246064	3069.636167	1648.178711	175.896362
22966.246064	3069.636167	1647.148438	298.598145
22966.246064	3069.636167	1646.117188	207.897400
22966.246064	3069.636167	1645.086914	237.764267
22966.246064	3069.636167	1644.055664	288.447083
22966.246064	3069.636167	1643.024414	308.960052
22966.246064	3069.636167	1641.992188	394.306763
22966.246064	3069.636167	1640.960938	338.301758
22966.246064	3069.636167	1639.928711	391.140472
22966.246064	3069.636167	1638.896484	545.822083
22966.246064	3069.636167	1637.864258	570.776001
22966.246064	3069.636167	1636.832031	651.251770
22966.246064	3069.636167	1635.798828	671.498108
22966.246064	3069.636167	1634.766602	761.139221
22966.246064	3069.636167	1633.733398	779.005798
22966.246064	3069.636167	1632.699219	766.771729
22966.246064	3069.636167	1631.666016	793.844604
22966.246064	3069.636167	1630.632813	774.651306
22966.246064	3069.636167	1629.598633	732.325562
22966.246064	3069.636167	1628.564453	819.420959
22966.246064	3069.636167	1627.530273	809.421509
22966.246064	3069.636167	1626.495117	769.371216
22966.246064	3069.636167	1625.460938	851.747070
22966.246064	3069.636167	1624.425781	783.966431
22966.246064	3069.636167	1623.390625	727.744507
22966.246064	3069.636167	1622.355469	798.494080
22966.246064	3069.636167	1621.319336	719.180908
22966.246064	3069.636167	1620.284180	676.817322
22966.246064	3069.636167	1619.248047	816.707764
22966.246064	3069.636167	1618.211914	778.927795
22966.246064	3069.636167	1617.174805	796.493042
22966.246064	3069.636167	1616.138672	880.917847
22966.246064	3069.636167	1615.101563	1004.483154
22966.246064	3069.636167	1614.065430	1051.945557
22966.246064	3069.636167	1613.027344	1004.888306
22966.246064	3069.636167	1611.990234	1033.881836
22966.246064	3069.636167	1610.953125	1030.611572
22966.246064	3069.636167	1609.915039	1107.935913
22966.246064	3069.636167	1608.876953	996.418762
22966.246064	3069.636167	1607.838867	1025.370850
22966.246064	3069.636167	1606.800781	1031.293213
22966.246064	3069.636167	1605.761719	979.674805
22966.246064	3069.636167	1604.723633	847.558716
22966.246064	3069.636167	1603.684570	1042.129150
22966.246064	3069.636167	1602.644531	1011.231079
22966.246064	3069.636167	1601.605469	874.582947
22966.246064	3069.636167	1600.566406	885.124207
22966.246064	3069.636167	1599.526367	1005.984619
22966.246064	3069.636167	1598.486328	1057.860474
22966.246064	3069.636167	1597.446289	944.292542
22966.246064	3069.636167	1596.405273	1062.779785
22966.246064	3069.636167	1595.365234	1043.432129
22966.246064	3069.636167	1594.324219	918.462341
22966.246064	3069.636167	1593.283203	995.581238
22966.246064	3069.636167	1592.242188	944.137634
22966.246064	3069.636167	1591.200195	812.392334
22966.246064	3069.636167	1590.159180	967.525513
22966.246064	3069.636167	1589.117188	890.903259
22966.246064	3069.636167	1588.075195	967.992249
22966.246064	3069.636167	1587.032227	1148.244751
22966.246064	3069.636167	1585.990234	1014.350525
22966.246064	3069.636167	1584.947266	1004.293518
22966.246064	3069.636167	1583.904297	1166.138428
22966.246064	3069.636167	1582.861328	1057.556396
22966.246064	3069.636167	1581.818359	1040.668213
22966.246064	3069.636167	1580.775391	975.702393
22966.246064	3069.636167	1579.731445	979.470398
22966.246064	3069.636167	1578.687500	1079.414673
22966.246064	3069.636167	1577.643555	1334.995483
22966.246064	3069.636167	1576.598633	1235.747070
22966.246064	3069.636167	1575.554688	1127.411743
22966.246064	3069.636167	1574.509766	1417.198853
22966.246064	3069.636167	1573.464844	1265.443848
22966.246064	3069.636167	1572.419922	1406.486816
22966.246064	3069.636167	1571.374023	1499.473145
22966.246064	3069.636167	1570.329102	1631.315186
22966.246064	3069.636167	1569.283203	1726.552002
22966.246064	3069.636167	1568.237305	1787.499634
22966.246064	3069.636167	1567.191406	1841.594238
22966.246064	3069.636167	1566.144531	1870.558838
22966.246064	3069.636167	1565.098633	1707.713745
22966.246064	3069.636167	1564.051758	1793.827026
22966.246064	3069.636167	1563.004883	1640.237671
22966.246064	3069.636167	1561.957031	1342.939575
22966.246064	3069.636167	1560.910156	1244.321045
22966.246064	3069.636167	1559.862305	1259.835938
22966.246064	3069.636167	1558.814453	1113.422241
22966.246064	3069.636167	1557.766602	1085.685669
22966.246064	3069.636167	1556.718750	861.900635
22966.246064	3069.636167	1555.669922	941.423950
22966.246064	3069.636167	1554.621094	747.441162
22966.246064	3069.636167	1553.573242	770.059082
22966.246064	3069.636167	1552.523438	569.409851
22966.246064	3069.636167	1551.474609	731.064697
22966.246064	3069.636167	1550.424805	646.720520
22966.246064	3069.636167	1549.375000	555.613525
22966.246064	3069.636167	1548.325195	576.128601
22966.246064	3069.636167	1547.275391	359.959106
22966.246064	3069.636167	1546.225586	193.975311
22966.246064	3069.636167	1545.174805	260.157806
22966.246064	3069.636167	1544.124023	226.263504
22966.246064	3069.636167	1543.073242	208.341843
22966.246064	3069.636167	1542.022461	395.113068
22966.246064	3069.636167	1540.970703	249.927124
22966.246064	3069.636167	1539.919922	295.774353
22966.246064	3069.636167	1538.868164	278.007355
22966.246064	3069.636167	1537.815430	373.885620
22966.246064	3069.636167	1536.763672	333.478333
22966.246064	3069.636167	1535.710938	313.564148
22966.246064	3069.636167	1534.659180	443.574860
22966.246064	3069.636167	1533.606445	457.788330
22966.246064	3069.636167	1532.552734	394.860443
22966.246064	3069.636167	1531.500000	248.042587
22966.246064	3069.636167	1530.446289	321.407257
22966.246064	3069.636167	1529.393555	521.830200
22966.246064	3069.636167	1528.338867	388.808105
22966.246064	3069.636167	1527.285156	407.820374
22966.246064	3069.636167	1526.231445	256.838409
22966.246064	3069.636167	1525.176758	523.027161
22966.246064	3069.636167	1524.122070	451.491241
22966.246064	3069.636167	1523.067383	472.930450
22966.246064	3069.636167	1522.012695	517.064453
22966.246064	3069.636167	1520.957031	438.921692
22966.246064	3069.636167	1519.901367	569.189148
22966.246064	3069.636167	1518.845703	624.744629
22966.246064	3069.636167	1517.790039	788.980835
22966.246064	3069.636167	1516.734375	692.948364
22966.246064	3069.636167	1515.677734	716.921143
22966.246064	3069.636167	1514.621094	1019.189209
22966.246064	3069.636167	1513.564453	1025.101807
22966.246064	3069.636167	1512.507813	1132.824707
22966.246064	3069.636167	1511.450195	1351.336670
22966.246064	3069.636167	1510.393555	1504.271118
22966.246064	3069.636167	1509.335938	1557.756592
22966.246064	3069.636167	1508.278320	1839.488525
22966.246064	3069.636167	1507.219727	1913.325684
22966.246064	3069.636167	1506.162109	2197.247559
22966.246064	3069.636167	1505.103516	2390.782715
22966.246064	3069.636167	1504.044922	2584.298584
22966.246064	3069.636167	1502.986328	2603.985840
22966.246064	3069.636167	1501.926758	2811.036133
22966.246064	3069.636167	1500.868164	2857.865723
22966.246064	3069.636167	1499.808594	2852.844482
22966.246064	3069.636167	1498.749023	2856.906494
22966.246064	3069.636167	1497.688477	2757.291748
22966.246064	3069.636167	1496.628906	2657.781982
22966.246064	3069.636167	1495.568359	2616.976074
22966.246064	3069.636167	1494.507813	2522.159424
22966.246064	3069.636167	1493.447266	2330.552490
22966.246064	3069.636167	1492.386719	2157.106934
22966.246064	3069.636167	1491.325195	1968.021851
22966.246064	3069.636167	1490.263672	1788.082764
22966.246064	3069.636167	1489.202148	1786.144043
22966.246064	3069.636167	1488.140625	1806.780029
22966.246064	3069.636167	1487.079102	1543.901245
22966.246064	3069.636167	1486.016602	1530.949951
22966.246064	3069.636167	1484.954102	1486.573364
22966.246064	3069.636167	1483.891602	1334.317383
22966.246064	3069.636167	1482.829102	1323.860962
22966.246064	3069.636167	1481.765625	1102.131714
22966.246064	3069.636167	1480.702148	1010.933594
22966.246064	3069.636167	1479.638672	1077.152100
22966.246064	3069.636167	1478.575195	862.562378
22966.246064	3069.636167	1477.511719	758.205688
22966.246064	3069.636167	1476.447266	656.197632
22966.246064	3069.636167	1475.382813	706.950562
22966.246064	3069.636167	1474.318359	564.760620
22966.246064	3069.636167	1473.253906	615.611877
22966.246064	3069.636167	1472.189453	615.003052
22966.246064	3069.636167	1471.124023	504.491547
22966.246064	3069.636167	1470.058594	425.563477
22966.246064	3069.636167	1468.993164	315.231781
22966.246064	3069.636167	1467.927734	330.642151
22966.246064	3069.636167	1466.861328	261.012268
22966.246064	3069.636167	1465.794922	457.759735
22966.246064	3069.636167	1464.728516	325.509186
22966.246064	3069.636167	1463.662109	245.007401
22966.246064	3069.636167	1462.594727	283.354645
22966.246064	3069.636167	1461.528320	285.747406
22966.246064	3069.636167	1460.460938	529.479370
22966.246064	3069.636167	1459.393555	324.114136
22966.246064	3069.636167	1458.326172	203.632828
22966.246064	3069.636167	1457.257813	260.027588
22966.246064	3069.636167	1456.189453	253.917953
22966.246064	3069.636167	1455.121094	307.841187
22966.246064	3069.636167	1454.052734	259.029785
22966.246064	3069.636167	1452.984375	386.751953
22966.246064	3069.636167	1451.915039	356.359528
22966.246064	3069.636167	1450.845703	444.289520
22966.246064	3069.636167	1449.776367	440.292572
22966.246064	3069.636167	1448.707031	449.759857
22966.246064	3069.636167	1447.636719	339.874969
22966.246064	3069.636167	1446.567383	385.716278
22966.246064	3069.636167	1445.497070	244.077789
22966.246064	3069.636167	1444.425781	214.746826
22966.246064	3069.636167	1443.355469	338.221283
22966.246064	3069.636167	1442.285156	385.509552
22966.246064	3069.636167	1441.213867	306.291260
22966.246064	3069.636167	1440.142578	364.365997
22966.246064	3069.636167	1439.070313	434.128357
22966.246064	3069.636167	1437.999023	351.348419
22966.246064	3069.636167	1436.926758	253.791382
22966.246064	3069.636167	1435.854492	218.170654
22966.246064	3069.636167	1434.782227	255.584381
22966.246064	3069.636167	1433.709961	179.022781
22966.246064	3069.636167	1432.636719	242.641052
22966.246064	3069.636167	1431.563477	260.259705
22966.246064	3069.636167	1430.490234	167.666275
22966.246064	3069.636167	1429.416992	6.403741
22966.246064	3069.636167	1428.343750	66.188354
22966.246064	3069.636167	1427.269531	112.236176
22966.246064	3069.636167	1426.195313	81.743301
22966.246064	3069.636167	1425.121094	80.059288
22966.246064	3069.636167	1424.046875	-50.092289
22966.246064	3069.636167	1422.971680	69.221176
22966.246064	3069.636167	1421.896484	-45.342102
22966.246064	3069.636167	1420.821289	15.250992
22966.246064	3069.636167	1419.746094	-149.736435
22966.246064	3069.636167	1418.669922	-3.966261
22966.246064	3069.636167	1417.594727	-44.927940
22966.246064	3069.636167	1416.518555	-3.535391
22966.246064	3069.636167	1415.442383	123.986336
22966.246064	3069.636167	1414.365234	43.175320
22966.246064	3069.636167	1413.289063	-124.422813
22966.246064	3069.636167	1412.211914	-46.270790
22966.246064	3069.636167	1411.134766	-49.435257
22966.246064	3069.636167	1410.057617	13.931790
22966.246064	3069.636167	1408.979492	8.640236
22966.246064	3069.636167	1407.902344	102.837524
22966.246064	3069.636167	1406.824219	169.862854
22966.246064	3069.636167	1405.746094	112.442192
22966.246064	3069.636167	1404.666992	142.249405
22966.246064	3069.636167	1403.588867	304.955811
22966.246064	3069.636167	1402.509766	231.425064
22966.246064	3069.636167	1401.430664	248.948227
22966.246064	3069.636167	1400.351563	351.757050
22966.246064	3069.636167	1399.271484	395.959351
22966.246064	3069.636167	1398.192383	402.822876
22966.246064	3069.636167	1397.112305	443.222656
22966.246064	3069.636167	1396.031250	442.333496
22966.246064	3069.636167	1394.951172	512.459839
22966.246064	3069.636167	1393.871094	601.166138
22966.246064	3069.636167	1392.790039	696.636292
22966.246064	3069.636167	1391.708984	940.924316
22966.246064	3069.636167	1390.626953	1023.334351
22966.246064	3069.636167	1389.545898	944.806458
22966.246064	3069.636167	1388.463867	1147.207764
22966.246064	3069.636167	1387.381836	898.748901
22966.246064	3069.636167	1386.299805	1010.902771
22966.246064	3069.636167	1385.217773	1005.613953
22966.246064	3069.636167	1384.134766	1017.087646
22966.246064	3069.636167	1383.051758	925.450745
22966.246064	3069.636167	1381.968750	947.292358
22966.246064	3069.636167	1380.885742	900.680908
22966.246064	3069.636167	1379.802734	712.269592
22966.246064	3069.636167	1378.718750	664.256592
22966.246064	3069.636167	1377.634766	775.674133
22966.246064	3069.636167	1376.550781	663.603455
22966.246064	3069.636167	1375.465820	632.238647
22966.246064	3069.636167	1374.381836	622.135498
22966.246064	3069.636167	1373.296875	695.806580
22966.246064	3069.636167	1372.211914	631.107483
22966.246064	3069.636167	1371.126953	606.177490
22966.246064	3069.636167	1370.041016	568.557129
22966.246064	3069.636167	1368.955078	708.956299
22966.246064	3069.636167	1367.869141	472.244843
22966.246064	3069.636167	1366.783203	643.119629
22966.246064	3069.636167	1365.697266	495.357697
22966.246064	3069.636167	1364.610352	389.611115
22966.246064	3069.636167	1363.523438	304.105591
22966.246064	3069.636167	1362.436523	323.249023
22966.246064	3069.636167	1361.349609	201.621078
22966.246064	3069.636167	1360.261719	342.841370
22966.246064	3069.636167	1359.174805	225.275604
22966.246064	3069.636167	1358.086914	295.603333
22966.246064	3069.636167	1356.998047	236.579269
22966.246064	3069.636167	1355.910156	113.783043
22966.246064	3069.636167	1354.821289	228.845276
22966.246064	3069.636167	1353.732422	205.847076
22966.246064	3069.636167	1352.643555	218.881302
22966.246064	3069.636167	1351.554688	228.728317
22966.246064	3069.636167	1350.464844	156.663956
22966.246064	3069.636167	1349.375000	142.278397
22966.246064	3069.636167	1348.285156	9.250878
22966.246064	3069.636167	1347.195313	176.768509
22966.246064	3069.636167	1346.105469	96.909950
22966.246064	3069.636167	1345.014648	213.465469
22966.246064	3069.636167	1343.923828	70.715836
22966.246064	3069.636167	1342.833008	122.722145
22966.246064	3069.636167	1341.741211	245.163956
22966.246064	3069.636167	1340.650391	121.893784
22966.246064	3069.636167	1339.558594	70.142799
22966.246064	3069.636167	1338.466797	-77.078499
22966.246064	3069.636167	1337.374023	-48.703186
22966.246064	3069.636167	1336.282227	-42.221901
22966.246064	3069.636167	1335.189453	103.316132
22966.246064	3069.636167	1334.096680	44.600391
22966.246064	3069.636167	1333.003906	6.259320
22966.246064	3069.636167	1331.910156	40.009014
22966.246064	3069.636167	1330.817383	111.728928
22966.246064	3069.636167	1329.723633	287.190613
22966.246064	3069.636167	1328.629883	177.303528
22966.246064	3069.636167	1327.535156	248.610565
22966.246064	3069.636167	1326.441406	395.099213
22966.246064	3069.636167	1325.346680	365.150787
22966.246064	3069.636167	1324.251953	327.633942
22966.246064	3069.636167	1323.156250	147.286636
22966.246064	3069.636167	1322.061523	267.732208
22966.246064	3069.636167	1320.965820	209.004120
22966.246064	3069.636167	1319.870117	192.108597
22966.246064	3069.636167	1318.774414	243.288818
22966.246064	3069.636167	1317.678711	135.270813
22966.246064	3069.636167	1316.582031	74.880173
22966.246064	3069.636167	1315.485352	183.060425
22966.246064	3069.636167	1314.388672	166.363785
22966.246064	3069.636167	1313.291016	117.319077
22966.246064	3069.636167	1312.194336	73.125488
22966.246064	3069.636167	1311.096680	80.322144
22966.246064	3069.636167	1309.999023	123.328430
22966.246064	3069.636167	1308.901367	88.344025
22966.246064	3069.636167	1307.802734	312.201630
22966.246064	3069.636167	1306.705078	284.144989
22966.246064	3069.636167	1305.606445	220.885910
22966.246064	3069.636167	1304.506836	330.166199
22966.246064	3069.636167	1303.408203	425.922729
22966.246064	3069.636167	1302.308594	589.967102
22966.246064	3069.636167	1301.208984	621.562256
22966.246064	3069.636167	1300.109375	800.492249
22966.246064	3069.636167	1299.009766	849.042664
22966.246064	3069.636167	1297.909180	848.629089
22966.246064	3069.636167	1296.808594	953.601074
22966.246064	3069.636167	1295.708008	1057.559692
22966.246064	3069.636167	1294.607422	1009.187927
22966.246064	3069.636167	1293.506836	1099.394531
22966.246064	3069.636167	1292.405273	1029.942627
22966.246064	3069.636167	1291.303711	929.559814
22966.246064	3069.636167	1290.202148	876.475403
22966.246064	3069.636167	1289.099609	797.483093
22966.246064	3069.636167	1287.998047	751.971008
22966.246064	3069.636167	1286.895508	534.179871
22966.246064	3069.636167	1285.792969	533.878357
22966.246064	3069.636167	1284.689453	396.047852
22966.246064	3069.636167	1283.586914	283.113739
22966.246064	3069.636167	1282.483398	215.408356
22966.246064	3069.636167	1281.379883	111.289619
22966.246064	3069.636167	1280.276367	155.071442
22966.246064	3069.636167	1279.171875	200.103928
22966.246064	3069.636167	1278.067383	129.488556
22966.246064	3069.636167	1276.962891	107.829277
22966.246064	3069.636167	1275.858398	158.604538
22966.246064	3069.636167	1274.753906	148.529129
22966.246064	3069.636167	1273.648438	120.256966
22966.246064	3069.636167	1272.542969	90.141869
22966.246064	3069.636167	1271.437500	119.453293
22966.246064	3069.636167	1270.331055	125.640167
22966.246064	3069.636167	1269.225586	193.288864
22966.246064	3069.636167	1268.119141	161.781174
22966.246064	3069.636167	1267.012695	296.084076
22966.246064	3069.636167	1265.906250	383.956818
22966.246064	3069.636167	1264.798828	524.917236
22966.246064	3069.636167	1263.691406	592.137268
22966.246064	3069.636167	1262.583984	834.309326
22966.246064	3069.636167	1261.476563	1044.614502
22966.246064	3069.636167	1260.368164	1424.881104
22966.246064	3069.636167	1259.260742	1703.760864
22966.246064	3069.636167	1258.152344	1986.086426
22966.246064	3069.636167	1257.043945	2494.894531
22966.246064	3069.636167	1255.934570	2450.235352
22966.246064	3069.636167	1254.825195	2627.861084
22966.246064	3069.636167	1253.716797	2689.494629
22966.246064	3069.636167	1252.606445	2341.164307
22966.246064	3069.636167	1251.497070	2215.896729
22966.246064	3069.636167	1250.387695	1828.169800
22966.246064	3069.636167	1249.277344	1519.938721
22966.246064	3069.636167	1248.166992	1334.607788
22966.246064	3069.636167	1247.055664	990.768738
22966.246064	3069.636167	1245.945313	768.388611
22966.246064	3069.636167	1244.833984	563.510986
22966.246064	3069.636167	1243.722656	472.150482
22966.246064	3069.636167	1242.611328	414.394836
22966.246064	3069.636167	1241.499023	326.422424
22966.246064	3069.636167	1240.387695	223.219208
22966.246064	3069.636167	1239.275391	99.289871
22966.246064	3069.636167	1238.162109	152.868286
22966.246064	3069.636167	1237.049805	36.208431
22966.246064	3069.636167	1235.936523	22.436136
22966.246064	3069.636167	1234.823242	78.894928
22966.246064	3069.636167	1233.709961	61.036915
22966.246064	3069.636167	1232.596680	-2.128176
22966.246064	3069.636167	1231.482422	53.423290
22966.246064	3069.636167	1230.369141	93.324615
22966.246064	3069.636167	1229.253906	158.321106
22966.246064	3069.636167	1228.139648	199.794830
22966.246064	3069.636167	1227.025391	279.267975
22966.246064	3069.636167	1225.910156	343.676331
22966.246064	3069.636167	1224.794922	351.117737
22966.246064	3069.636167	1223.679688	571.616577
22966.246064	3069.636167	1222.563477	668.991516
22966.246064	3069.636167	1221.447266	855.328186
22966.246064	3069.636167	1220.331055	834.533752
22966.246064	3069.636167	1219.214844	999.333862
22966.246064	3069.636167	1218.098633	876.160583
22966.246064	3069.636167	1216.981445	766.019043
22966.246064	3069.636167	1215.864258	506.812378
22966.246064	3069.636167	1214.747070	498.686951
22966.246064	3069.636167	1213.629883	489.322021
22966.246064	3069.636167	1212.511719	375.511322
22966.246064	3069.636167	1211.393555	269.926392
22966.246064	3069.636167	1210.275391	249.260696
22966.246064	3069.636167	1209.157227	146.091324
22966.246064	3069.636167	1208.038086	139.671951
22966.246064	3069.636167	1206.918945	103.296310
22966.246064	3069.636167	1205.799805	72.327194
22966.246064	3069.636167	1204.680664	110.902328
22966.246064	3069.636167	1203.560547	132.396454
22966.246064	3069.636167	1202.441406	138.851151
22966.246064	3069.636167	1201.321289	257.562286
22966.246064	3069.636167	1200.200195	324.626526
22966.246064	3069.636167	1199.080078	446.198822
22966.246064	3069.636167	1197.958984	499.656494
22966.246064	3069.636167	1196.837891	653.578064
22966.246064	3069.636167	1195.716797	828.008423
22966.246064	3069.636167	1194.594727	767.118713
22966.246064	3069.636167	1193.473633	700.786072
22966.246064	3069.636167	1192.351563	636.182251
22966.246064	3069.636167	1191.229492	550.839417
22966.246064	3069.636167	1190.106445	388.787506
22966.246064	3069.636167	1188.984375	311.818298
22966.246064	3069.636167	1187.861328	203.555115
22966.246064	3069.636167	1186.738281	195.676666
22966.246064	3069.636167	1185.614258	240.225067
22966.246064	3069.636167	1184.491211	134.389679
22966.246064	3069.636167	1183.367188	65.272758
22966.246064	3069.636167	1182.243164	96.389946
22966.246064	3069.636167	1181.119141	91.767693
22966.246064	3069.636167	1179.994141	48.790371
22966.246064	3069.636167	1178.869141	26.150904
22966.246064	3069.636167	1177.744141	-21.625715
22966.246064	3069.636167	1176.619141	-11.348959
22966.246064	3069.636167	1175.493164	-51.555882
22966.246064	3069.636167	1174.368164	-124.261436
22966.246064	3069.636167	1173.242188	-38.039360
22966.246064	3069.636167	1172.115234	-56.114674
22966.246064	3069.636167	1170.989258	-125.393356
22966.246064	3069.636167	1169.862305	-8.202141
22966.246064	3069.636167	1168.735352	0.323927
22966.246064	3069.636167	1167.608398	-56.895592
22966.246064	3069.636167	1166.481445	38.790802
22966.246064	3069.636167	1165.353516	123.369377
22966.246064	3069.636167	1164.225586	86.338470
22966.246064	3069.636167	1163.097656	14.055165
22966.246064	3069.636167	1161.968750	31.331854
22966.246064	3069.636167	1160.840820	71.976776
22966.246064	3069.636167	1159.711914	39.012527
22966.246064	3069.636167	1158.583008	-47.615181
22966.246064	3069.636167	1157.453125	-76.279556
22966.246064	3069.636167	1156.324219	-45.811348
22966.246064	3069.636167	1155.194336	-64.256470
22966.246064	3069.636167	1154.064453	-123.224770
22966.246064	3069.636167	1152.933594	-164.707703
22966.246064	3069.636167	1151.803711	-217.768234
22966.246064	3069.636167	1150.672852	-129.815735
22966.246064	3069.636167	1149.541992	-150.343246
22966.246064	3069.636167	1148.411133	-156.564926
22966.246064	3069.636167	1147.279297	-135.159805
22966.246064	3069.636167	1146.147461	19.646212
22966.246064	3069.636167	1145.015625	30.550610
22966.246064	3069.636167	1143.883789	44.197151
22966.246064	3069.636167	1142.750977	142.128403
22966.246064	3069.636167	1141.619141	91.945885
22966.246064	3069.636167	1140.486328	191.047012
22966.246064	3069.636167	1139.352539	144.724426
22966.246064	3069.636167	1138.219727	69.677925
22966.246064	3069.636167	1137.085938	49.255978
22966.246064	3069.636167	1135.952148	-35.540016
22966.246064	3069.636167	1134.818359	-28.516451
22966.246064	3069.636167	1133.683594	-27.712940
22966.246064	3069.636167	1132.549805	27.826443
22966.246064	3069.636167	1131.415039	31.324451
22966.246064	3069.636167	1130.279297	15.723166
22966.246064	3069.636167	1129.144531	112.140785
22966.246064	3069.636167	1128.008789	78.391724
22966.246064	3069.636167	1126.873047	21.013744
22966.246064	3069.636167	1125.737305	165.632614
22966.246064	3069.636167	1124.601563	109.838470
22966.246064	3069.636167	1123.464844	176.948425
22966.246064	3069.636167	1122.328125	157.452026
22966.246064	3069.636167	1121.191406	191.662582
22966.246064	3069.636167	1120.054688	179.644821
22966.246064	3069.636167	1118.916992	252.676712
22966.246064	3069.636167	1117.779297	192.178619
22966.246064	3069.636167	1116.641602	230.359329
22966.246064	3069.636167	1115.503906	159.207443
22966.246064	3069.636167	1114.365234	132.200562
22966.246064	3069.636167	1113.226563	156.332870
22966.246064	3069.636167	1112.087891	179.767776
22966.246064	3069.636167	1110.949219	264.167725
22966.246064	3069.636167	1109.809570	354.605469
22966.246064	3069.636167	1108.669922	514.659241
22966.246064	3069.636167	1107.530273	769.188293
22966.246064	3069.636167	1106.390625	890.180359
22966.246064	3069.636167	1105.250000	909.439880
22966.246064	3069.636167	1104.109375	862.710388
22966.246064	3069.636167	1102.968750	655.273987
22966.246064	3069.636167	1101.828125	551.222839
22966.246064	3069.636167	1100.686523	501.175812
22966.246064	3069.636167	1099.544922	462.031830
22966.246064	3069.636167	1098.403320	260.742432
22966.246064	3069.636167	1097.261719	438.572144
22966.246064	3069.636167	1096.120117	367.058472
22966.246064	3069.636167	1094.977539	333.501862
22966.246064	3069.636167	1093.834961	280.547943
22966.246064	3069.636167	1092.691406	122.506058
22966.246064	3069.636167	1091.548828	201.239853
22966.246064	3069.636167	1090.405273	146.929688
22966.246064	3069.636167	1089.261719	129.654449
22966.246064	3069.636167	1088.118164	181.494370
22966.246064	3069.636167	1086.973633	174.352478
22966.246064	3069.636167	1085.829102	146.012833
22966.246064	3069.636167	1084.684570	220.138474
22966.246064	3069.636167	1083.540039	234.786942
22966.246064	3069.636167	1082.395508	238.980667
22966.246064	3069.636167	1081.250000	283.319061
22966.246064	3069.636167	1080.104492	227.488693
22966.246064	3069.636167	1078.958984	252.844528
22966.246064	3069.636167	1077.812500	317.562531
22966.246064	3069.636167	1076.666016	300.622375
22966.246064	3069.636167	1075.519531	211.249130
22966.246064	3069.636167	1074.373047	157.916901
22966.246064	3069.636167	1073.226563	146.803879
22966.246064	3069.636167	1072.079102	225.773926
22966.246064	3069.636167	1070.931641	144.892319
22966.246064	3069.636167	1069.784180	49.692497
22966.246064	3069.636167	1068.635742	126.729385
22966.246064	3069.636167	1067.487305	118.809830
22966.246064	3069.636167	1066.338867	5.244612
22966.246064	3069.636167	1065.190430	79.697334
22966.246064	3069.636167	1064.041992	76.503212
22966.246064	3069.636167	1062.892578	20.526117
22966.246064	3069.636167	1061.743164	-43.248711
22966.246064	3069.636167	1060.593750	2.465613
22966.246064	3069.636167	1059.443359	55.611256
22966.246064	3069.636167	1058.292969	67.551239
22966.246064	3069.636167	1057.142578	-48.534958
22966.246064	3069.636167	1055.992188	41.881516
22966.246064	3069.636167	1054.841797	-36.753975
22966.246064	3069.636167	1053.690430	4.239361
22966.246064	3069.636167	1052.539063	-48.673233
22966.246064	3069.636167	1051.387695	17.951666
22966.246064	3069.636167	1050.235352	-2.361727
22966.246064	3069.636167	1049.083984	35.244064
22966.246064	3069.636167	1047.931641	90.771996
22966.246064	3069.636167	1046.778320	73.986679
22966.246064	3069.636167	1045.625977	76.556595
22966.246064	3069.636167	1044.472656	-23.225945
22966.246064	3069.636167	1043.319336	106.248627
22966.246064	3069.636167	1042.166016	173.201080
22966.246064	3069.636167	1041.012695	58.314396
22966.246064	3069.636167	1039.858398	18.199200
22966.246064	3069.636167	1038.704102	4.129253
22966.246064	3069.636167	1037.549805	68.565590
22966.246064	3069.636167	1036.394531	6.785045
22966.246064	3069.636167	1035.239258	57.757267
22966.246064	3069.636167	1034.083984	144.599548
22966.246064	3069.636167	1032.928711	247.516602
22966.246064	3069.636167	1031.773438	142.436508
22966.246064	3069.636167	1030.617188	152.838608
22966.246064	3069.636167	1029.460938	181.666840
22966.246064	3069.636167	1028.304688	267.568787
22966.246064	3069.636167	1027.147461	314.928467
22966.246064	3069.636167	1025.991211	85.372490
22966.246064	3069.636167	1024.833984	272.580109
22966.246064	3069.636167	1023.675781	91.847549
22966.246064	3069.636167	1022.518555	132.573990
22966.246064	3069.636167	1021.360352	146.067001
22966.246064	3069.636167	1020.202148	-36.816616
22966.246064	3069.636167	1019.043945	43.221851
22966.246064	3069.636167	1017.884766	37.809654
22966.246064	3069.636167	1016.726563	6.695890
22966.246064	3069.636167	1015.567383	14.502556
22966.246064	3069.636167	1014.407227	55.779774
22966.246064	3069.636167	1013.248047	7.204546
22966.246064	3069.636167	1012.087891	31.195101
22966.246064	3069.636167	1010.927734	14.124341
22966.246064	3069.636167	1009.767578	69.648682
22966.246064	3069.636167	1008.606445	20.712051
22966.246064	3069.636167	1007.446289	-32.526798
22966.246064	3069.636167	1006.285156	15.234852
22966.246064	3069.636167	1005.123047	18.121853
22966.246064	3069.636167	1003.961914	-75.239113
22966.246064	3069.636167	1002.799805	22.142752
22966.246064	3069.636167	1001.637695	11.347379
22966.246064	3069.636167	1000.475586	70.320992
22966.246064	3069.636167	999.312500	123.743660
22966.246064	3069.636167	998.149414	36.647053
22966.246064	3069.636167	996.986328	188.718857
22966.246064	3069.636167	995.823242	250.477325
22966.246064	3069.636167	994.659180	166.017487
22966.246064	3069.636167	993.496094	162.206223
22966.246064	3069.636167	992.332031	100.121071
22966.246064	3069.636167	991.166992	187.041199
22966.246064	3069.636167	990.002930	157.006516
22966.246064	3069.636167	988.837891	8.519697
22966.246064	3069.636167	987.672852	59.266697
22966.246064	3069.636167	986.506836	-1.762606
22966.246064	3069.636167	985.341797	82.852516
22966.246064	3069.636167	984.175781	-31.415726
22966.246064	3069.636167	983.009766	-3.706958
22966.246064	3069.636167	981.843750	-72.503883
22966.246064	3069.636167	980.676758	32.791420
22966.246064	3069.636167	979.509766	48.329689
22966.246064	3069.636167	978.342773	-47.231400
22966.246064	3069.636167	977.175781	-6.839632
22966.246064	3069.636167	976.007813	-28.654259
22966.246064	3069.636167	974.839844	46.712616
22966.246064	3069.636167	973.671875	78.981422
22966.246064	3069.636167	972.503906	-107.312714
22966.246064	3069.636167	971.334961	-80.288116
22966.246064	3069.636167	970.166016	4.082605
22966.246064	3069.636167	968.997070	11.770867
22966.246064	3069.636167	967.828125	43.834255
22966.246064	3069.636167	966.658203	-27.465025
22966.246064	3069.636167	965.488281	32.091679
22966.246064	3069.636167	964.318359	-4.635064
22966.246064	3069.636167	963.148438	60.177227
22966.246064	3069.636167	961.977539	152.458893
22966.246064	3069.636167	960.806641	71.655235
22966.246064	3069.636167	959.635742	164.096054
22966.246064	3069.636167	958.463867	137.622528
22966.246064	3069.636167	957.292969	212.879608
22966.246064	3069.636167	956.121094	282.204193
22966.246064	3069.636167	954.948242	389.700409
22966.246064	3069.636167	953.776367	523.337341
22966.246064	3069.636167	952.603516	423.050415
22966.246064	3069.636167	951.430664	293.170776
22966.246064	3069.636167	950.257813	229.225525
22966.246064	3069.636167	949.084961	182.497833
22966.246064	3069.636167	947.911133	88.424400
22966.246064	3069.636167	946.737305	57.276943
22966.246064	3069.636167	945.563477	10.577642
22966.246064	3069.636167	944.388672	31.298059
22966.246064	3069.636167	943.213867	101.674065
22966.246064	3069.636167	942.039063	109.572327
22966.246064	3069.636167	940.864258	28.342924
22966.246064	3069.636167	939.688477	57.656307
22966.246064	3069.636167	938.513672	43.533272
22966.246064	3069.636167	937.337891	75.135788
22966.246064	3069.636167	936.161133	93.530678
22966.246064	3069.636167	934.985352	118.464905
22966.246064	3069.636167	933.808594	50.128410
22966.246064	3069.636167	932.631836	44.630024
22966.246064	3069.636167	931.454102	26.224560
22966.246064	3069.636167	930.277344	-5.318431
22966.246064	3069.636167	929.099609	108.300728
22966.246064	3069.636167	927.921875	16.149914
22966.246064	3069.636167	926.743164	8.448955
22966.246064	3069.636167	925.565430	93.783928
22966.246064	3069.636167	924.386719	70.884575
22966.246064	3069.636167	923.208008	-10.433638
22966.246064	3069.636167	922.028320	-16.032471
22966.246064	3069.636167	920.849609	71.348824
22966.246064	3069.636167	919.669922	72.900795
22966.246064	3069.636167	919.474609	68.121780
22966.246064	3069.636167	918.309570	189.988541
22966.246064	3069.636167	917.143555	99.975258
22966.246064	3069.636167	915.977539	51.040291
22966.246064	3069.636167	914.810547	231.124023
22966.246064	3069.636167	913.644531	71.987602
22966.246064	3069.636167	912.477539	-22.309963
22966.246064	3069.636167	911.310547	-41.012871
22966.246064	3069.636167	910.143555	-5.754735
22966.246064	3069.636167	908.975586	-28.799114
22966.246064	3069.636167	907.807617	36.623489
22966.246064	3069.636167	906.639648	-25.283377
22966.246064	3069.636167	905.471680	98.321526
22966.246064	3069.636167	904.303711	64.433228
22966.246064	3069.636167	903.134766	52.106964
22966.246064	3069.636167	901.965820	91.507538
22966.246064	3069.636167	900.796875	-13.522346
22966.246064	3069.636167	899.626953	-21.556423
22966.246064	3069.636167	898.457031	164.290863
22966.246064	3069.636167	897.287109	113.118294
22966.246064	3069.636167	896.117188	128.711197
22966.246064	3069.636167	894.947266	127.059952
22966.246064	3069.636167	893.776367	153.381287
22966.246064	3069.636167	892.605469	-61.363014
22966.246064	3069.636167	891.434570	42.422150
22966.246064	3069.636167	890.262695	150.455673
22966.246064	3069.636167	889.091797	110.023605
22966.246064	3069.636167	887.919922	235.177811
22966.246064	3069.636167	886.748047	211.921097
22966.246064	3069.636167	885.575195	257.447205
22966.246064	3069.636167	884.403320	146.058792
22966.246064	3069.636167	883.230469	139.988342
22966.246064	3069.636167	882.057617	168.280197
22966.246064	3069.636167	880.883789	157.889496
22966.246064	3069.636167	879.710938	-43.621479
22966.246064	3069.636167	878.537109	-124.834572
22966.246064	3069.636167	877.362305	30.084543
22966.246064	3069.636167	876.188477	111.963837
22966.246064	3069.636167	875.013672	-44.359425
22966.246064	3069.636167	873.839844	99.688377
22966.246064	3069.636167	872.664063	-159.534683
22966.246064	3069.636167	871.489258	-116.323219
22966.246064	3069.636167	870.313477	-73.139381
22966.246064	3069.636167	869.138672	-85.712463
22966.246064	3069.636167	867.962891	-160.435303
22966.246064	3069.636167	866.786133	-42.312210
22966.246064	3069.636167	865.610352	-65.624458
22966.246064	3069.636167	864.433594	-95.361862
22966.246064	3069.636167	863.256836	-63.002899
22966.246064	3069.636167	862.079102	-30.666367
22966.246064	3069.636167	860.902344	-30.458666
22966.246064	3069.636167	859.724609	-107.295471
22966.246064	3069.636167	858.546875	-47.187225
22966.246064	3069.636167	857.368164	-83.367516
22966.246064	3069.636167	856.190430	-98.157768
22966.246064	3069.636167	855.011719	-192.061157
22966.246064	3069.636167	853.833008	-127.747986
22966.246064	3069.636167	852.654297	-138.273880
22966.246064	3069.636167	851.474609	-1.365392
22966.246064	3069.636167	850.294922	-50.385956
22966.246064	3069.636167	849.115234	-56.677319
22966.246064	3069.636167	847.935547	-24.537033
22966.246064	3069.636167	846.754883	46.011898
22966.246064	3069.636167	845.575195	50.349335
22966.246064	3069.636167	844.393555	22.664463
22966.246064	3069.636167	843.212891	1.382185
22966.246064	3069.636167	842.032227	-107.365486
22966.246064	3069.636167	840.850586	-45.449265
22966.246064	3069.636167	839.668945	-13.421490
22966.246064	3069.636167	838.486328	22.848324
22966.246064	3069.636167	837.304688	-9.115589
22966.246064	3069.636167	836.122070	10.071252
22966.246064	3069.636167	834.939453	18.587719
22966.246064	3069.636167	833.756836	31.351793
22966.246064	3069.636167	832.573242	-17.661364
22966.246064	3069.636167	831.389648	39.803307
22966.246064	3069.636167	830.206055	116.394981
22966.246064	3069.636167	829.022461	26.925907
22966.246064	3069.636167	827.838867	175.823090
22966.246064	3069.636167	826.654297	226.781357
22966.246064	3069.636167	825.469727	186.242065
22966.246064	3069.636167	824.284180	203.131744
22966.246064	3069.636167	823.099609	237.014542
22966.246064	3069.636167	821.914063	466.451019
22966.246064	3069.636167	820.728516	425.858826
22966.246064	3069.636167	819.542969	412.898132
22966.246064	3069.636167	818.356445	251.218033
22966.246064	3069.636167	817.169922	344.484039
22966.246064	3069.636167	815.983398	286.923676
22966.246064	3069.636167	814.796875	305.812744
22966.246064	3069.636167	813.609375	261.002014
22966.246064	3069.636167	812.422852	256.523773
22966.246064	3069.636167	811.235352	235.063110
22966.246064	3069.636167	810.046875	143.593872
22966.246064	3069.636167	808.859375	228.195984
22966.246064	3069.636167	807.670898	240.654373
22966.246064	3069.636167	806.482422	397.266205
22966.246064	3069.636167	805.293945	490.212799
22966.246064	3069.636167	804.104492	434.763214
22966.246064	3069.636167	802.915039	283.979584
22966.246064	3069.636167	801.725586	129.011200
22966.246064	3069.636167	800.536133	192.244476
22966.246064	3069.636167	799.345703	155.918930
22966.246064	3069.636167	798.155273	53.968960
22966.246064	3069.636167	796.964844	30.365665
22966.246064	3069.636167	795.774414	154.894379
22966.246064	3069.636167	794.583008	2.198106
22966.246064	3069.636167	793.392578	-19.296804
22966.246064	3069.636167	792.200195	52.260979
22966.246064	3069.636167	791.008789	79.374916
22966.246064	3069.636167	789.816406	26.134560
22966.246064	3069.636167	788.625000	13.062490
22966.246064	3069.636167	787.432617	-31.711988
22966.246064	3069.636167	786.239258	115.774620
22966.246064	3069.636167	785.046875	35.065937
22966.246064	3069.636167	783.853516	195.124954
22966.246064	3069.636167	782.660156	105.964745
22966.246064	3069.636167	781.465820	35.827843
22966.246064	3069.636167	780.272461	102.889519
22966.246064	3069.636167	779.078125	125.600464
22966.246064	3069.636167	777.883789	133.522385
22966.246064	3069.636167	776.688477	156.192673
22966.246064	3069.636167	775.494141	43.881649
22966.246064	3069.636167	774.298828	174.059204
22966.246064	3069.636167	773.103516	179.805878
22966.246064	3069.636167	771.907227	231.900696
22966.246064	3069.636167	770.711914	176.504196
22966.246064	3069.636167	769.515625	76.880135
22966.246064	3069.636167	768.318359	109.969017
22966.246064	3069.636167	767.122070	199.883591
22966.246064	3069.636167	765.924805	127.644119
22966.246064	3069.636167	764.727539	74.363914
22966.246064	3069.636167	763.530273	101.057739
22966.246064	3069.636167	762.333008	171.908325
22966.246064	3069.636167	761.134766	242.715317
22966.246064	3069.636167	759.936523	315.581360
22966.246064	3069.636167	758.738281	337.939636
22966.246064	3069.636167	757.540039	429.645721
22966.246064	3069.636167	756.340820	302.718506
22966.246064	3069.636167	755.141602	274.589691
22966.246064	3069.636167	753.942383	143.515518
22966.246064	3069.636167	752.742188	165.810944
22966.246064	3069.636167	751.541992	141.881866
22966.246064	3069.636167	750.341797	214.526230
22966.246064	3069.636167	749.141602	64.618904
22966.246064	3069.636167	747.941406	219.065247
22966.246064	3069.636167	746.740234	163.607407
22966.246064	3069.636167	745.539063	148.014618
22966.246064	3069.636167	744.337891	184.845825
22966.246064	3069.636167	743.135742	106.314079
22966.246064	3069.636167	741.933594	36.184261
22966.246064	3069.636167	740.731445	129.557800
22966.246064	3069.636167	739.529297	153.720413
22966.246064	3069.636167	738.326172	194.616547
22966.246064	3069.636167	737.124023	227.099289
22966.246064	3069.636167	735.919922	163.212906
22966.246064	3069.636167	734.716797	13.487549
22966.246064	3069.636167	733.513672	265.742859
22966.246064	3069.636167	732.309570	143.231094
22966.246064	3069.636167	731.105469	271.856903
22966.246064	3069.636167	729.900391	120.068291
22966.246064	3069.636167	728.696289	246.516403
22966.246064	3069.636167	727.491211	140.765823
22966.246064	3069.636167	726.286133	212.757919
22966.246064	3069.636167	725.080078	155.098343
22966.246064	3069.636167	723.874023	285.536102
22966.246064	3069.636167	722.668945	104.567543
22966.246064	3069.636167	721.461914	220.298203
22966.246064	3069.636167	720.255859	218.999237
22966.246064	3069.636167	719.048828	54.803387
22966.246064	3069.636167	717.841797	116.130875
22966.246064	3069.636167	716.634766	129.404907
22966.246064	3069.636167	715.427734	115.523537
22966.246064	3069.636167	714.219727	30.688734
22966.246064	3069.636167	713.011719	-66.647232
22966.246064	3069.636167	711.803711	-13.804067
22966.246064	3069.636167	710.594727	70.271950
22966.246064	3069.636167	709.385742	125.106400
22966.246064	3069.636167	708.176758	96.527031
22966.246064	3069.636167	706.967773	82.524689
22966.246064	3069.636167	705.758789	66.423225
22966.246064	3069.636167	704.548828	44.057552
22966.246064	3069.636167	703.338867	-5.393107
22966.246064	3069.636167	702.127930	28.436153
22966.246064	3069.636167	700.917969	93.454086
22966.246064	3069.636167	699.707031	56.444317
22966.246064	3069.636167	698.496094	-7.622101
22966.246064	3069.636167	697.285156	107.222015
22966.246064	3069.636167	696.073242	142.959427
22966.246064	3069.636167	694.861328	126.673538
22966.246064	3069.636167	693.649414	247.584976
22966.246064	3069.636167	692.436523	164.723312
22966.246064	3069.636167	691.224609	208.639694
22966.246064	3069.636167	690.011719	258.746399
22966.246064	3069.636167	688.798828	292.190948
22966.246064	3069.636167	687.584961	207.219116
22966.246064	3069.636167	686.372070	253.071960
22966.246064	3069.636167	685.158203	350.779266
22966.246064	3069.636167	683.943359	350.872406
22966.246064	3069.636167	682.729492	562.598877
22966.246064	3069.636167	681.514648	523.181946
22966.246064	3069.636167	680.299805	514.870667
22966.246064	3069.636167	679.084961	417.367859
22966.246064	3069.636167	677.869141	348.907440
22966.246064	3069.636167	676.653320	502.249268
22966.246064	3069.636167	675.437500	400.592499
22966.246064	3069.636167	674.221680	332.106567
22966.246064	3069.636167	673.004883	421.062958
22966.246064	3069.636167	671.789063	422.971283
22966.246064	3069.636167	670.571289	654.699402
22966.246064	3069.636167	669.354492	745.529053
22966.246064	3069.636167	668.136719	898.389771
22966.246064	3069.636167	666.919922	1005.635986
22966.246064	3069.636167	665.701172	916.260193
22966.246064	3069.636167	664.483398	785.529175
22966.246064	3069.636167	663.264648	716.869263
22966.246064	3069.636167	662.045898	534.494263
22966.246064	3069.636167	660.827148	459.666199
22966.246064	3069.636167	659.608398	481.983521
22966.246064	3069.636167	658.388672	405.081848
22966.246064	3069.636167	657.168945	394.296814
22966.246064	3069.636167	655.949219	371.099640
22966.246064	3069.636167	654.728516	426.357117
22966.246064	3069.636167	653.507813	456.792175
22966.246064	3069.636167	652.287109	454.163879
22966.246064	3069.636167	651.066406	327.690094
22966.246064	3069.636167	649.844727	318.850830
22966.246064	3069.636167	648.623047	285.237549
22966.246064	3069.636167	647.401367	284.612732
22966.246064	3069.636167	646.179688	459.231903
22966.246064	3069.636167	644.957031	456.460297
22966.246064	3069.636167	643.734375	641.226013
22966.246064	3069.636167	642.511719	731.099854
22966.246064	3069.636167	641.289063	649.913391
22966.246064	3069.636167	640.065430	758.237488
22966.246064	3069.636167	638.841797	716.159241
22966.246064	3069.636167	637.618164	532.011414
22966.246064	3069.636167	636.393555	527.004333
22966.246064	3069.636167	635.168945	384.087830
22966.246064	3069.636167	633.944336	243.267212
22966.246064	3069.636167	632.719727	271.171844
22966.246064	3069.636167	631.494141	208.544281
22966.246064	3069.636167	630.269531	127.416534
22966.246064	3069.636167	629.042969	136.755676
22966.246064	3069.636167	627.817383	170.736404
22966.246064	3069.636167	626.590820	192.349518
22966.246064	3069.636167	625.365234	74.224342
22966.246064	3069.636167	624.137695	36.235249
22966.246064	3069.636167	622.911133	16.726868
22966.246064	3069.636167	621.683594	67.014816
22966.246064	3069.636167	620.456055	-30.541605
22966.246064	3069.636167	619.228516	-72.662102
22966.246064	3069.636167	618.000977	37.059372
22966.246064	3069.636167	616.772461	-62.540955
22966.246064	3069.636167	615.543945	22.478584
22966.246064	3069.636167	614.314453	-46.356827
22966.246064	3069.636167	613.085938	-16.769756
22966.246064	3069.636167	611.856445	29.182695
22966.246064	3069.636167	610.626953	21.815084
22966.246064	3069.636167	609.397461	-24.496281
22966.246064	3069.636167	608.166992	-25.740887
22966.246064	3069.636167	606.936523	59.015030
22966.246064	3069.636167	605.706055	61.814796
22966.246064	3069.636167	604.474609	40.029266
22966.246064	3069.636167	603.244141	134.902206
22966.246064	3069.636167	602.012695	-58.808914
22966.246064	3069.636167	600.780273	87.156013
22966.246064	3069.636167	599.548828	-6.267242
22966.246064	3069.636167	598.316406	141.640396
22966.246064	3069.636167	597.083984	89.105827
22966.246064	3069.636167	595.851563	57.021072
22966.246064	3069.636167	594.618164	172.079468
22966.246064	3069.636167	593.384766	101.141289
22966.246064	3069.636167	592.151367	122.147141
22966.246064	3069.636167	590.917969	149.259598
22966.246064	3069.636167	589.683594	174.305069
22966.246064	3069.636167	588.449219	168.706375
22966.246064	3069.636167	587.214844	101.867775
22966.246064	3069.636167	585.979492	35.045631
22966.246064	3069.636167	584.745117	-1.152371
22966.246064	3069.636167	583.509766	-10.829031
22966.246064	3069.636167	582.273438	105.925568
22966.246064	3069.636167	581.038086	12.619328
22966.246064	3069.636167	579.801758	92.611839
22966.246064	3069.636167	578.565430	66.586281
22966.246064	3069.636167	577.329102	91.505356
22966.246064	3069.636167	576.091797	185.668625
22966.246064	3069.636167	574.854492	247.199265
22966.246064	3069.636167	573.617188	115.252113
22966.246064	3069.636167	572.378906	121.792534
22966.246064	3069.636167	571.141602	53.018478
22966.246064	3069.636167	569.903320	106.367424
22966.246064	3069.636167	568.664063	98.652702
22966.246064	3069.636167	567.425781	-67.718979
22966.246064	3069.636167	566.186523	40.523144
22966.246064	3069.636167	564.947266	20.624348
22966.246064	3069.636167	563.708008	65.783981
22966.246064	3069.636167	562.467773	80.437180
22966.246064	3069.636167	561.227539	9.743793
22966.246064	3069.636167	559.987305	44.721058
22966.246064	3069.636167	558.747070	16.722389
22966.246064	3069.636167	557.505859	0.920742
22966.246064	3069.636167	556.264648	-39.232994
22966.246064	3069.636167	555.023438	-26.590963
22966.246064	3069.636167	553.781250	-78.890083
22966.246064	3069.636167	552.539063	-31.744905
22966.246064	3069.636167	551.296875	-51.552719
22966.246064	3069.636167	550.054688	-71.345085
22966.246064	3069.636167	548.811523	-119.509773
22966.246064	3069.636167	547.569336	10.747348
22966.246064	3069.636167	546.325195	43.670380
22966.246064	3069.636167	545.082031	80.643761
22966.246064	3069.636167	543.837891	79.118637
22966.246064	3069.636167	542.593750	31.020243
22966.246064	3069.636167	541.349609	7.254273
22966.246064	3069.636167	540.105469	9.830441
22966.246064	3069.636167	538.860352	-72.596687
22966.246064	3069.636167	537.615234	-92.240120
22966.246064	3069.636167	536.369141	-45.094910
22966.246064	3069.636167	535.124023	24.298641
22966.246064	3069.636167	533.877930	-11.488249
22966.246064	3069.636167	532.631836	-156.428635
22966.246064	3069.636167	531.384766	-34.450165
22966.246064	3069.636167	530.138672	65.263947
22966.246064	3069.636167	528.891602	100.291122
22966.246064	3069.636167	527.643555	74.713867
22966.246064	3069.636167	526.396484	-23.542513
22966.246064	3069.636167	525.148438	138.759171
22966.246064	3069.636167	523.900391	208.142059
22966.246064	3069.636167	522.652344	160.444962
22966.246064	3069.636167	521.403320	149.114365
22966.246064	3069.636167	520.154297	109.565208
22966.246064	3069.636167	518.905273	74.091827
22966.246064	3069.636167	517.656250	14.457055
22966.246064	3069.636167	516.406250	-31.013876
22966.246064	3069.636167	515.156250	-62.328018
22966.246064	3069.636167	513.906250	-43.215721
22966.246064	3069.636167	512.655273	-80.506500
22966.246064	3069.636167	511.404297	-29.111311
22966.246064	3069.636167	510.153320	-52.233418
22966.246064	3069.636167	508.902344	-145.796814
22966.246064	3069.636167	507.650391	-31.922724
22966.246064	3069.636167	506.398438	-83.121819
22966.246064	3069.636167	505.146484	-96.031761
22966.246064	3069.636167	503.893555	-137.074493
22966.246064	3069.636167	502.641602	-101.626472
22966.246064	3069.636167	501.388672	-15.884401
22966.246064	3069.636167	500.134766	31.649094
22966.246064	3069.636167	498.881836	-51.470257
22966.246064	3069.636167	497.627930	-138.541107
22966.246064	3069.636167	496.374023	-10.533954
22966.246064	3069.636167	495.119141	10.976262
22966.246064	3069.636167	493.865234	44.564999
22966.246064	3069.636167	492.610352	48.052155
22966.246064	3069.636167	491.355469	33.504894
22966.246064	3069.636167	490.099609	-31.181965
22966.246064	3069.636167	488.843750	130.965134
22966.246064	3069.636167	487.587891	138.588593
22966.246064	3069.636167	486.332031	182.353195
22966.246064	3069.636167	485.075195	45.639633
22966.246064	3069.636167	483.818359	107.525505
22966.246064	3069.636167	482.561523	97.255630
22966.246064	3069.636167	481.304688	117.091644
22966.246064	3069.636167	480.046875	68.828049
22966.246064	3069.636167	478.789063	34.647446
22966.246064	3069.636167	477.531250	0.520361
22966.246064	3069.636167	476.272461	-57.584133
22966.246064	3069.636167	475.013672	-69.577141
22966.246064	3069.636167	473.754883	-87.531189
22966.246064	3069.636167	472.496094	-5.378959
22966.246064	3069.636167	471.236328	-59.275906
22966.246064	3069.636167	469.976563	-17.095058
22966.246064	3069.636167	468.716797	53.104568
22966.246064	3069.636167	467.456055	71.325706
22966.246064	3069.636167	466.196289	47.597908
22966.246064	3069.636167	464.935547	-28.045872
22966.246064	3069.636167	463.673828	20.266434
22966.246064	3069.636167	462.413086	58.607285
22966.246064	3069.636167	461.151367	51.029453
22966.246064	3069.636167	459.889648	73.444733
22966.246064	3069.636167	458.626953	16.027864
22966.246064	3069.636167	457.364258	0.587694
22966.246064	3069.636167	456.101563	63.016426
22966.246064	3069.636167	454.838867	161.365143
22966.246064	3069.636167	453.575195	110.100746
22966.246064	3069.636167	452.312500	19.005756
22966.246064	3069.636167	451.047852	23.686344
22966.246064	3069.636167	449.784180	-29.412888
22966.246064	3069.636167	448.519531	76.980339
22966.246064	3069.636167	447.254883	23.951546
22966.246064	3069.636167	445.990234	34.722076
22966.246064	3069.636167	444.725586	95.307396
22966.246064	3069.636167	443.459961	147.927261
22966.246064	3069.636167	442.194336	142.814316
22966.246064	3069.636167	440.927734	225.304657
22966.246064	3069.636167	439.662109	160.523285
22966.246064	3069.636167	438.395508	318.619202
22966.246064	3069.636167	437.127930	188.243484
22966.246064	3069.636167	435.861328	151.409943
22966.246064	3069.636167	434.593750	54.959866
22966.246064	3069.636167	433.326172	53.981194
22966.246064	3069.636167	432.058594	146.422256
22966.246064	3069.636167	430.790039	67.954330
22966.246064	3069.636167	429.521484	142.491516
22966.246064	3069.636167	428.252930	145.502380
22966.246064	3069.636167	426.984375	200.143158
22966.246064	3069.636167	425.714844	117.779617
22966.246064	3069.636167	424.445313	124.767120
22966.246064	3069.636167	423.174805	270.655060
22966.246064	3069.636167	421.905273	333.147369
22966.246064	3069.636167	420.634766	205.185440
22966.246064	3069.636167	419.364258	112.963135
22966.246064	3069.636167	418.092773	252.737442
22966.246064	3069.636167	416.822266	164.477005
22966.246064	3069.636167	415.550781	216.941910
22966.246064	3069.636167	414.278320	223.788269
22966.246064	3069.636167	413.006836	238.528244
22966.246064	3069.636167	411.734375	174.010269
22966.246064	3069.636167	410.461914	174.828644
22966.246064	3069.636167	409.188477	322.102661
22966.246064	3069.636167	407.916016	303.016266
22966.246064	3069.636167	406.642578	208.697571
22966.246064	3069.636167	405.368164	138.109604
22966.246064	3069.636167	404.094727	207.932068
22966.246064	3069.636167	402.820313	121.441750
22966.246064	3069.636167	401.545898	48.765446
22966.246064	3069.636167	400.270508	35.351826
22966.246064	3069.636167	398.996094	-80.891609
22966.246064	3069.636167	397.720703	4.367878
22966.246064	3069.636167	396.444336	46.048908
22966.246064	3069.636167	395.168945	28.376507
22966.246064	3069.636167	393.892578	-13.076429
22966.246064	3069.636167	392.616211	30.274717
22966.246064	3069.636167	391.339844	61.660374
22966.246064	3069.636167	390.062500	130.411957
22966.246064	3069.636167	388.785156	9.629195
22966.246064	3069.636167	387.507813	64.315948
22966.246064	3069.636167	386.229492	105.044533
22966.246064	3069.636167	384.951172	62.816280
22966.246064	3069.636167	383.672852	97.335205
22966.246064	3069.636167	382.394531	80.452850
22966.246064	3069.636167	381.115234	-54.794056
22966.246064	3069.636167	379.835938	-58.170616
22966.246064	3069.636167	378.556641	80.076004
22966.246064	3069.636167	377.277344	38.910362
22966.246064	3069.636167	375.997070	141.273392
22966.246064	3069.636167	374.716797	28.876011
22966.246064	3069.636167	373.435547	-16.779547
22966.246064	3069.636167	372.155273	29.833897
22966.246064	3069.636167	370.874023	-18.202993
22966.246064	3069.636167	369.591797	-17.294119
22966.246064	3069.636167	368.310547	164.243088
22966.246064	3069.636167	367.028320	87.967552
22966.246064	3069.636167	365.746094	40.942101
22966.246064	3069.636167	364.463867	-73.129898
22966.246064	3069.636167	363.180664	122.910645
22966.246064	3069.636167	361.897461	102.558784
22966.246064	3069.636167	360.614258	191.863602
22966.246064	3069.636167	359.330078	168.925613
22966.246064	3069.636167	358.045898	173.149460
22966.246064	3069.636167	356.761719	118.174500
22966.246064	3069.636167	355.477539	182.538055
22966.246064	3069.636167	354.192383	93.534164
22966.246064	3069.636167	352.907227	27.727489
22966.246064	3069.636167	351.622070	-73.720451
22966.246064	3069.636167	350.336914	-14.804679
22966.246064	3069.636167	349.050781	-19.035725
22966.246064	3069.636167	347.764648	72.307587
22966.246064	3069.636167	346.477539	59.357269
22966.246064	3069.636167	345.191406	28.345135
22966.246064	3069.636167	343.904297	-61.860970
22966.246064	3069.636167	342.616211	-11.585570
22966.246064	3069.636167	341.329102	-75.322006
22966.246064	3069.636167	340.041016	5.232208
22966.246064	3069.636167	338.752930	-26.272869
22966.246064	3069.636167	337.463867	-44.627792
22966.246064	3069.636167	336.175781	65.523087
22966.246064	3069.636167	334.886719	-45.855541
22966.246064	3069.636167	333.596680	-19.028738
22966.246064	3069.636167	332.307617	-41.661774
22966.246064	3069.636167	331.017578	-86.414772
22966.246064	3069.636167	329.727539	-102.498756
22966.246064	3069.636167	328.436523	15.480679
22966.246064	3069.636167	327.146484	-121.056358
22966.246064	3069.636167	325.855469	-22.079588
22966.246064	3069.636167	324.563477	-39.019054
22966.246064	3069.636167	323.272461	48.672844
22966.246064	3069.636167	321.980469	-65.361351
22966.246064	3069.636167	320.688477	-51.423618
22966.246064	3069.636167	319.395508	-63.663345
22966.246064	3069.636167	318.103516	165.000839
22966.246064	3069.636167	316.810547	90.623055
22966.246064	3069.636167	315.516602	-56.708450
22966.246064	3069.636167	314.223633	-4.210069
22966.246064	3069.636167	312.929688	68.746185
22966.246064	3069.636167	311.635742	127.093979
22966.246064	3069.636167	310.340820	61.779655
22966.246064	3069.636167	309.045898	42.208023
22966.246064	3069.636167	307.750977	44.973377
22966.246064	3069.636167	306.456055	1.944455
22966.246064	3069.636167	305.160156	95.930763
22966.246064	3069.636167	303.865234	56.567192
22966.246064	3069.636167	302.568359	187.125229
22966.246064	3069.636167	301.272461	104.627007
22966.246064	3069.636167	299.975586	139.492279
22966.246064	3069.636167	298.678711	122.610611
