#X		#Y		#Wave		#Intensity
31168.138191	1129.293000	1999.980469	-64.488258
31168.138191	1129.293000	1999.016602	190.807098
31168.138191	1129.293000	1998.052734	-67.367348
31168.138191	1129.293000	1997.087891	13.684352
31168.138191	1129.293000	1996.123047	81.950752
31168.138191	1129.293000	1995.158203	45.793640
31168.138191	1129.293000	1994.193359	-77.380531
31168.138191	1129.293000	1993.228516	111.172325
31168.138191	1129.293000	1992.262695	-17.567719
31168.138191	1129.293000	1991.297852	44.028538
31168.138191	1129.293000	1990.332031	58.285030
31168.138191	1129.293000	1989.366211	-44.053078
31168.138191	1129.293000	1988.399414	-8.083990
31168.138191	1129.293000	1987.433594	109.226265
31168.138191	1129.293000	1986.466797	33.337063
31168.138191	1129.293000	1985.500977	66.019318
31168.138191	1129.293000	1984.534180	-277.314972
31168.138191	1129.293000	1983.567383	-81.922249
31168.138191	1129.293000	1982.599609	-74.635948
31168.138191	1129.293000	1981.632813	-74.979027
31168.138191	1129.293000	1980.665039	-164.457214
31168.138191	1129.293000	1979.697266	47.225876
31168.138191	1129.293000	1978.729492	70.968208
31168.138191	1129.293000	1977.761719	64.894089
31168.138191	1129.293000	1976.792969	120.363998
31168.138191	1129.293000	1975.825195	25.097300
31168.138191	1129.293000	1974.856445	-186.266724
31168.138191	1129.293000	1973.887695	-99.179779
31168.138191	1129.293000	1972.918945	-135.601517
31168.138191	1129.293000	1971.949219	256.972382
31168.138191	1129.293000	1970.980469	368.177826
31168.138191	1129.293000	1970.010742	173.522873
31168.138191	1129.293000	1969.041016	99.600555
31168.138191	1129.293000	1968.071289	8.344858
31168.138191	1129.293000	1967.101563	52.534302
31168.138191	1129.293000	1966.130859	185.291595
31168.138191	1129.293000	1965.161133	-86.023346
31168.138191	1129.293000	1964.190430	152.419403
31168.138191	1129.293000	1963.219727	-86.951538
31168.138191	1129.293000	1962.249023	134.013626
31168.138191	1129.293000	1961.277344	111.167854
31168.138191	1129.293000	1960.306641	95.646454
31168.138191	1129.293000	1959.334961	62.846169
31168.138191	1129.293000	1958.363281	37.380806
31168.138191	1129.293000	1957.391602	-42.234394
31168.138191	1129.293000	1956.419922	136.312531
31168.138191	1129.293000	1955.447266	135.283478
31168.138191	1129.293000	1954.474609	-150.909256
31168.138191	1129.293000	1953.501953	115.906219
31168.138191	1129.293000	1952.529297	-44.937183
31168.138191	1129.293000	1951.556641	7.973359
31168.138191	1129.293000	1950.583984	151.715591
31168.138191	1129.293000	1949.610352	-48.414413
31168.138191	1129.293000	1948.636719	107.517532
31168.138191	1129.293000	1947.663086	-18.921963
31168.138191	1129.293000	1946.689453	95.193962
31168.138191	1129.293000	1945.715820	35.034214
31168.138191	1129.293000	1944.741211	90.197922
31168.138191	1129.293000	1943.767578	22.690371
31168.138191	1129.293000	1942.792969	-10.461177
31168.138191	1129.293000	1941.818359	-9.271523
31168.138191	1129.293000	1940.842773	102.239845
31168.138191	1129.293000	1939.868164	-63.260120
31168.138191	1129.293000	1938.892578	178.115784
31168.138191	1129.293000	1937.916992	-38.775623
31168.138191	1129.293000	1936.941406	-106.142380
31168.138191	1129.293000	1935.965820	0.428442
31168.138191	1129.293000	1934.990234	-118.318283
31168.138191	1129.293000	1934.013672	-19.100922
31168.138191	1129.293000	1933.037109	-86.361038
31168.138191	1129.293000	1932.060547	-99.732956
31168.138191	1129.293000	1931.083984	-184.043472
31168.138191	1129.293000	1930.107422	-62.790375
31168.138191	1129.293000	1929.129883	-164.156235
31168.138191	1129.293000	1928.153320	81.821236
31168.138191	1129.293000	1927.175781	-9.703909
31168.138191	1129.293000	1926.198242	-74.276535
31168.138191	1129.293000	1925.219727	20.076805
31168.138191	1129.293000	1924.242188	170.631332
31168.138191	1129.293000	1923.263672	-67.337891
31168.138191	1129.293000	1922.285156	80.789848
31168.138191	1129.293000	1921.306641	184.926193
31168.138191	1129.293000	1920.328125	27.761030
31168.138191	1129.293000	1919.349609	219.824020
31168.138191	1129.293000	1918.370117	116.474030
31168.138191	1129.293000	1917.391602	71.768562
31168.138191	1129.293000	1916.412109	10.028494
31168.138191	1129.293000	1915.431641	-95.574120
31168.138191	1129.293000	1914.452148	106.241478
31168.138191	1129.293000	1913.472656	-30.980560
31168.138191	1129.293000	1912.492188	-48.643276
31168.138191	1129.293000	1911.511719	101.946220
31168.138191	1129.293000	1910.531250	-20.482786
31168.138191	1129.293000	1909.550781	127.669037
31168.138191	1129.293000	1908.569336	-89.684067
31168.138191	1129.293000	1907.588867	165.671402
31168.138191	1129.293000	1906.607422	-49.113586
31168.138191	1129.293000	1905.625977	18.688517
31168.138191	1129.293000	1904.644531	110.840843
31168.138191	1129.293000	1903.662109	-20.965128
31168.138191	1129.293000	1902.680664	-79.681488
31168.138191	1129.293000	1901.698242	-14.248997
31168.138191	1129.293000	1900.715820	-68.026443
31168.138191	1129.293000	1899.733398	126.348694
31168.138191	1129.293000	1898.750000	199.076569
31168.138191	1129.293000	1897.767578	249.916565
31168.138191	1129.293000	1896.784180	-110.090630
31168.138191	1129.293000	1895.800781	47.778893
31168.138191	1129.293000	1894.817383	98.683350
31168.138191	1129.293000	1893.833984	322.096344
31168.138191	1129.293000	1892.850586	28.014917
31168.138191	1129.293000	1891.866211	8.514094
31168.138191	1129.293000	1890.881836	6.035265
31168.138191	1129.293000	1889.897461	105.545074
31168.138191	1129.293000	1888.913086	15.690795
31168.138191	1129.293000	1887.927734	-151.779739
31168.138191	1129.293000	1886.943359	-18.287638
31168.138191	1129.293000	1885.958008	37.531082
31168.138191	1129.293000	1884.972656	-30.367811
31168.138191	1129.293000	1883.987305	-129.760025
31168.138191	1129.293000	1883.001953	73.979088
31168.138191	1129.293000	1882.015625	49.767193
31168.138191	1129.293000	1881.029297	-56.840481
31168.138191	1129.293000	1880.042969	-22.851181
31168.138191	1129.293000	1879.056641	-119.710648
31168.138191	1129.293000	1878.070313	-155.972061
31168.138191	1129.293000	1877.083984	-107.453278
31168.138191	1129.293000	1876.096680	-49.268982
31168.138191	1129.293000	1875.109375	-20.163877
31168.138191	1129.293000	1874.122070	-0.758596
31168.138191	1129.293000	1873.134766	-349.234344
31168.138191	1129.293000	1872.146484	-87.820129
31168.138191	1129.293000	1871.159180	-17.636717
31168.138191	1129.293000	1870.170898	-259.517639
31168.138191	1129.293000	1869.182617	-315.109009
31168.138191	1129.293000	1868.194336	265.213593
31168.138191	1129.293000	1867.205078	129.736618
31168.138191	1129.293000	1866.216797	-27.461384
31168.138191	1129.293000	1865.227539	59.449932
31168.138191	1129.293000	1864.238281	-73.557373
31168.138191	1129.293000	1863.249023	121.988731
31168.138191	1129.293000	1862.259766	-27.935831
31168.138191	1129.293000	1861.269531	-66.752785
31168.138191	1129.293000	1860.279297	290.357666
31168.138191	1129.293000	1859.290039	241.781799
31168.138191	1129.293000	1858.298828	62.869823
31168.138191	1129.293000	1857.308594	183.193100
31168.138191	1129.293000	1856.318359	-75.319611
31168.138191	1129.293000	1855.327148	-256.588257
31168.138191	1129.293000	1854.335938	-90.563416
31168.138191	1129.293000	1853.344727	-54.840462
31168.138191	1129.293000	1852.353516	147.161972
31168.138191	1129.293000	1851.362305	-34.175919
31168.138191	1129.293000	1850.370117	66.448357
31168.138191	1129.293000	1849.377930	89.891068
31168.138191	1129.293000	1848.385742	7.287320
31168.138191	1129.293000	1847.393555	117.335678
31168.138191	1129.293000	1846.401367	-42.397121
31168.138191	1129.293000	1845.408203	161.404861
31168.138191	1129.293000	1844.415039	117.150879
31168.138191	1129.293000	1843.421875	106.549301
31168.138191	1129.293000	1842.428711	134.391495
31168.138191	1129.293000	1841.435547	15.418074
31168.138191	1129.293000	1840.441406	-101.168579
31168.138191	1129.293000	1839.448242	126.107712
31168.138191	1129.293000	1838.454102	-127.628967
31168.138191	1129.293000	1837.459961	56.164886
31168.138191	1129.293000	1836.464844	93.211952
31168.138191	1129.293000	1835.470703	55.686218
31168.138191	1129.293000	1834.475586	99.787453
31168.138191	1129.293000	1833.480469	107.767479
31168.138191	1129.293000	1832.485352	53.229275
31168.138191	1129.293000	1831.490234	-18.171412
31168.138191	1129.293000	1830.495117	32.811989
31168.138191	1129.293000	1829.499023	153.302124
31168.138191	1129.293000	1828.502930	110.480896
31168.138191	1129.293000	1827.506836	-66.767380
31168.138191	1129.293000	1826.510742	-28.134554
31168.138191	1129.293000	1825.513672	-51.961143
31168.138191	1129.293000	1824.517578	68.014557
31168.138191	1129.293000	1823.520508	51.196846
31168.138191	1129.293000	1822.523438	10.325824
31168.138191	1129.293000	1821.526367	41.278069
31168.138191	1129.293000	1820.529297	278.197754
31168.138191	1129.293000	1819.531250	21.413881
31168.138191	1129.293000	1818.533203	-55.722725
31168.138191	1129.293000	1817.535156	211.925339
31168.138191	1129.293000	1816.537109	232.757187
31168.138191	1129.293000	1815.539063	-12.241101
31168.138191	1129.293000	1814.540039	49.111599
31168.138191	1129.293000	1813.541992	-30.843710
31168.138191	1129.293000	1812.542969	-12.779718
31168.138191	1129.293000	1811.543945	155.874924
31168.138191	1129.293000	1810.543945	94.760002
31168.138191	1129.293000	1809.544922	141.168564
31168.138191	1129.293000	1808.544922	-32.499573
31168.138191	1129.293000	1807.544922	207.309845
31168.138191	1129.293000	1806.544922	129.069366
31168.138191	1129.293000	1805.544922	347.032837
31168.138191	1129.293000	1804.544922	-49.155296
31168.138191	1129.293000	1803.543945	39.551414
31168.138191	1129.293000	1802.542969	63.633614
31168.138191	1129.293000	1801.541992	142.505371
31168.138191	1129.293000	1800.541016	-17.481743
31168.138191	1129.293000	1799.539063	-108.316795
31168.138191	1129.293000	1798.538086	-84.691490
31168.138191	1129.293000	1797.536133	-175.717911
31168.138191	1129.293000	1796.534180	21.795351
31168.138191	1129.293000	1795.532227	40.246853
31168.138191	1129.293000	1794.529297	-10.584405
31168.138191	1129.293000	1793.527344	-66.281433
31168.138191	1129.293000	1792.524414	32.841469
31168.138191	1129.293000	1791.521484	48.395325
31168.138191	1129.293000	1790.518555	75.729988
31168.138191	1129.293000	1789.514648	157.712845
31168.138191	1129.293000	1788.511719	82.349098
31168.138191	1129.293000	1787.507813	75.937622
31168.138191	1129.293000	1786.503906	62.257137
31168.138191	1129.293000	1785.500000	-37.239845
31168.138191	1129.293000	1784.496094	91.641403
31168.138191	1129.293000	1783.491211	110.881912
31168.138191	1129.293000	1782.486328	-48.442123
31168.138191	1129.293000	1781.481445	15.746891
31168.138191	1129.293000	1780.476563	151.121307
31168.138191	1129.293000	1779.471680	72.323235
31168.138191	1129.293000	1778.465820	55.221867
31168.138191	1129.293000	1777.460938	68.896675
31168.138191	1129.293000	1776.455078	-195.602036
31168.138191	1129.293000	1775.449219	86.309784
31168.138191	1129.293000	1774.442383	37.789993
31168.138191	1129.293000	1773.436523	-112.961685
31168.138191	1129.293000	1772.429688	49.632439
31168.138191	1129.293000	1771.422852	19.730276
31168.138191	1129.293000	1770.416016	-83.878395
31168.138191	1129.293000	1769.409180	-73.675270
31168.138191	1129.293000	1768.402344	21.802334
31168.138191	1129.293000	1767.394531	-18.119534
31168.138191	1129.293000	1766.386719	112.603546
31168.138191	1129.293000	1765.378906	22.603258
31168.138191	1129.293000	1764.371094	-72.242584
31168.138191	1129.293000	1763.362305	105.398476
31168.138191	1129.293000	1762.354492	204.632584
31168.138191	1129.293000	1761.345703	154.400101
31168.138191	1129.293000	1760.336914	49.556889
31168.138191	1129.293000	1759.328125	122.262131
31168.138191	1129.293000	1758.318359	-195.960846
31168.138191	1129.293000	1757.308594	158.234543
31168.138191	1129.293000	1756.299805	-150.674683
31168.138191	1129.293000	1755.290039	89.488647
31168.138191	1129.293000	1754.279297	111.702782
31168.138191	1129.293000	1753.269531	-152.498764
31168.138191	1129.293000	1752.258789	-189.663147
31168.138191	1129.293000	1751.249023	-33.011169
31168.138191	1129.293000	1750.238281	-231.255508
31168.138191	1129.293000	1749.226563	-11.123849
31168.138191	1129.293000	1748.215820	-273.395721
31168.138191	1129.293000	1747.204102	114.169586
31168.138191	1129.293000	1746.193359	-53.792812
31168.138191	1129.293000	1745.181641	-28.130560
31168.138191	1129.293000	1744.168945	-175.045853
31168.138191	1129.293000	1743.157227	-41.021896
31168.138191	1129.293000	1742.144531	111.688683
31168.138191	1129.293000	1741.132813	-127.632118
31168.138191	1129.293000	1740.120117	-166.404404
31168.138191	1129.293000	1739.106445	73.123856
31168.138191	1129.293000	1738.093750	-145.243027
31168.138191	1129.293000	1737.080078	-141.956100
31168.138191	1129.293000	1736.067383	-150.584549
31168.138191	1129.293000	1735.053711	-121.632629
31168.138191	1129.293000	1734.040039	-158.834259
31168.138191	1129.293000	1733.025391	-99.534966
31168.138191	1129.293000	1732.011719	-14.458088
31168.138191	1129.293000	1730.997070	9.183189
31168.138191	1129.293000	1729.982422	-205.231186
31168.138191	1129.293000	1728.967773	-19.324596
31168.138191	1129.293000	1727.952148	3.892882
31168.138191	1129.293000	1726.937500	-128.395493
31168.138191	1129.293000	1725.921875	-119.551491
31168.138191	1129.293000	1724.906250	-162.613403
31168.138191	1129.293000	1723.890625	38.909771
31168.138191	1129.293000	1722.875000	-58.529045
31168.138191	1129.293000	1721.858398	-29.067486
31168.138191	1129.293000	1720.841797	-152.593872
31168.138191	1129.293000	1719.825195	-69.304642
31168.138191	1129.293000	1718.808594	34.981743
31168.138191	1129.293000	1717.791992	-46.559052
31168.138191	1129.293000	1716.774414	-22.471382
31168.138191	1129.293000	1715.756836	-125.376297
31168.138191	1129.293000	1714.739258	22.958578
31168.138191	1129.293000	1713.721680	-66.069321
31168.138191	1129.293000	1712.704102	114.826126
31168.138191	1129.293000	1711.685547	-0.264159
31168.138191	1129.293000	1710.667969	4.283576
31168.138191	1129.293000	1709.649414	93.173553
31168.138191	1129.293000	1708.630859	127.950668
31168.138191	1129.293000	1707.611328	59.373451
31168.138191	1129.293000	1706.592773	-4.586747
31168.138191	1129.293000	1705.573242	48.586025
31168.138191	1129.293000	1704.553711	-10.902698
31168.138191	1129.293000	1703.534180	13.899374
31168.138191	1129.293000	1702.513672	326.805054
31168.138191	1129.293000	1701.494141	119.357063
31168.138191	1129.293000	1700.473633	164.855621
31168.138191	1129.293000	1699.453125	-28.662106
31168.138191	1129.293000	1698.432617	-9.125593
31168.138191	1129.293000	1697.412109	36.051334
31168.138191	1129.293000	1696.390625	345.592133
31168.138191	1129.293000	1695.369141	133.028564
31168.138191	1129.293000	1694.347656	224.621628
31168.138191	1129.293000	1693.326172	283.327698
31168.138191	1129.293000	1692.304688	131.407822
31168.138191	1129.293000	1691.282227	30.877062
31168.138191	1129.293000	1690.260742	122.023537
31168.138191	1129.293000	1689.238281	0.301835
31168.138191	1129.293000	1688.214844	182.340973
31168.138191	1129.293000	1687.192383	55.792881
31168.138191	1129.293000	1686.168945	85.710327
31168.138191	1129.293000	1685.146484	267.369629
31168.138191	1129.293000	1684.123047	234.000961
31168.138191	1129.293000	1683.099609	338.314056
31168.138191	1129.293000	1682.075195	302.417145
31168.138191	1129.293000	1681.051758	117.092056
31168.138191	1129.293000	1680.027344	41.411221
31168.138191	1129.293000	1679.002930	341.303436
31168.138191	1129.293000	1677.978516	272.442078
31168.138191	1129.293000	1676.953125	296.796356
31168.138191	1129.293000	1675.928711	335.071747
31168.138191	1129.293000	1674.903320	100.476768
31168.138191	1129.293000	1673.877930	339.055847
31168.138191	1129.293000	1672.852539	246.553665
31168.138191	1129.293000	1671.826172	303.112061
31168.138191	1129.293000	1670.800781	12.501652
31168.138191	1129.293000	1669.774414	194.710617
31168.138191	1129.293000	1668.748047	237.064056
31168.138191	1129.293000	1667.721680	274.678741
31168.138191	1129.293000	1666.694336	419.268555
31168.138191	1129.293000	1665.667969	95.982666
31168.138191	1129.293000	1664.640625	252.058716
31168.138191	1129.293000	1663.613281	552.246948
31168.138191	1129.293000	1662.585938	245.202255
31168.138191	1129.293000	1661.557617	282.364868
31168.138191	1129.293000	1660.530273	531.050537
31168.138191	1129.293000	1659.501953	577.331360
31168.138191	1129.293000	1658.473633	586.355347
31168.138191	1129.293000	1657.444336	560.450317
31168.138191	1129.293000	1656.416016	787.753601
31168.138191	1129.293000	1655.386719	668.811646
31168.138191	1129.293000	1654.358398	633.492554
31168.138191	1129.293000	1653.328125	549.342407
31168.138191	1129.293000	1652.298828	783.234436
31168.138191	1129.293000	1651.269531	659.567566
31168.138191	1129.293000	1650.239258	682.079590
31168.138191	1129.293000	1649.208984	690.624817
31168.138191	1129.293000	1648.178711	810.471619
31168.138191	1129.293000	1647.148438	830.512329
31168.138191	1129.293000	1646.117188	915.416138
31168.138191	1129.293000	1645.086914	951.591736
31168.138191	1129.293000	1644.055664	971.478516
31168.138191	1129.293000	1643.024414	926.442810
31168.138191	1129.293000	1641.992188	1159.407837
31168.138191	1129.293000	1640.960938	1151.364258
31168.138191	1129.293000	1639.928711	1268.345215
31168.138191	1129.293000	1638.896484	1176.860718
31168.138191	1129.293000	1637.864258	1346.996338
31168.138191	1129.293000	1636.832031	1165.220703
31168.138191	1129.293000	1635.798828	1457.892334
31168.138191	1129.293000	1634.766602	1357.115479
31168.138191	1129.293000	1633.733398	1506.182129
31168.138191	1129.293000	1632.699219	1574.210815
31168.138191	1129.293000	1631.666016	1646.845093
31168.138191	1129.293000	1630.632813	1613.093994
31168.138191	1129.293000	1629.598633	1708.775024
31168.138191	1129.293000	1628.564453	1778.992188
31168.138191	1129.293000	1627.530273	1969.332886
31168.138191	1129.293000	1626.495117	1953.970337
31168.138191	1129.293000	1625.460938	1707.663086
31168.138191	1129.293000	1624.425781	1920.978271
31168.138191	1129.293000	1623.390625	2115.746338
31168.138191	1129.293000	1622.355469	1657.169922
31168.138191	1129.293000	1621.319336	1757.279907
31168.138191	1129.293000	1620.284180	1993.521973
31168.138191	1129.293000	1619.248047	2220.434326
31168.138191	1129.293000	1618.211914	2188.933105
31168.138191	1129.293000	1617.174805	2233.541016
31168.138191	1129.293000	1616.138672	2402.674561
31168.138191	1129.293000	1615.101563	2288.196289
31168.138191	1129.293000	1614.065430	2395.059570
31168.138191	1129.293000	1613.027344	2591.734131
31168.138191	1129.293000	1611.990234	2705.433105
31168.138191	1129.293000	1610.953125	2641.748291
31168.138191	1129.293000	1609.915039	2840.633789
31168.138191	1129.293000	1608.876953	2657.248047
31168.138191	1129.293000	1607.838867	2692.663086
31168.138191	1129.293000	1606.800781	2960.562012
31168.138191	1129.293000	1605.761719	3087.997559
31168.138191	1129.293000	1604.723633	3070.488770
31168.138191	1129.293000	1603.684570	2583.742432
31168.138191	1129.293000	1602.644531	3037.844482
31168.138191	1129.293000	1601.605469	3211.300293
31168.138191	1129.293000	1600.566406	2938.732422
31168.138191	1129.293000	1599.526367	2893.847900
31168.138191	1129.293000	1598.486328	2986.908203
31168.138191	1129.293000	1597.446289	2992.670898
31168.138191	1129.293000	1596.405273	2805.497070
31168.138191	1129.293000	1595.365234	2756.268311
31168.138191	1129.293000	1594.324219	2966.567627
31168.138191	1129.293000	1593.283203	2823.284668
31168.138191	1129.293000	1592.242188	2703.063477
31168.138191	1129.293000	1591.200195	2546.209473
31168.138191	1129.293000	1590.159180	2632.706787
31168.138191	1129.293000	1589.117188	2593.041260
31168.138191	1129.293000	1588.075195	2791.983154
31168.138191	1129.293000	1587.032227	2800.560547
31168.138191	1129.293000	1585.990234	2703.757324
31168.138191	1129.293000	1584.947266	2680.387451
31168.138191	1129.293000	1583.904297	2714.391357
31168.138191	1129.293000	1582.861328	2638.465332
31168.138191	1129.293000	1581.818359	2684.058594
31168.138191	1129.293000	1580.775391	2592.278076
31168.138191	1129.293000	1579.731445	2864.698975
31168.138191	1129.293000	1578.687500	2445.647705
31168.138191	1129.293000	1577.643555	2670.071045
31168.138191	1129.293000	1576.598633	2649.583252
31168.138191	1129.293000	1575.554688	2693.270752
31168.138191	1129.293000	1574.509766	2723.276855
31168.138191	1129.293000	1573.464844	2757.931641
31168.138191	1129.293000	1572.419922	2790.369141
31168.138191	1129.293000	1571.374023	2639.950684
31168.138191	1129.293000	1570.329102	2528.557861
31168.138191	1129.293000	1569.283203	2865.237793
31168.138191	1129.293000	1568.237305	2315.276611
31168.138191	1129.293000	1567.191406	2206.550781
31168.138191	1129.293000	1566.144531	2036.273315
31168.138191	1129.293000	1565.098633	2112.813477
31168.138191	1129.293000	1564.051758	2280.734619
31168.138191	1129.293000	1563.004883	2320.850098
31168.138191	1129.293000	1561.957031	2283.433594
31168.138191	1129.293000	1560.910156	2241.583984
31168.138191	1129.293000	1559.862305	2067.510010
31168.138191	1129.293000	1558.814453	2196.985107
31168.138191	1129.293000	1557.766602	2319.673096
31168.138191	1129.293000	1556.718750	2355.772217
31168.138191	1129.293000	1555.669922	2275.687744
31168.138191	1129.293000	1554.621094	2200.300781
31168.138191	1129.293000	1553.573242	2197.990723
31168.138191	1129.293000	1552.523438	2305.120850
31168.138191	1129.293000	1551.474609	2389.559082
31168.138191	1129.293000	1550.424805	2223.545654
31168.138191	1129.293000	1549.375000	2146.514893
31168.138191	1129.293000	1548.325195	2267.688721
31168.138191	1129.293000	1547.275391	1931.441528
31168.138191	1129.293000	1546.225586	2046.020508
31168.138191	1129.293000	1545.174805	1983.195313
31168.138191	1129.293000	1544.124023	1940.991821
31168.138191	1129.293000	1543.073242	2003.543823
31168.138191	1129.293000	1542.022461	1813.797852
31168.138191	1129.293000	1540.970703	1744.727051
31168.138191	1129.293000	1539.919922	1512.173706
31168.138191	1129.293000	1538.868164	1582.067383
31168.138191	1129.293000	1537.815430	1386.218384
31168.138191	1129.293000	1536.763672	1547.233398
31168.138191	1129.293000	1535.710938	1483.457153
31168.138191	1129.293000	1534.659180	1385.792847
31168.138191	1129.293000	1533.606445	1574.337646
31168.138191	1129.293000	1532.552734	1588.155396
31168.138191	1129.293000	1531.500000	1577.152466
31168.138191	1129.293000	1530.446289	1486.865967
31168.138191	1129.293000	1529.393555	1476.162720
31168.138191	1129.293000	1528.338867	1647.017090
31168.138191	1129.293000	1527.285156	1493.694824
31168.138191	1129.293000	1526.231445	1623.963379
31168.138191	1129.293000	1525.176758	1566.176636
31168.138191	1129.293000	1524.122070	1243.406616
31168.138191	1129.293000	1523.067383	1263.040771
31168.138191	1129.293000	1522.012695	1271.484375
31168.138191	1129.293000	1520.957031	1456.720703
31168.138191	1129.293000	1519.901367	1035.160767
31168.138191	1129.293000	1518.845703	1014.639648
31168.138191	1129.293000	1517.790039	1082.556396
31168.138191	1129.293000	1516.734375	1051.017212
31168.138191	1129.293000	1515.677734	718.697510
31168.138191	1129.293000	1514.621094	626.455017
31168.138191	1129.293000	1513.564453	419.050201
31168.138191	1129.293000	1512.507813	453.841125
31168.138191	1129.293000	1511.450195	543.021301
31168.138191	1129.293000	1510.393555	361.082977
31168.138191	1129.293000	1509.335938	251.678101
31168.138191	1129.293000	1508.278320	257.710266
31168.138191	1129.293000	1507.219727	399.430145
31168.138191	1129.293000	1506.162109	272.484894
31168.138191	1129.293000	1505.103516	229.291382
31168.138191	1129.293000	1504.044922	357.859894
31168.138191	1129.293000	1502.986328	317.241821
31168.138191	1129.293000	1501.926758	297.102570
31168.138191	1129.293000	1500.868164	356.115021
31168.138191	1129.293000	1499.808594	297.947510
31168.138191	1129.293000	1498.749023	397.849762
31168.138191	1129.293000	1497.688477	283.640045
31168.138191	1129.293000	1496.628906	336.484131
31168.138191	1129.293000	1495.568359	130.239044
31168.138191	1129.293000	1494.507813	280.323669
31168.138191	1129.293000	1493.447266	162.377151
31168.138191	1129.293000	1492.386719	233.878403
31168.138191	1129.293000	1491.325195	224.425888
31168.138191	1129.293000	1490.263672	253.426147
31168.138191	1129.293000	1489.202148	230.797531
31168.138191	1129.293000	1488.140625	19.263031
31168.138191	1129.293000	1487.079102	-167.262939
31168.138191	1129.293000	1486.016602	-256.798401
31168.138191	1129.293000	1484.954102	160.044754
31168.138191	1129.293000	1483.891602	115.801964
31168.138191	1129.293000	1482.829102	-123.893684
31168.138191	1129.293000	1481.765625	-73.297905
31168.138191	1129.293000	1480.702148	-128.195175
31168.138191	1129.293000	1479.638672	-43.563786
31168.138191	1129.293000	1478.575195	-228.426956
31168.138191	1129.293000	1477.511719	22.766277
31168.138191	1129.293000	1476.447266	80.911331
31168.138191	1129.293000	1475.382813	44.904480
31168.138191	1129.293000	1474.318359	60.589622
31168.138191	1129.293000	1473.253906	312.113373
31168.138191	1129.293000	1472.189453	195.940704
31168.138191	1129.293000	1471.124023	187.604462
31168.138191	1129.293000	1470.058594	342.791046
31168.138191	1129.293000	1468.993164	529.924377
31168.138191	1129.293000	1467.927734	611.346313
31168.138191	1129.293000	1466.861328	536.512146
31168.138191	1129.293000	1465.794922	425.824341
31168.138191	1129.293000	1464.728516	568.542725
31168.138191	1129.293000	1463.662109	704.255188
31168.138191	1129.293000	1462.594727	612.439148
31168.138191	1129.293000	1461.528320	683.880005
31168.138191	1129.293000	1460.460938	758.023071
31168.138191	1129.293000	1459.393555	972.765808
31168.138191	1129.293000	1458.326172	1026.426514
31168.138191	1129.293000	1457.257813	997.897339
31168.138191	1129.293000	1456.189453	1131.924927
31168.138191	1129.293000	1455.121094	883.270813
31168.138191	1129.293000	1454.052734	922.134094
31168.138191	1129.293000	1452.984375	1267.657227
31168.138191	1129.293000	1451.915039	1042.078857
31168.138191	1129.293000	1450.845703	1320.599731
31168.138191	1129.293000	1449.776367	1210.145386
31168.138191	1129.293000	1448.707031	1021.959839
31168.138191	1129.293000	1447.636719	1120.434570
31168.138191	1129.293000	1446.567383	1042.092529
31168.138191	1129.293000	1445.497070	1485.908691
31168.138191	1129.293000	1444.425781	1216.854004
31168.138191	1129.293000	1443.355469	1354.395630
31168.138191	1129.293000	1442.285156	1409.687134
31168.138191	1129.293000	1441.213867	1487.521362
31168.138191	1129.293000	1440.142578	1049.386353
31168.138191	1129.293000	1439.070313	1228.878052
31168.138191	1129.293000	1437.999023	1276.192505
31168.138191	1129.293000	1436.926758	1123.894775
31168.138191	1129.293000	1435.854492	1309.454956
31168.138191	1129.293000	1434.782227	1246.239624
31168.138191	1129.293000	1433.709961	820.994568
31168.138191	1129.293000	1432.636719	1060.375000
31168.138191	1129.293000	1431.563477	1023.195862
31168.138191	1129.293000	1430.490234	842.696838
31168.138191	1129.293000	1429.416992	742.850159
31168.138191	1129.293000	1428.343750	444.397491
31168.138191	1129.293000	1427.269531	575.910889
31168.138191	1129.293000	1426.195313	635.391907
31168.138191	1129.293000	1425.121094	690.373108
31168.138191	1129.293000	1424.046875	648.836426
31168.138191	1129.293000	1422.971680	536.331055
31168.138191	1129.293000	1421.896484	672.099915
31168.138191	1129.293000	1420.821289	900.175659
31168.138191	1129.293000	1419.746094	872.008911
31168.138191	1129.293000	1418.669922	986.811523
31168.138191	1129.293000	1417.594727	1305.134644
31168.138191	1129.293000	1416.518555	1132.230713
31168.138191	1129.293000	1415.442383	1037.478638
31168.138191	1129.293000	1414.365234	1430.286011
31168.138191	1129.293000	1413.289063	1180.626709
31168.138191	1129.293000	1412.211914	1112.160645
31168.138191	1129.293000	1411.134766	1134.338013
31168.138191	1129.293000	1410.057617	903.343689
31168.138191	1129.293000	1408.979492	930.791260
31168.138191	1129.293000	1407.902344	1072.242798
31168.138191	1129.293000	1406.824219	975.496216
31168.138191	1129.293000	1405.746094	878.680908
31168.138191	1129.293000	1404.666992	753.934204
31168.138191	1129.293000	1403.588867	688.826782
31168.138191	1129.293000	1402.509766	556.780884
31168.138191	1129.293000	1401.430664	776.962158
31168.138191	1129.293000	1400.351563	638.461609
31168.138191	1129.293000	1399.271484	383.241577
31168.138191	1129.293000	1398.192383	576.591919
31168.138191	1129.293000	1397.112305	297.393219
31168.138191	1129.293000	1396.031250	554.865784
31168.138191	1129.293000	1394.951172	633.560303
31168.138191	1129.293000	1393.871094	545.898376
31168.138191	1129.293000	1392.790039	492.042175
31168.138191	1129.293000	1391.708984	388.718597
31168.138191	1129.293000	1390.626953	205.920242
31168.138191	1129.293000	1389.545898	443.219849
31168.138191	1129.293000	1388.463867	412.504089
31168.138191	1129.293000	1387.381836	523.667114
31168.138191	1129.293000	1386.299805	411.049866
31168.138191	1129.293000	1385.217773	326.643524
31168.138191	1129.293000	1384.134766	67.015656
31168.138191	1129.293000	1383.051758	436.645874
31168.138191	1129.293000	1381.968750	431.593750
31168.138191	1129.293000	1380.885742	544.293823
31168.138191	1129.293000	1379.802734	604.020569
31168.138191	1129.293000	1378.718750	414.859558
31168.138191	1129.293000	1377.634766	647.811340
31168.138191	1129.293000	1376.550781	421.550598
31168.138191	1129.293000	1375.465820	514.352844
31168.138191	1129.293000	1374.381836	612.398499
31168.138191	1129.293000	1373.296875	328.128357
31168.138191	1129.293000	1372.211914	437.977753
31168.138191	1129.293000	1371.126953	582.656494
31168.138191	1129.293000	1370.041016	454.327423
31168.138191	1129.293000	1368.955078	550.907837
31168.138191	1129.293000	1367.869141	621.064636
31168.138191	1129.293000	1366.783203	466.027222
31168.138191	1129.293000	1365.697266	328.214386
31168.138191	1129.293000	1364.610352	409.117584
31168.138191	1129.293000	1363.523438	405.014832
31168.138191	1129.293000	1362.436523	387.301544
31168.138191	1129.293000	1361.349609	672.238281
31168.138191	1129.293000	1360.261719	264.725098
31168.138191	1129.293000	1359.174805	373.390228
31168.138191	1129.293000	1358.086914	374.956879
31168.138191	1129.293000	1356.998047	402.289490
31168.138191	1129.293000	1355.910156	435.369080
31168.138191	1129.293000	1354.821289	553.191040
31168.138191	1129.293000	1353.732422	236.217834
31168.138191	1129.293000	1352.643555	720.858521
31168.138191	1129.293000	1351.554688	834.508362
31168.138191	1129.293000	1350.464844	892.343689
31168.138191	1129.293000	1349.375000	1143.164551
31168.138191	1129.293000	1348.285156	1144.827026
31168.138191	1129.293000	1347.195313	1109.152466
31168.138191	1129.293000	1346.105469	1214.744751
31168.138191	1129.293000	1345.014648	1308.482178
31168.138191	1129.293000	1343.923828	1211.837891
31168.138191	1129.293000	1342.833008	1343.255981
31168.138191	1129.293000	1341.741211	1497.079468
31168.138191	1129.293000	1340.650391	1365.556274
31168.138191	1129.293000	1339.558594	1550.311279
31168.138191	1129.293000	1338.466797	1480.440308
31168.138191	1129.293000	1337.374023	1542.843506
31168.138191	1129.293000	1336.282227	1649.379150
31168.138191	1129.293000	1335.189453	1911.424805
31168.138191	1129.293000	1334.096680	1829.558472
31168.138191	1129.293000	1333.003906	1698.566040
31168.138191	1129.293000	1331.910156	1762.234497
31168.138191	1129.293000	1330.817383	1514.177368
31168.138191	1129.293000	1329.723633	1541.476196
31168.138191	1129.293000	1328.629883	1271.366577
31168.138191	1129.293000	1327.535156	1297.257080
31168.138191	1129.293000	1326.441406	1231.817139
31168.138191	1129.293000	1325.346680	1199.876831
31168.138191	1129.293000	1324.251953	1340.050659
31168.138191	1129.293000	1323.156250	769.096863
31168.138191	1129.293000	1322.061523	1107.656860
31168.138191	1129.293000	1320.965820	903.133850
31168.138191	1129.293000	1319.870117	704.903442
31168.138191	1129.293000	1318.774414	787.235779
31168.138191	1129.293000	1317.678711	712.326904
31168.138191	1129.293000	1316.582031	770.777405
31168.138191	1129.293000	1315.485352	988.990112
31168.138191	1129.293000	1314.388672	894.619934
31168.138191	1129.293000	1313.291016	820.111450
31168.138191	1129.293000	1312.194336	914.708435
31168.138191	1129.293000	1311.096680	995.465454
31168.138191	1129.293000	1309.999023	862.749817
31168.138191	1129.293000	1308.901367	764.441040
31168.138191	1129.293000	1307.802734	1182.689087
31168.138191	1129.293000	1306.705078	891.891357
31168.138191	1129.293000	1305.606445	943.888184
31168.138191	1129.293000	1304.506836	1046.379761
31168.138191	1129.293000	1303.408203	1125.829346
31168.138191	1129.293000	1302.308594	1128.753540
31168.138191	1129.293000	1301.208984	1108.075684
31168.138191	1129.293000	1300.109375	1323.818115
31168.138191	1129.293000	1299.009766	1346.514526
31168.138191	1129.293000	1297.909180	1357.063354
31168.138191	1129.293000	1296.808594	1389.958374
31168.138191	1129.293000	1295.708008	1366.360229
31168.138191	1129.293000	1294.607422	1374.408325
31168.138191	1129.293000	1293.506836	1327.853271
31168.138191	1129.293000	1292.405273	1290.400391
31168.138191	1129.293000	1291.303711	1149.478760
31168.138191	1129.293000	1290.202148	1215.549805
31168.138191	1129.293000	1289.099609	1222.774170
31168.138191	1129.293000	1287.998047	1127.387329
31168.138191	1129.293000	1286.895508	1068.620239
31168.138191	1129.293000	1285.792969	1124.481323
31168.138191	1129.293000	1284.689453	1157.049438
31168.138191	1129.293000	1283.586914	1109.579468
31168.138191	1129.293000	1282.483398	1132.487793
31168.138191	1129.293000	1281.379883	836.255859
31168.138191	1129.293000	1280.276367	969.011169
31168.138191	1129.293000	1279.171875	1055.350220
31168.138191	1129.293000	1278.067383	1107.113525
31168.138191	1129.293000	1276.962891	963.895630
31168.138191	1129.293000	1275.858398	937.896362
31168.138191	1129.293000	1274.753906	1001.077454
31168.138191	1129.293000	1273.648438	935.840088
31168.138191	1129.293000	1272.542969	757.825562
31168.138191	1129.293000	1271.437500	587.983826
31168.138191	1129.293000	1270.331055	419.167236
31168.138191	1129.293000	1269.225586	419.989624
31168.138191	1129.293000	1268.119141	238.657074
31168.138191	1129.293000	1267.012695	293.511993
31168.138191	1129.293000	1265.906250	310.639069
31168.138191	1129.293000	1264.798828	135.021744
31168.138191	1129.293000	1263.691406	282.722076
31168.138191	1129.293000	1262.583984	364.564056
31168.138191	1129.293000	1261.476563	10.275987
31168.138191	1129.293000	1260.368164	204.919464
31168.138191	1129.293000	1259.260742	306.816040
31168.138191	1129.293000	1258.152344	122.259949
31168.138191	1129.293000	1257.043945	63.078911
31168.138191	1129.293000	1255.934570	21.182184
31168.138191	1129.293000	1254.825195	142.967743
31168.138191	1129.293000	1253.716797	243.648026
31168.138191	1129.293000	1252.606445	144.458084
31168.138191	1129.293000	1251.497070	538.500427
31168.138191	1129.293000	1250.387695	611.432373
31168.138191	1129.293000	1249.277344	629.824463
31168.138191	1129.293000	1248.166992	653.335327
31168.138191	1129.293000	1247.055664	791.050110
31168.138191	1129.293000	1245.945313	752.474976
31168.138191	1129.293000	1244.833984	767.019531
31168.138191	1129.293000	1243.722656	766.963623
31168.138191	1129.293000	1242.611328	614.707520
31168.138191	1129.293000	1241.499023	640.972046
31168.138191	1129.293000	1240.387695	650.796753
31168.138191	1129.293000	1239.275391	621.197510
31168.138191	1129.293000	1238.162109	628.492676
31168.138191	1129.293000	1237.049805	370.536133
31168.138191	1129.293000	1235.936523	432.775574
31168.138191	1129.293000	1234.823242	393.872772
31168.138191	1129.293000	1233.709961	358.147980
31168.138191	1129.293000	1232.596680	467.367767
31168.138191	1129.293000	1231.482422	538.127930
31168.138191	1129.293000	1230.369141	302.125427
31168.138191	1129.293000	1229.253906	359.873260
31168.138191	1129.293000	1228.139648	424.971619
31168.138191	1129.293000	1227.025391	355.656006
31168.138191	1129.293000	1225.910156	385.303406
31168.138191	1129.293000	1224.794922	444.801422
31168.138191	1129.293000	1223.679688	326.602203
31168.138191	1129.293000	1222.563477	311.509491
31168.138191	1129.293000	1221.447266	194.477356
31168.138191	1129.293000	1220.331055	276.340820
31168.138191	1129.293000	1219.214844	143.867508
31168.138191	1129.293000	1218.098633	160.930511
31168.138191	1129.293000	1216.981445	25.834429
31168.138191	1129.293000	1215.864258	197.685883
31168.138191	1129.293000	1214.747070	111.475166
31168.138191	1129.293000	1213.629883	-38.913818
31168.138191	1129.293000	1212.511719	159.858582
31168.138191	1129.293000	1211.393555	14.680397
31168.138191	1129.293000	1210.275391	66.802704
31168.138191	1129.293000	1209.157227	164.105499
31168.138191	1129.293000	1208.038086	275.102203
31168.138191	1129.293000	1206.918945	319.146820
31168.138191	1129.293000	1205.799805	163.331268
31168.138191	1129.293000	1204.680664	414.917450
31168.138191	1129.293000	1203.560547	412.038757
31168.138191	1129.293000	1202.441406	197.262848
31168.138191	1129.293000	1201.321289	383.689362
31168.138191	1129.293000	1200.200195	207.420914
31168.138191	1129.293000	1199.080078	258.290070
31168.138191	1129.293000	1197.958984	119.218498
31168.138191	1129.293000	1196.837891	-122.910072
31168.138191	1129.293000	1195.716797	-109.455765
31168.138191	1129.293000	1194.594727	98.030022
31168.138191	1129.293000	1193.473633	-166.197845
31168.138191	1129.293000	1192.351563	-260.228760
31168.138191	1129.293000	1191.229492	-229.169022
31168.138191	1129.293000	1190.106445	-72.244942
31168.138191	1129.293000	1188.984375	-293.080200
31168.138191	1129.293000	1187.861328	-81.807442
31168.138191	1129.293000	1186.738281	-178.669479
31168.138191	1129.293000	1185.614258	-88.335182
31168.138191	1129.293000	1184.491211	-109.165100
31168.138191	1129.293000	1183.367188	-148.273682
31168.138191	1129.293000	1182.243164	89.983238
31168.138191	1129.293000	1181.119141	-60.031693
31168.138191	1129.293000	1179.994141	-166.197479
31168.138191	1129.293000	1178.869141	-28.236998
31168.138191	1129.293000	1177.744141	76.972221
31168.138191	1129.293000	1176.619141	96.673752
31168.138191	1129.293000	1175.493164	-67.659058
31168.138191	1129.293000	1174.368164	-75.360390
31168.138191	1129.293000	1173.242188	-73.493744
31168.138191	1129.293000	1172.115234	212.077896
31168.138191	1129.293000	1170.989258	45.700356
31168.138191	1129.293000	1169.862305	40.841118
31168.138191	1129.293000	1168.735352	68.921417
31168.138191	1129.293000	1167.608398	58.608730
31168.138191	1129.293000	1166.481445	25.890862
31168.138191	1129.293000	1165.353516	78.770073
31168.138191	1129.293000	1164.225586	10.596572
31168.138191	1129.293000	1163.097656	-7.772670
31168.138191	1129.293000	1161.968750	-66.199783
31168.138191	1129.293000	1160.840820	0.680703
31168.138191	1129.293000	1159.711914	-69.274010
31168.138191	1129.293000	1158.583008	19.813951
31168.138191	1129.293000	1157.453125	-217.690186
31168.138191	1129.293000	1156.324219	-106.052292
31168.138191	1129.293000	1155.194336	-197.494690
31168.138191	1129.293000	1154.064453	-118.045471
31168.138191	1129.293000	1152.933594	-79.514427
31168.138191	1129.293000	1151.803711	-232.631744
31168.138191	1129.293000	1150.672852	-197.062561
31168.138191	1129.293000	1149.541992	-153.953857
31168.138191	1129.293000	1148.411133	-88.059830
31168.138191	1129.293000	1147.279297	-230.822357
31168.138191	1129.293000	1146.147461	56.730938
31168.138191	1129.293000	1145.015625	87.602715
31168.138191	1129.293000	1143.883789	-36.180939
31168.138191	1129.293000	1142.750977	-0.196864
31168.138191	1129.293000	1141.619141	4.909914
31168.138191	1129.293000	1140.486328	-143.977921
31168.138191	1129.293000	1139.352539	122.897003
31168.138191	1129.293000	1138.219727	-134.496628
31168.138191	1129.293000	1137.085938	21.866074
31168.138191	1129.293000	1135.952148	-53.342621
31168.138191	1129.293000	1134.818359	-39.355331
31168.138191	1129.293000	1133.683594	30.730167
31168.138191	1129.293000	1132.549805	50.031658
31168.138191	1129.293000	1131.415039	206.972885
31168.138191	1129.293000	1130.279297	463.307404
31168.138191	1129.293000	1129.144531	368.048889
31168.138191	1129.293000	1128.008789	497.600281
31168.138191	1129.293000	1126.873047	433.116791
31168.138191	1129.293000	1125.737305	521.820984
31168.138191	1129.293000	1124.601563	330.376770
31168.138191	1129.293000	1123.464844	396.547272
31168.138191	1129.293000	1122.328125	534.478271
31168.138191	1129.293000	1121.191406	447.431396
31168.138191	1129.293000	1120.054688	402.716125
31168.138191	1129.293000	1118.916992	458.799469
31168.138191	1129.293000	1117.779297	118.161438
31168.138191	1129.293000	1116.641602	125.865509
31168.138191	1129.293000	1115.503906	141.570816
31168.138191	1129.293000	1114.365234	262.334900
31168.138191	1129.293000	1113.226563	321.542419
31168.138191	1129.293000	1112.087891	140.917984
31168.138191	1129.293000	1110.949219	188.164749
31168.138191	1129.293000	1109.809570	218.432785
31168.138191	1129.293000	1108.669922	219.182251
31168.138191	1129.293000	1107.530273	50.875107
31168.138191	1129.293000	1106.390625	121.623688
31168.138191	1129.293000	1105.250000	58.342503
31168.138191	1129.293000	1104.109375	153.046707
31168.138191	1129.293000	1102.968750	160.879929
31168.138191	1129.293000	1101.828125	139.291443
31168.138191	1129.293000	1100.686523	247.430893
31168.138191	1129.293000	1099.544922	200.450455
31168.138191	1129.293000	1098.403320	107.311157
31168.138191	1129.293000	1097.261719	178.934006
31168.138191	1129.293000	1096.120117	156.275177
31168.138191	1129.293000	1094.977539	315.046509
31168.138191	1129.293000	1093.834961	227.589020
31168.138191	1129.293000	1092.691406	80.702354
31168.138191	1129.293000	1091.548828	252.429199
31168.138191	1129.293000	1090.405273	377.627411
31168.138191	1129.293000	1089.261719	319.039673
31168.138191	1129.293000	1088.118164	368.777466
31168.138191	1129.293000	1086.973633	278.153839
31168.138191	1129.293000	1085.829102	248.987823
31168.138191	1129.293000	1084.684570	225.288406
31168.138191	1129.293000	1083.540039	94.190559
31168.138191	1129.293000	1082.395508	344.719879
31168.138191	1129.293000	1081.250000	108.608055
31168.138191	1129.293000	1080.104492	206.670578
31168.138191	1129.293000	1078.958984	341.954559
31168.138191	1129.293000	1077.812500	392.047974
31168.138191	1129.293000	1076.666016	545.646423
31168.138191	1129.293000	1075.519531	569.181763
31168.138191	1129.293000	1074.373047	598.644531
31168.138191	1129.293000	1073.226563	725.622864
31168.138191	1129.293000	1072.079102	728.543274
31168.138191	1129.293000	1070.931641	614.894714
31168.138191	1129.293000	1069.784180	610.701904
31168.138191	1129.293000	1068.635742	528.371643
31168.138191	1129.293000	1067.487305	607.994690
31168.138191	1129.293000	1066.338867	612.672852
31168.138191	1129.293000	1065.190430	518.051880
31168.138191	1129.293000	1064.041992	729.413452
31168.138191	1129.293000	1062.892578	613.183655
31168.138191	1129.293000	1061.743164	500.226959
31168.138191	1129.293000	1060.593750	379.359039
31168.138191	1129.293000	1059.443359	385.153412
31168.138191	1129.293000	1058.292969	230.940460
31168.138191	1129.293000	1057.142578	251.726440
31168.138191	1129.293000	1055.992188	325.411102
31168.138191	1129.293000	1054.841797	309.699860
31168.138191	1129.293000	1053.690430	500.516510
31168.138191	1129.293000	1052.539063	247.418335
31168.138191	1129.293000	1051.387695	162.634262
31168.138191	1129.293000	1050.235352	93.522438
31168.138191	1129.293000	1049.083984	207.499451
31168.138191	1129.293000	1047.931641	146.827087
31168.138191	1129.293000	1046.778320	113.585686
31168.138191	1129.293000	1045.625977	101.405037
31168.138191	1129.293000	1044.472656	170.644302
31168.138191	1129.293000	1043.319336	219.500931
31168.138191	1129.293000	1042.166016	263.829834
31168.138191	1129.293000	1041.012695	126.064026
31168.138191	1129.293000	1039.858398	110.802444
31168.138191	1129.293000	1038.704102	13.900987
31168.138191	1129.293000	1037.549805	-73.428993
31168.138191	1129.293000	1036.394531	-108.262550
31168.138191	1129.293000	1035.239258	344.673401
31168.138191	1129.293000	1034.083984	-0.627587
31168.138191	1129.293000	1032.928711	260.491211
31168.138191	1129.293000	1031.773438	-9.235427
31168.138191	1129.293000	1030.617188	128.414108
31168.138191	1129.293000	1029.460938	176.114502
31168.138191	1129.293000	1028.304688	257.105469
31168.138191	1129.293000	1027.147461	171.086960
31168.138191	1129.293000	1025.991211	159.871277
31168.138191	1129.293000	1024.833984	100.213333
31168.138191	1129.293000	1023.675781	103.342926
31168.138191	1129.293000	1022.518555	135.705460
31168.138191	1129.293000	1021.360352	99.187408
31168.138191	1129.293000	1020.202148	-15.816401
31168.138191	1129.293000	1019.043945	-137.861176
31168.138191	1129.293000	1017.884766	-9.140867
31168.138191	1129.293000	1016.726563	-106.971298
31168.138191	1129.293000	1015.567383	60.798164
31168.138191	1129.293000	1014.407227	-18.789177
31168.138191	1129.293000	1013.248047	177.519501
31168.138191	1129.293000	1012.087891	-165.039505
31168.138191	1129.293000	1010.927734	-257.616882
31168.138191	1129.293000	1009.767578	-132.239471
31168.138191	1129.293000	1008.606445	26.748981
31168.138191	1129.293000	1007.446289	-105.593567
31168.138191	1129.293000	1006.285156	-34.901371
31168.138191	1129.293000	1005.123047	25.722403
31168.138191	1129.293000	1003.961914	-35.260715
31168.138191	1129.293000	1002.799805	30.711061
31168.138191	1129.293000	1001.637695	36.344830
31168.138191	1129.293000	1000.475586	-72.434135
31168.138191	1129.293000	999.312500	-143.897629
31168.138191	1129.293000	998.149414	200.294388
31168.138191	1129.293000	996.986328	31.238077
31168.138191	1129.293000	995.823242	-128.219406
31168.138191	1129.293000	994.659180	107.065033
31168.138191	1129.293000	993.496094	164.661057
31168.138191	1129.293000	992.332031	36.982273
31168.138191	1129.293000	991.166992	14.654029
31168.138191	1129.293000	990.002930	158.020645
31168.138191	1129.293000	988.837891	43.214230
31168.138191	1129.293000	987.672852	-54.815456
31168.138191	1129.293000	986.506836	248.813660
31168.138191	1129.293000	985.341797	-253.479599
31168.138191	1129.293000	984.175781	-8.240173
31168.138191	1129.293000	983.009766	-74.175392
31168.138191	1129.293000	981.843750	-63.150051
31168.138191	1129.293000	980.676758	121.500954
31168.138191	1129.293000	979.509766	87.418045
31168.138191	1129.293000	978.342773	-113.163971
31168.138191	1129.293000	977.175781	382.224091
31168.138191	1129.293000	976.007813	-92.113136
31168.138191	1129.293000	974.839844	-31.272444
31168.138191	1129.293000	973.671875	115.972198
31168.138191	1129.293000	972.503906	-159.094604
31168.138191	1129.293000	971.334961	-259.192810
31168.138191	1129.293000	970.166016	-9.382897
31168.138191	1129.293000	968.997070	61.846260
31168.138191	1129.293000	967.828125	29.765604
31168.138191	1129.293000	966.658203	83.395279
31168.138191	1129.293000	965.488281	46.436604
31168.138191	1129.293000	964.318359	125.395844
31168.138191	1129.293000	963.148438	-24.414099
31168.138191	1129.293000	961.977539	150.644958
31168.138191	1129.293000	960.806641	-121.364227
31168.138191	1129.293000	959.635742	-112.059441
31168.138191	1129.293000	958.463867	-63.024269
31168.138191	1129.293000	957.292969	-78.564034
31168.138191	1129.293000	956.121094	50.808933
31168.138191	1129.293000	954.948242	-162.869919
31168.138191	1129.293000	953.776367	74.884270
31168.138191	1129.293000	952.603516	-141.570877
31168.138191	1129.293000	951.430664	-234.356018
31168.138191	1129.293000	950.257813	-39.379021
31168.138191	1129.293000	949.084961	113.946419
31168.138191	1129.293000	947.911133	-26.189156
31168.138191	1129.293000	946.737305	210.454025
31168.138191	1129.293000	945.563477	184.860687
31168.138191	1129.293000	944.388672	193.879471
31168.138191	1129.293000	943.213867	326.136932
31168.138191	1129.293000	942.039063	110.800415
31168.138191	1129.293000	940.864258	249.828201
31168.138191	1129.293000	939.688477	258.565918
31168.138191	1129.293000	938.513672	532.654297
31168.138191	1129.293000	937.337891	442.777374
31168.138191	1129.293000	936.161133	335.718567
31168.138191	1129.293000	934.985352	496.609955
31168.138191	1129.293000	933.808594	618.472351
31168.138191	1129.293000	932.631836	518.901184
31168.138191	1129.293000	931.454102	790.139343
31168.138191	1129.293000	930.277344	536.199951
31168.138191	1129.293000	929.099609	679.616211
31168.138191	1129.293000	927.921875	589.360657
31168.138191	1129.293000	926.743164	535.311829
31168.138191	1129.293000	925.565430	384.851044
31168.138191	1129.293000	924.386719	371.662811
31168.138191	1129.293000	923.208008	336.799744
31168.138191	1129.293000	922.028320	407.800415
31168.138191	1129.293000	920.849609	469.128357
31168.138191	1129.293000	919.669922	472.945374
31168.138191	1129.293000	919.474609	312.136261
31168.138191	1129.293000	918.309570	296.400299
31168.138191	1129.293000	917.143555	184.469818
31168.138191	1129.293000	915.977539	-18.791998
31168.138191	1129.293000	914.810547	-101.811592
31168.138191	1129.293000	913.644531	93.935326
31168.138191	1129.293000	912.477539	-183.727600
31168.138191	1129.293000	911.310547	67.164482
31168.138191	1129.293000	910.143555	-275.266205
31168.138191	1129.293000	908.975586	30.728556
31168.138191	1129.293000	907.807617	-239.576767
31168.138191	1129.293000	906.639648	-173.770935
31168.138191	1129.293000	905.471680	-62.420235
31168.138191	1129.293000	904.303711	-73.493301
31168.138191	1129.293000	903.134766	131.301895
31168.138191	1129.293000	901.965820	96.172516
31168.138191	1129.293000	900.796875	132.968231
31168.138191	1129.293000	899.626953	59.458549
31168.138191	1129.293000	898.457031	-2.057548
31168.138191	1129.293000	897.287109	70.620186
31168.138191	1129.293000	896.117188	140.852173
31168.138191	1129.293000	894.947266	-69.211174
31168.138191	1129.293000	893.776367	20.139996
31168.138191	1129.293000	892.605469	99.858002
31168.138191	1129.293000	891.434570	62.226074
31168.138191	1129.293000	890.262695	105.964706
31168.138191	1129.293000	889.091797	-60.907085
31168.138191	1129.293000	887.919922	233.993042
31168.138191	1129.293000	886.748047	-69.209694
31168.138191	1129.293000	885.575195	172.922882
31168.138191	1129.293000	884.403320	163.892334
31168.138191	1129.293000	883.230469	252.853271
31168.138191	1129.293000	882.057617	50.190739
31168.138191	1129.293000	880.883789	98.479523
31168.138191	1129.293000	879.710938	-144.722061
31168.138191	1129.293000	878.537109	-53.463684
31168.138191	1129.293000	877.362305	75.946953
31168.138191	1129.293000	876.188477	114.558464
31168.138191	1129.293000	875.013672	19.464626
31168.138191	1129.293000	873.839844	-128.115952
31168.138191	1129.293000	872.664063	211.088638
31168.138191	1129.293000	871.489258	46.790688
31168.138191	1129.293000	870.313477	147.277161
31168.138191	1129.293000	869.138672	238.160324
31168.138191	1129.293000	867.962891	188.328644
31168.138191	1129.293000	866.786133	236.223343
31168.138191	1129.293000	865.610352	186.367905
31168.138191	1129.293000	864.433594	157.957291
31168.138191	1129.293000	863.256836	105.714607
31168.138191	1129.293000	862.079102	117.776741
31168.138191	1129.293000	860.902344	251.244446
31168.138191	1129.293000	859.724609	82.298843
31168.138191	1129.293000	858.546875	151.412094
31168.138191	1129.293000	857.368164	39.623337
31168.138191	1129.293000	856.190430	101.533447
31168.138191	1129.293000	855.011719	-83.985229
31168.138191	1129.293000	853.833008	89.653786
31168.138191	1129.293000	852.654297	58.715916
31168.138191	1129.293000	851.474609	70.557533
31168.138191	1129.293000	850.294922	248.739777
31168.138191	1129.293000	849.115234	70.391335
31168.138191	1129.293000	847.935547	336.351807
31168.138191	1129.293000	846.754883	419.287048
31168.138191	1129.293000	845.575195	390.547302
31168.138191	1129.293000	844.393555	295.316925
31168.138191	1129.293000	843.212891	492.073181
31168.138191	1129.293000	842.032227	316.115601
31168.138191	1129.293000	840.850586	358.503448
31168.138191	1129.293000	839.668945	282.230652
31168.138191	1129.293000	838.486328	390.966705
31168.138191	1129.293000	837.304688	466.430267
31168.138191	1129.293000	836.122070	390.102325
31168.138191	1129.293000	834.939453	178.666214
31168.138191	1129.293000	833.756836	21.796499
31168.138191	1129.293000	832.573242	113.749481
31168.138191	1129.293000	831.389648	-45.468147
31168.138191	1129.293000	830.206055	41.665783
31168.138191	1129.293000	829.022461	-112.794365
31168.138191	1129.293000	827.838867	-75.459251
31168.138191	1129.293000	826.654297	77.813026
31168.138191	1129.293000	825.469727	219.159164
31168.138191	1129.293000	824.284180	-152.999695
31168.138191	1129.293000	823.099609	-70.864296
31168.138191	1129.293000	821.914063	-182.722900
31168.138191	1129.293000	820.728516	-6.097913
31168.138191	1129.293000	819.542969	-39.976021
31168.138191	1129.293000	818.356445	-130.596375
31168.138191	1129.293000	817.169922	12.728635
31168.138191	1129.293000	815.983398	-77.932983
31168.138191	1129.293000	814.796875	10.926213
31168.138191	1129.293000	813.609375	194.179260
31168.138191	1129.293000	812.422852	304.125854
31168.138191	1129.293000	811.235352	-3.834331
31168.138191	1129.293000	810.046875	-9.606019
31168.138191	1129.293000	808.859375	5.823534
31168.138191	1129.293000	807.670898	-21.253580
31168.138191	1129.293000	806.482422	133.260635
31168.138191	1129.293000	805.293945	-191.034592
31168.138191	1129.293000	804.104492	111.910255
31168.138191	1129.293000	802.915039	285.045807
31168.138191	1129.293000	801.725586	-218.303162
31168.138191	1129.293000	800.536133	-73.522743
31168.138191	1129.293000	799.345703	-305.757904
31168.138191	1129.293000	798.155273	-229.399719
31168.138191	1129.293000	796.964844	18.782883
31168.138191	1129.293000	795.774414	-62.774956
31168.138191	1129.293000	794.583008	-10.174373
31168.138191	1129.293000	793.392578	-237.679169
31168.138191	1129.293000	792.200195	-206.322510
31168.138191	1129.293000	791.008789	-92.690201
31168.138191	1129.293000	789.816406	-66.164940
31168.138191	1129.293000	788.625000	-77.316887
31168.138191	1129.293000	787.432617	-25.033783
31168.138191	1129.293000	786.239258	-59.780003
31168.138191	1129.293000	785.046875	-190.901855
31168.138191	1129.293000	783.853516	91.479301
31168.138191	1129.293000	782.660156	-222.923630
31168.138191	1129.293000	781.465820	96.829796
31168.138191	1129.293000	780.272461	14.908235
31168.138191	1129.293000	779.078125	132.507416
31168.138191	1129.293000	777.883789	-102.033646
31168.138191	1129.293000	776.688477	109.304489
31168.138191	1129.293000	775.494141	92.946602
31168.138191	1129.293000	774.298828	-7.890373
31168.138191	1129.293000	773.103516	175.010681
31168.138191	1129.293000	771.907227	78.789146
31168.138191	1129.293000	770.711914	-43.227505
31168.138191	1129.293000	769.515625	73.798439
31168.138191	1129.293000	768.318359	-15.463587
31168.138191	1129.293000	767.122070	-13.379229
31168.138191	1129.293000	765.924805	108.097984
31168.138191	1129.293000	764.727539	152.201080
31168.138191	1129.293000	763.530273	310.947296
31168.138191	1129.293000	762.333008	275.304047
31168.138191	1129.293000	761.134766	162.396713
31168.138191	1129.293000	759.936523	131.371597
31168.138191	1129.293000	758.738281	-70.454254
31168.138191	1129.293000	757.540039	31.778200
31168.138191	1129.293000	756.340820	80.134613
31168.138191	1129.293000	755.141602	343.484131
31168.138191	1129.293000	753.942383	20.028610
31168.138191	1129.293000	752.742188	-1.910573
31168.138191	1129.293000	751.541992	20.490969
31168.138191	1129.293000	750.341797	257.717316
31168.138191	1129.293000	749.141602	249.584579
31168.138191	1129.293000	747.941406	204.041687
31168.138191	1129.293000	746.740234	-2.606755
31168.138191	1129.293000	745.539063	245.865265
31168.138191	1129.293000	744.337891	71.846153
31168.138191	1129.293000	743.135742	103.128685
31168.138191	1129.293000	741.933594	278.944885
31168.138191	1129.293000	740.731445	198.124557
31168.138191	1129.293000	739.529297	107.953644
31168.138191	1129.293000	738.326172	73.701309
31168.138191	1129.293000	737.124023	55.717167
31168.138191	1129.293000	735.919922	77.286598
31168.138191	1129.293000	734.716797	-280.908417
31168.138191	1129.293000	733.513672	-152.265671
31168.138191	1129.293000	732.309570	160.209351
31168.138191	1129.293000	731.105469	221.071487
31168.138191	1129.293000	729.900391	137.543732
31168.138191	1129.293000	728.696289	244.803574
31168.138191	1129.293000	727.491211	30.897749
31168.138191	1129.293000	726.286133	49.621529
31168.138191	1129.293000	725.080078	154.318863
31168.138191	1129.293000	723.874023	140.332977
31168.138191	1129.293000	722.668945	212.302246
31168.138191	1129.293000	721.461914	177.267273
31168.138191	1129.293000	720.255859	35.301544
31168.138191	1129.293000	719.048828	174.426804
31168.138191	1129.293000	717.841797	160.137924
31168.138191	1129.293000	716.634766	20.397789
31168.138191	1129.293000	715.427734	45.489571
31168.138191	1129.293000	714.219727	14.798884
31168.138191	1129.293000	713.011719	88.488846
31168.138191	1129.293000	711.803711	46.075108
31168.138191	1129.293000	710.594727	63.926567
31168.138191	1129.293000	709.385742	7.492661
31168.138191	1129.293000	708.176758	182.892593
31168.138191	1129.293000	706.967773	-84.627457
31168.138191	1129.293000	705.758789	-80.920929
31168.138191	1129.293000	704.548828	-181.558533
31168.138191	1129.293000	703.338867	-247.464554
31168.138191	1129.293000	702.127930	-183.696091
31168.138191	1129.293000	700.917969	-20.434450
31168.138191	1129.293000	699.707031	-102.730537
31168.138191	1129.293000	698.496094	16.337334
31168.138191	1129.293000	697.285156	-251.203293
31168.138191	1129.293000	696.073242	57.454559
31168.138191	1129.293000	694.861328	-304.956696
31168.138191	1129.293000	693.649414	79.784912
31168.138191	1129.293000	692.436523	166.000870
31168.138191	1129.293000	691.224609	83.352585
31168.138191	1129.293000	690.011719	67.706482
31168.138191	1129.293000	688.798828	155.999420
31168.138191	1129.293000	687.584961	225.707108
31168.138191	1129.293000	686.372070	198.310715
31168.138191	1129.293000	685.158203	288.646088
31168.138191	1129.293000	683.943359	457.387299
31168.138191	1129.293000	682.729492	427.468994
31168.138191	1129.293000	681.514648	316.720917
31168.138191	1129.293000	680.299805	323.645813
31168.138191	1129.293000	679.084961	365.115204
31168.138191	1129.293000	677.869141	288.871216
31168.138191	1129.293000	676.653320	302.539795
31168.138191	1129.293000	675.437500	244.672211
31168.138191	1129.293000	674.221680	214.435059
31168.138191	1129.293000	673.004883	232.547836
31168.138191	1129.293000	671.789063	239.080902
31168.138191	1129.293000	670.571289	125.759064
31168.138191	1129.293000	669.354492	93.046204
31168.138191	1129.293000	668.136719	101.738144
31168.138191	1129.293000	666.919922	200.162460
31168.138191	1129.293000	665.701172	344.521118
31168.138191	1129.293000	664.483398	40.030499
31168.138191	1129.293000	663.264648	211.868011
31168.138191	1129.293000	662.045898	243.266800
31168.138191	1129.293000	660.827148	-79.562439
31168.138191	1129.293000	659.608398	234.598831
31168.138191	1129.293000	658.388672	176.169128
31168.138191	1129.293000	657.168945	276.300781
31168.138191	1129.293000	655.949219	75.327583
31168.138191	1129.293000	654.728516	324.670013
31168.138191	1129.293000	653.507813	165.020538
31168.138191	1129.293000	652.287109	92.656448
31168.138191	1129.293000	651.066406	148.849136
31168.138191	1129.293000	649.844727	129.224045
31168.138191	1129.293000	648.623047	111.859680
31168.138191	1129.293000	647.401367	105.935699
31168.138191	1129.293000	646.179688	276.607361
31168.138191	1129.293000	644.957031	199.470810
31168.138191	1129.293000	643.734375	-58.816174
31168.138191	1129.293000	642.511719	10.796268
31168.138191	1129.293000	641.289063	-80.098038
31168.138191	1129.293000	640.065430	-102.245750
31168.138191	1129.293000	638.841797	-64.851219
31168.138191	1129.293000	637.618164	18.306406
31168.138191	1129.293000	636.393555	144.903290
31168.138191	1129.293000	635.168945	273.706909
31168.138191	1129.293000	633.944336	166.650101
31168.138191	1129.293000	632.719727	0.107075
31168.138191	1129.293000	631.494141	261.482513
31168.138191	1129.293000	630.269531	122.389656
31168.138191	1129.293000	629.042969	106.828171
31168.138191	1129.293000	627.817383	54.668072
31168.138191	1129.293000	626.590820	132.817123
31168.138191	1129.293000	625.365234	-61.081993
31168.138191	1129.293000	624.137695	44.436176
31168.138191	1129.293000	622.911133	270.988922
31168.138191	1129.293000	621.683594	-25.670303
31168.138191	1129.293000	620.456055	-13.910330
31168.138191	1129.293000	619.228516	-18.151636
31168.138191	1129.293000	618.000977	34.666752
31168.138191	1129.293000	616.772461	-266.311157
31168.138191	1129.293000	615.543945	42.076241
31168.138191	1129.293000	614.314453	-108.229202
31168.138191	1129.293000	613.085938	47.162643
31168.138191	1129.293000	611.856445	-64.325813
31168.138191	1129.293000	610.626953	-48.096405
31168.138191	1129.293000	609.397461	-325.919098
31168.138191	1129.293000	608.166992	-223.048218
31168.138191	1129.293000	606.936523	-193.131638
31168.138191	1129.293000	605.706055	-204.227371
31168.138191	1129.293000	604.474609	-183.434418
31168.138191	1129.293000	603.244141	-235.503174
31168.138191	1129.293000	602.012695	-262.506226
31168.138191	1129.293000	600.780273	6.389130
31168.138191	1129.293000	599.548828	-138.961105
31168.138191	1129.293000	598.316406	-86.312988
31168.138191	1129.293000	597.083984	27.739355
31168.138191	1129.293000	595.851563	59.891914
31168.138191	1129.293000	594.618164	-344.486328
31168.138191	1129.293000	593.384766	-71.286407
31168.138191	1129.293000	592.151367	49.550983
31168.138191	1129.293000	590.917969	-36.405087
31168.138191	1129.293000	589.683594	300.223267
31168.138191	1129.293000	588.449219	89.380890
31168.138191	1129.293000	587.214844	251.049011
31168.138191	1129.293000	585.979492	153.869263
31168.138191	1129.293000	584.745117	158.904327
31168.138191	1129.293000	583.509766	123.118431
31168.138191	1129.293000	582.273438	85.109085
31168.138191	1129.293000	581.038086	-154.719406
31168.138191	1129.293000	579.801758	97.697983
31168.138191	1129.293000	578.565430	0.882112
31168.138191	1129.293000	577.329102	12.956774
31168.138191	1129.293000	576.091797	-63.321854
31168.138191	1129.293000	574.854492	121.049416
31168.138191	1129.293000	573.617188	153.610397
31168.138191	1129.293000	572.378906	197.524582
31168.138191	1129.293000	571.141602	-25.724215
31168.138191	1129.293000	569.903320	-26.966890
31168.138191	1129.293000	568.664063	125.755417
31168.138191	1129.293000	567.425781	183.428162
31168.138191	1129.293000	566.186523	21.668968
31168.138191	1129.293000	564.947266	158.621262
31168.138191	1129.293000	563.708008	42.285709
31168.138191	1129.293000	562.467773	-44.547859
31168.138191	1129.293000	561.227539	205.540176
31168.138191	1129.293000	559.987305	80.417656
31168.138191	1129.293000	558.747070	70.653557
31168.138191	1129.293000	557.505859	207.800552
31168.138191	1129.293000	556.264648	159.753586
31168.138191	1129.293000	555.023438	-39.495571
31168.138191	1129.293000	553.781250	151.983826
31168.138191	1129.293000	552.539063	142.568909
31168.138191	1129.293000	551.296875	-108.229088
31168.138191	1129.293000	550.054688	-33.949692
31168.138191	1129.293000	548.811523	24.585045
31168.138191	1129.293000	547.569336	-153.619980
31168.138191	1129.293000	546.325195	-36.300247
31168.138191	1129.293000	545.082031	6.666256
31168.138191	1129.293000	543.837891	139.848099
31168.138191	1129.293000	542.593750	-19.868570
31168.138191	1129.293000	541.349609	-17.224661
31168.138191	1129.293000	540.105469	-111.343956
31168.138191	1129.293000	538.860352	420.681305
31168.138191	1129.293000	537.615234	155.585495
31168.138191	1129.293000	536.369141	264.341888
31168.138191	1129.293000	535.124023	233.623505
31168.138191	1129.293000	533.877930	187.262482
31168.138191	1129.293000	532.631836	327.721252
31168.138191	1129.293000	531.384766	200.589386
31168.138191	1129.293000	530.138672	190.533295
31168.138191	1129.293000	528.891602	142.364044
31168.138191	1129.293000	527.643555	134.769165
31168.138191	1129.293000	526.396484	-77.198875
31168.138191	1129.293000	525.148438	-19.390785
31168.138191	1129.293000	523.900391	-96.267937
31168.138191	1129.293000	522.652344	2.146790
31168.138191	1129.293000	521.403320	-191.241379
31168.138191	1129.293000	520.154297	-56.728214
31168.138191	1129.293000	518.905273	-14.176651
31168.138191	1129.293000	517.656250	-2.949689
31168.138191	1129.293000	516.406250	212.506409
31168.138191	1129.293000	515.156250	-51.961205
31168.138191	1129.293000	513.906250	179.319412
31168.138191	1129.293000	512.655273	40.721348
31168.138191	1129.293000	511.404297	-57.368683
31168.138191	1129.293000	510.153320	44.116516
31168.138191	1129.293000	508.902344	-219.502029
31168.138191	1129.293000	507.650391	72.568665
31168.138191	1129.293000	506.398438	-78.765823
31168.138191	1129.293000	505.146484	184.253723
31168.138191	1129.293000	503.893555	-40.696911
31168.138191	1129.293000	502.641602	-182.646057
31168.138191	1129.293000	501.388672	-114.117584
31168.138191	1129.293000	500.134766	106.594818
31168.138191	1129.293000	498.881836	226.672958
31168.138191	1129.293000	497.627930	18.114614
31168.138191	1129.293000	496.374023	95.884399
31168.138191	1129.293000	495.119141	95.494804
31168.138191	1129.293000	493.865234	32.633404
31168.138191	1129.293000	492.610352	-128.402100
31168.138191	1129.293000	491.355469	-32.419357
31168.138191	1129.293000	490.099609	208.763840
31168.138191	1129.293000	488.843750	438.768158
31168.138191	1129.293000	487.587891	246.893143
31168.138191	1129.293000	486.332031	135.524231
31168.138191	1129.293000	485.075195	358.956604
31168.138191	1129.293000	483.818359	350.384338
31168.138191	1129.293000	482.561523	63.120049
31168.138191	1129.293000	481.304688	135.034912
31168.138191	1129.293000	480.046875	349.661072
31168.138191	1129.293000	478.789063	428.309845
31168.138191	1129.293000	477.531250	364.381195
31168.138191	1129.293000	476.272461	376.286774
31168.138191	1129.293000	475.013672	292.471039
31168.138191	1129.293000	473.754883	217.652771
31168.138191	1129.293000	472.496094	329.928497
31168.138191	1129.293000	471.236328	500.074554
31168.138191	1129.293000	469.976563	334.157532
31168.138191	1129.293000	468.716797	339.665009
31168.138191	1129.293000	467.456055	532.053528
31168.138191	1129.293000	466.196289	330.748901
31168.138191	1129.293000	464.935547	327.441071
31168.138191	1129.293000	463.673828	268.577820
31168.138191	1129.293000	462.413086	603.131042
31168.138191	1129.293000	461.151367	646.461060
31168.138191	1129.293000	459.889648	685.328979
31168.138191	1129.293000	458.626953	677.531555
31168.138191	1129.293000	457.364258	751.883179
31168.138191	1129.293000	456.101563	737.378967
31168.138191	1129.293000	454.838867	856.029480
31168.138191	1129.293000	453.575195	841.446960
31168.138191	1129.293000	452.312500	773.578247
31168.138191	1129.293000	451.047852	812.163635
31168.138191	1129.293000	449.784180	786.359131
31168.138191	1129.293000	448.519531	849.188171
31168.138191	1129.293000	447.254883	914.131226
31168.138191	1129.293000	445.990234	761.767334
31168.138191	1129.293000	444.725586	819.875427
31168.138191	1129.293000	443.459961	937.668701
31168.138191	1129.293000	442.194336	849.319946
31168.138191	1129.293000	440.927734	911.461548
31168.138191	1129.293000	439.662109	1055.355103
31168.138191	1129.293000	438.395508	1055.171997
31168.138191	1129.293000	437.127930	1287.189941
31168.138191	1129.293000	435.861328	1275.572754
31168.138191	1129.293000	434.593750	1135.489990
31168.138191	1129.293000	433.326172	1293.823853
31168.138191	1129.293000	432.058594	1047.277222
31168.138191	1129.293000	430.790039	1423.983276
31168.138191	1129.293000	429.521484	1254.420532
31168.138191	1129.293000	428.252930	1338.787476
31168.138191	1129.293000	426.984375	1288.107666
31168.138191	1129.293000	425.714844	1064.907959
31168.138191	1129.293000	424.445313	1181.568970
31168.138191	1129.293000	423.174805	1207.365601
31168.138191	1129.293000	421.905273	1237.250244
31168.138191	1129.293000	420.634766	1220.449097
31168.138191	1129.293000	419.364258	1108.440063
31168.138191	1129.293000	418.092773	903.472290
31168.138191	1129.293000	416.822266	1137.058716
31168.138191	1129.293000	415.550781	1112.183228
31168.138191	1129.293000	414.278320	1212.541992
31168.138191	1129.293000	413.006836	1180.197144
31168.138191	1129.293000	411.734375	1156.221069
31168.138191	1129.293000	410.461914	1076.708740
31168.138191	1129.293000	409.188477	1190.541870
31168.138191	1129.293000	407.916016	854.629089
31168.138191	1129.293000	406.642578	1110.504028
31168.138191	1129.293000	405.368164	866.089722
31168.138191	1129.293000	404.094727	1061.302734
31168.138191	1129.293000	402.820313	1097.424561
31168.138191	1129.293000	401.545898	1231.884277
31168.138191	1129.293000	400.270508	1169.915283
31168.138191	1129.293000	398.996094	1265.606934
31168.138191	1129.293000	397.720703	1171.517700
31168.138191	1129.293000	396.444336	1267.929077
31168.138191	1129.293000	395.168945	1104.299805
31168.138191	1129.293000	393.892578	1183.786133
31168.138191	1129.293000	392.616211	1361.265259
31168.138191	1129.293000	391.339844	1364.380127
31168.138191	1129.293000	390.062500	1162.470337
31168.138191	1129.293000	388.785156	891.725586
31168.138191	1129.293000	387.507813	1006.375000
31168.138191	1129.293000	386.229492	1554.383057
31168.138191	1129.293000	384.951172	1206.309570
31168.138191	1129.293000	383.672852	1199.462036
31168.138191	1129.293000	382.394531	882.458557
31168.138191	1129.293000	381.115234	970.000183
31168.138191	1129.293000	379.835938	1076.120728
31168.138191	1129.293000	378.556641	1080.274292
31168.138191	1129.293000	377.277344	1035.063843
31168.138191	1129.293000	375.997070	993.022827
31168.138191	1129.293000	374.716797	1022.007996
31168.138191	1129.293000	373.435547	1248.873779
31168.138191	1129.293000	372.155273	1135.121826
31168.138191	1129.293000	370.874023	862.494690
31168.138191	1129.293000	369.591797	1028.266235
31168.138191	1129.293000	368.310547	777.001892
31168.138191	1129.293000	367.028320	898.254578
31168.138191	1129.293000	365.746094	993.884460
31168.138191	1129.293000	364.463867	889.011475
31168.138191	1129.293000	363.180664	1116.882080
31168.138191	1129.293000	361.897461	1107.048950
31168.138191	1129.293000	360.614258	1071.496460
31168.138191	1129.293000	359.330078	1121.531250
31168.138191	1129.293000	358.045898	807.325134
31168.138191	1129.293000	356.761719	877.776184
31168.138191	1129.293000	355.477539	891.752075
31168.138191	1129.293000	354.192383	919.015991
31168.138191	1129.293000	352.907227	833.027893
31168.138191	1129.293000	351.622070	1080.899780
31168.138191	1129.293000	350.336914	689.881592
31168.138191	1129.293000	349.050781	881.074158
31168.138191	1129.293000	347.764648	610.107605
31168.138191	1129.293000	346.477539	816.337219
31168.138191	1129.293000	345.191406	582.326721
31168.138191	1129.293000	343.904297	374.309418
31168.138191	1129.293000	342.616211	623.368652
31168.138191	1129.293000	341.329102	599.922302
31168.138191	1129.293000	340.041016	502.048218
31168.138191	1129.293000	338.752930	664.918335
31168.138191	1129.293000	337.463867	659.624451
31168.138191	1129.293000	336.175781	510.267578
31168.138191	1129.293000	334.886719	129.754944
31168.138191	1129.293000	333.596680	392.222870
31168.138191	1129.293000	332.307617	399.544342
31168.138191	1129.293000	331.017578	634.151306
31168.138191	1129.293000	329.727539	31.201590
31168.138191	1129.293000	328.436523	146.510544
31168.138191	1129.293000	327.146484	256.451996
31168.138191	1129.293000	325.855469	310.850555
31168.138191	1129.293000	324.563477	248.873184
31168.138191	1129.293000	323.272461	-11.784609
31168.138191	1129.293000	321.980469	214.472931
31168.138191	1129.293000	320.688477	72.540291
31168.138191	1129.293000	319.395508	98.237114
31168.138191	1129.293000	318.103516	-31.551126
31168.138191	1129.293000	316.810547	-197.759506
31168.138191	1129.293000	315.516602	-40.630680
31168.138191	1129.293000	314.223633	140.681229
31168.138191	1129.293000	312.929688	3.520240
31168.138191	1129.293000	311.635742	-347.908295
31168.138191	1129.293000	310.340820	-157.829163
31168.138191	1129.293000	309.045898	-71.826775
31168.138191	1129.293000	307.750977	-96.418991
31168.138191	1129.293000	306.456055	-8.705150
31168.138191	1129.293000	305.160156	-259.066101
31168.138191	1129.293000	303.865234	46.360760
31168.138191	1129.293000	302.568359	130.214310
31168.138191	1129.293000	301.272461	53.501900
31168.138191	1129.293000	299.975586	388.858490
31168.138191	1129.293000	298.678711	375.208832
