#X		#Y		#Wave		#Intensity
23196.919681	2455.093333	1999.980469	-10.200377
23196.919681	2455.093333	1999.016602	-12.611904
23196.919681	2455.093333	1998.052734	-98.633499
23196.919681	2455.093333	1997.087891	55.448437
23196.919681	2455.093333	1996.123047	-112.928528
23196.919681	2455.093333	1995.158203	72.696106
23196.919681	2455.093333	1994.193359	-108.598106
23196.919681	2455.093333	1993.228516	98.666695
23196.919681	2455.093333	1992.262695	-60.842808
23196.919681	2455.093333	1991.297852	64.097916
23196.919681	2455.093333	1990.332031	233.281494
23196.919681	2455.093333	1989.366211	110.156601
23196.919681	2455.093333	1988.399414	182.277130
23196.919681	2455.093333	1987.433594	338.218964
23196.919681	2455.093333	1986.466797	80.864006
23196.919681	2455.093333	1985.500977	-35.693512
23196.919681	2455.093333	1984.534180	112.089287
23196.919681	2455.093333	1983.567383	59.388565
23196.919681	2455.093333	1982.599609	-139.310181
23196.919681	2455.093333	1981.632813	114.006653
23196.919681	2455.093333	1980.665039	-25.753036
23196.919681	2455.093333	1979.697266	-136.021942
23196.919681	2455.093333	1978.729492	-6.911619
23196.919681	2455.093333	1977.761719	38.020985
23196.919681	2455.093333	1976.792969	314.792816
23196.919681	2455.093333	1975.825195	265.503204
23196.919681	2455.093333	1974.856445	35.928307
23196.919681	2455.093333	1973.887695	89.991470
23196.919681	2455.093333	1972.918945	208.002457
23196.919681	2455.093333	1971.949219	20.008139
23196.919681	2455.093333	1970.980469	423.704834
23196.919681	2455.093333	1970.010742	452.384094
23196.919681	2455.093333	1969.041016	239.354462
23196.919681	2455.093333	1968.071289	430.423279
23196.919681	2455.093333	1967.101563	-41.506527
23196.919681	2455.093333	1966.130859	-185.750748
23196.919681	2455.093333	1965.161133	354.645874
23196.919681	2455.093333	1964.190430	394.824310
23196.919681	2455.093333	1963.219727	213.282806
23196.919681	2455.093333	1962.249023	218.779373
23196.919681	2455.093333	1961.277344	7.581149
23196.919681	2455.093333	1960.306641	217.138290
23196.919681	2455.093333	1959.334961	239.533585
23196.919681	2455.093333	1958.363281	-25.970915
23196.919681	2455.093333	1957.391602	-52.918400
23196.919681	2455.093333	1956.419922	109.388069
23196.919681	2455.093333	1955.447266	-35.758072
23196.919681	2455.093333	1954.474609	219.713913
23196.919681	2455.093333	1953.501953	128.502686
23196.919681	2455.093333	1952.529297	270.666168
23196.919681	2455.093333	1951.556641	-56.507248
23196.919681	2455.093333	1950.583984	53.559719
23196.919681	2455.093333	1949.610352	256.833435
23196.919681	2455.093333	1948.636719	121.144417
23196.919681	2455.093333	1947.663086	181.823654
23196.919681	2455.093333	1946.689453	-142.905334
23196.919681	2455.093333	1945.715820	253.858612
23196.919681	2455.093333	1944.741211	331.479614
23196.919681	2455.093333	1943.767578	313.356384
23196.919681	2455.093333	1942.792969	121.060074
23196.919681	2455.093333	1941.818359	-98.182457
23196.919681	2455.093333	1940.842773	-20.751669
23196.919681	2455.093333	1939.868164	108.081322
23196.919681	2455.093333	1938.892578	21.168245
23196.919681	2455.093333	1937.916992	130.263260
23196.919681	2455.093333	1936.941406	114.343048
23196.919681	2455.093333	1935.965820	-43.662605
23196.919681	2455.093333	1934.990234	351.793152
23196.919681	2455.093333	1934.013672	59.075264
23196.919681	2455.093333	1933.037109	138.521667
23196.919681	2455.093333	1932.060547	244.833374
23196.919681	2455.093333	1931.083984	-397.704712
23196.919681	2455.093333	1930.107422	-129.911285
23196.919681	2455.093333	1929.129883	-31.021467
23196.919681	2455.093333	1928.153320	-37.349403
23196.919681	2455.093333	1927.175781	305.962982
23196.919681	2455.093333	1926.198242	-191.855942
23196.919681	2455.093333	1925.219727	-29.555305
23196.919681	2455.093333	1924.242188	-9.070450
23196.919681	2455.093333	1923.263672	-61.908878
23196.919681	2455.093333	1922.285156	-112.299446
23196.919681	2455.093333	1921.306641	-121.160965
23196.919681	2455.093333	1920.328125	87.306442
23196.919681	2455.093333	1919.349609	-19.271238
23196.919681	2455.093333	1918.370117	-203.934586
23196.919681	2455.093333	1917.391602	-195.726624
23196.919681	2455.093333	1916.412109	-9.399510
23196.919681	2455.093333	1915.431641	140.254562
23196.919681	2455.093333	1914.452148	14.211995
23196.919681	2455.093333	1913.472656	112.582306
23196.919681	2455.093333	1912.492188	-49.995739
23196.919681	2455.093333	1911.511719	-54.052277
23196.919681	2455.093333	1910.531250	15.010880
23196.919681	2455.093333	1909.550781	140.096558
23196.919681	2455.093333	1908.569336	-80.857849
23196.919681	2455.093333	1907.588867	75.863983
23196.919681	2455.093333	1906.607422	385.966370
23196.919681	2455.093333	1905.625977	118.817375
23196.919681	2455.093333	1904.644531	234.014877
23196.919681	2455.093333	1903.662109	30.279270
23196.919681	2455.093333	1902.680664	-46.819855
23196.919681	2455.093333	1901.698242	0.206792
23196.919681	2455.093333	1900.715820	88.572723
23196.919681	2455.093333	1899.733398	-46.878281
23196.919681	2455.093333	1898.750000	221.427475
23196.919681	2455.093333	1897.767578	-67.184753
23196.919681	2455.093333	1896.784180	13.830751
23196.919681	2455.093333	1895.800781	-70.466995
23196.919681	2455.093333	1894.817383	15.376929
23196.919681	2455.093333	1893.833984	103.616241
23196.919681	2455.093333	1892.850586	135.949936
23196.919681	2455.093333	1891.866211	139.119385
23196.919681	2455.093333	1890.881836	30.583838
23196.919681	2455.093333	1889.897461	235.284348
23196.919681	2455.093333	1888.913086	41.804523
23196.919681	2455.093333	1887.927734	98.371964
23196.919681	2455.093333	1886.943359	55.428692
23196.919681	2455.093333	1885.958008	201.729050
23196.919681	2455.093333	1884.972656	183.026962
23196.919681	2455.093333	1883.987305	-10.283558
23196.919681	2455.093333	1883.001953	-67.744087
23196.919681	2455.093333	1882.015625	170.568069
23196.919681	2455.093333	1881.029297	67.025887
23196.919681	2455.093333	1880.042969	-104.336128
23196.919681	2455.093333	1879.056641	97.481354
23196.919681	2455.093333	1878.070313	192.628021
23196.919681	2455.093333	1877.083984	26.155884
23196.919681	2455.093333	1876.096680	48.610485
23196.919681	2455.093333	1875.109375	92.837318
23196.919681	2455.093333	1874.122070	-75.980820
23196.919681	2455.093333	1873.134766	-106.797882
23196.919681	2455.093333	1872.146484	-103.744247
23196.919681	2455.093333	1871.159180	61.387497
23196.919681	2455.093333	1870.170898	1.489711
23196.919681	2455.093333	1869.182617	40.749611
23196.919681	2455.093333	1868.194336	217.799072
23196.919681	2455.093333	1867.205078	75.657936
23196.919681	2455.093333	1866.216797	327.521912
23196.919681	2455.093333	1865.227539	23.466728
23196.919681	2455.093333	1864.238281	139.902206
23196.919681	2455.093333	1863.249023	178.969925
23196.919681	2455.093333	1862.259766	150.375839
23196.919681	2455.093333	1861.269531	150.743073
23196.919681	2455.093333	1860.279297	-3.430629
23196.919681	2455.093333	1859.290039	-27.223616
23196.919681	2455.093333	1858.298828	105.827179
23196.919681	2455.093333	1857.308594	-21.792374
23196.919681	2455.093333	1856.318359	-84.256165
23196.919681	2455.093333	1855.327148	10.046947
23196.919681	2455.093333	1854.335938	58.464382
23196.919681	2455.093333	1853.344727	227.383636
23196.919681	2455.093333	1852.353516	58.715611
23196.919681	2455.093333	1851.362305	-59.312363
23196.919681	2455.093333	1850.370117	-105.044449
23196.919681	2455.093333	1849.377930	27.489916
23196.919681	2455.093333	1848.385742	80.441833
23196.919681	2455.093333	1847.393555	326.005371
23196.919681	2455.093333	1846.401367	215.058182
23196.919681	2455.093333	1845.408203	48.734402
23196.919681	2455.093333	1844.415039	219.410965
23196.919681	2455.093333	1843.421875	16.959625
23196.919681	2455.093333	1842.428711	225.982635
23196.919681	2455.093333	1841.435547	-140.075989
23196.919681	2455.093333	1840.441406	-51.467136
23196.919681	2455.093333	1839.448242	412.205475
23196.919681	2455.093333	1838.454102	72.605377
23196.919681	2455.093333	1837.459961	192.217163
23196.919681	2455.093333	1836.464844	64.172523
23196.919681	2455.093333	1835.470703	15.420903
23196.919681	2455.093333	1834.475586	101.164413
23196.919681	2455.093333	1833.480469	-38.975399
23196.919681	2455.093333	1832.485352	51.427872
23196.919681	2455.093333	1831.490234	79.306496
23196.919681	2455.093333	1830.495117	210.338821
23196.919681	2455.093333	1829.499023	74.826065
23196.919681	2455.093333	1828.502930	361.661499
23196.919681	2455.093333	1827.506836	-54.685474
23196.919681	2455.093333	1826.510742	-106.313858
23196.919681	2455.093333	1825.513672	17.085091
23196.919681	2455.093333	1824.517578	-356.008575
23196.919681	2455.093333	1823.520508	16.588310
23196.919681	2455.093333	1822.523438	19.820250
23196.919681	2455.093333	1821.526367	6.199583
23196.919681	2455.093333	1820.529297	210.557037
23196.919681	2455.093333	1819.531250	453.085693
23196.919681	2455.093333	1818.533203	67.882660
23196.919681	2455.093333	1817.535156	34.780628
23196.919681	2455.093333	1816.537109	18.368141
23196.919681	2455.093333	1815.539063	9.059920
23196.919681	2455.093333	1814.540039	78.646347
23196.919681	2455.093333	1813.541992	-26.562746
23196.919681	2455.093333	1812.542969	54.791965
23196.919681	2455.093333	1811.543945	-237.141052
23196.919681	2455.093333	1810.543945	102.334518
23196.919681	2455.093333	1809.544922	-184.900467
23196.919681	2455.093333	1808.544922	-144.592834
23196.919681	2455.093333	1807.544922	-190.445282
23196.919681	2455.093333	1806.544922	-4.564522
23196.919681	2455.093333	1805.544922	61.681038
23196.919681	2455.093333	1804.544922	13.131985
23196.919681	2455.093333	1803.543945	-142.986649
23196.919681	2455.093333	1802.542969	188.009628
23196.919681	2455.093333	1801.541992	84.240715
23196.919681	2455.093333	1800.541016	-43.466415
23196.919681	2455.093333	1799.539063	84.138298
23196.919681	2455.093333	1798.538086	128.076523
23196.919681	2455.093333	1797.536133	-59.537220
23196.919681	2455.093333	1796.534180	79.601341
23196.919681	2455.093333	1795.532227	51.633663
23196.919681	2455.093333	1794.529297	-55.124229
23196.919681	2455.093333	1793.527344	200.412918
23196.919681	2455.093333	1792.524414	-106.776115
23196.919681	2455.093333	1791.521484	69.799065
23196.919681	2455.093333	1790.518555	248.572952
23196.919681	2455.093333	1789.514648	136.531006
23196.919681	2455.093333	1788.511719	98.251823
23196.919681	2455.093333	1787.507813	202.738556
23196.919681	2455.093333	1786.503906	-90.531487
23196.919681	2455.093333	1785.500000	223.179016
23196.919681	2455.093333	1784.496094	-205.882843
23196.919681	2455.093333	1783.491211	124.133011
23196.919681	2455.093333	1782.486328	35.194683
23196.919681	2455.093333	1781.481445	-156.114761
23196.919681	2455.093333	1780.476563	-64.483734
23196.919681	2455.093333	1779.471680	-22.944365
23196.919681	2455.093333	1778.465820	-79.025978
23196.919681	2455.093333	1777.460938	88.208206
23196.919681	2455.093333	1776.455078	58.008926
23196.919681	2455.093333	1775.449219	18.183107
23196.919681	2455.093333	1774.442383	-107.281418
23196.919681	2455.093333	1773.436523	-42.827682
23196.919681	2455.093333	1772.429688	23.833200
23196.919681	2455.093333	1771.422852	149.682541
23196.919681	2455.093333	1770.416016	47.485233
23196.919681	2455.093333	1769.409180	-133.122726
23196.919681	2455.093333	1768.402344	170.229080
23196.919681	2455.093333	1767.394531	112.734726
23196.919681	2455.093333	1766.386719	180.829391
23196.919681	2455.093333	1765.378906	70.908928
23196.919681	2455.093333	1764.371094	169.527390
23196.919681	2455.093333	1763.362305	-14.125473
23196.919681	2455.093333	1762.354492	-12.981853
23196.919681	2455.093333	1761.345703	255.765991
23196.919681	2455.093333	1760.336914	74.142006
23196.919681	2455.093333	1759.328125	51.143719
23196.919681	2455.093333	1758.318359	-50.152973
23196.919681	2455.093333	1757.308594	42.596657
23196.919681	2455.093333	1756.299805	97.302338
23196.919681	2455.093333	1755.290039	-136.924988
23196.919681	2455.093333	1754.279297	-42.295135
23196.919681	2455.093333	1753.269531	66.359955
23196.919681	2455.093333	1752.258789	9.230550
23196.919681	2455.093333	1751.249023	-7.807678
23196.919681	2455.093333	1750.238281	48.300266
23196.919681	2455.093333	1749.226563	-42.350636
23196.919681	2455.093333	1748.215820	249.813431
23196.919681	2455.093333	1747.204102	95.053741
23196.919681	2455.093333	1746.193359	-116.492783
23196.919681	2455.093333	1745.181641	434.911163
23196.919681	2455.093333	1744.168945	119.130219
23196.919681	2455.093333	1743.157227	-69.149002
23196.919681	2455.093333	1742.144531	103.706551
23196.919681	2455.093333	1741.132813	-245.317047
23196.919681	2455.093333	1740.120117	-49.196655
23196.919681	2455.093333	1739.106445	193.875809
23196.919681	2455.093333	1738.093750	-32.759174
23196.919681	2455.093333	1737.080078	308.977417
23196.919681	2455.093333	1736.067383	320.288025
23196.919681	2455.093333	1735.053711	24.911293
23196.919681	2455.093333	1734.040039	45.381145
23196.919681	2455.093333	1733.025391	-33.315380
23196.919681	2455.093333	1732.011719	-218.162125
23196.919681	2455.093333	1730.997070	-7.292590
23196.919681	2455.093333	1729.982422	-109.949516
23196.919681	2455.093333	1728.967773	-33.730446
23196.919681	2455.093333	1727.952148	138.833496
23196.919681	2455.093333	1726.937500	101.666222
23196.919681	2455.093333	1725.921875	-50.988136
23196.919681	2455.093333	1724.906250	22.181211
23196.919681	2455.093333	1723.890625	191.637390
23196.919681	2455.093333	1722.875000	215.025208
23196.919681	2455.093333	1721.858398	85.357735
23196.919681	2455.093333	1720.841797	178.983521
23196.919681	2455.093333	1719.825195	300.633362
23196.919681	2455.093333	1718.808594	309.254883
23196.919681	2455.093333	1717.791992	376.475403
23196.919681	2455.093333	1716.774414	-21.741373
23196.919681	2455.093333	1715.756836	110.977318
23196.919681	2455.093333	1714.739258	330.401459
23196.919681	2455.093333	1713.721680	-49.243893
23196.919681	2455.093333	1712.704102	294.266388
23196.919681	2455.093333	1711.685547	186.764526
23196.919681	2455.093333	1710.667969	102.642128
23196.919681	2455.093333	1709.649414	290.586548
23196.919681	2455.093333	1708.630859	105.278313
23196.919681	2455.093333	1707.611328	189.629333
23196.919681	2455.093333	1706.592773	119.032349
23196.919681	2455.093333	1705.573242	235.878799
23196.919681	2455.093333	1704.553711	272.828400
23196.919681	2455.093333	1703.534180	253.366180
23196.919681	2455.093333	1702.513672	236.089050
23196.919681	2455.093333	1701.494141	399.104065
23196.919681	2455.093333	1700.473633	184.746780
23196.919681	2455.093333	1699.453125	195.165970
23196.919681	2455.093333	1698.432617	509.852631
23196.919681	2455.093333	1697.412109	292.829041
23196.919681	2455.093333	1696.390625	335.548950
23196.919681	2455.093333	1695.369141	319.606964
23196.919681	2455.093333	1694.347656	523.472717
23196.919681	2455.093333	1693.326172	542.313110
23196.919681	2455.093333	1692.304688	249.929871
23196.919681	2455.093333	1691.282227	652.030090
23196.919681	2455.093333	1690.260742	499.747223
23196.919681	2455.093333	1689.238281	508.660492
23196.919681	2455.093333	1688.214844	255.657227
23196.919681	2455.093333	1687.192383	395.201782
23196.919681	2455.093333	1686.168945	452.769135
23196.919681	2455.093333	1685.146484	641.009766
23196.919681	2455.093333	1684.123047	768.306335
23196.919681	2455.093333	1683.099609	454.134186
23196.919681	2455.093333	1682.075195	826.254211
23196.919681	2455.093333	1681.051758	999.737732
23196.919681	2455.093333	1680.027344	981.656189
23196.919681	2455.093333	1679.002930	790.809509
23196.919681	2455.093333	1677.978516	735.204773
23196.919681	2455.093333	1676.953125	693.469727
23196.919681	2455.093333	1675.928711	931.458069
23196.919681	2455.093333	1674.903320	987.373047
23196.919681	2455.093333	1673.877930	968.560181
23196.919681	2455.093333	1672.852539	1157.040405
23196.919681	2455.093333	1671.826172	1335.989746
23196.919681	2455.093333	1670.800781	1013.936951
23196.919681	2455.093333	1669.774414	976.013916
23196.919681	2455.093333	1668.748047	1140.578613
23196.919681	2455.093333	1667.721680	1249.095459
23196.919681	2455.093333	1666.694336	1341.140259
23196.919681	2455.093333	1665.667969	1184.051514
23196.919681	2455.093333	1664.640625	1662.104980
23196.919681	2455.093333	1663.613281	1851.401245
23196.919681	2455.093333	1662.585938	1359.033569
23196.919681	2455.093333	1661.557617	1920.155762
23196.919681	2455.093333	1660.530273	2046.208862
23196.919681	2455.093333	1659.501953	2127.920654
23196.919681	2455.093333	1658.473633	2081.679688
23196.919681	2455.093333	1657.444336	2081.805420
23196.919681	2455.093333	1656.416016	1970.347046
23196.919681	2455.093333	1655.386719	2321.039551
23196.919681	2455.093333	1654.358398	2058.440430
23196.919681	2455.093333	1653.328125	2065.139160
23196.919681	2455.093333	1652.298828	2575.512451
23196.919681	2455.093333	1651.269531	2818.692139
23196.919681	2455.093333	1650.239258	2657.897705
23196.919681	2455.093333	1649.208984	2756.926758
23196.919681	2455.093333	1648.178711	2927.743652
23196.919681	2455.093333	1647.148438	2915.197754
23196.919681	2455.093333	1646.117188	3264.270508
23196.919681	2455.093333	1645.086914	3038.227051
23196.919681	2455.093333	1644.055664	3048.586914
23196.919681	2455.093333	1643.024414	3244.257080
23196.919681	2455.093333	1641.992188	3027.343506
23196.919681	2455.093333	1640.960938	3153.301758
23196.919681	2455.093333	1639.928711	3142.474609
23196.919681	2455.093333	1638.896484	2997.279541
23196.919681	2455.093333	1637.864258	3192.397949
23196.919681	2455.093333	1636.832031	3324.880371
23196.919681	2455.093333	1635.798828	3376.227539
23196.919681	2455.093333	1634.766602	3318.770264
23196.919681	2455.093333	1633.733398	3636.011230
23196.919681	2455.093333	1632.699219	3830.463867
23196.919681	2455.093333	1631.666016	3400.458008
23196.919681	2455.093333	1630.632813	3546.247803
23196.919681	2455.093333	1629.598633	3740.448242
23196.919681	2455.093333	1628.564453	3846.700195
23196.919681	2455.093333	1627.530273	3770.327637
23196.919681	2455.093333	1626.495117	4095.883301
23196.919681	2455.093333	1625.460938	4127.958984
23196.919681	2455.093333	1624.425781	4194.594238
23196.919681	2455.093333	1623.390625	4388.151855
23196.919681	2455.093333	1622.355469	4009.118896
23196.919681	2455.093333	1621.319336	4507.184082
23196.919681	2455.093333	1620.284180	4174.355469
23196.919681	2455.093333	1619.248047	4026.163086
23196.919681	2455.093333	1618.211914	4339.315430
23196.919681	2455.093333	1617.174805	4654.601563
23196.919681	2455.093333	1616.138672	4909.814941
23196.919681	2455.093333	1615.101563	4828.316895
23196.919681	2455.093333	1614.065430	4737.635742
23196.919681	2455.093333	1613.027344	4815.136719
23196.919681	2455.093333	1611.990234	5155.261719
23196.919681	2455.093333	1610.953125	5545.914063
23196.919681	2455.093333	1609.915039	5468.869141
23196.919681	2455.093333	1608.876953	5449.406738
23196.919681	2455.093333	1607.838867	5554.257813
23196.919681	2455.093333	1606.800781	5465.721191
23196.919681	2455.093333	1605.761719	5466.939453
23196.919681	2455.093333	1604.723633	5472.780273
23196.919681	2455.093333	1603.684570	5646.517090
23196.919681	2455.093333	1602.644531	5445.286621
23196.919681	2455.093333	1601.605469	5614.368652
23196.919681	2455.093333	1600.566406	4951.170410
23196.919681	2455.093333	1599.526367	5442.065918
23196.919681	2455.093333	1598.486328	5105.478027
23196.919681	2455.093333	1597.446289	5141.250488
23196.919681	2455.093333	1596.405273	5002.413086
23196.919681	2455.093333	1595.365234	5130.092773
23196.919681	2455.093333	1594.324219	5432.234863
23196.919681	2455.093333	1593.283203	5252.158691
23196.919681	2455.093333	1592.242188	5090.540039
23196.919681	2455.093333	1591.200195	5158.479004
23196.919681	2455.093333	1590.159180	5196.617676
23196.919681	2455.093333	1589.117188	5471.033203
23196.919681	2455.093333	1588.075195	5518.309570
23196.919681	2455.093333	1587.032227	5217.021973
23196.919681	2455.093333	1585.990234	5482.208496
23196.919681	2455.093333	1584.947266	5300.321777
23196.919681	2455.093333	1583.904297	5595.240234
23196.919681	2455.093333	1582.861328	5445.568359
23196.919681	2455.093333	1581.818359	5410.547852
23196.919681	2455.093333	1580.775391	5435.140625
23196.919681	2455.093333	1579.731445	5278.840820
23196.919681	2455.093333	1578.687500	5150.133301
23196.919681	2455.093333	1577.643555	5458.747070
23196.919681	2455.093333	1576.598633	5101.279785
23196.919681	2455.093333	1575.554688	5050.655273
23196.919681	2455.093333	1574.509766	4892.565918
23196.919681	2455.093333	1573.464844	4929.023438
23196.919681	2455.093333	1572.419922	5253.676270
23196.919681	2455.093333	1571.374023	4503.641113
23196.919681	2455.093333	1570.329102	4736.955078
23196.919681	2455.093333	1569.283203	4289.147949
23196.919681	2455.093333	1568.237305	4298.604004
23196.919681	2455.093333	1567.191406	4463.489258
23196.919681	2455.093333	1566.144531	4212.651367
23196.919681	2455.093333	1565.098633	4382.220215
23196.919681	2455.093333	1564.051758	4325.742188
23196.919681	2455.093333	1563.004883	4235.131836
23196.919681	2455.093333	1561.957031	3993.987793
23196.919681	2455.093333	1560.910156	3956.145264
23196.919681	2455.093333	1559.862305	4326.773438
23196.919681	2455.093333	1558.814453	3700.545654
23196.919681	2455.093333	1557.766602	3726.907715
23196.919681	2455.093333	1556.718750	3903.848145
23196.919681	2455.093333	1555.669922	3406.018311
23196.919681	2455.093333	1554.621094	3608.210693
23196.919681	2455.093333	1553.573242	3500.541992
23196.919681	2455.093333	1552.523438	3607.143799
23196.919681	2455.093333	1551.474609	3522.495850
23196.919681	2455.093333	1550.424805	2996.151611
23196.919681	2455.093333	1549.375000	2948.299561
23196.919681	2455.093333	1548.325195	2896.033447
23196.919681	2455.093333	1547.275391	2641.336182
23196.919681	2455.093333	1546.225586	2471.060791
23196.919681	2455.093333	1545.174805	2528.477539
23196.919681	2455.093333	1544.124023	2313.031738
23196.919681	2455.093333	1543.073242	2377.538086
23196.919681	2455.093333	1542.022461	2301.172607
23196.919681	2455.093333	1540.970703	2156.748047
23196.919681	2455.093333	1539.919922	2196.648682
23196.919681	2455.093333	1538.868164	2241.197754
23196.919681	2455.093333	1537.815430	2001.839355
23196.919681	2455.093333	1536.763672	1996.718140
23196.919681	2455.093333	1535.710938	2143.888916
23196.919681	2455.093333	1534.659180	2009.603394
23196.919681	2455.093333	1533.606445	2411.280273
23196.919681	2455.093333	1532.552734	2231.859131
23196.919681	2455.093333	1531.500000	2275.079102
23196.919681	2455.093333	1530.446289	2064.299316
23196.919681	2455.093333	1529.393555	2291.593994
23196.919681	2455.093333	1528.338867	1872.533936
23196.919681	2455.093333	1527.285156	1877.858765
23196.919681	2455.093333	1526.231445	2173.535400
23196.919681	2455.093333	1525.176758	1947.906250
23196.919681	2455.093333	1524.122070	1996.748291
23196.919681	2455.093333	1523.067383	2057.071045
23196.919681	2455.093333	1522.012695	2008.804199
23196.919681	2455.093333	1520.957031	1743.282959
23196.919681	2455.093333	1519.901367	1770.156494
23196.919681	2455.093333	1518.845703	1801.723511
23196.919681	2455.093333	1517.790039	1317.370605
23196.919681	2455.093333	1516.734375	1247.536987
23196.919681	2455.093333	1515.677734	1186.947388
23196.919681	2455.093333	1514.621094	1332.427734
23196.919681	2455.093333	1513.564453	1281.265137
23196.919681	2455.093333	1512.507813	977.046997
23196.919681	2455.093333	1511.450195	1193.119995
23196.919681	2455.093333	1510.393555	828.389893
23196.919681	2455.093333	1509.335938	868.517212
23196.919681	2455.093333	1508.278320	949.496460
23196.919681	2455.093333	1507.219727	940.262878
23196.919681	2455.093333	1506.162109	660.214905
23196.919681	2455.093333	1505.103516	739.514343
23196.919681	2455.093333	1504.044922	724.158936
23196.919681	2455.093333	1502.986328	679.671692
23196.919681	2455.093333	1501.926758	603.799316
23196.919681	2455.093333	1500.868164	692.895081
23196.919681	2455.093333	1499.808594	703.195129
23196.919681	2455.093333	1498.749023	722.723328
23196.919681	2455.093333	1497.688477	573.316956
23196.919681	2455.093333	1496.628906	559.474243
23196.919681	2455.093333	1495.568359	566.126038
23196.919681	2455.093333	1494.507813	719.484924
23196.919681	2455.093333	1493.447266	498.966431
23196.919681	2455.093333	1492.386719	564.859009
23196.919681	2455.093333	1491.325195	495.797913
23196.919681	2455.093333	1490.263672	59.926422
23196.919681	2455.093333	1489.202148	63.490055
23196.919681	2455.093333	1488.140625	299.132690
23196.919681	2455.093333	1487.079102	-142.505692
23196.919681	2455.093333	1486.016602	-178.730301
23196.919681	2455.093333	1484.954102	192.479935
23196.919681	2455.093333	1483.891602	57.704388
23196.919681	2455.093333	1482.829102	388.709900
23196.919681	2455.093333	1481.765625	512.963562
23196.919681	2455.093333	1480.702148	19.253019
23196.919681	2455.093333	1479.638672	301.335358
23196.919681	2455.093333	1478.575195	623.955872
23196.919681	2455.093333	1477.511719	380.646820
23196.919681	2455.093333	1476.447266	373.435059
23196.919681	2455.093333	1475.382813	712.188965
23196.919681	2455.093333	1474.318359	678.523010
23196.919681	2455.093333	1473.253906	510.467377
23196.919681	2455.093333	1472.189453	349.468506
23196.919681	2455.093333	1471.124023	462.393951
23196.919681	2455.093333	1470.058594	692.150085
23196.919681	2455.093333	1468.993164	493.763153
23196.919681	2455.093333	1467.927734	941.368958
23196.919681	2455.093333	1466.861328	1014.535095
23196.919681	2455.093333	1465.794922	857.641479
23196.919681	2455.093333	1464.728516	1146.409790
23196.919681	2455.093333	1463.662109	1144.233276
23196.919681	2455.093333	1462.594727	1223.215820
23196.919681	2455.093333	1461.528320	979.578247
23196.919681	2455.093333	1460.460938	1289.609619
23196.919681	2455.093333	1459.393555	1252.369751
23196.919681	2455.093333	1458.326172	1483.039185
23196.919681	2455.093333	1457.257813	1243.822266
23196.919681	2455.093333	1456.189453	1242.516479
23196.919681	2455.093333	1455.121094	1266.337280
23196.919681	2455.093333	1454.052734	1629.564697
23196.919681	2455.093333	1452.984375	1628.734375
23196.919681	2455.093333	1451.915039	1164.108643
23196.919681	2455.093333	1450.845703	1487.561768
23196.919681	2455.093333	1449.776367	1490.508179
23196.919681	2455.093333	1448.707031	1218.940674
23196.919681	2455.093333	1447.636719	1651.895874
23196.919681	2455.093333	1446.567383	1801.663696
23196.919681	2455.093333	1445.497070	1699.771973
23196.919681	2455.093333	1444.425781	1602.034424
23196.919681	2455.093333	1443.355469	1487.469971
23196.919681	2455.093333	1442.285156	1563.340088
23196.919681	2455.093333	1441.213867	1486.834961
23196.919681	2455.093333	1440.142578	1868.478638
23196.919681	2455.093333	1439.070313	1459.434326
23196.919681	2455.093333	1437.999023	1842.245605
23196.919681	2455.093333	1436.926758	1662.801636
23196.919681	2455.093333	1435.854492	1612.664307
23196.919681	2455.093333	1434.782227	1179.169556
23196.919681	2455.093333	1433.709961	1629.323608
23196.919681	2455.093333	1432.636719	1660.666260
23196.919681	2455.093333	1431.563477	1511.646729
23196.919681	2455.093333	1430.490234	1258.316040
23196.919681	2455.093333	1429.416992	1223.265991
23196.919681	2455.093333	1428.343750	1350.137329
23196.919681	2455.093333	1427.269531	789.799133
23196.919681	2455.093333	1426.195313	857.978577
23196.919681	2455.093333	1425.121094	812.039001
23196.919681	2455.093333	1424.046875	1046.439331
23196.919681	2455.093333	1422.971680	804.696045
23196.919681	2455.093333	1421.896484	446.679840
23196.919681	2455.093333	1420.821289	861.497986
23196.919681	2455.093333	1419.746094	842.281189
23196.919681	2455.093333	1418.669922	698.164124
23196.919681	2455.093333	1417.594727	968.318848
23196.919681	2455.093333	1416.518555	889.590942
23196.919681	2455.093333	1415.442383	841.042847
23196.919681	2455.093333	1414.365234	705.511108
23196.919681	2455.093333	1413.289063	664.101318
23196.919681	2455.093333	1412.211914	744.862183
23196.919681	2455.093333	1411.134766	841.073730
23196.919681	2455.093333	1410.057617	728.968018
23196.919681	2455.093333	1408.979492	601.869202
23196.919681	2455.093333	1407.902344	795.389832
23196.919681	2455.093333	1406.824219	834.186646
23196.919681	2455.093333	1405.746094	972.387756
23196.919681	2455.093333	1404.666992	911.689331
23196.919681	2455.093333	1403.588867	1105.219482
23196.919681	2455.093333	1402.509766	1006.951111
23196.919681	2455.093333	1401.430664	1038.988037
23196.919681	2455.093333	1400.351563	1219.390137
23196.919681	2455.093333	1399.271484	1629.245361
23196.919681	2455.093333	1398.192383	1298.050293
23196.919681	2455.093333	1397.112305	1379.328979
23196.919681	2455.093333	1396.031250	1516.863037
23196.919681	2455.093333	1394.951172	1678.821045
23196.919681	2455.093333	1393.871094	1642.484619
23196.919681	2455.093333	1392.790039	1541.671753
23196.919681	2455.093333	1391.708984	1461.106567
23196.919681	2455.093333	1390.626953	1558.808350
23196.919681	2455.093333	1389.545898	1448.994263
23196.919681	2455.093333	1388.463867	1119.742920
23196.919681	2455.093333	1387.381836	1313.693604
23196.919681	2455.093333	1386.299805	1182.781006
23196.919681	2455.093333	1385.217773	1472.390869
23196.919681	2455.093333	1384.134766	1641.424927
23196.919681	2455.093333	1383.051758	1479.659912
23196.919681	2455.093333	1381.968750	1169.131836
23196.919681	2455.093333	1380.885742	1379.185547
23196.919681	2455.093333	1379.802734	1138.323853
23196.919681	2455.093333	1378.718750	1441.984741
23196.919681	2455.093333	1377.634766	1430.970947
23196.919681	2455.093333	1376.550781	1356.593872
23196.919681	2455.093333	1375.465820	1355.364258
23196.919681	2455.093333	1374.381836	1481.101440
23196.919681	2455.093333	1373.296875	1181.369019
23196.919681	2455.093333	1372.211914	1271.263428
23196.919681	2455.093333	1371.126953	1263.879272
23196.919681	2455.093333	1370.041016	1114.029175
23196.919681	2455.093333	1368.955078	1486.345703
23196.919681	2455.093333	1367.869141	1485.044556
23196.919681	2455.093333	1366.783203	1697.706543
23196.919681	2455.093333	1365.697266	1352.498169
23196.919681	2455.093333	1364.610352	1310.756714
23196.919681	2455.093333	1363.523438	1752.236450
23196.919681	2455.093333	1362.436523	1569.463623
23196.919681	2455.093333	1361.349609	1366.266846
23196.919681	2455.093333	1360.261719	1258.409790
23196.919681	2455.093333	1359.174805	1387.583862
23196.919681	2455.093333	1358.086914	1300.511230
23196.919681	2455.093333	1356.998047	1412.503540
23196.919681	2455.093333	1355.910156	1457.141724
23196.919681	2455.093333	1354.821289	1400.102051
23196.919681	2455.093333	1353.732422	1456.736694
23196.919681	2455.093333	1352.643555	1381.762817
23196.919681	2455.093333	1351.554688	1627.383911
23196.919681	2455.093333	1350.464844	1382.517700
23196.919681	2455.093333	1349.375000	1327.497681
23196.919681	2455.093333	1348.285156	1255.910156
23196.919681	2455.093333	1347.195313	1068.360962
23196.919681	2455.093333	1346.105469	1124.623779
23196.919681	2455.093333	1345.014648	1114.775391
23196.919681	2455.093333	1343.923828	979.552612
23196.919681	2455.093333	1342.833008	1173.131348
23196.919681	2455.093333	1341.741211	1396.239380
23196.919681	2455.093333	1340.650391	1135.289307
23196.919681	2455.093333	1339.558594	1263.822510
23196.919681	2455.093333	1338.466797	925.215149
23196.919681	2455.093333	1337.374023	1025.359741
23196.919681	2455.093333	1336.282227	1287.481689
23196.919681	2455.093333	1335.189453	1338.729370
23196.919681	2455.093333	1334.096680	1141.837402
23196.919681	2455.093333	1333.003906	1136.386108
23196.919681	2455.093333	1331.910156	1149.852661
23196.919681	2455.093333	1330.817383	1073.753662
23196.919681	2455.093333	1329.723633	1081.740967
23196.919681	2455.093333	1328.629883	1216.202637
23196.919681	2455.093333	1327.535156	1082.835449
23196.919681	2455.093333	1326.441406	1121.064575
23196.919681	2455.093333	1325.346680	901.978882
23196.919681	2455.093333	1324.251953	1045.957764
23196.919681	2455.093333	1323.156250	1012.132080
23196.919681	2455.093333	1322.061523	1043.908081
23196.919681	2455.093333	1320.965820	1103.024414
23196.919681	2455.093333	1319.870117	1220.988647
23196.919681	2455.093333	1318.774414	882.378723
23196.919681	2455.093333	1317.678711	970.093018
23196.919681	2455.093333	1316.582031	1068.531006
23196.919681	2455.093333	1315.485352	1291.347900
23196.919681	2455.093333	1314.388672	1232.135498
23196.919681	2455.093333	1313.291016	1191.340332
23196.919681	2455.093333	1312.194336	1344.932007
23196.919681	2455.093333	1311.096680	1381.708618
23196.919681	2455.093333	1309.999023	1183.566650
23196.919681	2455.093333	1308.901367	1392.541138
23196.919681	2455.093333	1307.802734	1305.837280
23196.919681	2455.093333	1306.705078	1768.999146
23196.919681	2455.093333	1305.606445	1469.412231
23196.919681	2455.093333	1304.506836	1678.105713
23196.919681	2455.093333	1303.408203	1784.687622
23196.919681	2455.093333	1302.308594	1981.948242
23196.919681	2455.093333	1301.208984	2036.681396
23196.919681	2455.093333	1300.109375	2037.457153
23196.919681	2455.093333	1299.009766	2157.999756
23196.919681	2455.093333	1297.909180	2121.271484
23196.919681	2455.093333	1296.808594	1966.084961
23196.919681	2455.093333	1295.708008	2065.922363
23196.919681	2455.093333	1294.607422	2118.703369
23196.919681	2455.093333	1293.506836	1935.550415
23196.919681	2455.093333	1292.405273	2217.076904
23196.919681	2455.093333	1291.303711	1969.268433
23196.919681	2455.093333	1290.202148	1814.767456
23196.919681	2455.093333	1289.099609	1702.925659
23196.919681	2455.093333	1287.998047	1871.687012
23196.919681	2455.093333	1286.895508	1753.042358
23196.919681	2455.093333	1285.792969	1776.412720
23196.919681	2455.093333	1284.689453	1708.767334
23196.919681	2455.093333	1283.586914	1816.432129
23196.919681	2455.093333	1282.483398	1983.285522
23196.919681	2455.093333	1281.379883	1749.863403
23196.919681	2455.093333	1280.276367	1806.049805
23196.919681	2455.093333	1279.171875	1767.677979
23196.919681	2455.093333	1278.067383	1805.257813
23196.919681	2455.093333	1276.962891	1517.697021
23196.919681	2455.093333	1275.858398	1250.516602
23196.919681	2455.093333	1274.753906	1209.895874
23196.919681	2455.093333	1273.648438	1133.826294
23196.919681	2455.093333	1272.542969	922.286255
23196.919681	2455.093333	1271.437500	875.921692
23196.919681	2455.093333	1270.331055	675.333740
23196.919681	2455.093333	1269.225586	389.971039
23196.919681	2455.093333	1268.119141	718.159485
23196.919681	2455.093333	1267.012695	222.828156
23196.919681	2455.093333	1265.906250	274.929688
23196.919681	2455.093333	1264.798828	37.928799
23196.919681	2455.093333	1263.691406	228.102036
23196.919681	2455.093333	1262.583984	173.079742
23196.919681	2455.093333	1261.476563	235.572311
23196.919681	2455.093333	1260.368164	53.726337
23196.919681	2455.093333	1259.260742	61.422924
23196.919681	2455.093333	1258.152344	207.285873
23196.919681	2455.093333	1257.043945	150.374573
23196.919681	2455.093333	1255.934570	54.171726
23196.919681	2455.093333	1254.825195	189.638977
23196.919681	2455.093333	1253.716797	266.050323
23196.919681	2455.093333	1252.606445	469.958618
23196.919681	2455.093333	1251.497070	279.225922
23196.919681	2455.093333	1250.387695	434.212006
23196.919681	2455.093333	1249.277344	185.341171
23196.919681	2455.093333	1248.166992	211.561157
23196.919681	2455.093333	1247.055664	609.456482
23196.919681	2455.093333	1245.945313	511.471771
23196.919681	2455.093333	1244.833984	493.415314
23196.919681	2455.093333	1243.722656	523.890991
23196.919681	2455.093333	1242.611328	381.177551
23196.919681	2455.093333	1241.499023	697.418274
23196.919681	2455.093333	1240.387695	639.444275
23196.919681	2455.093333	1239.275391	554.618713
23196.919681	2455.093333	1238.162109	466.324005
23196.919681	2455.093333	1237.049805	375.916534
23196.919681	2455.093333	1235.936523	354.945160
23196.919681	2455.093333	1234.823242	320.431549
23196.919681	2455.093333	1233.709961	106.213173
23196.919681	2455.093333	1232.596680	264.557068
23196.919681	2455.093333	1231.482422	85.436668
23196.919681	2455.093333	1230.369141	257.067780
23196.919681	2455.093333	1229.253906	161.010269
23196.919681	2455.093333	1228.139648	-165.093552
23196.919681	2455.093333	1227.025391	-83.237030
23196.919681	2455.093333	1225.910156	-15.886239
23196.919681	2455.093333	1224.794922	140.287247
23196.919681	2455.093333	1223.679688	99.394333
23196.919681	2455.093333	1222.563477	253.740372
23196.919681	2455.093333	1221.447266	141.677322
23196.919681	2455.093333	1220.331055	105.530930
23196.919681	2455.093333	1219.214844	40.156242
23196.919681	2455.093333	1218.098633	144.308731
23196.919681	2455.093333	1216.981445	0.563223
23196.919681	2455.093333	1215.864258	106.642883
23196.919681	2455.093333	1214.747070	67.049294
23196.919681	2455.093333	1213.629883	181.414902
23196.919681	2455.093333	1212.511719	124.660118
23196.919681	2455.093333	1211.393555	-57.017105
23196.919681	2455.093333	1210.275391	52.201263
23196.919681	2455.093333	1209.157227	203.244568
23196.919681	2455.093333	1208.038086	-8.152437
23196.919681	2455.093333	1206.918945	-55.229122
23196.919681	2455.093333	1205.799805	65.219307
23196.919681	2455.093333	1204.680664	1.426930
23196.919681	2455.093333	1203.560547	-99.432220
23196.919681	2455.093333	1202.441406	123.841782
23196.919681	2455.093333	1201.321289	-193.836380
23196.919681	2455.093333	1200.200195	-153.129227
23196.919681	2455.093333	1199.080078	-355.920441
23196.919681	2455.093333	1197.958984	-121.992912
23196.919681	2455.093333	1196.837891	-68.149872
23196.919681	2455.093333	1195.716797	-348.702057
23196.919681	2455.093333	1194.594727	-270.919189
23196.919681	2455.093333	1193.473633	5.987603
23196.919681	2455.093333	1192.351563	15.023911
23196.919681	2455.093333	1191.229492	27.154478
23196.919681	2455.093333	1190.106445	181.388611
23196.919681	2455.093333	1188.984375	82.248283
23196.919681	2455.093333	1187.861328	105.890869
23196.919681	2455.093333	1186.738281	112.826378
23196.919681	2455.093333	1185.614258	-61.416615
23196.919681	2455.093333	1184.491211	-88.510735
23196.919681	2455.093333	1183.367188	-65.355865
23196.919681	2455.093333	1182.243164	125.628723
23196.919681	2455.093333	1181.119141	22.458647
23196.919681	2455.093333	1179.994141	0.791021
23196.919681	2455.093333	1178.869141	-48.916164
23196.919681	2455.093333	1177.744141	-152.500763
23196.919681	2455.093333	1176.619141	-170.517365
23196.919681	2455.093333	1175.493164	24.477882
23196.919681	2455.093333	1174.368164	99.995819
23196.919681	2455.093333	1173.242188	-139.195068
23196.919681	2455.093333	1172.115234	120.366005
23196.919681	2455.093333	1170.989258	381.149475
23196.919681	2455.093333	1169.862305	242.030701
23196.919681	2455.093333	1168.735352	174.931610
23196.919681	2455.093333	1167.608398	-68.946449
23196.919681	2455.093333	1166.481445	265.262024
23196.919681	2455.093333	1165.353516	240.773499
23196.919681	2455.093333	1164.225586	105.533882
23196.919681	2455.093333	1163.097656	66.689926
23196.919681	2455.093333	1161.968750	-30.264801
23196.919681	2455.093333	1160.840820	160.794678
23196.919681	2455.093333	1159.711914	173.480133
23196.919681	2455.093333	1158.583008	74.380669
23196.919681	2455.093333	1157.453125	229.907440
23196.919681	2455.093333	1156.324219	23.516516
23196.919681	2455.093333	1155.194336	41.687931
23196.919681	2455.093333	1154.064453	-57.115604
23196.919681	2455.093333	1152.933594	107.688499
23196.919681	2455.093333	1151.803711	17.287895
23196.919681	2455.093333	1150.672852	46.720253
23196.919681	2455.093333	1149.541992	75.521149
23196.919681	2455.093333	1148.411133	-16.613571
23196.919681	2455.093333	1147.279297	155.032898
23196.919681	2455.093333	1146.147461	334.857910
23196.919681	2455.093333	1145.015625	-14.719986
23196.919681	2455.093333	1143.883789	-77.254822
23196.919681	2455.093333	1142.750977	202.694321
23196.919681	2455.093333	1141.619141	188.497406
23196.919681	2455.093333	1140.486328	46.635159
23196.919681	2455.093333	1139.352539	41.053173
23196.919681	2455.093333	1138.219727	444.091064
23196.919681	2455.093333	1137.085938	429.051056
23196.919681	2455.093333	1135.952148	203.570221
23196.919681	2455.093333	1134.818359	458.137665
23196.919681	2455.093333	1133.683594	510.755798
23196.919681	2455.093333	1132.549805	588.816589
23196.919681	2455.093333	1131.415039	796.341675
23196.919681	2455.093333	1130.279297	890.522827
23196.919681	2455.093333	1129.144531	1004.473694
23196.919681	2455.093333	1128.008789	997.677917
23196.919681	2455.093333	1126.873047	1063.297363
23196.919681	2455.093333	1125.737305	905.040039
23196.919681	2455.093333	1124.601563	834.076904
23196.919681	2455.093333	1123.464844	839.858459
23196.919681	2455.093333	1122.328125	718.002380
23196.919681	2455.093333	1121.191406	863.503845
23196.919681	2455.093333	1120.054688	717.014404
23196.919681	2455.093333	1118.916992	823.589417
23196.919681	2455.093333	1117.779297	683.948914
23196.919681	2455.093333	1116.641602	586.525696
23196.919681	2455.093333	1115.503906	611.510437
23196.919681	2455.093333	1114.365234	660.034119
23196.919681	2455.093333	1113.226563	548.383911
23196.919681	2455.093333	1112.087891	663.191895
23196.919681	2455.093333	1110.949219	723.160583
23196.919681	2455.093333	1109.809570	709.172424
23196.919681	2455.093333	1108.669922	679.560120
23196.919681	2455.093333	1107.530273	595.123962
23196.919681	2455.093333	1106.390625	668.818420
23196.919681	2455.093333	1105.250000	591.285217
23196.919681	2455.093333	1104.109375	779.301086
23196.919681	2455.093333	1102.968750	976.074646
23196.919681	2455.093333	1101.828125	1004.312500
23196.919681	2455.093333	1100.686523	967.837219
23196.919681	2455.093333	1099.544922	1124.795776
23196.919681	2455.093333	1098.403320	1178.289185
23196.919681	2455.093333	1097.261719	1349.455811
23196.919681	2455.093333	1096.120117	1206.842163
23196.919681	2455.093333	1094.977539	1468.051636
23196.919681	2455.093333	1093.834961	1555.698608
23196.919681	2455.093333	1092.691406	1388.407593
23196.919681	2455.093333	1091.548828	1590.796021
23196.919681	2455.093333	1090.405273	1497.706543
23196.919681	2455.093333	1089.261719	1249.451904
23196.919681	2455.093333	1088.118164	1255.137207
23196.919681	2455.093333	1086.973633	1522.829712
23196.919681	2455.093333	1085.829102	1237.569092
23196.919681	2455.093333	1084.684570	1336.531006
23196.919681	2455.093333	1083.540039	1387.725220
23196.919681	2455.093333	1082.395508	1377.305908
23196.919681	2455.093333	1081.250000	1298.593384
23196.919681	2455.093333	1080.104492	1159.929077
23196.919681	2455.093333	1078.958984	1280.067017
23196.919681	2455.093333	1077.812500	1382.500854
23196.919681	2455.093333	1076.666016	1433.363525
23196.919681	2455.093333	1075.519531	1252.671021
23196.919681	2455.093333	1074.373047	1145.452515
23196.919681	2455.093333	1073.226563	1110.858765
23196.919681	2455.093333	1072.079102	1158.165649
23196.919681	2455.093333	1070.931641	1008.626526
23196.919681	2455.093333	1069.784180	1138.677246
23196.919681	2455.093333	1068.635742	1050.335449
23196.919681	2455.093333	1067.487305	1330.552368
23196.919681	2455.093333	1066.338867	1129.353638
23196.919681	2455.093333	1065.190430	1314.546265
23196.919681	2455.093333	1064.041992	1234.095459
23196.919681	2455.093333	1062.892578	1384.094360
23196.919681	2455.093333	1061.743164	1316.118164
23196.919681	2455.093333	1060.593750	1415.530640
23196.919681	2455.093333	1059.443359	1341.012451
23196.919681	2455.093333	1058.292969	1411.877441
23196.919681	2455.093333	1057.142578	1333.081421
23196.919681	2455.093333	1055.992188	1103.454834
23196.919681	2455.093333	1054.841797	1177.802856
23196.919681	2455.093333	1053.690430	1159.383667
23196.919681	2455.093333	1052.539063	1182.197754
23196.919681	2455.093333	1051.387695	1023.667603
23196.919681	2455.093333	1050.235352	1068.839966
23196.919681	2455.093333	1049.083984	721.505859
23196.919681	2455.093333	1047.931641	910.482605
23196.919681	2455.093333	1046.778320	823.694275
23196.919681	2455.093333	1045.625977	694.507141
23196.919681	2455.093333	1044.472656	999.882263
23196.919681	2455.093333	1043.319336	775.272705
23196.919681	2455.093333	1042.166016	758.915649
23196.919681	2455.093333	1041.012695	745.540283
23196.919681	2455.093333	1039.858398	579.385620
23196.919681	2455.093333	1038.704102	870.301880
23196.919681	2455.093333	1037.549805	606.372070
23196.919681	2455.093333	1036.394531	850.760315
23196.919681	2455.093333	1035.239258	695.239441
23196.919681	2455.093333	1034.083984	866.878784
23196.919681	2455.093333	1032.928711	1106.218262
23196.919681	2455.093333	1031.773438	996.397522
23196.919681	2455.093333	1030.617188	1103.791016
23196.919681	2455.093333	1029.460938	1026.897095
23196.919681	2455.093333	1028.304688	1075.847656
23196.919681	2455.093333	1027.147461	1246.278320
23196.919681	2455.093333	1025.991211	1218.483154
23196.919681	2455.093333	1024.833984	904.425964
23196.919681	2455.093333	1023.675781	675.322144
23196.919681	2455.093333	1022.518555	967.704773
23196.919681	2455.093333	1021.360352	686.945129
23196.919681	2455.093333	1020.202148	770.857300
23196.919681	2455.093333	1019.043945	771.288086
23196.919681	2455.093333	1017.884766	798.491455
23196.919681	2455.093333	1016.726563	587.031372
23196.919681	2455.093333	1015.567383	750.990417
23196.919681	2455.093333	1014.407227	506.738708
23196.919681	2455.093333	1013.248047	352.151581
23196.919681	2455.093333	1012.087891	480.101929
23196.919681	2455.093333	1010.927734	430.149292
23196.919681	2455.093333	1009.767578	734.652405
23196.919681	2455.093333	1008.606445	489.530243
23196.919681	2455.093333	1007.446289	875.554138
23196.919681	2455.093333	1006.285156	972.191467
23196.919681	2455.093333	1005.123047	637.056458
23196.919681	2455.093333	1003.961914	762.458496
23196.919681	2455.093333	1002.799805	1072.250732
23196.919681	2455.093333	1001.637695	918.191406
23196.919681	2455.093333	1000.475586	1004.885315
23196.919681	2455.093333	999.312500	820.867676
23196.919681	2455.093333	998.149414	862.861755
23196.919681	2455.093333	996.986328	759.706909
23196.919681	2455.093333	995.823242	707.535461
23196.919681	2455.093333	994.659180	691.354797
23196.919681	2455.093333	993.496094	680.674072
23196.919681	2455.093333	992.332031	615.803284
23196.919681	2455.093333	991.166992	718.257324
23196.919681	2455.093333	990.002930	781.485413
23196.919681	2455.093333	988.837891	404.640778
23196.919681	2455.093333	987.672852	641.164673
23196.919681	2455.093333	986.506836	872.368469
23196.919681	2455.093333	985.341797	446.317657
23196.919681	2455.093333	984.175781	414.303192
23196.919681	2455.093333	983.009766	417.075470
23196.919681	2455.093333	981.843750	457.397827
23196.919681	2455.093333	980.676758	386.167023
23196.919681	2455.093333	979.509766	351.792053
23196.919681	2455.093333	978.342773	276.907318
23196.919681	2455.093333	977.175781	333.432465
23196.919681	2455.093333	976.007813	502.136902
23196.919681	2455.093333	974.839844	620.873413
23196.919681	2455.093333	973.671875	221.100769
23196.919681	2455.093333	972.503906	154.177948
23196.919681	2455.093333	971.334961	659.965881
23196.919681	2455.093333	970.166016	343.913513
23196.919681	2455.093333	968.997070	434.516602
23196.919681	2455.093333	967.828125	170.704620
23196.919681	2455.093333	966.658203	309.845917
23196.919681	2455.093333	965.488281	538.622192
23196.919681	2455.093333	964.318359	457.826202
23196.919681	2455.093333	963.148438	580.920593
23196.919681	2455.093333	961.977539	832.796753
23196.919681	2455.093333	960.806641	686.470886
23196.919681	2455.093333	959.635742	541.507141
23196.919681	2455.093333	958.463867	411.425690
23196.919681	2455.093333	957.292969	283.665924
23196.919681	2455.093333	956.121094	349.258514
23196.919681	2455.093333	954.948242	363.595612
23196.919681	2455.093333	953.776367	533.927612
23196.919681	2455.093333	952.603516	495.892212
23196.919681	2455.093333	951.430664	478.445557
23196.919681	2455.093333	950.257813	488.255432
23196.919681	2455.093333	949.084961	713.315796
23196.919681	2455.093333	947.911133	380.657745
23196.919681	2455.093333	946.737305	587.794495
23196.919681	2455.093333	945.563477	545.098877
23196.919681	2455.093333	944.388672	498.980774
23196.919681	2455.093333	943.213867	633.340271
23196.919681	2455.093333	942.039063	487.153656
23196.919681	2455.093333	940.864258	928.188354
23196.919681	2455.093333	939.688477	927.828613
23196.919681	2455.093333	938.513672	1194.070679
23196.919681	2455.093333	937.337891	1441.536865
23196.919681	2455.093333	936.161133	1197.681885
23196.919681	2455.093333	934.985352	1373.330444
23196.919681	2455.093333	933.808594	1524.225464
23196.919681	2455.093333	932.631836	1412.025513
23196.919681	2455.093333	931.454102	1277.946411
23196.919681	2455.093333	930.277344	1073.508423
23196.919681	2455.093333	929.099609	1329.493530
23196.919681	2455.093333	927.921875	1135.978027
23196.919681	2455.093333	926.743164	1014.773438
23196.919681	2455.093333	925.565430	865.011841
23196.919681	2455.093333	924.386719	886.185425
23196.919681	2455.093333	923.208008	609.394348
23196.919681	2455.093333	922.028320	753.137329
23196.919681	2455.093333	920.849609	559.576050
23196.919681	2455.093333	919.669922	558.370361
23196.919681	2455.093333	919.474609	429.326996
23196.919681	2455.093333	918.309570	364.963348
23196.919681	2455.093333	917.143555	291.830688
23196.919681	2455.093333	915.977539	371.839783
23196.919681	2455.093333	914.810547	587.401123
23196.919681	2455.093333	913.644531	481.352509
23196.919681	2455.093333	912.477539	344.702911
23196.919681	2455.093333	911.310547	-52.066555
23196.919681	2455.093333	910.143555	71.475327
23196.919681	2455.093333	908.975586	120.641251
23196.919681	2455.093333	907.807617	69.260078
23196.919681	2455.093333	906.639648	-156.869873
23196.919681	2455.093333	905.471680	300.614197
23196.919681	2455.093333	904.303711	30.811325
23196.919681	2455.093333	903.134766	276.276306
23196.919681	2455.093333	901.965820	39.283298
23196.919681	2455.093333	900.796875	90.400139
23196.919681	2455.093333	899.626953	38.941250
23196.919681	2455.093333	898.457031	122.719910
23196.919681	2455.093333	897.287109	160.655426
23196.919681	2455.093333	896.117188	69.921021
23196.919681	2455.093333	894.947266	155.781677
23196.919681	2455.093333	893.776367	261.207947
23196.919681	2455.093333	892.605469	161.757263
23196.919681	2455.093333	891.434570	308.512909
23196.919681	2455.093333	890.262695	352.830139
23196.919681	2455.093333	889.091797	438.498291
23196.919681	2455.093333	887.919922	173.597656
23196.919681	2455.093333	886.748047	102.533279
23196.919681	2455.093333	885.575195	16.257994
23196.919681	2455.093333	884.403320	-135.257294
23196.919681	2455.093333	883.230469	289.770782
23196.919681	2455.093333	882.057617	101.286247
23196.919681	2455.093333	880.883789	86.839531
23196.919681	2455.093333	879.710938	15.878003
23196.919681	2455.093333	878.537109	-226.768127
23196.919681	2455.093333	877.362305	326.074097
23196.919681	2455.093333	876.188477	11.773841
23196.919681	2455.093333	875.013672	127.721817
23196.919681	2455.093333	873.839844	98.119156
23196.919681	2455.093333	872.664063	-35.691700
23196.919681	2455.093333	871.489258	-130.359848
23196.919681	2455.093333	870.313477	20.288639
23196.919681	2455.093333	869.138672	116.636360
23196.919681	2455.093333	867.962891	314.931458
23196.919681	2455.093333	866.786133	-126.754829
23196.919681	2455.093333	865.610352	60.692371
23196.919681	2455.093333	864.433594	-77.168221
23196.919681	2455.093333	863.256836	40.851086
23196.919681	2455.093333	862.079102	-248.634964
23196.919681	2455.093333	860.902344	-67.751930
23196.919681	2455.093333	859.724609	247.398788
23196.919681	2455.093333	858.546875	306.842590
23196.919681	2455.093333	857.368164	21.946220
23196.919681	2455.093333	856.190430	-213.011871
23196.919681	2455.093333	855.011719	91.165802
23196.919681	2455.093333	853.833008	-63.587284
23196.919681	2455.093333	852.654297	156.090805
23196.919681	2455.093333	851.474609	77.150711
23196.919681	2455.093333	850.294922	346.504303
23196.919681	2455.093333	849.115234	159.478271
23196.919681	2455.093333	847.935547	-10.147569
23196.919681	2455.093333	846.754883	187.798126
23196.919681	2455.093333	845.575195	-20.613792
23196.919681	2455.093333	844.393555	151.375870
23196.919681	2455.093333	843.212891	46.803696
23196.919681	2455.093333	842.032227	192.846802
23196.919681	2455.093333	840.850586	-69.274635
23196.919681	2455.093333	839.668945	184.733612
23196.919681	2455.093333	838.486328	-14.623124
23196.919681	2455.093333	837.304688	70.996994
23196.919681	2455.093333	836.122070	-67.784409
23196.919681	2455.093333	834.939453	-12.333432
23196.919681	2455.093333	833.756836	103.516136
23196.919681	2455.093333	832.573242	16.652418
23196.919681	2455.093333	831.389648	-20.560377
23196.919681	2455.093333	830.206055	-53.417053
23196.919681	2455.093333	829.022461	79.701630
23196.919681	2455.093333	827.838867	77.061363
23196.919681	2455.093333	826.654297	171.386215
23196.919681	2455.093333	825.469727	252.780350
23196.919681	2455.093333	824.284180	151.147537
23196.919681	2455.093333	823.099609	383.266144
23196.919681	2455.093333	821.914063	281.709320
23196.919681	2455.093333	820.728516	3.772433
23196.919681	2455.093333	819.542969	244.472916
23196.919681	2455.093333	818.356445	336.687164
23196.919681	2455.093333	817.169922	-37.773941
23196.919681	2455.093333	815.983398	15.817873
23196.919681	2455.093333	814.796875	-143.398941
23196.919681	2455.093333	813.609375	159.557510
23196.919681	2455.093333	812.422852	9.031291
23196.919681	2455.093333	811.235352	-94.142525
23196.919681	2455.093333	810.046875	-40.450520
23196.919681	2455.093333	808.859375	-139.218765
23196.919681	2455.093333	807.670898	-59.719543
23196.919681	2455.093333	806.482422	69.144600
23196.919681	2455.093333	805.293945	43.463070
23196.919681	2455.093333	804.104492	13.526316
23196.919681	2455.093333	802.915039	65.146492
23196.919681	2455.093333	801.725586	-9.770677
23196.919681	2455.093333	800.536133	134.090668
23196.919681	2455.093333	799.345703	348.663544
23196.919681	2455.093333	798.155273	121.623177
23196.919681	2455.093333	796.964844	38.281448
23196.919681	2455.093333	795.774414	-113.563469
23196.919681	2455.093333	794.583008	-61.824299
23196.919681	2455.093333	793.392578	-31.503805
23196.919681	2455.093333	792.200195	-73.975517
23196.919681	2455.093333	791.008789	42.007607
23196.919681	2455.093333	789.816406	-11.123353
23196.919681	2455.093333	788.625000	-44.955391
23196.919681	2455.093333	787.432617	-78.756630
23196.919681	2455.093333	786.239258	56.452583
23196.919681	2455.093333	785.046875	18.399542
23196.919681	2455.093333	783.853516	228.398163
23196.919681	2455.093333	782.660156	57.820396
23196.919681	2455.093333	781.465820	-163.967316
23196.919681	2455.093333	780.272461	165.635193
23196.919681	2455.093333	779.078125	155.437912
23196.919681	2455.093333	777.883789	256.320465
23196.919681	2455.093333	776.688477	66.748833
23196.919681	2455.093333	775.494141	344.828888
23196.919681	2455.093333	774.298828	400.808075
23196.919681	2455.093333	773.103516	266.831543
23196.919681	2455.093333	771.907227	216.130844
23196.919681	2455.093333	770.711914	397.973755
23196.919681	2455.093333	769.515625	125.461273
23196.919681	2455.093333	768.318359	428.797272
23196.919681	2455.093333	767.122070	-1.367763
23196.919681	2455.093333	765.924805	31.170637
23196.919681	2455.093333	764.727539	225.651123
23196.919681	2455.093333	763.530273	262.382965
23196.919681	2455.093333	762.333008	130.814072
23196.919681	2455.093333	761.134766	3.554735
23196.919681	2455.093333	759.936523	-0.164273
23196.919681	2455.093333	758.738281	68.487724
23196.919681	2455.093333	757.540039	-148.100037
23196.919681	2455.093333	756.340820	-222.038086
23196.919681	2455.093333	755.141602	-91.722618
23196.919681	2455.093333	753.942383	25.762884
23196.919681	2455.093333	752.742188	-97.121872
23196.919681	2455.093333	751.541992	-139.179398
23196.919681	2455.093333	750.341797	22.827131
23196.919681	2455.093333	749.141602	-223.303024
23196.919681	2455.093333	747.941406	85.221588
23196.919681	2455.093333	746.740234	-27.030098
23196.919681	2455.093333	745.539063	145.346436
23196.919681	2455.093333	744.337891	9.716825
23196.919681	2455.093333	743.135742	133.126434
23196.919681	2455.093333	741.933594	48.440769
23196.919681	2455.093333	740.731445	-97.783195
23196.919681	2455.093333	739.529297	182.482239
23196.919681	2455.093333	738.326172	-42.266541
23196.919681	2455.093333	737.124023	222.953247
23196.919681	2455.093333	735.919922	49.104630
23196.919681	2455.093333	734.716797	87.279869
23196.919681	2455.093333	733.513672	-116.221962
23196.919681	2455.093333	732.309570	129.554306
23196.919681	2455.093333	731.105469	-154.469055
23196.919681	2455.093333	729.900391	-16.905334
23196.919681	2455.093333	728.696289	-34.042831
23196.919681	2455.093333	727.491211	-15.229527
23196.919681	2455.093333	726.286133	128.415955
23196.919681	2455.093333	725.080078	-62.442516
23196.919681	2455.093333	723.874023	172.029617
23196.919681	2455.093333	722.668945	258.258911
23196.919681	2455.093333	721.461914	160.382660
23196.919681	2455.093333	720.255859	28.652693
23196.919681	2455.093333	719.048828	-90.400726
23196.919681	2455.093333	717.841797	-156.626419
23196.919681	2455.093333	716.634766	294.866455
23196.919681	2455.093333	715.427734	-22.974590
23196.919681	2455.093333	714.219727	54.265766
23196.919681	2455.093333	713.011719	30.027973
23196.919681	2455.093333	711.803711	50.068119
23196.919681	2455.093333	710.594727	25.690048
23196.919681	2455.093333	709.385742	-28.302336
23196.919681	2455.093333	708.176758	88.573608
23196.919681	2455.093333	706.967773	192.659927
23196.919681	2455.093333	705.758789	28.740032
23196.919681	2455.093333	704.548828	37.728828
23196.919681	2455.093333	703.338867	240.602417
23196.919681	2455.093333	702.127930	122.888817
23196.919681	2455.093333	700.917969	253.825653
23196.919681	2455.093333	699.707031	125.441322
23196.919681	2455.093333	698.496094	190.831375
23196.919681	2455.093333	697.285156	24.414085
23196.919681	2455.093333	696.073242	91.709335
23196.919681	2455.093333	694.861328	99.928154
23196.919681	2455.093333	693.649414	324.846252
23196.919681	2455.093333	692.436523	358.063446
23196.919681	2455.093333	691.224609	399.580261
23196.919681	2455.093333	690.011719	110.713127
23196.919681	2455.093333	688.798828	238.277008
23196.919681	2455.093333	687.584961	149.101868
23196.919681	2455.093333	686.372070	640.071838
23196.919681	2455.093333	685.158203	601.071106
23196.919681	2455.093333	683.943359	314.011841
23196.919681	2455.093333	682.729492	470.249512
23196.919681	2455.093333	681.514648	542.286926
23196.919681	2455.093333	680.299805	528.072571
23196.919681	2455.093333	679.084961	446.560089
23196.919681	2455.093333	677.869141	220.116013
23196.919681	2455.093333	676.653320	495.232178
23196.919681	2455.093333	675.437500	344.163055
23196.919681	2455.093333	674.221680	788.811646
23196.919681	2455.093333	673.004883	312.395721
23196.919681	2455.093333	671.789063	360.290161
23196.919681	2455.093333	670.571289	506.560791
23196.919681	2455.093333	669.354492	583.471313
23196.919681	2455.093333	668.136719	532.384033
23196.919681	2455.093333	666.919922	724.225464
23196.919681	2455.093333	665.701172	362.839661
23196.919681	2455.093333	664.483398	541.796326
23196.919681	2455.093333	663.264648	427.398468
23196.919681	2455.093333	662.045898	712.748718
23196.919681	2455.093333	660.827148	759.242676
23196.919681	2455.093333	659.608398	688.394897
23196.919681	2455.093333	658.388672	602.787415
23196.919681	2455.093333	657.168945	496.156494
23196.919681	2455.093333	655.949219	849.487488
23196.919681	2455.093333	654.728516	769.735352
23196.919681	2455.093333	653.507813	763.031128
23196.919681	2455.093333	652.287109	409.266693
23196.919681	2455.093333	651.066406	454.583862
23196.919681	2455.093333	649.844727	533.152100
23196.919681	2455.093333	648.623047	738.937073
23196.919681	2455.093333	647.401367	729.412781
23196.919681	2455.093333	646.179688	531.852112
23196.919681	2455.093333	644.957031	674.433960
23196.919681	2455.093333	643.734375	633.167664
23196.919681	2455.093333	642.511719	719.033203
23196.919681	2455.093333	641.289063	343.729462
23196.919681	2455.093333	640.065430	347.974060
23196.919681	2455.093333	638.841797	566.819885
23196.919681	2455.093333	637.618164	677.020691
23196.919681	2455.093333	636.393555	657.797729
23196.919681	2455.093333	635.168945	480.069733
23196.919681	2455.093333	633.944336	300.178345
23196.919681	2455.093333	632.719727	405.551239
23196.919681	2455.093333	631.494141	385.774750
23196.919681	2455.093333	630.269531	474.117493
23196.919681	2455.093333	629.042969	293.744476
23196.919681	2455.093333	627.817383	254.809296
23196.919681	2455.093333	626.590820	45.118980
23196.919681	2455.093333	625.365234	338.765594
23196.919681	2455.093333	624.137695	160.024261
23196.919681	2455.093333	622.911133	199.534561
23196.919681	2455.093333	621.683594	477.928955
23196.919681	2455.093333	620.456055	321.669189
23196.919681	2455.093333	619.228516	179.867065
23196.919681	2455.093333	618.000977	289.351288
23196.919681	2455.093333	616.772461	469.246490
23196.919681	2455.093333	615.543945	285.503296
23196.919681	2455.093333	614.314453	446.324371
23196.919681	2455.093333	613.085938	461.632782
23196.919681	2455.093333	611.856445	310.751007
23196.919681	2455.093333	610.626953	161.858917
23196.919681	2455.093333	609.397461	201.652802
23196.919681	2455.093333	608.166992	71.208046
23196.919681	2455.093333	606.936523	-129.830109
23196.919681	2455.093333	605.706055	118.934029
23196.919681	2455.093333	604.474609	-40.877460
23196.919681	2455.093333	603.244141	23.047533
23196.919681	2455.093333	602.012695	254.604340
23196.919681	2455.093333	600.780273	156.569427
23196.919681	2455.093333	599.548828	72.943199
23196.919681	2455.093333	598.316406	115.501404
23196.919681	2455.093333	597.083984	128.923859
23196.919681	2455.093333	595.851563	-149.602249
23196.919681	2455.093333	594.618164	159.476410
23196.919681	2455.093333	593.384766	4.904640
23196.919681	2455.093333	592.151367	-199.370468
23196.919681	2455.093333	590.917969	119.469353
23196.919681	2455.093333	589.683594	394.619904
23196.919681	2455.093333	588.449219	185.867615
23196.919681	2455.093333	587.214844	-64.250336
23196.919681	2455.093333	585.979492	365.336761
23196.919681	2455.093333	584.745117	261.706635
23196.919681	2455.093333	583.509766	234.400970
23196.919681	2455.093333	582.273438	-146.086014
23196.919681	2455.093333	581.038086	-88.882965
23196.919681	2455.093333	579.801758	-110.253174
23196.919681	2455.093333	578.565430	-212.196182
23196.919681	2455.093333	577.329102	273.745605
23196.919681	2455.093333	576.091797	163.293091
23196.919681	2455.093333	574.854492	248.687393
23196.919681	2455.093333	573.617188	331.882355
23196.919681	2455.093333	572.378906	167.592957
23196.919681	2455.093333	571.141602	417.504761
23196.919681	2455.093333	569.903320	417.908356
23196.919681	2455.093333	568.664063	298.738098
23196.919681	2455.093333	567.425781	82.754250
23196.919681	2455.093333	566.186523	288.864410
23196.919681	2455.093333	564.947266	280.716888
23196.919681	2455.093333	563.708008	58.451466
23196.919681	2455.093333	562.467773	159.253815
23196.919681	2455.093333	561.227539	368.977631
23196.919681	2455.093333	559.987305	426.340942
23196.919681	2455.093333	558.747070	339.671265
23196.919681	2455.093333	557.505859	351.650238
23196.919681	2455.093333	556.264648	273.126160
23196.919681	2455.093333	555.023438	229.518341
23196.919681	2455.093333	553.781250	409.819092
23196.919681	2455.093333	552.539063	322.953064
23196.919681	2455.093333	551.296875	-41.172031
23196.919681	2455.093333	550.054688	99.927780
23196.919681	2455.093333	548.811523	349.719421
23196.919681	2455.093333	547.569336	143.750305
23196.919681	2455.093333	546.325195	143.009888
23196.919681	2455.093333	545.082031	13.009993
23196.919681	2455.093333	543.837891	43.016949
23196.919681	2455.093333	542.593750	517.987000
23196.919681	2455.093333	541.349609	127.544937
23196.919681	2455.093333	540.105469	274.301788
23196.919681	2455.093333	538.860352	254.978546
23196.919681	2455.093333	537.615234	-32.745834
23196.919681	2455.093333	536.369141	-82.740204
23196.919681	2455.093333	535.124023	4.523571
23196.919681	2455.093333	533.877930	-215.393204
23196.919681	2455.093333	532.631836	117.522469
23196.919681	2455.093333	531.384766	126.919334
23196.919681	2455.093333	530.138672	117.926979
23196.919681	2455.093333	528.891602	-64.947861
23196.919681	2455.093333	527.643555	-112.736618
23196.919681	2455.093333	526.396484	50.168621
23196.919681	2455.093333	525.148438	26.973921
23196.919681	2455.093333	523.900391	261.377563
23196.919681	2455.093333	522.652344	-84.669586
23196.919681	2455.093333	521.403320	-66.848763
23196.919681	2455.093333	520.154297	51.108456
23196.919681	2455.093333	518.905273	-139.325714
23196.919681	2455.093333	517.656250	-41.716225
23196.919681	2455.093333	516.406250	-33.927830
23196.919681	2455.093333	515.156250	-42.411236
23196.919681	2455.093333	513.906250	75.690346
23196.919681	2455.093333	512.655273	-71.419495
23196.919681	2455.093333	511.404297	-34.822651
23196.919681	2455.093333	510.153320	-136.836365
23196.919681	2455.093333	508.902344	116.022827
23196.919681	2455.093333	507.650391	12.128420
23196.919681	2455.093333	506.398438	-28.463367
23196.919681	2455.093333	505.146484	-13.939251
23196.919681	2455.093333	503.893555	29.173834
23196.919681	2455.093333	502.641602	320.839996
23196.919681	2455.093333	501.388672	347.758484
23196.919681	2455.093333	500.134766	14.424031
23196.919681	2455.093333	498.881836	110.794083
23196.919681	2455.093333	497.627930	79.013298
23196.919681	2455.093333	496.374023	41.247738
23196.919681	2455.093333	495.119141	186.647964
23196.919681	2455.093333	493.865234	248.730743
23196.919681	2455.093333	492.610352	101.470947
23196.919681	2455.093333	491.355469	240.992691
23196.919681	2455.093333	490.099609	287.071289
23196.919681	2455.093333	488.843750	288.541260
23196.919681	2455.093333	487.587891	334.815552
23196.919681	2455.093333	486.332031	411.646790
23196.919681	2455.093333	485.075195	472.304108
23196.919681	2455.093333	483.818359	457.937256
23196.919681	2455.093333	482.561523	297.559998
23196.919681	2455.093333	481.304688	638.574524
23196.919681	2455.093333	480.046875	701.608826
23196.919681	2455.093333	478.789063	823.549744
23196.919681	2455.093333	477.531250	882.687439
23196.919681	2455.093333	476.272461	720.913086
23196.919681	2455.093333	475.013672	768.098816
23196.919681	2455.093333	473.754883	801.188354
23196.919681	2455.093333	472.496094	856.658325
23196.919681	2455.093333	471.236328	928.404968
23196.919681	2455.093333	469.976563	789.599731
23196.919681	2455.093333	468.716797	825.085571
23196.919681	2455.093333	467.456055	581.283447
23196.919681	2455.093333	466.196289	910.462769
23196.919681	2455.093333	464.935547	901.657593
23196.919681	2455.093333	463.673828	725.018433
23196.919681	2455.093333	462.413086	443.369629
23196.919681	2455.093333	461.151367	883.830627
23196.919681	2455.093333	459.889648	616.563660
23196.919681	2455.093333	458.626953	911.391846
23196.919681	2455.093333	457.364258	959.607422
23196.919681	2455.093333	456.101563	854.301453
23196.919681	2455.093333	454.838867	825.847900
23196.919681	2455.093333	453.575195	726.754089
23196.919681	2455.093333	452.312500	942.727173
23196.919681	2455.093333	451.047852	750.837952
23196.919681	2455.093333	449.784180	930.414551
23196.919681	2455.093333	448.519531	964.625488
23196.919681	2455.093333	447.254883	930.229675
23196.919681	2455.093333	445.990234	1135.849487
23196.919681	2455.093333	444.725586	692.038513
23196.919681	2455.093333	443.459961	869.325623
23196.919681	2455.093333	442.194336	988.033691
23196.919681	2455.093333	440.927734	802.324890
23196.919681	2455.093333	439.662109	872.506592
23196.919681	2455.093333	438.395508	1041.263916
23196.919681	2455.093333	437.127930	984.279785
23196.919681	2455.093333	435.861328	1050.031738
23196.919681	2455.093333	434.593750	1037.106934
23196.919681	2455.093333	433.326172	1124.666016
23196.919681	2455.093333	432.058594	916.233154
23196.919681	2455.093333	430.790039	1272.989746
23196.919681	2455.093333	429.521484	840.965820
23196.919681	2455.093333	428.252930	1158.952637
23196.919681	2455.093333	426.984375	1104.631348
23196.919681	2455.093333	425.714844	1297.285400
23196.919681	2455.093333	424.445313	1385.074951
23196.919681	2455.093333	423.174805	1456.433594
23196.919681	2455.093333	421.905273	1358.712891
23196.919681	2455.093333	420.634766	1395.218506
23196.919681	2455.093333	419.364258	1250.625732
23196.919681	2455.093333	418.092773	1254.218872
23196.919681	2455.093333	416.822266	1516.279907
23196.919681	2455.093333	415.550781	1151.729370
23196.919681	2455.093333	414.278320	1382.627441
23196.919681	2455.093333	413.006836	1418.372314
23196.919681	2455.093333	411.734375	1407.414673
23196.919681	2455.093333	410.461914	1245.518921
23196.919681	2455.093333	409.188477	1566.098389
23196.919681	2455.093333	407.916016	1723.585693
23196.919681	2455.093333	406.642578	1718.021362
23196.919681	2455.093333	405.368164	1609.564819
23196.919681	2455.093333	404.094727	1674.628906
23196.919681	2455.093333	402.820313	1356.438721
23196.919681	2455.093333	401.545898	1353.810913
23196.919681	2455.093333	400.270508	1338.271362
23196.919681	2455.093333	398.996094	1603.948120
23196.919681	2455.093333	397.720703	1360.417236
23196.919681	2455.093333	396.444336	1461.946167
23196.919681	2455.093333	395.168945	1522.395752
23196.919681	2455.093333	393.892578	1279.819702
23196.919681	2455.093333	392.616211	1487.883911
23196.919681	2455.093333	391.339844	1221.063477
23196.919681	2455.093333	390.062500	1606.347290
23196.919681	2455.093333	388.785156	1662.573242
23196.919681	2455.093333	387.507813	1393.895630
23196.919681	2455.093333	386.229492	1599.036011
23196.919681	2455.093333	384.951172	1740.715088
23196.919681	2455.093333	383.672852	1565.471191
23196.919681	2455.093333	382.394531	1749.813599
23196.919681	2455.093333	381.115234	1752.835327
23196.919681	2455.093333	379.835938	1542.712158
23196.919681	2455.093333	378.556641	1619.977661
23196.919681	2455.093333	377.277344	1392.321655
23196.919681	2455.093333	375.997070	1684.941650
23196.919681	2455.093333	374.716797	1317.853516
23196.919681	2455.093333	373.435547	1404.982178
23196.919681	2455.093333	372.155273	1475.992432
23196.919681	2455.093333	370.874023	1293.766602
23196.919681	2455.093333	369.591797	1336.189209
23196.919681	2455.093333	368.310547	1199.067871
23196.919681	2455.093333	367.028320	1172.875977
23196.919681	2455.093333	365.746094	1392.792603
23196.919681	2455.093333	364.463867	1528.370972
23196.919681	2455.093333	363.180664	1269.285889
23196.919681	2455.093333	361.897461	1401.112305
23196.919681	2455.093333	360.614258	1352.996216
23196.919681	2455.093333	359.330078	967.888000
23196.919681	2455.093333	358.045898	1191.754517
23196.919681	2455.093333	356.761719	1404.303345
23196.919681	2455.093333	355.477539	1418.743164
23196.919681	2455.093333	354.192383	929.229248
23196.919681	2455.093333	352.907227	1184.753662
23196.919681	2455.093333	351.622070	966.055054
23196.919681	2455.093333	350.336914	1136.523560
23196.919681	2455.093333	349.050781	918.001404
23196.919681	2455.093333	347.764648	1147.735107
23196.919681	2455.093333	346.477539	901.109985
23196.919681	2455.093333	345.191406	1072.653931
23196.919681	2455.093333	343.904297	849.076599
23196.919681	2455.093333	342.616211	773.495117
23196.919681	2455.093333	341.329102	675.484131
23196.919681	2455.093333	340.041016	903.350525
23196.919681	2455.093333	338.752930	882.502991
23196.919681	2455.093333	337.463867	897.966553
23196.919681	2455.093333	336.175781	803.307739
23196.919681	2455.093333	334.886719	558.628418
23196.919681	2455.093333	333.596680	801.008301
23196.919681	2455.093333	332.307617	774.513000
23196.919681	2455.093333	331.017578	603.498230
23196.919681	2455.093333	329.727539	240.564880
23196.919681	2455.093333	328.436523	468.416382
23196.919681	2455.093333	327.146484	170.015778
23196.919681	2455.093333	325.855469	173.235992
23196.919681	2455.093333	324.563477	212.938278
23196.919681	2455.093333	323.272461	235.901230
23196.919681	2455.093333	321.980469	32.284145
23196.919681	2455.093333	320.688477	399.869446
23196.919681	2455.093333	319.395508	40.990757
23196.919681	2455.093333	318.103516	4.249714
23196.919681	2455.093333	316.810547	-24.875874
23196.919681	2455.093333	315.516602	-97.908691
23196.919681	2455.093333	314.223633	-82.489380
23196.919681	2455.093333	312.929688	-8.884689
23196.919681	2455.093333	311.635742	-113.718765
23196.919681	2455.093333	310.340820	-162.786331
23196.919681	2455.093333	309.045898	98.057930
23196.919681	2455.093333	307.750977	-50.710903
23196.919681	2455.093333	306.456055	-39.831165
23196.919681	2455.093333	305.160156	76.921539
23196.919681	2455.093333	303.865234	-31.027176
23196.919681	2455.093333	302.568359	340.100861
23196.919681	2455.093333	301.272461	403.341736
23196.919681	2455.093333	299.975586	335.159912
23196.919681	2455.093333	298.678711	182.851898
