#X		#Y		#Wave		#Intensity
-28826.648245	18721.357167	2000.043945	-191.988556
-28826.648245	18721.357167	1999.080078	-155.227127
-28826.648245	18721.357167	1998.116211	97.125336
-28826.648245	18721.357167	1997.151367	-420.721741
-28826.648245	18721.357167	1996.186523	-63.148529
-28826.648245	18721.357167	1995.222656	-118.809860
-28826.648245	18721.357167	1994.256836	2.222242
-28826.648245	18721.357167	1993.291992	2.580698
-28826.648245	18721.357167	1992.327148	286.000824
-28826.648245	18721.357167	1991.361328	221.202301
-28826.648245	18721.357167	1990.395508	486.512726
-28826.648245	18721.357167	1989.429688	547.311340
-28826.648245	18721.357167	1988.463867	161.304398
-28826.648245	18721.357167	1987.497070	204.471100
-28826.648245	18721.357167	1986.531250	144.822037
-28826.648245	18721.357167	1985.564453	308.927185
-28826.648245	18721.357167	1984.597656	617.558838
-28826.648245	18721.357167	1983.630859	324.219147
-28826.648245	18721.357167	1982.664063	558.655457
-28826.648245	18721.357167	1981.696289	515.165527
-28826.648245	18721.357167	1980.728516	569.406006
-28826.648245	18721.357167	1979.761719	9.997909
-28826.648245	18721.357167	1978.792969	227.715698
-28826.648245	18721.357167	1977.825195	631.982300
-28826.648245	18721.357167	1976.857422	837.670959
-28826.648245	18721.357167	1975.888672	603.091675
-28826.648245	18721.357167	1974.919922	582.413818
-28826.648245	18721.357167	1973.951172	908.775330
-28826.648245	18721.357167	1972.982422	1214.481079
-28826.648245	18721.357167	1972.013672	323.190735
-28826.648245	18721.357167	1971.043945	676.737366
-28826.648245	18721.357167	1970.075195	595.531250
-28826.648245	18721.357167	1969.105469	920.413452
-28826.648245	18721.357167	1968.135742	497.827057
-28826.648245	18721.357167	1967.165039	971.689392
-28826.648245	18721.357167	1966.195313	626.897400
-28826.648245	18721.357167	1965.224609	648.698181
-28826.648245	18721.357167	1964.253906	970.401672
-28826.648245	18721.357167	1963.283203	988.656799
-28826.648245	18721.357167	1962.312500	533.799377
-28826.648245	18721.357167	1961.341797	866.254211
-28826.648245	18721.357167	1960.370117	949.656616
-28826.648245	18721.357167	1959.399414	599.608887
-28826.648245	18721.357167	1958.427734	724.088745
-28826.648245	18721.357167	1957.455078	1231.861084
-28826.648245	18721.357167	1956.483398	910.454102
-28826.648245	18721.357167	1955.511719	947.803955
-28826.648245	18721.357167	1954.539063	844.778503
-28826.648245	18721.357167	1953.566406	677.638428
-28826.648245	18721.357167	1952.593750	1131.966919
-28826.648245	18721.357167	1951.621094	846.471375
-28826.648245	18721.357167	1950.647461	796.696350
-28826.648245	18721.357167	1949.674805	390.669373
-28826.648245	18721.357167	1948.701172	652.481750
-28826.648245	18721.357167	1947.727539	1309.274902
-28826.648245	18721.357167	1946.753906	839.163818
-28826.648245	18721.357167	1945.780273	602.235413
-28826.648245	18721.357167	1944.805664	775.045593
-28826.648245	18721.357167	1943.831055	847.148315
-28826.648245	18721.357167	1942.856445	845.586121
-28826.648245	18721.357167	1941.881836	500.690063
-28826.648245	18721.357167	1940.907227	837.439148
-28826.648245	18721.357167	1939.932617	629.893982
-28826.648245	18721.357167	1938.957031	530.263367
-28826.648245	18721.357167	1937.981445	656.102661
-28826.648245	18721.357167	1937.005859	647.178040
-28826.648245	18721.357167	1936.030273	942.005249
-28826.648245	18721.357167	1935.054688	570.677734
-28826.648245	18721.357167	1934.078125	669.656128
-28826.648245	18721.357167	1933.101563	528.759216
-28826.648245	18721.357167	1932.125000	659.668823
-28826.648245	18721.357167	1931.148438	979.031494
-28826.648245	18721.357167	1930.171875	750.340820
-28826.648245	18721.357167	1929.194336	211.196472
-28826.648245	18721.357167	1928.217773	-43.953487
-28826.648245	18721.357167	1927.240234	520.272217
-28826.648245	18721.357167	1926.262695	629.696777
-28826.648245	18721.357167	1925.284180	-13.612465
-28826.648245	18721.357167	1924.306641	611.797974
-28826.648245	18721.357167	1923.328125	684.937744
-28826.648245	18721.357167	1922.350586	25.309849
-28826.648245	18721.357167	1921.372070	220.974670
-28826.648245	18721.357167	1920.392578	150.571121
-28826.648245	18721.357167	1919.414063	158.482956
-28826.648245	18721.357167	1918.434570	225.172989
-28826.648245	18721.357167	1917.456055	484.812653
-28826.648245	18721.357167	1916.476563	80.833633
-28826.648245	18721.357167	1915.497070	174.901382
-28826.648245	18721.357167	1914.516602	93.519119
-28826.648245	18721.357167	1913.537109	483.043152
-28826.648245	18721.357167	1912.556641	109.432785
-28826.648245	18721.357167	1911.576172	311.519592
-28826.648245	18721.357167	1910.595703	-129.752365
-28826.648245	18721.357167	1909.615234	-178.290909
-28826.648245	18721.357167	1908.633789	204.691895
-28826.648245	18721.357167	1907.653320	-116.303230
-28826.648245	18721.357167	1906.671875	252.344055
-28826.648245	18721.357167	1905.690430	465.224304
-28826.648245	18721.357167	1904.708984	149.905014
-28826.648245	18721.357167	1903.727539	-57.968365
-28826.648245	18721.357167	1902.745117	-243.615875
-28826.648245	18721.357167	1901.762695	4.172353
-28826.648245	18721.357167	1900.780273	237.490295
-28826.648245	18721.357167	1899.797852	648.513794
-28826.648245	18721.357167	1898.815430	-217.194901
-28826.648245	18721.357167	1897.832031	434.952850
-28826.648245	18721.357167	1896.849609	19.806116
-28826.648245	18721.357167	1895.866211	-117.848373
-28826.648245	18721.357167	1894.882813	-298.971619
-28826.648245	18721.357167	1893.898438	117.927437
-28826.648245	18721.357167	1892.915039	90.312584
-28826.648245	18721.357167	1891.930664	-111.930763
-28826.648245	18721.357167	1890.947266	-231.336060
-28826.648245	18721.357167	1889.962891	-54.255657
-28826.648245	18721.357167	1888.977539	89.012222
-28826.648245	18721.357167	1887.993164	13.983203
-28826.648245	18721.357167	1887.007813	-191.819305
-28826.648245	18721.357167	1886.023438	46.611412
-28826.648245	18721.357167	1885.038086	57.174282
-28826.648245	18721.357167	1884.051758	-157.581985
-28826.648245	18721.357167	1883.066406	115.285233
-28826.648245	18721.357167	1882.081055	119.153748
-28826.648245	18721.357167	1881.094727	-85.211304
-28826.648245	18721.357167	1880.108398	18.462088
-28826.648245	18721.357167	1879.122070	-122.434807
-28826.648245	18721.357167	1878.135742	-132.280365
-28826.648245	18721.357167	1877.148438	-134.645126
-28826.648245	18721.357167	1876.162109	49.597721
-28826.648245	18721.357167	1875.174805	-100.138680
-28826.648245	18721.357167	1874.187500	-31.791033
-28826.648245	18721.357167	1873.199219	198.878967
-28826.648245	18721.357167	1872.211914	-73.710579
-28826.648245	18721.357167	1871.223633	120.912987
-28826.648245	18721.357167	1870.236328	-330.243134
-28826.648245	18721.357167	1869.248047	-176.451965
-28826.648245	18721.357167	1868.258789	163.638107
-28826.648245	18721.357167	1867.270508	54.060585
-28826.648245	18721.357167	1866.282227	-207.610260
-28826.648245	18721.357167	1865.292969	2.212046
-28826.648245	18721.357167	1864.303711	-329.126282
-28826.648245	18721.357167	1863.314453	-73.211861
-28826.648245	18721.357167	1862.324219	-152.954147
-28826.648245	18721.357167	1861.334961	-466.813660
-28826.648245	18721.357167	1860.344727	-328.940643
-28826.648245	18721.357167	1859.354492	-22.044397
-28826.648245	18721.357167	1858.364258	-45.797722
-28826.648245	18721.357167	1857.374023	-50.142956
-28826.648245	18721.357167	1856.383789	-257.042023
-28826.648245	18721.357167	1855.392578	122.377213
-28826.648245	18721.357167	1854.401367	311.221191
-28826.648245	18721.357167	1853.410156	-13.495565
-28826.648245	18721.357167	1852.418945	93.487602
-28826.648245	18721.357167	1851.426758	-40.492214
-28826.648245	18721.357167	1850.435547	124.418709
-28826.648245	18721.357167	1849.443359	96.614456
-28826.648245	18721.357167	1848.451172	-167.197495
-28826.648245	18721.357167	1847.458984	-115.362076
-28826.648245	18721.357167	1846.466797	162.842163
-28826.648245	18721.357167	1845.473633	142.479050
-28826.648245	18721.357167	1844.480469	312.314423
-28826.648245	18721.357167	1843.487305	123.526794
-28826.648245	18721.357167	1842.494141	514.712585
-28826.648245	18721.357167	1841.500977	-337.973206
-28826.648245	18721.357167	1840.506836	-6.919790
-28826.648245	18721.357167	1839.513672	66.675079
-28826.648245	18721.357167	1838.519531	89.780159
-28826.648245	18721.357167	1837.525391	432.590912
-28826.648245	18721.357167	1836.530273	-116.383492
-28826.648245	18721.357167	1835.536133	497.850739
-28826.648245	18721.357167	1834.541016	78.777878
-28826.648245	18721.357167	1833.545898	-212.855682
-28826.648245	18721.357167	1832.550781	-105.734680
-28826.648245	18721.357167	1831.555664	428.717926
-28826.648245	18721.357167	1830.560547	77.067497
-28826.648245	18721.357167	1829.564453	-63.247318
-28826.648245	18721.357167	1828.568359	190.016220
-28826.648245	18721.357167	1827.572266	-101.525688
-28826.648245	18721.357167	1826.576172	331.450195
-28826.648245	18721.357167	1825.580078	-142.412521
-28826.648245	18721.357167	1824.583008	-443.483978
-28826.648245	18721.357167	1823.585938	499.814972
-28826.648245	18721.357167	1822.588867	-21.950102
-28826.648245	18721.357167	1821.591797	314.403564
-28826.648245	18721.357167	1820.594727	528.332214
-28826.648245	18721.357167	1819.596680	150.367874
-28826.648245	18721.357167	1818.599609	301.780273
-28826.648245	18721.357167	1817.601563	393.188751
-28826.648245	18721.357167	1816.603516	338.403717
-28826.648245	18721.357167	1815.604492	156.671722
-28826.648245	18721.357167	1814.606445	159.165955
-28826.648245	18721.357167	1813.607422	-3.549738
-28826.648245	18721.357167	1812.608398	-149.586121
-28826.648245	18721.357167	1811.609375	242.536880
-28826.648245	18721.357167	1810.610352	371.291626
-28826.648245	18721.357167	1809.610352	193.814682
-28826.648245	18721.357167	1808.611328	183.585876
-28826.648245	18721.357167	1807.611328	278.417664
-28826.648245	18721.357167	1806.611328	-245.912857
-28826.648245	18721.357167	1805.610352	130.636749
-28826.648245	18721.357167	1804.610352	146.125809
-28826.648245	18721.357167	1803.609375	366.885315
-28826.648245	18721.357167	1802.608398	150.380676
-28826.648245	18721.357167	1801.607422	387.436279
-28826.648245	18721.357167	1800.606445	354.474213
-28826.648245	18721.357167	1799.605469	187.693954
-28826.648245	18721.357167	1798.603516	-12.585519
-28826.648245	18721.357167	1797.601563	63.778133
-28826.648245	18721.357167	1796.599609	421.394745
-28826.648245	18721.357167	1795.597656	-48.875797
-28826.648245	18721.357167	1794.595703	91.256157
-28826.648245	18721.357167	1793.592773	61.894047
-28826.648245	18721.357167	1792.589844	223.029129
-28826.648245	18721.357167	1791.587891	190.837143
-28826.648245	18721.357167	1790.583984	70.340904
-28826.648245	18721.357167	1789.581055	83.058388
-28826.648245	18721.357167	1788.577148	357.569702
-28826.648245	18721.357167	1787.574219	741.277649
-28826.648245	18721.357167	1786.570313	153.257629
-28826.648245	18721.357167	1785.566406	231.745071
-28826.648245	18721.357167	1784.561523	267.158417
-28826.648245	18721.357167	1783.557617	95.293182
-28826.648245	18721.357167	1782.552734	225.418579
-28826.648245	18721.357167	1781.547852	105.509399
-28826.648245	18721.357167	1780.542969	56.750755
-28826.648245	18721.357167	1779.538086	573.659851
-28826.648245	18721.357167	1778.532227	388.865082
-28826.648245	18721.357167	1777.527344	389.266754
-28826.648245	18721.357167	1776.521484	482.119904
-28826.648245	18721.357167	1775.515625	25.858221
-28826.648245	18721.357167	1774.508789	-29.015598
-28826.648245	18721.357167	1773.502930	264.979126
-28826.648245	18721.357167	1772.496094	561.001953
-28826.648245	18721.357167	1771.489258	284.503479
-28826.648245	18721.357167	1770.482422	268.946838
-28826.648245	18721.357167	1769.475586	94.135094
-28826.648245	18721.357167	1768.467773	47.269028
-28826.648245	18721.357167	1767.460938	213.641403
-28826.648245	18721.357167	1766.453125	130.663025
-28826.648245	18721.357167	1765.445313	201.583344
-28826.648245	18721.357167	1764.437500	310.143250
-28826.648245	18721.357167	1763.428711	318.851135
-28826.648245	18721.357167	1762.420898	450.502777
-28826.648245	18721.357167	1761.412109	776.155090
-28826.648245	18721.357167	1760.403320	359.875671
-28826.648245	18721.357167	1759.393555	21.660336
-28826.648245	18721.357167	1758.384766	592.670593
-28826.648245	18721.357167	1757.375000	291.867706
-28826.648245	18721.357167	1756.366211	215.777710
-28826.648245	18721.357167	1755.356445	390.341461
-28826.648245	18721.357167	1754.345703	458.080963
-28826.648245	18721.357167	1753.335938	118.559196
-28826.648245	18721.357167	1752.325195	308.766357
-28826.648245	18721.357167	1751.315430	366.165161
-28826.648245	18721.357167	1750.304688	-44.923210
-28826.648245	18721.357167	1749.292969	463.535339
-28826.648245	18721.357167	1748.282227	132.384308
-28826.648245	18721.357167	1747.270508	233.564514
-28826.648245	18721.357167	1746.259766	124.119896
-28826.648245	18721.357167	1745.248047	-153.283081
-28826.648245	18721.357167	1744.235352	29.718115
-28826.648245	18721.357167	1743.223633	184.013031
-28826.648245	18721.357167	1742.211914	23.950323
-28826.648245	18721.357167	1741.199219	-299.200531
-28826.648245	18721.357167	1740.186523	392.330139
-28826.648245	18721.357167	1739.173828	141.812332
-28826.648245	18721.357167	1738.160156	398.342987
-28826.648245	18721.357167	1737.147461	218.112244
-28826.648245	18721.357167	1736.133789	-18.920958
-28826.648245	18721.357167	1735.120117	205.991333
-28826.648245	18721.357167	1734.106445	93.424088
-28826.648245	18721.357167	1733.091797	-174.929123
-28826.648245	18721.357167	1732.078125	70.246002
-28826.648245	18721.357167	1731.063477	44.109089
-28826.648245	18721.357167	1730.048828	288.597290
-28826.648245	18721.357167	1729.034180	-13.679004
-28826.648245	18721.357167	1728.019531	-148.937378
-28826.648245	18721.357167	1727.003906	148.764481
-28826.648245	18721.357167	1725.988281	194.224411
-28826.648245	18721.357167	1724.972656	211.150757
-28826.648245	18721.357167	1723.957031	199.560471
-28826.648245	18721.357167	1722.941406	-395.701263
-28826.648245	18721.357167	1721.924805	-73.724373
-28826.648245	18721.357167	1720.909180	-24.926346
-28826.648245	18721.357167	1719.892578	65.909760
-28826.648245	18721.357167	1718.875977	-365.400330
-28826.648245	18721.357167	1717.858398	-105.845825
-28826.648245	18721.357167	1716.841797	-222.623123
-28826.648245	18721.357167	1715.824219	-13.056195
-28826.648245	18721.357167	1714.806641	-306.488220
-28826.648245	18721.357167	1713.789063	-435.679016
-28826.648245	18721.357167	1712.770508	14.869523
-28826.648245	18721.357167	1711.752930	-46.766697
-28826.648245	18721.357167	1710.734375	-211.902145
-28826.648245	18721.357167	1709.715820	-365.491791
-28826.648245	18721.357167	1708.697266	-120.428009
-28826.648245	18721.357167	1707.678711	14.049258
-28826.648245	18721.357167	1706.659180	-166.035660
-28826.648245	18721.357167	1705.640625	-367.400604
-28826.648245	18721.357167	1704.621094	52.324921
-28826.648245	18721.357167	1703.600586	-4.158137
-28826.648245	18721.357167	1702.581055	84.437820
-28826.648245	18721.357167	1701.561523	8.750179
-28826.648245	18721.357167	1700.541016	-172.549347
-28826.648245	18721.357167	1699.520508	203.407379
-28826.648245	18721.357167	1698.500000	70.853493
-28826.648245	18721.357167	1697.478516	-64.215614
-28826.648245	18721.357167	1696.458008	-138.591461
-28826.648245	18721.357167	1695.436523	184.686600
-28826.648245	18721.357167	1694.415039	-46.918213
-28826.648245	18721.357167	1693.393555	-421.352264
-28826.648245	18721.357167	1692.372070	-61.421257
-28826.648245	18721.357167	1691.349609	-192.923737
-28826.648245	18721.357167	1690.327148	446.971680
-28826.648245	18721.357167	1689.304688	191.119583
-28826.648245	18721.357167	1688.282227	56.694847
-28826.648245	18721.357167	1687.259766	335.720123
-28826.648245	18721.357167	1686.236328	23.372643
-28826.648245	18721.357167	1685.213867	439.725037
-28826.648245	18721.357167	1684.190430	360.628662
-28826.648245	18721.357167	1683.166016	554.562744
-28826.648245	18721.357167	1682.142578	183.304138
-28826.648245	18721.357167	1681.119141	351.162811
-28826.648245	18721.357167	1680.094727	710.131592
-28826.648245	18721.357167	1679.070313	387.520844
-28826.648245	18721.357167	1678.045898	752.997986
-28826.648245	18721.357167	1677.020508	423.164856
-28826.648245	18721.357167	1675.996094	314.820038
-28826.648245	18721.357167	1674.970703	812.491882
-28826.648245	18721.357167	1673.945313	438.077576
-28826.648245	18721.357167	1672.919922	492.447845
-28826.648245	18721.357167	1671.893555	882.157104
-28826.648245	18721.357167	1670.868164	1250.607056
-28826.648245	18721.357167	1669.841797	747.703613
-28826.648245	18721.357167	1668.815430	1001.649597
-28826.648245	18721.357167	1667.789063	764.120483
-28826.648245	18721.357167	1666.761719	782.595886
-28826.648245	18721.357167	1665.735352	1215.193848
-28826.648245	18721.357167	1664.708008	1293.819092
-28826.648245	18721.357167	1663.680664	1609.581543
-28826.648245	18721.357167	1662.653320	1241.285522
-28826.648245	18721.357167	1661.625000	1352.058716
-28826.648245	18721.357167	1660.597656	2004.414917
-28826.648245	18721.357167	1659.569336	1775.394653
-28826.648245	18721.357167	1658.541016	2018.155151
-28826.648245	18721.357167	1657.512695	2367.614258
-28826.648245	18721.357167	1656.483398	2609.965820
-28826.648245	18721.357167	1655.455078	2427.072021
-28826.648245	18721.357167	1654.425781	2371.882813
-28826.648245	18721.357167	1653.396484	2323.594971
-28826.648245	18721.357167	1652.366211	2674.527100
-28826.648245	18721.357167	1651.336914	3227.178711
-28826.648245	18721.357167	1650.306641	3083.378418
-28826.648245	18721.357167	1649.276367	3463.905029
-28826.648245	18721.357167	1648.246094	3468.434814
-28826.648245	18721.357167	1647.215820	3751.209473
-28826.648245	18721.357167	1646.185547	3774.116211
-28826.648245	18721.357167	1645.154297	3956.918457
-28826.648245	18721.357167	1644.123047	4185.954102
-28826.648245	18721.357167	1643.091797	4394.000488
-28826.648245	18721.357167	1642.060547	4583.390137
-28826.648245	18721.357167	1641.028320	4663.788574
-28826.648245	18721.357167	1639.997070	5255.973633
-28826.648245	18721.357167	1638.964844	5187.949219
-28826.648245	18721.357167	1637.931641	5464.875000
-28826.648245	18721.357167	1636.899414	5688.443359
-28826.648245	18721.357167	1635.867188	5983.644043
-28826.648245	18721.357167	1634.833984	5862.229004
-28826.648245	18721.357167	1633.800781	6319.188965
-28826.648245	18721.357167	1632.767578	6771.340332
-28826.648245	18721.357167	1631.734375	7036.007324
-28826.648245	18721.357167	1630.700195	6845.102051
-28826.648245	18721.357167	1629.666016	7525.731934
-28826.648245	18721.357167	1628.631836	8028.151367
-28826.648245	18721.357167	1627.597656	8266.977539
-28826.648245	18721.357167	1626.563477	8323.222656
-28826.648245	18721.357167	1625.528320	8744.403320
-28826.648245	18721.357167	1624.493164	9366.353516
-28826.648245	18721.357167	1623.458008	9627.915039
-28826.648245	18721.357167	1622.422852	9720.890625
-28826.648245	18721.357167	1621.387695	10277.770508
-28826.648245	18721.357167	1620.351563	10806.781250
-28826.648245	18721.357167	1619.315430	10657.351563
-28826.648245	18721.357167	1618.279297	11772.060547
-28826.648245	18721.357167	1617.243164	11348.171875
-28826.648245	18721.357167	1616.207031	11348.761719
-28826.648245	18721.357167	1615.169922	11773.573242
-28826.648245	18721.357167	1614.132813	11677.397461
-28826.648245	18721.357167	1613.095703	12777.292969
-28826.648245	18721.357167	1612.058594	12775.565430
-28826.648245	18721.357167	1611.020508	12981.219727
-28826.648245	18721.357167	1609.983398	13025.668945
-28826.648245	18721.357167	1608.945313	13422.473633
-28826.648245	18721.357167	1607.907227	13837.631836
-28826.648245	18721.357167	1606.868164	13734.838867
-28826.648245	18721.357167	1605.830078	14697.654297
-28826.648245	18721.357167	1604.791016	14199.196289
-28826.648245	18721.357167	1603.751953	14354.328125
-28826.648245	18721.357167	1602.712891	14399.116211
-28826.648245	18721.357167	1601.673828	14703.830078
-28826.648245	18721.357167	1600.633789	14360.227539
-28826.648245	18721.357167	1599.594727	14384.645508
-28826.648245	18721.357167	1598.554688	14418.366211
-28826.648245	18721.357167	1597.513672	14484.364258
-28826.648245	18721.357167	1596.473633	14474.662109
-28826.648245	18721.357167	1595.433594	13957.517578
-28826.648245	18721.357167	1594.392578	14189.300781
-28826.648245	18721.357167	1593.351563	14127.266602
-28826.648245	18721.357167	1592.310547	13739.457031
-28826.648245	18721.357167	1591.268555	13684.710938
-28826.648245	18721.357167	1590.227539	13625.552734
-28826.648245	18721.357167	1589.185547	13463.339844
-28826.648245	18721.357167	1588.143555	13652.268555
-28826.648245	18721.357167	1587.100586	13313.858398
-28826.648245	18721.357167	1586.058594	13191.267578
-28826.648245	18721.357167	1585.015625	13220.175781
-28826.648245	18721.357167	1583.972656	12871.102539
-28826.648245	18721.357167	1582.929688	12723.980469
-28826.648245	18721.357167	1581.886719	12648.112305
-28826.648245	18721.357167	1580.843750	11983.812500
-28826.648245	18721.357167	1579.799805	12391.681641
-28826.648245	18721.357167	1578.755859	12250.085938
-28826.648245	18721.357167	1577.711914	11870.671875
-28826.648245	18721.357167	1576.666992	11848.633789
-28826.648245	18721.357167	1575.623047	11376.027344
-28826.648245	18721.357167	1574.578125	11649.624023
-28826.648245	18721.357167	1573.533203	11353.774414
-28826.648245	18721.357167	1572.488281	10948.478516
-28826.648245	18721.357167	1571.443359	11112.878906
-28826.648245	18721.357167	1570.397461	11037.402344
-28826.648245	18721.357167	1569.351563	10221.659180
-28826.648245	18721.357167	1568.305664	10176.536133
-28826.648245	18721.357167	1567.259766	9667.873047
-28826.648245	18721.357167	1566.213867	9148.213867
-28826.648245	18721.357167	1565.166992	9471.692383
-28826.648245	18721.357167	1564.120117	9082.891602
-28826.648245	18721.357167	1563.073242	8639.695313
-28826.648245	18721.357167	1562.026367	8406.888672
-28826.648245	18721.357167	1560.978516	8393.491211
-28826.648245	18721.357167	1559.930664	8218.352539
-28826.648245	18721.357167	1558.883789	7801.739258
-28826.648245	18721.357167	1557.834961	7793.775879
-28826.648245	18721.357167	1556.787109	7861.307129
-28826.648245	18721.357167	1555.739258	7539.241699
-28826.648245	18721.357167	1554.690430	7386.229492
-28826.648245	18721.357167	1553.641602	7333.809082
-28826.648245	18721.357167	1552.592773	7074.341797
-28826.648245	18721.357167	1551.542969	6933.698242
-28826.648245	18721.357167	1550.494141	6766.043945
-28826.648245	18721.357167	1549.444336	6352.814941
-28826.648245	18721.357167	1548.394531	6133.533691
-28826.648245	18721.357167	1547.344727	5748.456055
-28826.648245	18721.357167	1546.293945	5527.663574
-28826.648245	18721.357167	1545.244141	5512.006836
-28826.648245	18721.357167	1544.193359	5558.058105
-28826.648245	18721.357167	1543.142578	4928.907227
-28826.648245	18721.357167	1542.090820	4761.895508
-28826.648245	18721.357167	1541.040039	4715.722168
-28826.648245	18721.357167	1539.988281	4106.172852
-28826.648245	18721.357167	1538.936523	4547.062012
-28826.648245	18721.357167	1537.884766	4104.236328
-28826.648245	18721.357167	1536.833008	4150.286621
-28826.648245	18721.357167	1535.780273	3842.317139
-28826.648245	18721.357167	1534.727539	3768.661621
-28826.648245	18721.357167	1533.674805	3441.067383
-28826.648245	18721.357167	1532.622070	3338.622559
-28826.648245	18721.357167	1531.569336	3740.332031
-28826.648245	18721.357167	1530.515625	2916.969482
-28826.648245	18721.357167	1529.461914	2926.784424
-28826.648245	18721.357167	1528.408203	3091.134033
-28826.648245	18721.357167	1527.354492	3131.015625
-28826.648245	18721.357167	1526.299805	2967.168457
-28826.648245	18721.357167	1525.246094	2753.821777
-28826.648245	18721.357167	1524.191406	2416.245605
-28826.648245	18721.357167	1523.136719	2271.722900
-28826.648245	18721.357167	1522.081055	2277.103027
-28826.648245	18721.357167	1521.026367	2803.722412
-28826.648245	18721.357167	1519.970703	1987.641968
-28826.648245	18721.357167	1518.915039	1944.241333
-28826.648245	18721.357167	1517.859375	1960.041016
-28826.648245	18721.357167	1516.802734	1939.965942
-28826.648245	18721.357167	1515.747070	1985.833496
-28826.648245	18721.357167	1514.690430	1860.098145
-28826.648245	18721.357167	1513.633789	1861.407349
-28826.648245	18721.357167	1512.577148	1530.632935
-28826.648245	18721.357167	1511.519531	1430.947021
-28826.648245	18721.357167	1510.461914	1442.402344
-28826.648245	18721.357167	1509.405273	1149.073486
-28826.648245	18721.357167	1508.346680	1516.016357
-28826.648245	18721.357167	1507.289063	1218.961548
-28826.648245	18721.357167	1506.231445	915.589478
-28826.648245	18721.357167	1505.172852	1202.085693
-28826.648245	18721.357167	1504.114258	1450.426392
-28826.648245	18721.357167	1503.055664	1353.643311
-28826.648245	18721.357167	1501.996094	749.465759
-28826.648245	18721.357167	1500.937500	874.674744
-28826.648245	18721.357167	1499.877930	709.174133
-28826.648245	18721.357167	1498.818359	900.457947
-28826.648245	18721.357167	1497.757813	974.764404
-28826.648245	18721.357167	1496.698242	690.883606
-28826.648245	18721.357167	1495.637695	301.534180
-28826.648245	18721.357167	1494.577148	642.892334
-28826.648245	18721.357167	1493.516602	533.805725
-28826.648245	18721.357167	1492.456055	501.704132
-28826.648245	18721.357167	1491.394531	573.593018
-28826.648245	18721.357167	1490.333008	98.580666
-28826.648245	18721.357167	1489.271484	468.413116
-28826.648245	18721.357167	1488.209961	442.262085
-28826.648245	18721.357167	1487.148438	-323.974182
-28826.648245	18721.357167	1486.085938	199.793228
-28826.648245	18721.357167	1485.023438	-110.934647
-28826.648245	18721.357167	1483.960938	-70.310440
-28826.648245	18721.357167	1482.898438	-74.338409
-28826.648245	18721.357167	1481.834961	45.641739
-28826.648245	18721.357167	1480.772461	-398.320404
-28826.648245	18721.357167	1479.708984	-241.720032
-28826.648245	18721.357167	1478.644531	-89.326225
-28826.648245	18721.357167	1477.581055	229.549210
-28826.648245	18721.357167	1476.517578	413.863861
-28826.648245	18721.357167	1475.453125	189.728897
-28826.648245	18721.357167	1474.388672	-78.924545
-28826.648245	18721.357167	1473.323242	162.530823
-28826.648245	18721.357167	1472.258789	-69.302094
-28826.648245	18721.357167	1471.193359	-428.480255
-28826.648245	18721.357167	1470.127930	26.656582
-28826.648245	18721.357167	1469.062500	-152.615143
-28826.648245	18721.357167	1467.997070	399.410706
-28826.648245	18721.357167	1466.930664	59.667728
-28826.648245	18721.357167	1465.865234	-176.081039
-28826.648245	18721.357167	1464.798828	221.923416
-28826.648245	18721.357167	1463.731445	473.739502
-28826.648245	18721.357167	1462.665039	149.683060
-28826.648245	18721.357167	1461.597656	-210.118073
-28826.648245	18721.357167	1460.530273	-269.463776
-28826.648245	18721.357167	1459.462891	312.601776
-28826.648245	18721.357167	1458.395508	304.241364
-28826.648245	18721.357167	1457.327148	596.387085
-28826.648245	18721.357167	1456.259766	118.163368
-28826.648245	18721.357167	1455.191406	-121.099274
-28826.648245	18721.357167	1454.123047	155.086288
-28826.648245	18721.357167	1453.053711	327.336731
-28826.648245	18721.357167	1451.985352	394.649048
-28826.648245	18721.357167	1450.916016	572.887146
-28826.648245	18721.357167	1449.846680	170.724350
-28826.648245	18721.357167	1448.776367	235.739273
-28826.648245	18721.357167	1447.707031	367.590576
-28826.648245	18721.357167	1446.636719	665.245789
-28826.648245	18721.357167	1445.566406	228.990372
-28826.648245	18721.357167	1444.496094	307.623291
-28826.648245	18721.357167	1443.425781	409.978790
-28826.648245	18721.357167	1442.354492	638.218994
-28826.648245	18721.357167	1441.283203	585.920959
-28826.648245	18721.357167	1440.211914	418.098450
-28826.648245	18721.357167	1439.140625	181.964447
-28826.648245	18721.357167	1438.069336	407.126465
-28826.648245	18721.357167	1436.997070	671.568054
-28826.648245	18721.357167	1435.924805	666.388245
-28826.648245	18721.357167	1434.852539	345.053802
-28826.648245	18721.357167	1433.780273	169.117355
-28826.648245	18721.357167	1432.707031	315.094696
-28826.648245	18721.357167	1431.633789	779.661743
-28826.648245	18721.357167	1430.560547	289.468719
-28826.648245	18721.357167	1429.487305	97.775223
-28826.648245	18721.357167	1428.413086	250.758087
-28826.648245	18721.357167	1427.339844	607.057312
-28826.648245	18721.357167	1426.265625	391.970398
-28826.648245	18721.357167	1425.191406	353.507477
-28826.648245	18721.357167	1424.116211	223.006393
-28826.648245	18721.357167	1423.041992	506.773071
-28826.648245	18721.357167	1421.966797	255.181030
-28826.648245	18721.357167	1420.891602	285.485413
-28826.648245	18721.357167	1419.816406	694.601807
-28826.648245	18721.357167	1418.740234	270.970673
-28826.648245	18721.357167	1417.665039	299.477417
-28826.648245	18721.357167	1416.588867	600.075989
-28826.648245	18721.357167	1415.512695	800.965515
-28826.648245	18721.357167	1414.435547	1190.216187
-28826.648245	18721.357167	1413.359375	772.371521
-28826.648245	18721.357167	1412.282227	1049.348267
-28826.648245	18721.357167	1411.205078	912.102234
-28826.648245	18721.357167	1410.127930	1085.697266
-28826.648245	18721.357167	1409.049805	1035.079590
-28826.648245	18721.357167	1407.972656	877.360657
-28826.648245	18721.357167	1406.894531	1149.959351
-28826.648245	18721.357167	1405.816406	1356.341797
-28826.648245	18721.357167	1404.737305	1665.349731
-28826.648245	18721.357167	1403.659180	1597.198364
-28826.648245	18721.357167	1402.580078	1407.292358
-28826.648245	18721.357167	1401.500977	1300.893921
-28826.648245	18721.357167	1400.421875	1785.230957
-28826.648245	18721.357167	1399.341797	1921.887817
-28826.648245	18721.357167	1398.262695	1944.363037
-28826.648245	18721.357167	1397.182617	1831.887085
-28826.648245	18721.357167	1396.102539	2054.045654
-28826.648245	18721.357167	1395.021484	2117.572510
-28826.648245	18721.357167	1393.941406	2088.596924
-28826.648245	18721.357167	1392.860352	2229.858887
-28826.648245	18721.357167	1391.779297	1873.130981
-28826.648245	18721.357167	1390.698242	2146.370850
-28826.648245	18721.357167	1389.616211	2490.211426
-28826.648245	18721.357167	1388.535156	2514.182617
-28826.648245	18721.357167	1387.453125	2487.042236
-28826.648245	18721.357167	1386.371094	2405.545166
-28826.648245	18721.357167	1385.288086	2435.047852
-28826.648245	18721.357167	1384.206055	2716.110596
-28826.648245	18721.357167	1383.123047	3260.874268
-28826.648245	18721.357167	1382.040039	3240.183594
-28826.648245	18721.357167	1380.957031	2762.613770
-28826.648245	18721.357167	1379.873047	3379.716797
-28826.648245	18721.357167	1378.789063	3619.989502
-28826.648245	18721.357167	1377.705078	3750.389404
-28826.648245	18721.357167	1376.621094	3849.401855
-28826.648245	18721.357167	1375.537109	3615.496338
-28826.648245	18721.357167	1374.452148	3648.342773
-28826.648245	18721.357167	1373.367188	3755.257080
-28826.648245	18721.357167	1372.282227	4111.314453
-28826.648245	18721.357167	1371.197266	4140.340332
-28826.648245	18721.357167	1370.112305	4143.018066
-28826.648245	18721.357167	1369.026367	4128.069336
-28826.648245	18721.357167	1367.940430	4471.899414
-28826.648245	18721.357167	1366.854492	4300.243652
-28826.648245	18721.357167	1365.767578	5149.706055
-28826.648245	18721.357167	1364.681641	5190.295410
-28826.648245	18721.357167	1363.594727	4789.765625
-28826.648245	18721.357167	1362.507813	4717.765137
-28826.648245	18721.357167	1361.419922	4980.717773
-28826.648245	18721.357167	1360.333008	5139.639160
-28826.648245	18721.357167	1359.245117	5335.582520
-28826.648245	18721.357167	1358.157227	5435.201172
-28826.648245	18721.357167	1357.069336	5237.395020
-28826.648245	18721.357167	1355.981445	5586.410156
-28826.648245	18721.357167	1354.892578	5919.664551
-28826.648245	18721.357167	1353.803711	5468.781250
-28826.648245	18721.357167	1352.714844	5516.522461
-28826.648245	18721.357167	1351.625000	5421.731934
-28826.648245	18721.357167	1350.536133	5391.657227
-28826.648245	18721.357167	1349.446289	5923.833496
-28826.648245	18721.357167	1348.356445	5768.351074
-28826.648245	18721.357167	1347.266602	5570.512207
-28826.648245	18721.357167	1346.175781	5731.723145
-28826.648245	18721.357167	1345.085938	5921.938477
-28826.648245	18721.357167	1343.995117	5851.782715
-28826.648245	18721.357167	1342.903320	6192.425293
-28826.648245	18721.357167	1341.812500	6106.885742
-28826.648245	18721.357167	1340.720703	5887.849121
-28826.648245	18721.357167	1339.629883	5875.452148
-28826.648245	18721.357167	1338.538086	5808.254395
-28826.648245	18721.357167	1337.445313	5638.557129
-28826.648245	18721.357167	1336.353516	5969.810059
-28826.648245	18721.357167	1335.260742	5529.096191
-28826.648245	18721.357167	1334.167969	5559.201172
-28826.648245	18721.357167	1333.075195	5579.434082
-28826.648245	18721.357167	1331.981445	5946.182617
-28826.648245	18721.357167	1330.888672	5713.291504
-28826.648245	18721.357167	1329.794922	5336.502441
-28826.648245	18721.357167	1328.701172	5509.809570
-28826.648245	18721.357167	1327.606445	5322.978516
-28826.648245	18721.357167	1326.512695	6315.822266
-28826.648245	18721.357167	1325.417969	5424.646973
-28826.648245	18721.357167	1324.323242	5652.753418
-28826.648245	18721.357167	1323.227539	5724.333984
-28826.648245	18721.357167	1322.132813	5727.072754
-28826.648245	18721.357167	1321.037109	5922.873047
-28826.648245	18721.357167	1319.941406	5606.930664
-28826.648245	18721.357167	1318.845703	5708.602051
-28826.648245	18721.357167	1317.750000	5669.075195
-28826.648245	18721.357167	1316.653320	5691.354492
-28826.648245	18721.357167	1315.556641	5265.347656
-28826.648245	18721.357167	1314.459961	5321.062988
-28826.648245	18721.357167	1313.363281	5449.016602
-28826.648245	18721.357167	1312.265625	5231.080566
-28826.648245	18721.357167	1311.167969	4802.095703
-28826.648245	18721.357167	1310.070313	4739.812500
-28826.648245	18721.357167	1308.972656	4661.481445
-28826.648245	18721.357167	1307.874023	4939.029785
-28826.648245	18721.357167	1306.776367	4748.645996
-28826.648245	18721.357167	1305.677734	4441.117188
-28826.648245	18721.357167	1304.579102	4463.052246
-28826.648245	18721.357167	1303.479492	4476.201660
-28826.648245	18721.357167	1302.380859	4555.389648
-28826.648245	18721.357167	1301.281250	4560.093750
-28826.648245	18721.357167	1300.181641	4643.994141
-28826.648245	18721.357167	1299.081055	4297.811523
-28826.648245	18721.357167	1297.981445	4232.733398
-28826.648245	18721.357167	1296.880859	4328.159668
-28826.648245	18721.357167	1295.780273	4107.898926
-28826.648245	18721.357167	1294.679688	3967.341309
-28826.648245	18721.357167	1293.578125	3764.802246
-28826.648245	18721.357167	1292.476563	3753.032471
-28826.648245	18721.357167	1291.375000	3881.105225
-28826.648245	18721.357167	1290.273438	4005.005615
-28826.648245	18721.357167	1289.171875	3534.879639
-28826.648245	18721.357167	1288.069336	3443.041260
-28826.648245	18721.357167	1286.966797	3697.081055
-28826.648245	18721.357167	1285.864258	3400.466553
-28826.648245	18721.357167	1284.761719	3330.181641
-28826.648245	18721.357167	1283.658203	3335.930664
-28826.648245	18721.357167	1282.554688	3190.320068
-28826.648245	18721.357167	1281.451172	3086.647949
-28826.648245	18721.357167	1280.347656	2845.384277
-28826.648245	18721.357167	1279.244141	3152.475830
-28826.648245	18721.357167	1278.139648	2983.282715
-28826.648245	18721.357167	1277.035156	2934.083740
-28826.648245	18721.357167	1275.930664	2678.038574
-28826.648245	18721.357167	1274.825195	2707.934814
-28826.648245	18721.357167	1273.720703	2661.902588
-28826.648245	18721.357167	1272.615234	2974.755859
-28826.648245	18721.357167	1271.508789	2778.829346
-28826.648245	18721.357167	1270.403320	2491.363770
-28826.648245	18721.357167	1269.297852	2629.022949
-28826.648245	18721.357167	1268.191406	2564.605957
-28826.648245	18721.357167	1267.084961	2437.336426
-28826.648245	18721.357167	1265.977539	2495.123779
-28826.648245	18721.357167	1264.871094	2396.831299
-28826.648245	18721.357167	1263.763672	2291.190674
-28826.648245	18721.357167	1262.656250	2407.777588
-28826.648245	18721.357167	1261.548828	2065.447266
-28826.648245	18721.357167	1260.440430	2249.517334
-28826.648245	18721.357167	1259.333008	2027.978760
-28826.648245	18721.357167	1258.224609	2015.244019
-28826.648245	18721.357167	1257.115234	2002.708740
-28826.648245	18721.357167	1256.006836	2073.341797
-28826.648245	18721.357167	1254.897461	2118.023682
-28826.648245	18721.357167	1253.788086	1940.997070
-28826.648245	18721.357167	1252.678711	2290.154785
-28826.648245	18721.357167	1251.569336	1894.131470
-28826.648245	18721.357167	1250.458984	2008.463867
-28826.648245	18721.357167	1249.349609	2028.379028
-28826.648245	18721.357167	1248.239258	1960.710083
-28826.648245	18721.357167	1247.127930	2095.966553
-28826.648245	18721.357167	1246.017578	1963.006958
-28826.648245	18721.357167	1244.906250	1639.966675
-28826.648245	18721.357167	1243.794922	1734.912964
-28826.648245	18721.357167	1242.683594	1716.918091
-28826.648245	18721.357167	1241.571289	1883.707153
-28826.648245	18721.357167	1240.459961	1495.748413
-28826.648245	18721.357167	1239.347656	1505.271118
-28826.648245	18721.357167	1238.234375	1859.583374
-28826.648245	18721.357167	1237.122070	1716.213257
-28826.648245	18721.357167	1236.008789	1824.970825
-28826.648245	18721.357167	1234.896484	1625.849609
-28826.648245	18721.357167	1233.782227	1564.646729
-28826.648245	18721.357167	1232.668945	1518.143921
-28826.648245	18721.357167	1231.555664	1298.915161
-28826.648245	18721.357167	1230.441406	1257.971069
-28826.648245	18721.357167	1229.327148	1171.307373
-28826.648245	18721.357167	1228.211914	1282.803711
-28826.648245	18721.357167	1227.097656	1564.450439
-28826.648245	18721.357167	1225.982422	1431.681519
-28826.648245	18721.357167	1224.867188	1049.974243
-28826.648245	18721.357167	1223.751953	1411.448364
-28826.648245	18721.357167	1222.635742	1194.097534
-28826.648245	18721.357167	1221.520508	1207.029907
-28826.648245	18721.357167	1220.404297	1110.083618
-28826.648245	18721.357167	1219.287109	1142.409546
-28826.648245	18721.357167	1218.170898	1111.630127
-28826.648245	18721.357167	1217.053711	1285.985352
-28826.648245	18721.357167	1215.936523	1151.686523
-28826.648245	18721.357167	1214.819336	1076.890625
-28826.648245	18721.357167	1213.702148	1067.293945
-28826.648245	18721.357167	1212.583984	1061.277344
-28826.648245	18721.357167	1211.465820	943.981079
-28826.648245	18721.357167	1210.347656	1025.892334
-28826.648245	18721.357167	1209.229492	934.433960
-28826.648245	18721.357167	1208.110352	1128.517456
-28826.648245	18721.357167	1206.992188	1044.373657
-28826.648245	18721.357167	1205.873047	1090.076172
-28826.648245	18721.357167	1204.752930	947.555115
-28826.648245	18721.357167	1203.633789	984.081970
-28826.648245	18721.357167	1202.513672	1135.529785
-28826.648245	18721.357167	1201.393555	1036.103394
-28826.648245	18721.357167	1200.273438	954.265015
-28826.648245	18721.357167	1199.152344	639.701843
-28826.648245	18721.357167	1198.032227	604.150391
-28826.648245	18721.357167	1196.911133	738.208496
-28826.648245	18721.357167	1195.790039	643.121094
-28826.648245	18721.357167	1194.667969	992.766174
-28826.648245	18721.357167	1193.545898	812.158875
-28826.648245	18721.357167	1192.424805	548.012390
-28826.648245	18721.357167	1191.301758	627.806091
-28826.648245	18721.357167	1190.179688	758.397644
-28826.648245	18721.357167	1189.056641	572.061584
-28826.648245	18721.357167	1187.933594	480.919708
-28826.648245	18721.357167	1186.810547	650.809570
-28826.648245	18721.357167	1185.687500	591.041443
-28826.648245	18721.357167	1184.563477	408.651611
-28826.648245	18721.357167	1183.440430	319.144531
-28826.648245	18721.357167	1182.316406	403.688629
-28826.648245	18721.357167	1181.191406	588.365112
-28826.648245	18721.357167	1180.067383	499.767731
-28826.648245	18721.357167	1178.942383	216.581253
-28826.648245	18721.357167	1177.817383	263.714996
-28826.648245	18721.357167	1176.692383	166.555542
-28826.648245	18721.357167	1175.566406	357.481445
-28826.648245	18721.357167	1174.440430	303.117554
-28826.648245	18721.357167	1173.314453	156.969742
-28826.648245	18721.357167	1172.188477	239.098618
-28826.648245	18721.357167	1171.062500	163.551117
-28826.648245	18721.357167	1169.935547	211.325821
-28826.648245	18721.357167	1168.808594	279.783295
-28826.648245	18721.357167	1167.681641	300.427582
-28826.648245	18721.357167	1166.553711	29.262512
-28826.648245	18721.357167	1165.426758	164.767105
-28826.648245	18721.357167	1164.298828	277.755310
-28826.648245	18721.357167	1163.170898	35.805763
-28826.648245	18721.357167	1162.041992	195.661743
-28826.648245	18721.357167	1160.914063	-73.076683
-28826.648245	18721.357167	1159.785156	415.180084
-28826.648245	18721.357167	1158.656250	-26.084009
-28826.648245	18721.357167	1157.526367	29.271961
-28826.648245	18721.357167	1156.397461	-139.610977
-28826.648245	18721.357167	1155.267578	174.901978
-28826.648245	18721.357167	1154.137695	111.272316
-28826.648245	18721.357167	1153.006836	-161.752380
-28826.648245	18721.357167	1151.876953	40.519634
-28826.648245	18721.357167	1150.746094	-162.354706
-28826.648245	18721.357167	1149.615234	-200.869919
-28826.648245	18721.357167	1148.484375	-322.548828
-28826.648245	18721.357167	1147.352539	-280.851868
-28826.648245	18721.357167	1146.220703	-378.286530
-28826.648245	18721.357167	1145.088867	-14.850153
-28826.648245	18721.357167	1143.957031	-306.688507
-28826.648245	18721.357167	1142.825195	-206.742249
-28826.648245	18721.357167	1141.692383	-197.472855
-28826.648245	18721.357167	1140.559570	-143.769302
-28826.648245	18721.357167	1139.426758	-0.982386
-28826.648245	18721.357167	1138.292969	41.279411
-28826.648245	18721.357167	1137.159180	-284.215942
-28826.648245	18721.357167	1136.025391	-133.610184
-28826.648245	18721.357167	1134.891602	-339.867218
-28826.648245	18721.357167	1133.757813	-252.990051
-28826.648245	18721.357167	1132.623047	-33.998287
-28826.648245	18721.357167	1131.488281	-124.140358
-28826.648245	18721.357167	1130.353516	-272.366425
-28826.648245	18721.357167	1129.217773	-139.634216
-28826.648245	18721.357167	1128.083008	-54.697346
-28826.648245	18721.357167	1126.947266	-57.509483
-28826.648245	18721.357167	1125.811523	-25.052259
-28826.648245	18721.357167	1124.674805	-144.645432
-28826.648245	18721.357167	1123.539063	-158.890518
-28826.648245	18721.357167	1122.402344	-159.424393
-28826.648245	18721.357167	1121.265625	-480.661346
-28826.648245	18721.357167	1120.127930	-10.214867
-28826.648245	18721.357167	1118.990234	-122.983170
-28826.648245	18721.357167	1117.853516	-288.391022
-28826.648245	18721.357167	1116.714844	-84.034233
-28826.648245	18721.357167	1115.577148	-15.996132
-28826.648245	18721.357167	1114.439453	-32.206879
-28826.648245	18721.357167	1113.300781	-50.900166
-28826.648245	18721.357167	1112.162109	313.933350
-28826.648245	18721.357167	1111.022461	-300.713806
-28826.648245	18721.357167	1109.883789	34.733780
-28826.648245	18721.357167	1108.744141	50.556541
-28826.648245	18721.357167	1107.604492	-82.268532
-28826.648245	18721.357167	1106.463867	51.447647
-28826.648245	18721.357167	1105.324219	-20.397572
-28826.648245	18721.357167	1104.183594	-100.841637
-28826.648245	18721.357167	1103.042969	-165.531723
-28826.648245	18721.357167	1101.902344	-39.446823
-28826.648245	18721.357167	1100.760742	156.482147
-28826.648245	18721.357167	1099.619141	103.243408
-28826.648245	18721.357167	1098.477539	164.205643
-28826.648245	18721.357167	1097.335938	242.313751
-28826.648245	18721.357167	1096.193359	79.989670
-28826.648245	18721.357167	1095.051758	54.765072
-28826.648245	18721.357167	1093.909180	73.109100
-28826.648245	18721.357167	1092.765625	310.932983
-28826.648245	18721.357167	1091.623047	35.367104
-28826.648245	18721.357167	1090.479492	90.916748
-28826.648245	18721.357167	1089.335938	447.362854
-28826.648245	18721.357167	1088.192383	399.255920
-28826.648245	18721.357167	1087.047852	410.993134
-28826.648245	18721.357167	1085.903320	305.768158
-28826.648245	18721.357167	1084.758789	196.233032
-28826.648245	18721.357167	1083.614258	132.166779
-28826.648245	18721.357167	1082.469727	111.510559
-28826.648245	18721.357167	1081.324219	252.080734
-28826.648245	18721.357167	1080.178711	101.939018
-28826.648245	18721.357167	1079.033203	279.905487
-28826.648245	18721.357167	1077.886719	148.571472
-28826.648245	18721.357167	1076.740234	241.762863
-28826.648245	18721.357167	1075.593750	429.141541
-28826.648245	18721.357167	1074.447266	271.492523
-28826.648245	18721.357167	1073.300781	-4.078972
-28826.648245	18721.357167	1072.153320	435.586060
-28826.648245	18721.357167	1071.005859	184.161942
-28826.648245	18721.357167	1069.858398	429.404388
-28826.648245	18721.357167	1068.709961	473.673126
-28826.648245	18721.357167	1067.561523	433.918396
-28826.648245	18721.357167	1066.413086	504.645844
-28826.648245	18721.357167	1065.264648	136.371017
-28826.648245	18721.357167	1064.116211	383.605499
-28826.648245	18721.357167	1062.966797	557.833252
-28826.648245	18721.357167	1061.817383	138.495590
-28826.648245	18721.357167	1060.667969	162.893112
-28826.648245	18721.357167	1059.517578	347.028992
-28826.648245	18721.357167	1058.368164	103.574158
-28826.648245	18721.357167	1057.217773	276.984131
-28826.648245	18721.357167	1056.067383	119.888382
-28826.648245	18721.357167	1054.916016	443.357910
-28826.648245	18721.357167	1053.764648	526.270447
-28826.648245	18721.357167	1052.613281	325.231323
-28826.648245	18721.357167	1051.461914	386.744385
-28826.648245	18721.357167	1050.310547	312.897461
-28826.648245	18721.357167	1049.158203	589.036316
-28826.648245	18721.357167	1048.005859	268.254181
-28826.648245	18721.357167	1046.853516	179.937668
-28826.648245	18721.357167	1045.700195	165.379532
-28826.648245	18721.357167	1044.547852	233.335678
-28826.648245	18721.357167	1043.394531	290.448242
-28826.648245	18721.357167	1042.240234	407.558533
-28826.648245	18721.357167	1041.086914	348.163422
-28826.648245	18721.357167	1039.932617	199.765686
-28826.648245	18721.357167	1038.778320	28.252371
-28826.648245	18721.357167	1037.624023	485.920288
-28826.648245	18721.357167	1036.469727	325.587646
-28826.648245	18721.357167	1035.314453	608.624390
-28826.648245	18721.357167	1034.159180	124.095764
-28826.648245	18721.357167	1033.003906	-155.502289
-28826.648245	18721.357167	1031.847656	168.231079
-28826.648245	18721.357167	1030.692383	174.896088
-28826.648245	18721.357167	1029.536133	563.050293
-28826.648245	18721.357167	1028.378906	375.160095
-28826.648245	18721.357167	1027.222656	732.527405
-28826.648245	18721.357167	1026.065430	290.363556
-28826.648245	18721.357167	1024.908203	335.828217
-28826.648245	18721.357167	1023.750977	231.997452
-28826.648245	18721.357167	1022.593750	493.781250
-28826.648245	18721.357167	1021.435547	79.692871
-28826.648245	18721.357167	1020.277344	63.890434
-28826.648245	18721.357167	1019.119141	343.424530
-28826.648245	18721.357167	1017.959961	240.044540
-28826.648245	18721.357167	1016.800781	343.092346
-28826.648245	18721.357167	1015.641602	408.397858
-28826.648245	18721.357167	1014.482422	-52.232513
-28826.648245	18721.357167	1013.323242	44.769382
-28826.648245	18721.357167	1012.163086	245.464996
-28826.648245	18721.357167	1011.002930	18.136023
-28826.648245	18721.357167	1009.842773	-83.577148
-28826.648245	18721.357167	1008.681641	31.570290
-28826.648245	18721.357167	1007.520508	21.246944
-28826.648245	18721.357167	1006.359375	285.899811
-28826.648245	18721.357167	1005.198242	-12.975299
-28826.648245	18721.357167	1004.037109	305.484589
-28826.648245	18721.357167	1002.875000	88.979034
-28826.648245	18721.357167	1001.712891	165.633896
-28826.648245	18721.357167	1000.550781	95.628571
-28826.648245	18721.357167	999.387695	855.504150
-28826.648245	18721.357167	998.224609	194.574203
-28826.648245	18721.357167	997.061523	345.564941
-28826.648245	18721.357167	995.898438	120.182976
-28826.648245	18721.357167	994.734375	152.518021
-28826.648245	18721.357167	993.571289	71.776192
-28826.648245	18721.357167	992.407227	180.576630
-28826.648245	18721.357167	991.242188	553.379700
-28826.648245	18721.357167	990.078125	145.167114
-28826.648245	18721.357167	988.913086	252.776489
-28826.648245	18721.357167	987.748047	-184.646255
-28826.648245	18721.357167	986.583008	95.263618
-28826.648245	18721.357167	985.416992	193.243759
-28826.648245	18721.357167	984.250977	165.946045
-28826.648245	18721.357167	983.084961	-53.891766
-28826.648245	18721.357167	981.918945	-241.090546
-28826.648245	18721.357167	980.751953	90.862541
-28826.648245	18721.357167	979.584961	1.199539
-28826.648245	18721.357167	978.417969	188.710876
-28826.648245	18721.357167	977.250977	328.186951
-28826.648245	18721.357167	976.083008	241.568130
-28826.648245	18721.357167	974.915039	123.236946
-28826.648245	18721.357167	973.747070	152.616547
-28826.648245	18721.357167	972.579102	131.214066
-28826.648245	18721.357167	971.410156	214.207962
-28826.648245	18721.357167	970.242188	-25.987368
-28826.648245	18721.357167	969.072266	38.084656
-28826.648245	18721.357167	967.903320	-179.248886
-28826.648245	18721.357167	966.733398	-83.493851
-28826.648245	18721.357167	965.563477	-10.910202
-28826.648245	18721.357167	964.393555	-77.430389
-28826.648245	18721.357167	963.223633	-63.635323
-28826.648245	18721.357167	962.052734	338.891418
-28826.648245	18721.357167	960.881836	-114.039787
-28826.648245	18721.357167	959.710938	62.302574
-28826.648245	18721.357167	958.540039	-15.084348
-28826.648245	18721.357167	957.368164	79.713776
-28826.648245	18721.357167	956.196289	-226.414581
-28826.648245	18721.357167	955.024414	-146.780914
-28826.648245	18721.357167	953.851563	99.042648
-28826.648245	18721.357167	952.679688	-39.619049
-28826.648245	18721.357167	951.506836	-15.784283
-28826.648245	18721.357167	950.333984	23.652185
-28826.648245	18721.357167	949.160156	19.903284
-28826.648245	18721.357167	947.986328	-272.162079
-28826.648245	18721.357167	946.812500	57.322155
-28826.648245	18721.357167	945.638672	-16.568935
-28826.648245	18721.357167	944.464844	251.378342
-28826.648245	18721.357167	943.290039	123.113106
-28826.648245	18721.357167	942.115234	67.672150
-28826.648245	18721.357167	940.940430	-75.594147
-28826.648245	18721.357167	939.764648	-156.398880
-28826.648245	18721.357167	938.588867	-23.357616
-28826.648245	18721.357167	937.413086	59.370171
-28826.648245	18721.357167	936.237305	-217.923843
-28826.648245	18721.357167	935.060547	132.883118
-28826.648245	18721.357167	933.883789	19.044531
-28826.648245	18721.357167	932.707031	75.746552
-28826.648245	18721.357167	931.530273	78.007339
-28826.648245	18721.357167	930.352539	43.978855
-28826.648245	18721.357167	929.175781	176.782639
-28826.648245	18721.357167	927.998047	193.464218
-28826.648245	18721.357167	926.819336	10.654941
-28826.648245	18721.357167	925.641602	-27.074501
-28826.648245	18721.357167	924.462891	7.690494
-28826.648245	18721.357167	923.284180	35.214954
-28826.648245	18721.357167	922.104492	84.455391
-28826.648245	18721.357167	920.924805	-170.807587
-28826.648245	18721.357167	919.746094	-164.842224
-28826.648245	18721.357167	919.551758	-222.067047
-28826.648245	18721.357167	918.386719	-24.360504
-28826.648245	18721.357167	917.220703	-33.206135
-28826.648245	18721.357167	916.054688	-38.423058
-28826.648245	18721.357167	914.887695	-166.738480
-28826.648245	18721.357167	913.721680	-218.978470
-28826.648245	18721.357167	912.554688	7.515540
-28826.648245	18721.357167	911.387695	49.365749
-28826.648245	18721.357167	910.220703	185.273514
-28826.648245	18721.357167	909.052734	-8.037302
-28826.648245	18721.357167	907.885742	305.050476
-28826.648245	18721.357167	906.717773	-329.324219
-28826.648245	18721.357167	905.548828	-37.965912
-28826.648245	18721.357167	904.380859	401.461182
-28826.648245	18721.357167	903.211914	9.590129
-28826.648245	18721.357167	902.042969	62.269516
-28826.648245	18721.357167	900.874023	158.280609
-28826.648245	18721.357167	899.704102	138.698700
-28826.648245	18721.357167	898.535156	93.849731
-28826.648245	18721.357167	897.365234	142.890137
-28826.648245	18721.357167	896.194336	40.335487
-28826.648245	18721.357167	895.024414	121.855370
-28826.648245	18721.357167	893.853516	149.237061
-28826.648245	18721.357167	892.682617	255.967606
-28826.648245	18721.357167	891.511719	193.167953
-28826.648245	18721.357167	890.340820	144.820374
-28826.648245	18721.357167	889.168945	56.851604
-28826.648245	18721.357167	887.997070	55.418518
-28826.648245	18721.357167	886.825195	53.993553
-28826.648245	18721.357167	885.653320	-59.105160
-28826.648245	18721.357167	884.480469	72.775612
-28826.648245	18721.357167	883.307617	208.208679
-28826.648245	18721.357167	882.134766	174.373428
-28826.648245	18721.357167	880.961914	165.751968
-28826.648245	18721.357167	879.788086	-202.744690
-28826.648245	18721.357167	878.614258	90.971786
-28826.648245	18721.357167	877.440430	-25.534513
-28826.648245	18721.357167	876.266602	260.837585
-28826.648245	18721.357167	875.091797	-294.350555
-28826.648245	18721.357167	873.916992	279.584961
-28826.648245	18721.357167	872.742188	94.852745
-28826.648245	18721.357167	871.567383	21.602722
-28826.648245	18721.357167	870.391602	-48.017918
-28826.648245	18721.357167	869.215820	-131.979568
-28826.648245	18721.357167	868.040039	-50.696796
-28826.648245	18721.357167	866.864258	-105.900574
-28826.648245	18721.357167	865.687500	-383.660583
-28826.648245	18721.357167	864.510742	-72.660156
-28826.648245	18721.357167	863.333984	482.234894
-28826.648245	18721.357167	862.157227	-387.479889
-28826.648245	18721.357167	860.979492	59.635498
-28826.648245	18721.357167	859.802734	-156.921844
-28826.648245	18721.357167	858.625000	-477.374847
-28826.648245	18721.357167	857.446289	37.586391
-28826.648245	18721.357167	856.268555	-146.587906
-28826.648245	18721.357167	855.089844	149.490555
-28826.648245	18721.357167	853.911133	90.753609
-28826.648245	18721.357167	852.731445	-372.726105
-28826.648245	18721.357167	851.552734	-105.457298
-28826.648245	18721.357167	850.373047	129.471634
-28826.648245	18721.357167	849.193359	-283.644226
-28826.648245	18721.357167	848.013672	-234.905243
-28826.648245	18721.357167	846.833008	-361.531799
-28826.648245	18721.357167	845.652344	66.403976
-28826.648245	18721.357167	844.471680	75.661079
-28826.648245	18721.357167	843.291016	-36.687046
-28826.648245	18721.357167	842.110352	-270.565002
-28826.648245	18721.357167	840.928711	114.048882
-28826.648245	18721.357167	839.747070	-334.226135
-28826.648245	18721.357167	838.564453	-46.259003
-28826.648245	18721.357167	837.382813	-187.126724
-28826.648245	18721.357167	836.200195	-120.791122
-28826.648245	18721.357167	835.017578	34.769451
-28826.648245	18721.357167	833.834961	-23.967333
-28826.648245	18721.357167	832.651367	-43.433105
-28826.648245	18721.357167	831.467773	22.737556
-28826.648245	18721.357167	830.284180	53.176598
-28826.648245	18721.357167	829.100586	-37.710602
-28826.648245	18721.357167	827.916992	67.575073
-28826.648245	18721.357167	826.732422	-73.243851
-28826.648245	18721.357167	825.547852	-17.954229
-28826.648245	18721.357167	824.363281	190.550476
-28826.648245	18721.357167	823.177734	-203.302231
-28826.648245	18721.357167	821.992188	111.986000
-28826.648245	18721.357167	820.806641	-0.341576
-28826.648245	18721.357167	819.621094	-233.742920
-28826.648245	18721.357167	818.434570	-64.722290
-28826.648245	18721.357167	817.249023	-266.039581
-28826.648245	18721.357167	816.062500	-307.143829
-28826.648245	18721.357167	814.875000	-284.207916
-28826.648245	18721.357167	813.688477	-5.167367
-28826.648245	18721.357167	812.500977	142.116501
-28826.648245	18721.357167	811.313477	115.044601
-28826.648245	18721.357167	810.125977	-32.944530
-28826.648245	18721.357167	808.937500	121.248100
-28826.648245	18721.357167	807.749023	76.310623
-28826.648245	18721.357167	806.560547	6.474525
-28826.648245	18721.357167	805.372070	-354.686890
-28826.648245	18721.357167	804.182617	-186.516205
-28826.648245	18721.357167	802.994141	-199.569412
-28826.648245	18721.357167	801.803711	-109.694656
-28826.648245	18721.357167	800.614258	214.366455
-28826.648245	18721.357167	799.424805	-100.556755
-28826.648245	18721.357167	798.234375	-135.090240
-28826.648245	18721.357167	797.043945	131.872437
-28826.648245	18721.357167	795.852539	260.357635
-28826.648245	18721.357167	794.662109	-178.621750
-28826.648245	18721.357167	793.470703	27.763224
-28826.648245	18721.357167	792.279297	134.761765
-28826.648245	18721.357167	791.087891	266.468689
-28826.648245	18721.357167	789.895508	1.249951
-28826.648245	18721.357167	788.703125	65.517036
-28826.648245	18721.357167	787.510742	-72.168434
-28826.648245	18721.357167	786.318359	-177.988968
-28826.648245	18721.357167	785.125000	349.854858
-28826.648245	18721.357167	783.931641	-102.983116
-28826.648245	18721.357167	782.738281	60.027534
-28826.648245	18721.357167	781.544922	70.778557
-28826.648245	18721.357167	780.350586	152.207855
-28826.648245	18721.357167	779.156250	28.426571
-28826.648245	18721.357167	777.961914	-159.009460
-28826.648245	18721.357167	776.767578	-42.427208
-28826.648245	18721.357167	775.572266	-39.052998
-28826.648245	18721.357167	774.376953	367.070251
-28826.648245	18721.357167	773.181641	-11.314041
-28826.648245	18721.357167	771.986328	87.213264
-28826.648245	18721.357167	770.790039	-72.152458
-28826.648245	18721.357167	769.593750	174.491470
-28826.648245	18721.357167	768.397461	-295.590027
-28826.648245	18721.357167	767.201172	201.418762
-28826.648245	18721.357167	766.003906	186.541153
-28826.648245	18721.357167	764.806641	210.398834
-28826.648245	18721.357167	763.609375	502.215790
-28826.648245	18721.357167	762.412109	286.073395
-28826.648245	18721.357167	761.213867	-7.612616
-28826.648245	18721.357167	760.015625	407.207489
-28826.648245	18721.357167	758.817383	349.570221
-28826.648245	18721.357167	757.618164	-85.102959
-28826.648245	18721.357167	756.419922	336.286682
-28826.648245	18721.357167	755.220703	155.207520
-28826.648245	18721.357167	754.021484	333.266357
-28826.648245	18721.357167	752.821289	317.558289
-28826.648245	18721.357167	751.621094	210.266403
-28826.648245	18721.357167	750.420898	233.136337
-28826.648245	18721.357167	749.220703	-57.193661
-28826.648245	18721.357167	748.020508	236.393158
-28826.648245	18721.357167	746.819336	132.401810
-28826.648245	18721.357167	745.618164	242.838089
-28826.648245	18721.357167	744.416992	314.478973
-28826.648245	18721.357167	743.214844	241.917252
-28826.648245	18721.357167	742.012695	134.164810
-28826.648245	18721.357167	740.810547	135.272171
-28826.648245	18721.357167	739.608398	350.541779
-28826.648245	18721.357167	738.406250	319.830811
-28826.648245	18721.357167	737.203125	-76.065086
-28826.648245	18721.357167	736.000000	268.725861
-28826.648245	18721.357167	734.795898	-85.053574
-28826.648245	18721.357167	733.592773	161.184662
-28826.648245	18721.357167	732.388672	3.840409
-28826.648245	18721.357167	731.184570	-13.243505
-28826.648245	18721.357167	729.979492	369.314240
-28826.648245	18721.357167	728.775391	180.213608
-28826.648245	18721.357167	727.570313	75.223160
-28826.648245	18721.357167	726.365234	159.410721
-28826.648245	18721.357167	725.160156	334.567322
-28826.648245	18721.357167	723.954102	-110.410347
-28826.648245	18721.357167	722.748047	187.122040
-28826.648245	18721.357167	721.541992	-142.272949
-28826.648245	18721.357167	720.334961	189.973175
-28826.648245	18721.357167	719.128906	396.001160
-28826.648245	18721.357167	717.921875	-332.376465
-28826.648245	18721.357167	716.714844	27.426533
-28826.648245	18721.357167	715.506836	-11.728620
-28826.648245	18721.357167	714.298828	18.982735
-28826.648245	18721.357167	713.090820	206.920258
-28826.648245	18721.357167	711.882813	-21.253603
-28826.648245	18721.357167	710.674805	-137.589294
-28826.648245	18721.357167	709.465820	196.748871
-28826.648245	18721.357167	708.256836	-17.562426
-28826.648245	18721.357167	707.047852	40.539764
-28826.648245	18721.357167	705.837891	35.682014
-28826.648245	18721.357167	704.627930	-32.093452
-28826.648245	18721.357167	703.417969	25.723654
-28826.648245	18721.357167	702.208008	188.118256
-28826.648245	18721.357167	700.998047	-155.504745
-28826.648245	18721.357167	699.787109	100.871651
-28826.648245	18721.357167	698.576172	151.307739
-28826.648245	18721.357167	697.364258	149.345856
-28826.648245	18721.357167	696.153320	-13.043963
-28826.648245	18721.357167	694.941406	329.894165
-28826.648245	18721.357167	693.729492	-139.247833
-28826.648245	18721.357167	692.516602	137.226532
-28826.648245	18721.357167	691.304688	-39.268719
-28826.648245	18721.357167	690.091797	17.537561
-28826.648245	18721.357167	688.878906	446.757172
-28826.648245	18721.357167	687.665039	207.428314
-28826.648245	18721.357167	686.451172	-70.155388
-28826.648245	18721.357167	685.237305	-58.916794
-28826.648245	18721.357167	684.023438	84.426361
-28826.648245	18721.357167	682.809570	297.195404
-28826.648245	18721.357167	681.594727	231.639389
-28826.648245	18721.357167	680.379883	152.138275
-28826.648245	18721.357167	679.165039	350.646301
-28826.648245	18721.357167	677.949219	191.096054
-28826.648245	18721.357167	676.733398	326.846252
-28826.648245	18721.357167	675.517578	0.515309
-28826.648245	18721.357167	674.301758	198.627899
-28826.648245	18721.357167	673.084961	525.054016
-28826.648245	18721.357167	671.869141	188.289886
-28826.648245	18721.357167	670.651367	118.825653
-28826.648245	18721.357167	669.434570	191.595764
-28826.648245	18721.357167	668.216797	59.606361
-28826.648245	18721.357167	667.000000	24.729191
-28826.648245	18721.357167	665.781250	187.455902
-28826.648245	18721.357167	664.563477	13.787980
-28826.648245	18721.357167	663.344727	-62.811615
-28826.648245	18721.357167	662.125977	453.141754
-28826.648245	18721.357167	660.907227	-11.651120
-28826.648245	18721.357167	659.688477	140.274200
-28826.648245	18721.357167	658.468750	1.184036
-28826.648245	18721.357167	657.249023	-207.139847
-28826.648245	18721.357167	656.029297	190.376495
-28826.648245	18721.357167	654.808594	37.391895
-28826.648245	18721.357167	653.587891	178.551605
-28826.648245	18721.357167	652.367188	-9.035214
-28826.648245	18721.357167	651.146484	176.967148
-28826.648245	18721.357167	649.924805	-263.046112
-28826.648245	18721.357167	648.704102	327.368469
-28826.648245	18721.357167	647.482422	-122.922363
-28826.648245	18721.357167	646.259766	149.214020
-28826.648245	18721.357167	645.037109	41.149761
-28826.648245	18721.357167	643.815430	-66.891342
-28826.648245	18721.357167	642.591797	-216.358292
-28826.648245	18721.357167	641.369141	14.039632
-28826.648245	18721.357167	640.145508	-183.748886
-28826.648245	18721.357167	638.921875	36.152374
-28826.648245	18721.357167	637.698242	331.862579
-28826.648245	18721.357167	636.474609	30.586863
-28826.648245	18721.357167	635.250000	-32.574467
-28826.648245	18721.357167	634.025391	-199.174744
-28826.648245	18721.357167	632.800781	251.444290
-28826.648245	18721.357167	631.575195	184.804916
-28826.648245	18721.357167	630.349609	-74.802414
-28826.648245	18721.357167	629.124023	203.212250
-28826.648245	18721.357167	627.898438	-97.625565
-28826.648245	18721.357167	626.671875	-64.254478
-28826.648245	18721.357167	625.445313	110.287888
-28826.648245	18721.357167	624.218750	336.404022
-28826.648245	18721.357167	622.992188	125.308968
-28826.648245	18721.357167	621.764648	107.019226
-28826.648245	18721.357167	620.537109	-255.295776
-28826.648245	18721.357167	619.309570	-122.116341
-28826.648245	18721.357167	618.081055	121.072189
-28826.648245	18721.357167	616.852539	137.251694
-28826.648245	18721.357167	615.624023	-166.247543
-28826.648245	18721.357167	614.395508	-311.499542
-28826.648245	18721.357167	613.166992	-99.304909
-28826.648245	18721.357167	611.937500	-65.812912
-28826.648245	18721.357167	610.708008	-28.869905
-28826.648245	18721.357167	609.477539	80.201042
-28826.648245	18721.357167	608.248047	-651.865417
-28826.648245	18721.357167	607.017578	-48.360168
-28826.648245	18721.357167	605.787109	-52.485115
-28826.648245	18721.357167	604.555664	-173.223389
-28826.648245	18721.357167	603.325195	-280.143372
-28826.648245	18721.357167	602.093750	-88.600105
-28826.648245	18721.357167	600.861328	-75.392166
-28826.648245	18721.357167	599.629883	-175.262054
-28826.648245	18721.357167	598.397461	-227.054825
-28826.648245	18721.357167	597.165039	341.447144
-28826.648245	18721.357167	595.932617	169.773224
-28826.648245	18721.357167	594.699219	1.655422
-28826.648245	18721.357167	593.465820	39.135372
-28826.648245	18721.357167	592.232422	-94.521271
-28826.648245	18721.357167	590.999023	-163.019577
-28826.648245	18721.357167	589.764648	90.269020
-28826.648245	18721.357167	588.530273	32.161289
-28826.648245	18721.357167	587.295898	-333.721771
-28826.648245	18721.357167	586.061523	35.938129
-28826.648245	18721.357167	584.826172	282.418091
-28826.648245	18721.357167	583.590820	-161.688080
-28826.648245	18721.357167	582.355469	26.779510
-28826.648245	18721.357167	581.119141	-269.985840
-28826.648245	18721.357167	579.882813	-108.744202
-28826.648245	18721.357167	578.646484	-8.968550
-28826.648245	18721.357167	577.410156	206.959900
-28826.648245	18721.357167	576.172852	-130.224457
-28826.648245	18721.357167	574.935547	-245.297729
-28826.648245	18721.357167	573.698242	172.161453
-28826.648245	18721.357167	572.460938	57.256058
-28826.648245	18721.357167	571.222656	48.244045
-28826.648245	18721.357167	569.984375	196.215988
-28826.648245	18721.357167	568.746094	194.188766
-28826.648245	18721.357167	567.506836	120.666504
-28826.648245	18721.357167	566.267578	-20.893440
-28826.648245	18721.357167	565.028320	158.029556
-28826.648245	18721.357167	563.789063	-129.776382
-28826.648245	18721.357167	562.548828	-42.672302
-28826.648245	18721.357167	561.309570	-33.827763
-28826.648245	18721.357167	560.068359	387.092255
-28826.648245	18721.357167	558.828125	-5.626568
-28826.648245	18721.357167	557.586914	347.251892
-28826.648245	18721.357167	556.345703	-58.689274
-28826.648245	18721.357167	555.104492	-62.931923
-28826.648245	18721.357167	553.863281	-97.674835
-28826.648245	18721.357167	552.621094	-383.923492
-28826.648245	18721.357167	551.378906	-85.198936
-28826.648245	18721.357167	550.136719	216.907227
-28826.648245	18721.357167	548.893555	-252.403442
-28826.648245	18721.357167	547.650391	-86.072426
-28826.648245	18721.357167	546.407227	-86.146690
-28826.648245	18721.357167	545.164063	97.275940
-28826.648245	18721.357167	543.919922	307.891144
-28826.648245	18721.357167	542.675781	189.250809
-28826.648245	18721.357167	541.431641	43.618153
-28826.648245	18721.357167	540.186523	125.495430
-28826.648245	18721.357167	538.941406	-121.618767
-28826.648245	18721.357167	537.696289	343.733765
-28826.648245	18721.357167	536.451172	235.919266
-28826.648245	18721.357167	535.205078	182.502411
-28826.648245	18721.357167	533.959961	125.819550
-28826.648245	18721.357167	532.712891	164.152573
-28826.648245	18721.357167	531.466797	449.896606
-28826.648245	18721.357167	530.219727	688.195557
-28826.648245	18721.357167	528.972656	625.085449
-28826.648245	18721.357167	527.725586	358.945313
-28826.648245	18721.357167	526.478516	455.224457
-28826.648245	18721.357167	525.230469	399.258606
-28826.648245	18721.357167	523.982422	241.895432
-28826.648245	18721.357167	522.734375	294.431396
-28826.648245	18721.357167	521.485352	340.268433
-28826.648245	18721.357167	520.236328	206.950790
-28826.648245	18721.357167	518.987305	543.698364
-28826.648245	18721.357167	517.737305	762.078796
-28826.648245	18721.357167	516.488281	277.537720
-28826.648245	18721.357167	515.238281	512.920105
-28826.648245	18721.357167	513.988281	403.726196
-28826.648245	18721.357167	512.737305	726.923584
-28826.648245	18721.357167	511.486328	688.763916
-28826.648245	18721.357167	510.235352	819.462036
-28826.648245	18721.357167	508.984375	848.908447
-28826.648245	18721.357167	507.732422	463.359131
-28826.648245	18721.357167	506.480469	408.627441
-28826.648245	18721.357167	505.228516	549.579834
-28826.648245	18721.357167	503.976563	599.459534
-28826.648245	18721.357167	502.723633	817.918396
-28826.648245	18721.357167	501.470703	497.009125
-28826.648245	18721.357167	500.217773	654.781006
-28826.648245	18721.357167	498.963867	778.811096
-28826.648245	18721.357167	497.709961	838.794067
-28826.648245	18721.357167	496.456055	1043.563599
-28826.648245	18721.357167	495.202148	830.732727
-28826.648245	18721.357167	493.947266	1042.137329
-28826.648245	18721.357167	492.692383	1132.271973
-28826.648245	18721.357167	491.437500	1205.518433
-28826.648245	18721.357167	490.181641	918.745117
-28826.648245	18721.357167	488.926758	1281.185547
-28826.648245	18721.357167	487.670898	1354.237671
-28826.648245	18721.357167	486.414063	1393.584961
-28826.648245	18721.357167	485.158203	1126.981934
-28826.648245	18721.357167	483.901367	1277.122192
-28826.648245	18721.357167	482.644531	1494.313354
-28826.648245	18721.357167	481.386719	1482.911865
-28826.648245	18721.357167	480.128906	1766.945557
-28826.648245	18721.357167	478.871094	1725.064941
-28826.648245	18721.357167	477.613281	1535.381592
-28826.648245	18721.357167	476.355469	1500.036133
-28826.648245	18721.357167	475.096680	1743.069092
-28826.648245	18721.357167	473.837891	1589.995239
-28826.648245	18721.357167	472.578125	1507.264648
-28826.648245	18721.357167	471.319336	1528.347290
-28826.648245	18721.357167	470.059570	1488.895142
-28826.648245	18721.357167	468.799805	1868.242798
-28826.648245	18721.357167	467.539063	1821.635376
-28826.648245	18721.357167	466.278320	2140.020264
-28826.648245	18721.357167	465.017578	1938.843994
-28826.648245	18721.357167	463.756836	2082.449463
-28826.648245	18721.357167	462.495117	2185.558105
-28826.648245	18721.357167	461.233398	1963.650513
-28826.648245	18721.357167	459.971680	1995.906006
-28826.648245	18721.357167	458.709961	1964.275757
-28826.648245	18721.357167	457.447266	2056.123535
-28826.648245	18721.357167	456.184570	1977.030884
-28826.648245	18721.357167	454.921875	2288.859863
-28826.648245	18721.357167	453.658203	2195.677490
-28826.648245	18721.357167	452.394531	1884.906860
-28826.648245	18721.357167	451.130859	2055.081055
-28826.648245	18721.357167	449.867188	2061.068115
-28826.648245	18721.357167	448.602539	2567.661865
-28826.648245	18721.357167	447.337891	2445.768799
-28826.648245	18721.357167	446.073242	2246.676758
-28826.648245	18721.357167	444.807617	2247.477295
-28826.648245	18721.357167	443.542969	2314.532959
-28826.648245	18721.357167	442.276367	2351.005859
-28826.648245	18721.357167	441.010742	2453.656006
-28826.648245	18721.357167	439.744141	2532.356934
-28826.648245	18721.357167	438.478516	2743.835693
-28826.648245	18721.357167	437.210938	2617.912598
-28826.648245	18721.357167	435.944336	2488.102295
-28826.648245	18721.357167	434.676758	2344.379395
-28826.648245	18721.357167	433.409180	2386.631104
-28826.648245	18721.357167	432.141602	2621.377686
-28826.648245	18721.357167	430.873047	2728.767578
-28826.648245	18721.357167	429.604492	2579.025391
-28826.648245	18721.357167	428.335938	2804.743408
-28826.648245	18721.357167	427.067383	2706.781738
-28826.648245	18721.357167	425.797852	3117.127197
-28826.648245	18721.357167	424.528320	2894.439941
-28826.648245	18721.357167	423.258789	2950.371582
-28826.648245	18721.357167	421.988281	2702.818359
-28826.648245	18721.357167	420.717773	3142.620117
-28826.648245	18721.357167	419.447266	2604.162109
-28826.648245	18721.357167	418.175781	2566.737061
-28826.648245	18721.357167	416.905273	2976.866211
-28826.648245	18721.357167	415.633789	3000.510986
-28826.648245	18721.357167	414.362305	3009.835449
-28826.648245	18721.357167	413.089844	2838.797363
-28826.648245	18721.357167	411.817383	2753.050293
-28826.648245	18721.357167	410.544922	2918.436279
-28826.648245	18721.357167	409.272461	3125.739258
-28826.648245	18721.357167	407.999023	2976.822021
-28826.648245	18721.357167	406.725586	2796.913574
-28826.648245	18721.357167	405.452148	3043.574951
-28826.648245	18721.357167	404.177734	2950.706543
-28826.648245	18721.357167	402.903320	2912.918701
-28826.648245	18721.357167	401.628906	2506.008057
-28826.648245	18721.357167	400.354492	3022.188965
-28826.648245	18721.357167	399.079102	2953.784912
-28826.648245	18721.357167	397.803711	2744.898682
-28826.648245	18721.357167	396.528320	2835.903564
-28826.648245	18721.357167	395.251953	3157.031982
-28826.648245	18721.357167	393.976563	2917.250732
-28826.648245	18721.357167	392.700195	2867.859619
-28826.648245	18721.357167	391.422852	2558.833496
-28826.648245	18721.357167	390.145508	2909.705078
-28826.648245	18721.357167	388.869141	3100.072266
-28826.648245	18721.357167	387.590820	2987.738037
-28826.648245	18721.357167	386.313477	2824.153809
-28826.648245	18721.357167	385.035156	2586.105225
-28826.648245	18721.357167	383.756836	2729.519775
-28826.648245	18721.357167	382.478516	2610.071533
-28826.648245	18721.357167	381.199219	2729.754883
-28826.648245	18721.357167	379.919922	2438.054443
-28826.648245	18721.357167	378.640625	2982.828613
-28826.648245	18721.357167	377.360352	2881.788086
-28826.648245	18721.357167	376.080078	2597.240723
-28826.648245	18721.357167	374.799805	2755.975342
-28826.648245	18721.357167	373.519531	2569.494873
-28826.648245	18721.357167	372.238281	2670.954346
-28826.648245	18721.357167	370.957031	2503.097656
-28826.648245	18721.357167	369.675781	2566.987305
-28826.648245	18721.357167	368.394531	2411.026123
-28826.648245	18721.357167	367.112305	2176.899414
-28826.648245	18721.357167	365.830078	2144.612305
-28826.648245	18721.357167	364.546875	2169.038574
-28826.648245	18721.357167	363.264648	2404.951172
-28826.648245	18721.357167	361.981445	1979.836670
-28826.648245	18721.357167	360.698242	2223.536621
-28826.648245	18721.357167	359.414063	2026.806030
-28826.648245	18721.357167	358.129883	1567.567871
-28826.648245	18721.357167	356.845703	1796.301147
-28826.648245	18721.357167	355.561523	1791.945068
-28826.648245	18721.357167	354.276367	1879.927612
-28826.648245	18721.357167	352.991211	1774.312988
-28826.648245	18721.357167	351.706055	1649.308472
-28826.648245	18721.357167	350.420898	1774.232422
-28826.648245	18721.357167	349.134766	1380.288818
-28826.648245	18721.357167	347.848633	1167.216675
-28826.648245	18721.357167	346.561523	1325.141846
-28826.648245	18721.357167	345.275391	1158.182129
-28826.648245	18721.357167	343.988281	1352.079590
-28826.648245	18721.357167	342.700195	1158.569702
-28826.648245	18721.357167	341.413086	1056.914673
-28826.648245	18721.357167	340.125000	951.689636
-28826.648245	18721.357167	338.836914	1092.100342
-28826.648245	18721.357167	337.548828	1009.222229
-28826.648245	18721.357167	336.259766	929.132996
-28826.648245	18721.357167	334.970703	848.611572
-28826.648245	18721.357167	333.681641	738.118591
-28826.648245	18721.357167	332.391602	492.688782
-28826.648245	18721.357167	331.101563	525.012207
-28826.648245	18721.357167	329.811523	189.989639
-28826.648245	18721.357167	328.521484	567.781189
-28826.648245	18721.357167	327.230469	87.175468
-28826.648245	18721.357167	325.939453	325.552216
-28826.648245	18721.357167	324.648438	134.416016
-28826.648245	18721.357167	323.356445	301.865021
-28826.648245	18721.357167	322.064453	88.923691
-28826.648245	18721.357167	320.772461	126.579735
-28826.648245	18721.357167	319.480469	-85.351334
-28826.648245	18721.357167	318.187500	70.520470
-28826.648245	18721.357167	316.894531	84.514198
-28826.648245	18721.357167	315.601563	-98.860451
-28826.648245	18721.357167	314.307617	-352.383301
-28826.648245	18721.357167	313.013672	-218.935181
-28826.648245	18721.357167	311.719727	-354.776978
-28826.648245	18721.357167	310.425781	62.394527
-28826.648245	18721.357167	309.130859	-233.679352
-28826.648245	18721.357167	307.835938	-185.776627
-28826.648245	18721.357167	306.541016	39.526115
-28826.648245	18721.357167	305.245117	44.143223
-28826.648245	18721.357167	303.949219	128.180084
-28826.648245	18721.357167	302.653320	555.447876
-28826.648245	18721.357167	301.356445	374.191833
-28826.648245	18721.357167	300.060547	497.117523
-28826.648245	18721.357167	298.763672	457.878479
