#X		#Y		#Wave		#Intensity
22986.445532	3295.517333	1999.980469	66.360565
22986.445532	3295.517333	1999.016602	-11.162270
22986.445532	3295.517333	1998.052734	18.842813
22986.445532	3295.517333	1997.087891	-15.623924
22986.445532	3295.517333	1996.123047	14.310672
22986.445532	3295.517333	1995.158203	-0.386153
22986.445532	3295.517333	1994.193359	-141.421967
22986.445532	3295.517333	1993.228516	155.868195
22986.445532	3295.517333	1992.262695	-79.283646
22986.445532	3295.517333	1991.297852	12.370660
22986.445532	3295.517333	1990.332031	-49.480751
22986.445532	3295.517333	1989.366211	49.501736
22986.445532	3295.517333	1988.399414	-4.965654
22986.445532	3295.517333	1987.433594	207.699905
22986.445532	3295.517333	1986.466797	31.987089
22986.445532	3295.517333	1985.500977	-2.749226
22986.445532	3295.517333	1984.534180	21.833988
22986.445532	3295.517333	1983.567383	61.212208
22986.445532	3295.517333	1982.599609	132.678101
22986.445532	3295.517333	1981.632813	251.035004
22986.445532	3295.517333	1980.665039	87.706718
22986.445532	3295.517333	1979.697266	10.859730
22986.445532	3295.517333	1978.729492	116.752640
22986.445532	3295.517333	1977.761719	-11.968266
22986.445532	3295.517333	1976.792969	-2.428975
22986.445532	3295.517333	1975.825195	-96.575424
22986.445532	3295.517333	1974.856445	78.255615
22986.445532	3295.517333	1973.887695	-45.521721
22986.445532	3295.517333	1972.918945	158.788116
22986.445532	3295.517333	1971.949219	20.199633
22986.445532	3295.517333	1970.980469	27.117167
22986.445532	3295.517333	1970.010742	88.246651
22986.445532	3295.517333	1969.041016	-72.503075
22986.445532	3295.517333	1968.071289	40.330112
22986.445532	3295.517333	1967.101563	-61.260895
22986.445532	3295.517333	1966.130859	147.559494
22986.445532	3295.517333	1965.161133	-15.631785
22986.445532	3295.517333	1964.190430	18.220016
22986.445532	3295.517333	1963.219727	140.672745
22986.445532	3295.517333	1962.249023	66.129417
22986.445532	3295.517333	1961.277344	124.496765
22986.445532	3295.517333	1960.306641	172.976913
22986.445532	3295.517333	1959.334961	118.089691
22986.445532	3295.517333	1958.363281	9.087347
22986.445532	3295.517333	1957.391602	-23.655943
22986.445532	3295.517333	1956.419922	-78.537514
22986.445532	3295.517333	1955.447266	46.046970
22986.445532	3295.517333	1954.474609	52.582733
22986.445532	3295.517333	1953.501953	39.436104
22986.445532	3295.517333	1952.529297	124.556404
22986.445532	3295.517333	1951.556641	231.734756
22986.445532	3295.517333	1950.583984	-41.847607
22986.445532	3295.517333	1949.610352	55.460384
22986.445532	3295.517333	1948.636719	69.234848
22986.445532	3295.517333	1947.663086	46.163376
22986.445532	3295.517333	1946.689453	113.890556
22986.445532	3295.517333	1945.715820	-117.796432
22986.445532	3295.517333	1944.741211	-126.157791
22986.445532	3295.517333	1943.767578	137.740616
22986.445532	3295.517333	1942.792969	55.722527
22986.445532	3295.517333	1941.818359	226.273346
22986.445532	3295.517333	1940.842773	-81.312531
22986.445532	3295.517333	1939.868164	3.373760
22986.445532	3295.517333	1938.892578	90.460480
22986.445532	3295.517333	1937.916992	152.992661
22986.445532	3295.517333	1936.941406	137.091904
22986.445532	3295.517333	1935.965820	101.583412
22986.445532	3295.517333	1934.990234	85.659088
22986.445532	3295.517333	1934.013672	20.754263
22986.445532	3295.517333	1933.037109	122.313454
22986.445532	3295.517333	1932.060547	-189.805923
22986.445532	3295.517333	1931.083984	29.172007
22986.445532	3295.517333	1930.107422	-25.964209
22986.445532	3295.517333	1929.129883	-154.481506
22986.445532	3295.517333	1928.153320	-163.134659
22986.445532	3295.517333	1927.175781	143.623993
22986.445532	3295.517333	1926.198242	200.887497
22986.445532	3295.517333	1925.219727	104.122223
22986.445532	3295.517333	1924.242188	122.231239
22986.445532	3295.517333	1923.263672	198.954926
22986.445532	3295.517333	1922.285156	45.998184
22986.445532	3295.517333	1921.306641	-6.781591
22986.445532	3295.517333	1920.328125	-15.605656
22986.445532	3295.517333	1919.349609	-92.809029
22986.445532	3295.517333	1918.370117	3.312773
22986.445532	3295.517333	1917.391602	-81.227074
22986.445532	3295.517333	1916.412109	14.816875
22986.445532	3295.517333	1915.431641	181.555801
22986.445532	3295.517333	1914.452148	165.268631
22986.445532	3295.517333	1913.472656	68.486443
22986.445532	3295.517333	1912.492188	210.677261
22986.445532	3295.517333	1911.511719	-61.646198
22986.445532	3295.517333	1910.531250	4.914429
22986.445532	3295.517333	1909.550781	-23.613127
22986.445532	3295.517333	1908.569336	11.199027
22986.445532	3295.517333	1907.588867	77.645676
22986.445532	3295.517333	1906.607422	-89.772789
22986.445532	3295.517333	1905.625977	64.291405
22986.445532	3295.517333	1904.644531	-39.801968
22986.445532	3295.517333	1903.662109	11.913431
22986.445532	3295.517333	1902.680664	146.337082
22986.445532	3295.517333	1901.698242	-52.678818
22986.445532	3295.517333	1900.715820	118.156013
22986.445532	3295.517333	1899.733398	181.878555
22986.445532	3295.517333	1898.750000	257.713837
22986.445532	3295.517333	1897.767578	58.736813
22986.445532	3295.517333	1896.784180	127.228676
22986.445532	3295.517333	1895.800781	149.491516
22986.445532	3295.517333	1894.817383	132.839645
22986.445532	3295.517333	1893.833984	18.983377
22986.445532	3295.517333	1892.850586	7.175036
22986.445532	3295.517333	1891.866211	153.219055
22986.445532	3295.517333	1890.881836	-1.928574
22986.445532	3295.517333	1889.897461	187.717361
22986.445532	3295.517333	1888.913086	32.573711
22986.445532	3295.517333	1887.927734	8.520511
22986.445532	3295.517333	1886.943359	28.130264
22986.445532	3295.517333	1885.958008	122.916077
22986.445532	3295.517333	1884.972656	84.232979
22986.445532	3295.517333	1883.987305	9.162375
22986.445532	3295.517333	1883.001953	4.412128
22986.445532	3295.517333	1882.015625	113.577934
22986.445532	3295.517333	1881.029297	179.049118
22986.445532	3295.517333	1880.042969	-102.067566
22986.445532	3295.517333	1879.056641	-53.590599
22986.445532	3295.517333	1878.070313	89.317749
22986.445532	3295.517333	1877.083984	45.653423
22986.445532	3295.517333	1876.096680	159.379166
22986.445532	3295.517333	1875.109375	-19.914911
22986.445532	3295.517333	1874.122070	-36.985775
22986.445532	3295.517333	1873.134766	91.133209
22986.445532	3295.517333	1872.146484	20.760637
22986.445532	3295.517333	1871.159180	-73.804153
22986.445532	3295.517333	1870.170898	73.519516
22986.445532	3295.517333	1869.182617	-1.727891
22986.445532	3295.517333	1868.194336	-45.541637
22986.445532	3295.517333	1867.205078	4.913333
22986.445532	3295.517333	1866.216797	19.067486
22986.445532	3295.517333	1865.227539	-63.473869
22986.445532	3295.517333	1864.238281	-15.543177
22986.445532	3295.517333	1863.249023	126.551308
22986.445532	3295.517333	1862.259766	12.554056
22986.445532	3295.517333	1861.269531	154.531906
22986.445532	3295.517333	1860.279297	64.656914
22986.445532	3295.517333	1859.290039	54.445004
22986.445532	3295.517333	1858.298828	77.991356
22986.445532	3295.517333	1857.308594	43.592083
22986.445532	3295.517333	1856.318359	-157.283676
22986.445532	3295.517333	1855.327148	68.810608
22986.445532	3295.517333	1854.335938	140.450500
22986.445532	3295.517333	1853.344727	-24.254276
22986.445532	3295.517333	1852.353516	-32.235039
22986.445532	3295.517333	1851.362305	-8.910389
22986.445532	3295.517333	1850.370117	26.422436
22986.445532	3295.517333	1849.377930	252.045181
22986.445532	3295.517333	1848.385742	10.237988
22986.445532	3295.517333	1847.393555	-94.231232
22986.445532	3295.517333	1846.401367	148.049973
22986.445532	3295.517333	1845.408203	219.276413
22986.445532	3295.517333	1844.415039	-5.619623
22986.445532	3295.517333	1843.421875	173.841705
22986.445532	3295.517333	1842.428711	134.246704
22986.445532	3295.517333	1841.435547	154.776352
22986.445532	3295.517333	1840.441406	-94.118805
22986.445532	3295.517333	1839.448242	-25.522871
22986.445532	3295.517333	1838.454102	76.673317
22986.445532	3295.517333	1837.459961	133.125900
22986.445532	3295.517333	1836.464844	95.789185
22986.445532	3295.517333	1835.470703	161.763901
22986.445532	3295.517333	1834.475586	-106.269753
22986.445532	3295.517333	1833.480469	101.369896
22986.445532	3295.517333	1832.485352	-32.128311
22986.445532	3295.517333	1831.490234	117.725243
22986.445532	3295.517333	1830.495117	116.245377
22986.445532	3295.517333	1829.499023	198.738754
22986.445532	3295.517333	1828.502930	247.569778
22986.445532	3295.517333	1827.506836	185.979599
22986.445532	3295.517333	1826.510742	126.776649
22986.445532	3295.517333	1825.513672	113.130272
22986.445532	3295.517333	1824.517578	250.528610
22986.445532	3295.517333	1823.520508	294.335754
22986.445532	3295.517333	1822.523438	36.060928
22986.445532	3295.517333	1821.526367	-87.941521
22986.445532	3295.517333	1820.529297	46.854691
22986.445532	3295.517333	1819.531250	56.984901
22986.445532	3295.517333	1818.533203	79.053162
22986.445532	3295.517333	1817.535156	74.734177
22986.445532	3295.517333	1816.537109	-85.251930
22986.445532	3295.517333	1815.539063	30.086449
22986.445532	3295.517333	1814.540039	54.391441
22986.445532	3295.517333	1813.541992	126.514740
22986.445532	3295.517333	1812.542969	229.675217
22986.445532	3295.517333	1811.543945	76.806274
22986.445532	3295.517333	1810.543945	-76.043846
22986.445532	3295.517333	1809.544922	-23.227282
22986.445532	3295.517333	1808.544922	-106.741226
22986.445532	3295.517333	1807.544922	5.743362
22986.445532	3295.517333	1806.544922	101.420265
22986.445532	3295.517333	1805.544922	-20.409311
22986.445532	3295.517333	1804.544922	-34.727852
22986.445532	3295.517333	1803.543945	20.185038
22986.445532	3295.517333	1802.542969	29.668352
22986.445532	3295.517333	1801.541992	48.661491
22986.445532	3295.517333	1800.541016	43.738621
22986.445532	3295.517333	1799.539063	55.485249
22986.445532	3295.517333	1798.538086	33.785854
22986.445532	3295.517333	1797.536133	-52.362362
22986.445532	3295.517333	1796.534180	-7.321362
22986.445532	3295.517333	1795.532227	-26.726919
22986.445532	3295.517333	1794.529297	175.585419
22986.445532	3295.517333	1793.527344	44.031727
22986.445532	3295.517333	1792.524414	10.211425
22986.445532	3295.517333	1791.521484	24.026415
22986.445532	3295.517333	1790.518555	90.217880
22986.445532	3295.517333	1789.514648	-105.696365
22986.445532	3295.517333	1788.511719	29.488213
22986.445532	3295.517333	1787.507813	-28.301186
22986.445532	3295.517333	1786.503906	75.787727
22986.445532	3295.517333	1785.500000	-29.671816
22986.445532	3295.517333	1784.496094	-58.972782
22986.445532	3295.517333	1783.491211	90.156349
22986.445532	3295.517333	1782.486328	234.432266
22986.445532	3295.517333	1781.481445	19.453630
22986.445532	3295.517333	1780.476563	-64.685822
22986.445532	3295.517333	1779.471680	107.956322
22986.445532	3295.517333	1778.465820	-99.862259
22986.445532	3295.517333	1777.460938	60.761055
22986.445532	3295.517333	1776.455078	-123.282433
22986.445532	3295.517333	1775.449219	-57.829468
22986.445532	3295.517333	1774.442383	9.932200
22986.445532	3295.517333	1773.436523	53.884968
22986.445532	3295.517333	1772.429688	88.280228
22986.445532	3295.517333	1771.422852	-7.947128
22986.445532	3295.517333	1770.416016	28.744938
22986.445532	3295.517333	1769.409180	10.802759
22986.445532	3295.517333	1768.402344	18.930489
22986.445532	3295.517333	1767.394531	-27.550074
22986.445532	3295.517333	1766.386719	158.385025
22986.445532	3295.517333	1765.378906	-42.315933
22986.445532	3295.517333	1764.371094	-39.082550
22986.445532	3295.517333	1763.362305	-61.967186
22986.445532	3295.517333	1762.354492	-32.736057
22986.445532	3295.517333	1761.345703	-27.253727
22986.445532	3295.517333	1760.336914	-64.455002
22986.445532	3295.517333	1759.328125	-54.306602
22986.445532	3295.517333	1758.318359	206.822571
22986.445532	3295.517333	1757.308594	-3.362545
22986.445532	3295.517333	1756.299805	77.674210
22986.445532	3295.517333	1755.290039	33.196789
22986.445532	3295.517333	1754.279297	-58.632698
22986.445532	3295.517333	1753.269531	-3.773194
22986.445532	3295.517333	1752.258789	-93.269524
22986.445532	3295.517333	1751.249023	34.818935
22986.445532	3295.517333	1750.238281	-7.433639
22986.445532	3295.517333	1749.226563	200.885864
22986.445532	3295.517333	1748.215820	141.999512
22986.445532	3295.517333	1747.204102	16.922724
22986.445532	3295.517333	1746.193359	-129.402573
22986.445532	3295.517333	1745.181641	85.722504
22986.445532	3295.517333	1744.168945	81.070450
22986.445532	3295.517333	1743.157227	142.508224
22986.445532	3295.517333	1742.144531	-15.689323
22986.445532	3295.517333	1741.132813	-39.307442
22986.445532	3295.517333	1740.120117	199.011627
22986.445532	3295.517333	1739.106445	73.815773
22986.445532	3295.517333	1738.093750	-89.108757
22986.445532	3295.517333	1737.080078	71.132713
22986.445532	3295.517333	1736.067383	-63.500603
22986.445532	3295.517333	1735.053711	-110.883667
22986.445532	3295.517333	1734.040039	-16.841940
22986.445532	3295.517333	1733.025391	-106.715767
22986.445532	3295.517333	1732.011719	147.461182
22986.445532	3295.517333	1730.997070	-55.568153
22986.445532	3295.517333	1729.982422	-72.464043
22986.445532	3295.517333	1728.967773	-58.771225
22986.445532	3295.517333	1727.952148	-12.158297
22986.445532	3295.517333	1726.937500	15.575754
22986.445532	3295.517333	1725.921875	36.198021
22986.445532	3295.517333	1724.906250	-131.486771
22986.445532	3295.517333	1723.890625	-33.266514
22986.445532	3295.517333	1722.875000	-48.032589
22986.445532	3295.517333	1721.858398	64.174179
22986.445532	3295.517333	1720.841797	11.698679
22986.445532	3295.517333	1719.825195	264.849731
22986.445532	3295.517333	1718.808594	47.746689
22986.445532	3295.517333	1717.791992	96.264778
22986.445532	3295.517333	1716.774414	172.922623
22986.445532	3295.517333	1715.756836	240.122894
22986.445532	3295.517333	1714.739258	286.125610
22986.445532	3295.517333	1713.721680	104.287422
22986.445532	3295.517333	1712.704102	223.021667
22986.445532	3295.517333	1711.685547	38.848820
22986.445532	3295.517333	1710.667969	-63.130730
22986.445532	3295.517333	1709.649414	139.944977
22986.445532	3295.517333	1708.630859	220.915344
22986.445532	3295.517333	1707.611328	-26.576221
22986.445532	3295.517333	1706.592773	216.154907
22986.445532	3295.517333	1705.573242	62.491001
22986.445532	3295.517333	1704.553711	94.057701
22986.445532	3295.517333	1703.534180	-8.017767
22986.445532	3295.517333	1702.513672	103.162788
22986.445532	3295.517333	1701.494141	211.935623
22986.445532	3295.517333	1700.473633	173.052856
22986.445532	3295.517333	1699.453125	49.841496
22986.445532	3295.517333	1698.432617	81.197311
22986.445532	3295.517333	1697.412109	224.890121
22986.445532	3295.517333	1696.390625	214.006470
22986.445532	3295.517333	1695.369141	303.731842
22986.445532	3295.517333	1694.347656	245.986435
22986.445532	3295.517333	1693.326172	267.775452
22986.445532	3295.517333	1692.304688	401.798401
22986.445532	3295.517333	1691.282227	145.212051
22986.445532	3295.517333	1690.260742	330.592438
22986.445532	3295.517333	1689.238281	190.946121
22986.445532	3295.517333	1688.214844	210.246994
22986.445532	3295.517333	1687.192383	189.798767
22986.445532	3295.517333	1686.168945	456.683075
22986.445532	3295.517333	1685.146484	562.278931
22986.445532	3295.517333	1684.123047	282.473541
22986.445532	3295.517333	1683.099609	518.761292
22986.445532	3295.517333	1682.075195	185.327118
22986.445532	3295.517333	1681.051758	367.814789
22986.445532	3295.517333	1680.027344	496.531372
22986.445532	3295.517333	1679.002930	361.538666
22986.445532	3295.517333	1677.978516	364.200287
22986.445532	3295.517333	1676.953125	518.425720
22986.445532	3295.517333	1675.928711	504.690948
22986.445532	3295.517333	1674.903320	402.345856
22986.445532	3295.517333	1673.877930	493.478699
22986.445532	3295.517333	1672.852539	719.717773
22986.445532	3295.517333	1671.826172	608.002747
22986.445532	3295.517333	1670.800781	708.301086
22986.445532	3295.517333	1669.774414	710.715271
22986.445532	3295.517333	1668.748047	545.450989
22986.445532	3295.517333	1667.721680	561.826965
22986.445532	3295.517333	1666.694336	841.200684
22986.445532	3295.517333	1665.667969	494.427490
22986.445532	3295.517333	1664.640625	627.082458
22986.445532	3295.517333	1663.613281	1052.788330
22986.445532	3295.517333	1662.585938	787.522949
22986.445532	3295.517333	1661.557617	899.057861
22986.445532	3295.517333	1660.530273	884.991760
22986.445532	3295.517333	1659.501953	757.005066
22986.445532	3295.517333	1658.473633	877.731201
22986.445532	3295.517333	1657.444336	805.525757
22986.445532	3295.517333	1656.416016	926.166138
22986.445532	3295.517333	1655.386719	1100.160767
22986.445532	3295.517333	1654.358398	1002.374146
22986.445532	3295.517333	1653.328125	930.136536
22986.445532	3295.517333	1652.298828	1094.704346
22986.445532	3295.517333	1651.269531	1078.161499
22986.445532	3295.517333	1650.239258	1182.271851
22986.445532	3295.517333	1649.208984	987.043823
22986.445532	3295.517333	1648.178711	1225.644897
22986.445532	3295.517333	1647.148438	1167.291260
22986.445532	3295.517333	1646.117188	1071.842285
22986.445532	3295.517333	1645.086914	1266.209351
22986.445532	3295.517333	1644.055664	1428.035645
22986.445532	3295.517333	1643.024414	1536.488892
22986.445532	3295.517333	1641.992188	1218.572998
22986.445532	3295.517333	1640.960938	1510.009033
22986.445532	3295.517333	1639.928711	1558.134277
22986.445532	3295.517333	1638.896484	1745.166626
22986.445532	3295.517333	1637.864258	1686.717529
22986.445532	3295.517333	1636.832031	1607.451660
22986.445532	3295.517333	1635.798828	1699.453979
22986.445532	3295.517333	1634.766602	1518.397583
22986.445532	3295.517333	1633.733398	1598.803467
22986.445532	3295.517333	1632.699219	1783.244263
22986.445532	3295.517333	1631.666016	1717.874756
22986.445532	3295.517333	1630.632813	1761.188110
22986.445532	3295.517333	1629.598633	1878.442017
22986.445532	3295.517333	1628.564453	1896.271118
22986.445532	3295.517333	1627.530273	1865.566528
22986.445532	3295.517333	1626.495117	2165.218750
22986.445532	3295.517333	1625.460938	1947.380615
22986.445532	3295.517333	1624.425781	2413.164063
22986.445532	3295.517333	1623.390625	2112.232666
22986.445532	3295.517333	1622.355469	2159.983643
22986.445532	3295.517333	1621.319336	2233.094727
22986.445532	3295.517333	1620.284180	2253.112061
22986.445532	3295.517333	1619.248047	2439.221924
22986.445532	3295.517333	1618.211914	2579.126953
22986.445532	3295.517333	1617.174805	2483.745361
22986.445532	3295.517333	1616.138672	2397.633301
22986.445532	3295.517333	1615.101563	2528.241211
22986.445532	3295.517333	1614.065430	2527.434814
22986.445532	3295.517333	1613.027344	2402.183105
22986.445532	3295.517333	1611.990234	2449.781494
22986.445532	3295.517333	1610.953125	2506.579834
22986.445532	3295.517333	1609.915039	2344.567139
22986.445532	3295.517333	1608.876953	2500.374512
22986.445532	3295.517333	1607.838867	2656.125244
22986.445532	3295.517333	1606.800781	2409.032471
22986.445532	3295.517333	1605.761719	2567.045898
22986.445532	3295.517333	1604.723633	2738.815918
22986.445532	3295.517333	1603.684570	2579.274902
22986.445532	3295.517333	1602.644531	2635.982910
22986.445532	3295.517333	1601.605469	2584.610840
22986.445532	3295.517333	1600.566406	2682.698730
22986.445532	3295.517333	1599.526367	2698.004150
22986.445532	3295.517333	1598.486328	2580.024414
22986.445532	3295.517333	1597.446289	2671.183838
22986.445532	3295.517333	1596.405273	2603.804932
22986.445532	3295.517333	1595.365234	2522.690674
22986.445532	3295.517333	1594.324219	2721.755615
22986.445532	3295.517333	1593.283203	2822.033936
22986.445532	3295.517333	1592.242188	2511.413574
22986.445532	3295.517333	1591.200195	2446.476318
22986.445532	3295.517333	1590.159180	2443.534912
22986.445532	3295.517333	1589.117188	2704.413818
22986.445532	3295.517333	1588.075195	2554.654053
22986.445532	3295.517333	1587.032227	2636.564941
22986.445532	3295.517333	1585.990234	2532.759033
22986.445532	3295.517333	1584.947266	2394.618164
22986.445532	3295.517333	1583.904297	2717.194580
22986.445532	3295.517333	1582.861328	2260.606934
22986.445532	3295.517333	1581.818359	2523.552002
22986.445532	3295.517333	1580.775391	2506.978516
22986.445532	3295.517333	1579.731445	2618.660156
22986.445532	3295.517333	1578.687500	2537.994873
22986.445532	3295.517333	1577.643555	2546.653320
22986.445532	3295.517333	1576.598633	2523.279297
22986.445532	3295.517333	1575.554688	2545.704102
22986.445532	3295.517333	1574.509766	2632.190430
22986.445532	3295.517333	1573.464844	2707.224609
22986.445532	3295.517333	1572.419922	2635.892090
22986.445532	3295.517333	1571.374023	2649.198486
22986.445532	3295.517333	1570.329102	2445.362549
22986.445532	3295.517333	1569.283203	2616.442871
22986.445532	3295.517333	1568.237305	2481.282227
22986.445532	3295.517333	1567.191406	2462.711182
22986.445532	3295.517333	1566.144531	2715.978516
22986.445532	3295.517333	1565.098633	2402.816650
22986.445532	3295.517333	1564.051758	2546.447266
22986.445532	3295.517333	1563.004883	2404.693848
22986.445532	3295.517333	1561.957031	2333.767822
22986.445532	3295.517333	1560.910156	2278.875000
22986.445532	3295.517333	1559.862305	2239.993408
22986.445532	3295.517333	1558.814453	2340.294678
22986.445532	3295.517333	1557.766602	2294.626953
22986.445532	3295.517333	1556.718750	2185.160889
22986.445532	3295.517333	1555.669922	2169.225098
22986.445532	3295.517333	1554.621094	2055.316650
22986.445532	3295.517333	1553.573242	2128.347656
22986.445532	3295.517333	1552.523438	2240.097900
22986.445532	3295.517333	1551.474609	2130.884766
22986.445532	3295.517333	1550.424805	2283.642822
22986.445532	3295.517333	1549.375000	2128.977295
22986.445532	3295.517333	1548.325195	2117.825195
22986.445532	3295.517333	1547.275391	2338.869385
22986.445532	3295.517333	1546.225586	2264.024658
22986.445532	3295.517333	1545.174805	2093.676514
22986.445532	3295.517333	1544.124023	2178.199951
22986.445532	3295.517333	1543.073242	2287.738770
22986.445532	3295.517333	1542.022461	2126.680176
22986.445532	3295.517333	1540.970703	2261.253906
22986.445532	3295.517333	1539.919922	2104.876465
22986.445532	3295.517333	1538.868164	1978.131348
22986.445532	3295.517333	1537.815430	2121.840332
22986.445532	3295.517333	1536.763672	1965.681274
22986.445532	3295.517333	1535.710938	1954.967285
22986.445532	3295.517333	1534.659180	2153.204346
22986.445532	3295.517333	1533.606445	1931.395020
22986.445532	3295.517333	1532.552734	1913.987305
22986.445532	3295.517333	1531.500000	1926.132324
22986.445532	3295.517333	1530.446289	1997.294800
22986.445532	3295.517333	1529.393555	1841.625854
22986.445532	3295.517333	1528.338867	1851.611572
22986.445532	3295.517333	1527.285156	1838.961792
22986.445532	3295.517333	1526.231445	1885.300415
22986.445532	3295.517333	1525.176758	1732.187988
22986.445532	3295.517333	1524.122070	1912.311890
22986.445532	3295.517333	1523.067383	1741.207520
22986.445532	3295.517333	1522.012695	1629.110718
22986.445532	3295.517333	1520.957031	1761.701172
22986.445532	3295.517333	1519.901367	1731.241211
22986.445532	3295.517333	1518.845703	1759.699219
22986.445532	3295.517333	1517.790039	1532.407227
22986.445532	3295.517333	1516.734375	1547.398926
22986.445532	3295.517333	1515.677734	1738.909058
22986.445532	3295.517333	1514.621094	1382.934204
22986.445532	3295.517333	1513.564453	1524.729370
22986.445532	3295.517333	1512.507813	1530.833984
22986.445532	3295.517333	1511.450195	1347.063110
22986.445532	3295.517333	1510.393555	1448.226318
22986.445532	3295.517333	1509.335938	1413.791992
22986.445532	3295.517333	1508.278320	1243.846313
22986.445532	3295.517333	1507.219727	1503.230591
22986.445532	3295.517333	1506.162109	1441.840210
22986.445532	3295.517333	1505.103516	1556.652710
22986.445532	3295.517333	1504.044922	1447.951294
22986.445532	3295.517333	1502.986328	1458.976318
22986.445532	3295.517333	1501.926758	1332.373291
22986.445532	3295.517333	1500.868164	1478.894287
22986.445532	3295.517333	1499.808594	1465.229492
22986.445532	3295.517333	1498.749023	1300.501343
22986.445532	3295.517333	1497.688477	1462.863403
22986.445532	3295.517333	1496.628906	1402.009766
22986.445532	3295.517333	1495.568359	1192.452148
22986.445532	3295.517333	1494.507813	1645.613647
22986.445532	3295.517333	1493.447266	1379.859985
22986.445532	3295.517333	1492.386719	1445.422852
22986.445532	3295.517333	1491.325195	1497.491943
22986.445532	3295.517333	1490.263672	1605.888916
22986.445532	3295.517333	1489.202148	1509.412720
22986.445532	3295.517333	1488.140625	1505.316772
22986.445532	3295.517333	1487.079102	1481.019043
22986.445532	3295.517333	1486.016602	1384.775269
22986.445532	3295.517333	1484.954102	1416.853760
22986.445532	3295.517333	1483.891602	1266.786133
22986.445532	3295.517333	1482.829102	1478.882202
22986.445532	3295.517333	1481.765625	1205.309692
22986.445532	3295.517333	1480.702148	1305.053833
22986.445532	3295.517333	1479.638672	1323.893066
22986.445532	3295.517333	1478.575195	1371.995605
22986.445532	3295.517333	1477.511719	1262.913452
22986.445532	3295.517333	1476.447266	1490.772705
22986.445532	3295.517333	1475.382813	1534.465332
22986.445532	3295.517333	1474.318359	1564.748413
22986.445532	3295.517333	1473.253906	1588.323486
22986.445532	3295.517333	1472.189453	1620.964844
22986.445532	3295.517333	1471.124023	1557.010010
22986.445532	3295.517333	1470.058594	1713.208008
22986.445532	3295.517333	1468.993164	1748.090454
22986.445532	3295.517333	1467.927734	1738.280518
22986.445532	3295.517333	1466.861328	1730.960205
22986.445532	3295.517333	1465.794922	1685.240967
22986.445532	3295.517333	1464.728516	1711.439331
22986.445532	3295.517333	1463.662109	1829.475464
22986.445532	3295.517333	1462.594727	1958.373413
22986.445532	3295.517333	1461.528320	1946.981079
22986.445532	3295.517333	1460.460938	2015.829956
22986.445532	3295.517333	1459.393555	1948.535767
22986.445532	3295.517333	1458.326172	1988.448486
22986.445532	3295.517333	1457.257813	2135.242920
22986.445532	3295.517333	1456.189453	2043.394775
22986.445532	3295.517333	1455.121094	2192.698486
22986.445532	3295.517333	1454.052734	2299.881348
22986.445532	3295.517333	1452.984375	2007.427490
22986.445532	3295.517333	1451.915039	2020.554321
22986.445532	3295.517333	1450.845703	2116.569092
22986.445532	3295.517333	1449.776367	2042.848389
22986.445532	3295.517333	1448.707031	2062.969971
22986.445532	3295.517333	1447.636719	2045.604858
22986.445532	3295.517333	1446.567383	1963.117920
22986.445532	3295.517333	1445.497070	1968.026611
22986.445532	3295.517333	1444.425781	1769.536255
22986.445532	3295.517333	1443.355469	2094.315918
22986.445532	3295.517333	1442.285156	2109.385742
22986.445532	3295.517333	1441.213867	2062.567627
22986.445532	3295.517333	1440.142578	2042.679443
22986.445532	3295.517333	1439.070313	1927.801514
22986.445532	3295.517333	1437.999023	2040.439941
22986.445532	3295.517333	1436.926758	1910.047607
22986.445532	3295.517333	1435.854492	1850.980225
22986.445532	3295.517333	1434.782227	1996.807373
22986.445532	3295.517333	1433.709961	1841.150146
22986.445532	3295.517333	1432.636719	1860.663086
22986.445532	3295.517333	1431.563477	1963.988525
22986.445532	3295.517333	1430.490234	1809.372070
22986.445532	3295.517333	1429.416992	1846.397339
22986.445532	3295.517333	1428.343750	1899.992432
22986.445532	3295.517333	1427.269531	1794.801270
22986.445532	3295.517333	1426.195313	1708.802979
22986.445532	3295.517333	1425.121094	1775.547607
22986.445532	3295.517333	1424.046875	1692.898193
22986.445532	3295.517333	1422.971680	1558.315674
22986.445532	3295.517333	1421.896484	1630.111816
22986.445532	3295.517333	1420.821289	1664.357056
22986.445532	3295.517333	1419.746094	1712.439941
22986.445532	3295.517333	1418.669922	1790.177002
22986.445532	3295.517333	1417.594727	1521.096802
22986.445532	3295.517333	1416.518555	1535.883545
22986.445532	3295.517333	1415.442383	1793.904785
22986.445532	3295.517333	1414.365234	1446.330444
22986.445532	3295.517333	1413.289063	1483.473755
22986.445532	3295.517333	1412.211914	1442.151611
22986.445532	3295.517333	1411.134766	1699.666382
22986.445532	3295.517333	1410.057617	1569.128418
22986.445532	3295.517333	1408.979492	1602.429932
22986.445532	3295.517333	1407.902344	1674.348145
22986.445532	3295.517333	1406.824219	1665.504272
22986.445532	3295.517333	1405.746094	1555.404663
22986.445532	3295.517333	1404.666992	1877.333008
22986.445532	3295.517333	1403.588867	1903.956055
22986.445532	3295.517333	1402.509766	1830.598511
22986.445532	3295.517333	1401.430664	1853.376587
22986.445532	3295.517333	1400.351563	1719.942627
22986.445532	3295.517333	1399.271484	1503.065308
22986.445532	3295.517333	1398.192383	1820.307983
22986.445532	3295.517333	1397.112305	1811.448853
22986.445532	3295.517333	1396.031250	1838.360352
22986.445532	3295.517333	1394.951172	1845.221558
22986.445532	3295.517333	1393.871094	1612.602905
22986.445532	3295.517333	1392.790039	1631.435425
22986.445532	3295.517333	1391.708984	1772.541870
22986.445532	3295.517333	1390.626953	1689.424683
22986.445532	3295.517333	1389.545898	1828.128784
22986.445532	3295.517333	1388.463867	1543.014404
22986.445532	3295.517333	1387.381836	1608.443359
22986.445532	3295.517333	1386.299805	1857.502319
22986.445532	3295.517333	1385.217773	1770.184448
22986.445532	3295.517333	1384.134766	1831.258911
22986.445532	3295.517333	1383.051758	1695.735718
22986.445532	3295.517333	1381.968750	1820.259155
22986.445532	3295.517333	1380.885742	1860.186768
22986.445532	3295.517333	1379.802734	1801.791626
22986.445532	3295.517333	1378.718750	1891.340332
22986.445532	3295.517333	1377.634766	1608.173706
22986.445532	3295.517333	1376.550781	1752.742676
22986.445532	3295.517333	1375.465820	1874.340454
22986.445532	3295.517333	1374.381836	1989.851074
22986.445532	3295.517333	1373.296875	1896.012207
22986.445532	3295.517333	1372.211914	1709.221069
22986.445532	3295.517333	1371.126953	1755.332886
22986.445532	3295.517333	1370.041016	1885.905640
22986.445532	3295.517333	1368.955078	1932.807983
22986.445532	3295.517333	1367.869141	1998.457520
22986.445532	3295.517333	1366.783203	1783.476196
22986.445532	3295.517333	1365.697266	1873.400146
22986.445532	3295.517333	1364.610352	1790.077515
22986.445532	3295.517333	1363.523438	1768.490845
22986.445532	3295.517333	1362.436523	1859.266846
22986.445532	3295.517333	1361.349609	1861.408325
22986.445532	3295.517333	1360.261719	1768.701294
22986.445532	3295.517333	1359.174805	1808.844604
22986.445532	3295.517333	1358.086914	1780.607910
22986.445532	3295.517333	1356.998047	1848.536011
22986.445532	3295.517333	1355.910156	1864.483765
22986.445532	3295.517333	1354.821289	1883.137939
22986.445532	3295.517333	1353.732422	1852.810791
22986.445532	3295.517333	1352.643555	1648.637573
22986.445532	3295.517333	1351.554688	1779.912109
22986.445532	3295.517333	1350.464844	1846.366333
22986.445532	3295.517333	1349.375000	1712.089233
22986.445532	3295.517333	1348.285156	1570.124512
22986.445532	3295.517333	1347.195313	1657.597046
22986.445532	3295.517333	1346.105469	1841.864868
22986.445532	3295.517333	1345.014648	1664.699219
22986.445532	3295.517333	1343.923828	1616.918335
22986.445532	3295.517333	1342.833008	1638.990845
22986.445532	3295.517333	1341.741211	1517.361694
22986.445532	3295.517333	1340.650391	1754.245483
22986.445532	3295.517333	1339.558594	1542.694946
22986.445532	3295.517333	1338.466797	1671.211548
22986.445532	3295.517333	1337.374023	1671.935059
22986.445532	3295.517333	1336.282227	1653.835449
22986.445532	3295.517333	1335.189453	1568.494019
22986.445532	3295.517333	1334.096680	1713.914185
22986.445532	3295.517333	1333.003906	1612.262573
22986.445532	3295.517333	1331.910156	1456.157715
22986.445532	3295.517333	1330.817383	1508.047485
22986.445532	3295.517333	1329.723633	1394.780273
22986.445532	3295.517333	1328.629883	1548.135620
22986.445532	3295.517333	1327.535156	1416.175537
22986.445532	3295.517333	1326.441406	1438.396240
22986.445532	3295.517333	1325.346680	1422.953369
22986.445532	3295.517333	1324.251953	1277.034302
22986.445532	3295.517333	1323.156250	1384.032227
22986.445532	3295.517333	1322.061523	1456.689209
22986.445532	3295.517333	1320.965820	1332.777344
22986.445532	3295.517333	1319.870117	1386.395020
22986.445532	3295.517333	1318.774414	1394.501831
22986.445532	3295.517333	1317.678711	1264.691162
22986.445532	3295.517333	1316.582031	1382.984619
22986.445532	3295.517333	1315.485352	1296.458618
22986.445532	3295.517333	1314.388672	1298.225342
22986.445532	3295.517333	1313.291016	1415.849121
22986.445532	3295.517333	1312.194336	1338.815552
22986.445532	3295.517333	1311.096680	1425.145264
22986.445532	3295.517333	1309.999023	1257.724487
22986.445532	3295.517333	1308.901367	1260.356567
22986.445532	3295.517333	1307.802734	1242.695801
22986.445532	3295.517333	1306.705078	1457.320313
22986.445532	3295.517333	1305.606445	1246.127930
22986.445532	3295.517333	1304.506836	1173.457520
22986.445532	3295.517333	1303.408203	1125.170654
22986.445532	3295.517333	1302.308594	1247.473511
22986.445532	3295.517333	1301.208984	1209.034912
22986.445532	3295.517333	1300.109375	1309.611450
22986.445532	3295.517333	1299.009766	1220.098145
22986.445532	3295.517333	1297.909180	1204.941895
22986.445532	3295.517333	1296.808594	1187.704956
22986.445532	3295.517333	1295.708008	1278.631226
22986.445532	3295.517333	1294.607422	1046.594238
22986.445532	3295.517333	1293.506836	974.406189
22986.445532	3295.517333	1292.405273	928.365540
22986.445532	3295.517333	1291.303711	966.415405
22986.445532	3295.517333	1290.202148	977.295532
22986.445532	3295.517333	1289.099609	901.883667
22986.445532	3295.517333	1287.998047	981.667480
22986.445532	3295.517333	1286.895508	903.004333
22986.445532	3295.517333	1285.792969	826.357605
22986.445532	3295.517333	1284.689453	824.389282
22986.445532	3295.517333	1283.586914	718.150146
22986.445532	3295.517333	1282.483398	892.039856
22986.445532	3295.517333	1281.379883	855.016785
22986.445532	3295.517333	1280.276367	834.271912
22986.445532	3295.517333	1279.171875	681.894165
22986.445532	3295.517333	1278.067383	610.180664
22986.445532	3295.517333	1276.962891	715.023499
22986.445532	3295.517333	1275.858398	711.741638
22986.445532	3295.517333	1274.753906	646.437256
22986.445532	3295.517333	1273.648438	541.919189
22986.445532	3295.517333	1272.542969	699.059448
22986.445532	3295.517333	1271.437500	714.068665
22986.445532	3295.517333	1270.331055	562.286011
22986.445532	3295.517333	1269.225586	651.478149
22986.445532	3295.517333	1268.119141	544.984070
22986.445532	3295.517333	1267.012695	578.882751
22986.445532	3295.517333	1265.906250	504.464813
22986.445532	3295.517333	1264.798828	474.544189
22986.445532	3295.517333	1263.691406	597.161621
22986.445532	3295.517333	1262.583984	533.956299
22986.445532	3295.517333	1261.476563	624.068542
22986.445532	3295.517333	1260.368164	610.499878
22986.445532	3295.517333	1259.260742	532.065186
22986.445532	3295.517333	1258.152344	563.542603
22986.445532	3295.517333	1257.043945	551.003906
22986.445532	3295.517333	1255.934570	582.092407
22986.445532	3295.517333	1254.825195	646.714722
22986.445532	3295.517333	1253.716797	584.967957
22986.445532	3295.517333	1252.606445	501.753662
22986.445532	3295.517333	1251.497070	368.979004
22986.445532	3295.517333	1250.387695	340.992340
22986.445532	3295.517333	1249.277344	419.794647
22986.445532	3295.517333	1248.166992	390.498474
22986.445532	3295.517333	1247.055664	265.612549
22986.445532	3295.517333	1245.945313	197.004822
22986.445532	3295.517333	1244.833984	126.178627
22986.445532	3295.517333	1243.722656	148.132172
22986.445532	3295.517333	1242.611328	153.136520
22986.445532	3295.517333	1241.499023	124.080406
22986.445532	3295.517333	1240.387695	52.492680
22986.445532	3295.517333	1239.275391	87.322212
22986.445532	3295.517333	1238.162109	70.217079
22986.445532	3295.517333	1237.049805	18.130781
22986.445532	3295.517333	1235.936523	88.920525
22986.445532	3295.517333	1234.823242	-11.766267
22986.445532	3295.517333	1233.709961	-12.413423
22986.445532	3295.517333	1232.596680	67.398552
22986.445532	3295.517333	1231.482422	-55.274410
22986.445532	3295.517333	1230.369141	121.539513
22986.445532	3295.517333	1229.253906	-71.357170
22986.445532	3295.517333	1228.139648	-74.678955
22986.445532	3295.517333	1227.025391	54.777554
22986.445532	3295.517333	1225.910156	-106.158165
22986.445532	3295.517333	1224.794922	-121.335930
22986.445532	3295.517333	1223.679688	-58.275715
22986.445532	3295.517333	1222.563477	-46.919483
22986.445532	3295.517333	1221.447266	-52.291912
22986.445532	3295.517333	1220.331055	84.588005
22986.445532	3295.517333	1219.214844	112.902466
22986.445532	3295.517333	1218.098633	-5.002289
22986.445532	3295.517333	1216.981445	-30.828890
22986.445532	3295.517333	1215.864258	90.915482
22986.445532	3295.517333	1214.747070	0.486258
22986.445532	3295.517333	1213.629883	-142.393356
22986.445532	3295.517333	1212.511719	-22.241381
22986.445532	3295.517333	1211.393555	57.791405
22986.445532	3295.517333	1210.275391	71.045387
22986.445532	3295.517333	1209.157227	164.081665
22986.445532	3295.517333	1208.038086	70.282677
22986.445532	3295.517333	1206.918945	-9.968247
22986.445532	3295.517333	1205.799805	21.801123
22986.445532	3295.517333	1204.680664	129.404816
22986.445532	3295.517333	1203.560547	2.554411
22986.445532	3295.517333	1202.441406	48.190723
22986.445532	3295.517333	1201.321289	-6.167932
22986.445532	3295.517333	1200.200195	-156.781708
22986.445532	3295.517333	1199.080078	-157.067276
22986.445532	3295.517333	1197.958984	-25.983799
22986.445532	3295.517333	1196.837891	-46.216381
22986.445532	3295.517333	1195.716797	-40.805481
22986.445532	3295.517333	1194.594727	-79.930077
22986.445532	3295.517333	1193.473633	95.208916
22986.445532	3295.517333	1192.351563	-52.822193
22986.445532	3295.517333	1191.229492	-96.174370
22986.445532	3295.517333	1190.106445	-70.519730
22986.445532	3295.517333	1188.984375	85.863625
22986.445532	3295.517333	1187.861328	49.436581
22986.445532	3295.517333	1186.738281	25.408503
22986.445532	3295.517333	1185.614258	92.300659
22986.445532	3295.517333	1184.491211	41.177689
22986.445532	3295.517333	1183.367188	47.596210
22986.445532	3295.517333	1182.243164	98.962852
22986.445532	3295.517333	1181.119141	96.071152
22986.445532	3295.517333	1179.994141	86.212906
22986.445532	3295.517333	1178.869141	-25.091986
22986.445532	3295.517333	1177.744141	35.890446
22986.445532	3295.517333	1176.619141	51.191048
22986.445532	3295.517333	1175.493164	124.383858
22986.445532	3295.517333	1174.368164	55.271751
22986.445532	3295.517333	1173.242188	-35.417690
22986.445532	3295.517333	1172.115234	-36.849899
22986.445532	3295.517333	1170.989258	118.917641
22986.445532	3295.517333	1169.862305	-78.245872
22986.445532	3295.517333	1168.735352	60.251709
22986.445532	3295.517333	1167.608398	3.868989
22986.445532	3295.517333	1166.481445	84.631943
22986.445532	3295.517333	1165.353516	-74.896133
22986.445532	3295.517333	1164.225586	-143.239273
22986.445532	3295.517333	1163.097656	-27.194731
22986.445532	3295.517333	1161.968750	-31.884762
22986.445532	3295.517333	1160.840820	-6.440047
22986.445532	3295.517333	1159.711914	-101.245316
22986.445532	3295.517333	1158.583008	-57.295300
22986.445532	3295.517333	1157.453125	-111.661469
22986.445532	3295.517333	1156.324219	28.955221
22986.445532	3295.517333	1155.194336	-108.780190
22986.445532	3295.517333	1154.064453	90.997955
22986.445532	3295.517333	1152.933594	-120.333595
22986.445532	3295.517333	1151.803711	-105.443527
22986.445532	3295.517333	1150.672852	31.685717
22986.445532	3295.517333	1149.541992	-134.491333
22986.445532	3295.517333	1148.411133	9.689045
22986.445532	3295.517333	1147.279297	27.576220
22986.445532	3295.517333	1146.147461	19.632578
22986.445532	3295.517333	1145.015625	-114.044579
22986.445532	3295.517333	1143.883789	73.739700
22986.445532	3295.517333	1142.750977	123.071121
22986.445532	3295.517333	1141.619141	50.453983
22986.445532	3295.517333	1140.486328	83.308075
22986.445532	3295.517333	1139.352539	53.805862
22986.445532	3295.517333	1138.219727	33.081612
22986.445532	3295.517333	1137.085938	88.922234
22986.445532	3295.517333	1135.952148	48.253086
22986.445532	3295.517333	1134.818359	89.749619
22986.445532	3295.517333	1133.683594	151.047272
22986.445532	3295.517333	1132.549805	182.274536
22986.445532	3295.517333	1131.415039	171.690903
22986.445532	3295.517333	1130.279297	257.414154
22986.445532	3295.517333	1129.144531	202.686188
22986.445532	3295.517333	1128.008789	321.220490
22986.445532	3295.517333	1126.873047	294.711090
22986.445532	3295.517333	1125.737305	258.302216
22986.445532	3295.517333	1124.601563	126.452507
22986.445532	3295.517333	1123.464844	230.966263
22986.445532	3295.517333	1122.328125	34.522915
22986.445532	3295.517333	1121.191406	30.783285
22986.445532	3295.517333	1120.054688	62.198235
22986.445532	3295.517333	1118.916992	15.068105
22986.445532	3295.517333	1117.779297	78.690552
22986.445532	3295.517333	1116.641602	80.100418
22986.445532	3295.517333	1115.503906	-11.977968
22986.445532	3295.517333	1114.365234	-21.801950
22986.445532	3295.517333	1113.226563	-9.757394
22986.445532	3295.517333	1112.087891	-37.324081
22986.445532	3295.517333	1110.949219	-210.244492
22986.445532	3295.517333	1109.809570	-36.588520
22986.445532	3295.517333	1108.669922	4.591056
22986.445532	3295.517333	1107.530273	-77.719719
22986.445532	3295.517333	1106.390625	-54.846329
22986.445532	3295.517333	1105.250000	16.199884
22986.445532	3295.517333	1104.109375	131.832016
22986.445532	3295.517333	1102.968750	153.480484
22986.445532	3295.517333	1101.828125	118.537560
22986.445532	3295.517333	1100.686523	69.232086
22986.445532	3295.517333	1099.544922	145.381546
22986.445532	3295.517333	1098.403320	250.857727
22986.445532	3295.517333	1097.261719	207.439697
22986.445532	3295.517333	1096.120117	303.003143
22986.445532	3295.517333	1094.977539	230.729965
22986.445532	3295.517333	1093.834961	337.400604
22986.445532	3295.517333	1092.691406	312.778961
22986.445532	3295.517333	1091.548828	224.110931
22986.445532	3295.517333	1090.405273	258.125641
22986.445532	3295.517333	1089.261719	196.906403
22986.445532	3295.517333	1088.118164	211.283051
22986.445532	3295.517333	1086.973633	111.089668
22986.445532	3295.517333	1085.829102	151.649857
22986.445532	3295.517333	1084.684570	178.667511
22986.445532	3295.517333	1083.540039	61.556419
22986.445532	3295.517333	1082.395508	-5.986347
22986.445532	3295.517333	1081.250000	49.589985
22986.445532	3295.517333	1080.104492	3.383551
22986.445532	3295.517333	1078.958984	-2.484771
22986.445532	3295.517333	1077.812500	144.642181
22986.445532	3295.517333	1076.666016	76.519867
22986.445532	3295.517333	1075.519531	8.771097
22986.445532	3295.517333	1074.373047	43.005047
22986.445532	3295.517333	1073.226563	71.198074
22986.445532	3295.517333	1072.079102	141.385162
22986.445532	3295.517333	1070.931641	106.288689
22986.445532	3295.517333	1069.784180	-43.217525
22986.445532	3295.517333	1068.635742	58.716873
22986.445532	3295.517333	1067.487305	24.703979
22986.445532	3295.517333	1066.338867	93.796333
22986.445532	3295.517333	1065.190430	108.282814
22986.445532	3295.517333	1064.041992	-6.268417
22986.445532	3295.517333	1062.892578	97.998756
22986.445532	3295.517333	1061.743164	266.222931
22986.445532	3295.517333	1060.593750	95.825790
22986.445532	3295.517333	1059.443359	95.260063
22986.445532	3295.517333	1058.292969	65.424187
22986.445532	3295.517333	1057.142578	-33.212280
22986.445532	3295.517333	1055.992188	87.612198
22986.445532	3295.517333	1054.841797	45.111828
22986.445532	3295.517333	1053.690430	97.989685
22986.445532	3295.517333	1052.539063	26.609697
22986.445532	3295.517333	1051.387695	87.734383
22986.445532	3295.517333	1050.235352	-129.342407
22986.445532	3295.517333	1049.083984	-36.805523
22986.445532	3295.517333	1047.931641	2.991921
22986.445532	3295.517333	1046.778320	42.721577
22986.445532	3295.517333	1045.625977	71.077652
22986.445532	3295.517333	1044.472656	52.587765
22986.445532	3295.517333	1043.319336	7.633624
22986.445532	3295.517333	1042.166016	49.874275
22986.445532	3295.517333	1041.012695	206.497070
22986.445532	3295.517333	1039.858398	171.749756
22986.445532	3295.517333	1038.704102	207.929657
22986.445532	3295.517333	1037.549805	237.106506
22986.445532	3295.517333	1036.394531	133.331146
22986.445532	3295.517333	1035.239258	45.216465
22986.445532	3295.517333	1034.083984	24.348770
22986.445532	3295.517333	1032.928711	157.640045
22986.445532	3295.517333	1031.773438	52.063316
22986.445532	3295.517333	1030.617188	34.209362
22986.445532	3295.517333	1029.460938	-19.880564
22986.445532	3295.517333	1028.304688	-39.471222
22986.445532	3295.517333	1027.147461	9.022228
22986.445532	3295.517333	1025.991211	11.837466
22986.445532	3295.517333	1024.833984	37.535366
22986.445532	3295.517333	1023.675781	-12.873034
22986.445532	3295.517333	1022.518555	-118.098602
22986.445532	3295.517333	1021.360352	-49.217346
22986.445532	3295.517333	1020.202148	-149.194107
22986.445532	3295.517333	1019.043945	-50.116890
22986.445532	3295.517333	1017.884766	-26.963552
22986.445532	3295.517333	1016.726563	-296.858246
22986.445532	3295.517333	1015.567383	-148.377258
22986.445532	3295.517333	1014.407227	-32.487564
22986.445532	3295.517333	1013.248047	-8.544079
22986.445532	3295.517333	1012.087891	-101.168198
22986.445532	3295.517333	1010.927734	80.332245
22986.445532	3295.517333	1009.767578	31.122187
22986.445532	3295.517333	1008.606445	22.612700
22986.445532	3295.517333	1007.446289	-59.903362
22986.445532	3295.517333	1006.285156	15.735037
22986.445532	3295.517333	1005.123047	54.712303
22986.445532	3295.517333	1003.961914	51.421577
22986.445532	3295.517333	1002.799805	152.541794
22986.445532	3295.517333	1001.637695	115.081749
22986.445532	3295.517333	1000.475586	119.235718
22986.445532	3295.517333	999.312500	44.212391
22986.445532	3295.517333	998.149414	177.467438
22986.445532	3295.517333	996.986328	65.885094
22986.445532	3295.517333	995.823242	185.113251
22986.445532	3295.517333	994.659180	268.776947
22986.445532	3295.517333	993.496094	5.881750
22986.445532	3295.517333	992.332031	124.309143
22986.445532	3295.517333	991.166992	-101.121666
22986.445532	3295.517333	990.002930	176.224426
22986.445532	3295.517333	988.837891	78.035393
22986.445532	3295.517333	987.672852	129.333130
22986.445532	3295.517333	986.506836	36.513996
22986.445532	3295.517333	985.341797	2.105915
22986.445532	3295.517333	984.175781	65.528076
22986.445532	3295.517333	983.009766	-176.869873
22986.445532	3295.517333	981.843750	22.302673
22986.445532	3295.517333	980.676758	-11.762200
22986.445532	3295.517333	979.509766	-139.099503
22986.445532	3295.517333	978.342773	-32.828880
22986.445532	3295.517333	977.175781	-100.548035
22986.445532	3295.517333	976.007813	-100.437553
22986.445532	3295.517333	974.839844	61.932549
22986.445532	3295.517333	973.671875	81.814667
22986.445532	3295.517333	972.503906	1.657030
22986.445532	3295.517333	971.334961	-17.452030
22986.445532	3295.517333	970.166016	-66.958389
22986.445532	3295.517333	968.997070	-111.485115
22986.445532	3295.517333	967.828125	-33.054695
22986.445532	3295.517333	966.658203	20.559765
22986.445532	3295.517333	965.488281	-112.479576
22986.445532	3295.517333	964.318359	-48.346073
22986.445532	3295.517333	963.148438	60.721977
22986.445532	3295.517333	961.977539	119.777992
22986.445532	3295.517333	960.806641	-13.520608
22986.445532	3295.517333	959.635742	-115.273933
22986.445532	3295.517333	958.463867	-127.283157
22986.445532	3295.517333	957.292969	130.653107
22986.445532	3295.517333	956.121094	-53.784775
22986.445532	3295.517333	954.948242	-14.607162
22986.445532	3295.517333	953.776367	31.370909
22986.445532	3295.517333	952.603516	2.304723
22986.445532	3295.517333	951.430664	14.249907
22986.445532	3295.517333	950.257813	169.341217
22986.445532	3295.517333	949.084961	-40.053181
22986.445532	3295.517333	947.911133	-88.088745
22986.445532	3295.517333	946.737305	-57.527576
22986.445532	3295.517333	945.563477	0.799259
22986.445532	3295.517333	944.388672	27.436419
22986.445532	3295.517333	943.213867	21.739565
22986.445532	3295.517333	942.039063	236.873734
22986.445532	3295.517333	940.864258	166.723190
22986.445532	3295.517333	939.688477	126.457977
22986.445532	3295.517333	938.513672	15.276572
22986.445532	3295.517333	937.337891	86.506783
22986.445532	3295.517333	936.161133	215.778885
22986.445532	3295.517333	934.985352	164.652405
22986.445532	3295.517333	933.808594	195.130753
22986.445532	3295.517333	932.631836	66.745155
22986.445532	3295.517333	931.454102	206.369034
22986.445532	3295.517333	930.277344	333.119781
22986.445532	3295.517333	929.099609	215.372147
22986.445532	3295.517333	927.921875	157.697525
22986.445532	3295.517333	926.743164	271.389130
22986.445532	3295.517333	925.565430	108.637383
22986.445532	3295.517333	924.386719	348.629242
22986.445532	3295.517333	923.208008	149.447968
22986.445532	3295.517333	922.028320	322.887634
22986.445532	3295.517333	920.849609	8.106663
22986.445532	3295.517333	919.669922	11.715128
22986.445532	3295.517333	919.474609	177.749802
22986.445532	3295.517333	918.309570	8.522335
22986.445532	3295.517333	917.143555	6.215895
22986.445532	3295.517333	915.977539	-98.805298
22986.445532	3295.517333	914.810547	-4.919249
22986.445532	3295.517333	913.644531	-15.886554
22986.445532	3295.517333	912.477539	-112.396385
22986.445532	3295.517333	911.310547	139.490326
22986.445532	3295.517333	910.143555	-19.058470
22986.445532	3295.517333	908.975586	-75.024437
22986.445532	3295.517333	907.807617	-4.975268
22986.445532	3295.517333	906.639648	-56.724430
22986.445532	3295.517333	905.471680	102.896049
22986.445532	3295.517333	904.303711	-138.924377
22986.445532	3295.517333	903.134766	-150.171463
22986.445532	3295.517333	901.965820	15.662966
22986.445532	3295.517333	900.796875	59.783978
22986.445532	3295.517333	899.626953	78.256020
22986.445532	3295.517333	898.457031	71.091255
22986.445532	3295.517333	897.287109	134.253555
22986.445532	3295.517333	896.117188	-11.557861
22986.445532	3295.517333	894.947266	-10.287320
22986.445532	3295.517333	893.776367	91.098206
22986.445532	3295.517333	892.605469	-12.117472
22986.445532	3295.517333	891.434570	72.111542
22986.445532	3295.517333	890.262695	49.792797
22986.445532	3295.517333	889.091797	199.902390
22986.445532	3295.517333	887.919922	11.452440
22986.445532	3295.517333	886.748047	148.665390
22986.445532	3295.517333	885.575195	64.493004
22986.445532	3295.517333	884.403320	-11.175292
22986.445532	3295.517333	883.230469	-57.071770
22986.445532	3295.517333	882.057617	62.881611
22986.445532	3295.517333	880.883789	112.589104
22986.445532	3295.517333	879.710938	-18.443869
22986.445532	3295.517333	878.537109	-36.823376
22986.445532	3295.517333	877.362305	0.013473
22986.445532	3295.517333	876.188477	64.411156
22986.445532	3295.517333	875.013672	24.675034
22986.445532	3295.517333	873.839844	133.558395
22986.445532	3295.517333	872.664063	-44.248524
22986.445532	3295.517333	871.489258	81.510811
22986.445532	3295.517333	870.313477	88.339760
22986.445532	3295.517333	869.138672	209.700851
22986.445532	3295.517333	867.962891	63.690063
22986.445532	3295.517333	866.786133	57.680359
22986.445532	3295.517333	865.610352	24.067074
22986.445532	3295.517333	864.433594	-11.688762
22986.445532	3295.517333	863.256836	-13.555967
22986.445532	3295.517333	862.079102	18.447325
22986.445532	3295.517333	860.902344	-17.401459
22986.445532	3295.517333	859.724609	181.855042
22986.445532	3295.517333	858.546875	-42.575111
22986.445532	3295.517333	857.368164	37.954857
22986.445532	3295.517333	856.190430	-34.009789
22986.445532	3295.517333	855.011719	90.854752
22986.445532	3295.517333	853.833008	-46.766293
22986.445532	3295.517333	852.654297	141.442032
22986.445532	3295.517333	851.474609	-0.440094
22986.445532	3295.517333	850.294922	45.913799
22986.445532	3295.517333	849.115234	77.409454
22986.445532	3295.517333	847.935547	53.891102
22986.445532	3295.517333	846.754883	144.472504
22986.445532	3295.517333	845.575195	114.532524
22986.445532	3295.517333	844.393555	133.157974
22986.445532	3295.517333	843.212891	20.780561
22986.445532	3295.517333	842.032227	210.389999
22986.445532	3295.517333	840.850586	131.746368
22986.445532	3295.517333	839.668945	31.986475
22986.445532	3295.517333	838.486328	20.868382
22986.445532	3295.517333	837.304688	56.134666
22986.445532	3295.517333	836.122070	144.087585
22986.445532	3295.517333	834.939453	-19.023642
22986.445532	3295.517333	833.756836	121.547073
22986.445532	3295.517333	832.573242	186.123062
22986.445532	3295.517333	831.389648	126.270058
22986.445532	3295.517333	830.206055	-20.001699
22986.445532	3295.517333	829.022461	71.835602
22986.445532	3295.517333	827.838867	-21.780548
22986.445532	3295.517333	826.654297	23.605835
22986.445532	3295.517333	825.469727	96.307220
22986.445532	3295.517333	824.284180	69.992920
22986.445532	3295.517333	823.099609	98.374046
22986.445532	3295.517333	821.914063	-33.228394
22986.445532	3295.517333	820.728516	190.748688
22986.445532	3295.517333	819.542969	-71.315804
22986.445532	3295.517333	818.356445	-1.026668
22986.445532	3295.517333	817.169922	195.350662
22986.445532	3295.517333	815.983398	97.299103
22986.445532	3295.517333	814.796875	79.114517
22986.445532	3295.517333	813.609375	100.822357
22986.445532	3295.517333	812.422852	158.196854
22986.445532	3295.517333	811.235352	110.483208
22986.445532	3295.517333	810.046875	8.148602
22986.445532	3295.517333	808.859375	-24.897789
22986.445532	3295.517333	807.670898	-22.285452
22986.445532	3295.517333	806.482422	-118.354713
22986.445532	3295.517333	805.293945	1.699105
22986.445532	3295.517333	804.104492	39.846012
22986.445532	3295.517333	802.915039	235.243347
22986.445532	3295.517333	801.725586	99.194313
22986.445532	3295.517333	800.536133	122.499191
22986.445532	3295.517333	799.345703	162.521912
22986.445532	3295.517333	798.155273	78.841820
22986.445532	3295.517333	796.964844	93.632240
22986.445532	3295.517333	795.774414	-4.745022
22986.445532	3295.517333	794.583008	3.691018
22986.445532	3295.517333	793.392578	-25.608583
22986.445532	3295.517333	792.200195	14.148167
22986.445532	3295.517333	791.008789	55.941231
22986.445532	3295.517333	789.816406	-119.961426
22986.445532	3295.517333	788.625000	80.767990
22986.445532	3295.517333	787.432617	-63.772121
22986.445532	3295.517333	786.239258	40.576340
22986.445532	3295.517333	785.046875	-34.978271
22986.445532	3295.517333	783.853516	-185.801117
22986.445532	3295.517333	782.660156	75.137772
22986.445532	3295.517333	781.465820	-63.191715
22986.445532	3295.517333	780.272461	24.128040
22986.445532	3295.517333	779.078125	15.286290
22986.445532	3295.517333	777.883789	52.349770
22986.445532	3295.517333	776.688477	-117.345062
22986.445532	3295.517333	775.494141	-32.341259
22986.445532	3295.517333	774.298828	-60.114376
22986.445532	3295.517333	773.103516	-71.224976
22986.445532	3295.517333	771.907227	-13.531074
22986.445532	3295.517333	770.711914	-35.158939
22986.445532	3295.517333	769.515625	22.420492
22986.445532	3295.517333	768.318359	73.678329
22986.445532	3295.517333	767.122070	208.250702
22986.445532	3295.517333	765.924805	-101.164574
22986.445532	3295.517333	764.727539	22.885855
22986.445532	3295.517333	763.530273	-42.721035
22986.445532	3295.517333	762.333008	-41.696651
22986.445532	3295.517333	761.134766	-30.304554
22986.445532	3295.517333	759.936523	-43.940861
22986.445532	3295.517333	758.738281	56.862717
22986.445532	3295.517333	757.540039	9.835217
22986.445532	3295.517333	756.340820	-126.678650
22986.445532	3295.517333	755.141602	152.839203
22986.445532	3295.517333	753.942383	37.065071
22986.445532	3295.517333	752.742188	110.504723
22986.445532	3295.517333	751.541992	142.295975
22986.445532	3295.517333	750.341797	105.446686
22986.445532	3295.517333	749.141602	120.518906
22986.445532	3295.517333	747.941406	60.753906
22986.445532	3295.517333	746.740234	-77.957947
22986.445532	3295.517333	745.539063	-48.447899
22986.445532	3295.517333	744.337891	-21.067936
22986.445532	3295.517333	743.135742	72.681107
22986.445532	3295.517333	741.933594	31.453438
22986.445532	3295.517333	740.731445	-55.445690
22986.445532	3295.517333	739.529297	19.456448
22986.445532	3295.517333	738.326172	121.246300
22986.445532	3295.517333	737.124023	-56.979794
22986.445532	3295.517333	735.919922	71.649094
22986.445532	3295.517333	734.716797	59.240223
22986.445532	3295.517333	733.513672	44.723289
22986.445532	3295.517333	732.309570	119.257843
22986.445532	3295.517333	731.105469	195.791870
22986.445532	3295.517333	729.900391	13.377461
22986.445532	3295.517333	728.696289	35.984455
22986.445532	3295.517333	727.491211	108.222244
22986.445532	3295.517333	726.286133	21.022371
22986.445532	3295.517333	725.080078	-101.361557
22986.445532	3295.517333	723.874023	74.175423
22986.445532	3295.517333	722.668945	26.214943
22986.445532	3295.517333	721.461914	-52.790653
22986.445532	3295.517333	720.255859	-80.113274
22986.445532	3295.517333	719.048828	-55.790432
22986.445532	3295.517333	717.841797	-4.651078
22986.445532	3295.517333	716.634766	65.022697
22986.445532	3295.517333	715.427734	2.416111
22986.445532	3295.517333	714.219727	94.695618
22986.445532	3295.517333	713.011719	5.182795
22986.445532	3295.517333	711.803711	-100.848267
22986.445532	3295.517333	710.594727	-12.855692
22986.445532	3295.517333	709.385742	-63.202370
22986.445532	3295.517333	708.176758	-26.913025
22986.445532	3295.517333	706.967773	-104.130051
22986.445532	3295.517333	705.758789	55.814701
22986.445532	3295.517333	704.548828	-50.334381
22986.445532	3295.517333	703.338867	-115.248596
22986.445532	3295.517333	702.127930	-134.834000
22986.445532	3295.517333	700.917969	-98.810623
22986.445532	3295.517333	699.707031	-108.167061
22986.445532	3295.517333	698.496094	-12.510992
22986.445532	3295.517333	697.285156	60.414639
22986.445532	3295.517333	696.073242	-150.854935
22986.445532	3295.517333	694.861328	-123.293999
22986.445532	3295.517333	693.649414	-188.392532
22986.445532	3295.517333	692.436523	32.498875
22986.445532	3295.517333	691.224609	98.978096
22986.445532	3295.517333	690.011719	-64.960976
22986.445532	3295.517333	688.798828	46.672890
22986.445532	3295.517333	687.584961	8.144750
22986.445532	3295.517333	686.372070	195.694809
22986.445532	3295.517333	685.158203	134.474960
22986.445532	3295.517333	683.943359	62.969799
22986.445532	3295.517333	682.729492	73.627220
22986.445532	3295.517333	681.514648	388.186890
22986.445532	3295.517333	680.299805	230.332642
22986.445532	3295.517333	679.084961	105.355797
22986.445532	3295.517333	677.869141	224.627716
22986.445532	3295.517333	676.653320	274.049622
22986.445532	3295.517333	675.437500	304.953369
22986.445532	3295.517333	674.221680	298.892059
22986.445532	3295.517333	673.004883	268.189117
22986.445532	3295.517333	671.789063	319.479462
22986.445532	3295.517333	670.571289	249.770706
22986.445532	3295.517333	669.354492	370.654114
22986.445532	3295.517333	668.136719	327.537842
22986.445532	3295.517333	666.919922	436.000366
22986.445532	3295.517333	665.701172	394.870850
22986.445532	3295.517333	664.483398	462.256927
22986.445532	3295.517333	663.264648	373.993896
22986.445532	3295.517333	662.045898	365.561890
22986.445532	3295.517333	660.827148	342.780731
22986.445532	3295.517333	659.608398	172.675186
22986.445532	3295.517333	658.388672	264.429871
22986.445532	3295.517333	657.168945	317.262421
22986.445532	3295.517333	655.949219	280.081909
22986.445532	3295.517333	654.728516	232.666199
22986.445532	3295.517333	653.507813	191.374557
22986.445532	3295.517333	652.287109	223.633743
22986.445532	3295.517333	651.066406	145.537964
22986.445532	3295.517333	649.844727	249.224350
22986.445532	3295.517333	648.623047	346.715881
22986.445532	3295.517333	647.401367	27.658596
22986.445532	3295.517333	646.179688	233.289291
22986.445532	3295.517333	644.957031	73.516052
22986.445532	3295.517333	643.734375	52.527500
22986.445532	3295.517333	642.511719	33.565857
22986.445532	3295.517333	641.289063	118.600891
22986.445532	3295.517333	640.065430	142.404922
22986.445532	3295.517333	638.841797	58.134418
22986.445532	3295.517333	637.618164	24.832417
22986.445532	3295.517333	636.393555	-22.742952
22986.445532	3295.517333	635.168945	198.602448
22986.445532	3295.517333	633.944336	-24.194757
22986.445532	3295.517333	632.719727	62.617950
22986.445532	3295.517333	631.494141	47.573593
22986.445532	3295.517333	630.269531	77.305161
22986.445532	3295.517333	629.042969	84.613144
22986.445532	3295.517333	627.817383	114.288109
22986.445532	3295.517333	626.590820	119.520477
22986.445532	3295.517333	625.365234	6.779282
22986.445532	3295.517333	624.137695	119.769226
22986.445532	3295.517333	622.911133	90.395767
22986.445532	3295.517333	621.683594	93.538231
22986.445532	3295.517333	620.456055	60.089714
22986.445532	3295.517333	619.228516	140.417557
22986.445532	3295.517333	618.000977	62.265114
22986.445532	3295.517333	616.772461	61.301598
22986.445532	3295.517333	615.543945	68.450417
22986.445532	3295.517333	614.314453	65.434525
22986.445532	3295.517333	613.085938	210.569824
22986.445532	3295.517333	611.856445	-137.433319
22986.445532	3295.517333	610.626953	-140.425385
22986.445532	3295.517333	609.397461	-62.293865
22986.445532	3295.517333	608.166992	-49.093628
22986.445532	3295.517333	606.936523	12.753105
22986.445532	3295.517333	605.706055	-146.364288
22986.445532	3295.517333	604.474609	110.008621
22986.445532	3295.517333	603.244141	-71.353691
22986.445532	3295.517333	602.012695	-39.953743
22986.445532	3295.517333	600.780273	48.133030
22986.445532	3295.517333	599.548828	89.617157
22986.445532	3295.517333	598.316406	-20.745070
22986.445532	3295.517333	597.083984	75.379524
22986.445532	3295.517333	595.851563	-20.765144
22986.445532	3295.517333	594.618164	-133.053711
22986.445532	3295.517333	593.384766	-99.663239
22986.445532	3295.517333	592.151367	-207.835175
22986.445532	3295.517333	590.917969	-119.845589
22986.445532	3295.517333	589.683594	105.558342
22986.445532	3295.517333	588.449219	-36.929356
22986.445532	3295.517333	587.214844	-72.264465
22986.445532	3295.517333	585.979492	-20.718525
22986.445532	3295.517333	584.745117	172.190384
22986.445532	3295.517333	583.509766	76.281219
22986.445532	3295.517333	582.273438	168.162704
22986.445532	3295.517333	581.038086	193.416290
22986.445532	3295.517333	579.801758	150.059753
22986.445532	3295.517333	578.565430	92.612213
22986.445532	3295.517333	577.329102	85.628166
22986.445532	3295.517333	576.091797	94.790764
22986.445532	3295.517333	574.854492	134.206985
22986.445532	3295.517333	573.617188	137.340027
22986.445532	3295.517333	572.378906	198.927734
22986.445532	3295.517333	571.141602	61.039165
22986.445532	3295.517333	569.903320	64.234276
22986.445532	3295.517333	568.664063	19.107622
22986.445532	3295.517333	567.425781	274.047455
22986.445532	3295.517333	566.186523	106.133400
22986.445532	3295.517333	564.947266	175.814072
22986.445532	3295.517333	563.708008	80.479843
22986.445532	3295.517333	562.467773	206.509354
22986.445532	3295.517333	561.227539	161.537704
22986.445532	3295.517333	559.987305	259.391296
22986.445532	3295.517333	558.747070	208.445816
22986.445532	3295.517333	557.505859	81.159073
22986.445532	3295.517333	556.264648	152.914581
22986.445532	3295.517333	555.023438	196.537262
22986.445532	3295.517333	553.781250	129.679260
22986.445532	3295.517333	552.539063	80.954468
22986.445532	3295.517333	551.296875	174.846954
22986.445532	3295.517333	550.054688	102.102493
22986.445532	3295.517333	548.811523	79.594978
22986.445532	3295.517333	547.569336	153.453537
22986.445532	3295.517333	546.325195	112.948082
22986.445532	3295.517333	545.082031	182.817734
22986.445532	3295.517333	543.837891	-96.253723
22986.445532	3295.517333	542.593750	-60.389523
22986.445532	3295.517333	541.349609	224.058838
22986.445532	3295.517333	540.105469	199.784775
22986.445532	3295.517333	538.860352	211.620819
22986.445532	3295.517333	537.615234	45.196960
22986.445532	3295.517333	536.369141	109.204628
22986.445532	3295.517333	535.124023	21.042233
22986.445532	3295.517333	533.877930	79.097023
22986.445532	3295.517333	532.631836	65.109146
22986.445532	3295.517333	531.384766	-58.898369
22986.445532	3295.517333	530.138672	61.273808
22986.445532	3295.517333	528.891602	-50.599697
22986.445532	3295.517333	527.643555	1.598258
22986.445532	3295.517333	526.396484	55.816730
22986.445532	3295.517333	525.148438	180.013580
22986.445532	3295.517333	523.900391	102.345551
22986.445532	3295.517333	522.652344	190.595108
22986.445532	3295.517333	521.403320	61.097347
22986.445532	3295.517333	520.154297	95.471718
22986.445532	3295.517333	518.905273	-107.748428
22986.445532	3295.517333	517.656250	-29.347658
22986.445532	3295.517333	516.406250	59.038933
22986.445532	3295.517333	515.156250	-12.213617
22986.445532	3295.517333	513.906250	-175.168289
22986.445532	3295.517333	512.655273	-66.736549
22986.445532	3295.517333	511.404297	13.771367
22986.445532	3295.517333	510.153320	-73.194450
22986.445532	3295.517333	508.902344	-82.338242
22986.445532	3295.517333	507.650391	-87.453339
22986.445532	3295.517333	506.398438	-144.330261
22986.445532	3295.517333	505.146484	-57.708519
22986.445532	3295.517333	503.893555	-50.753067
22986.445532	3295.517333	502.641602	-97.521217
22986.445532	3295.517333	501.388672	44.897648
22986.445532	3295.517333	500.134766	-192.873795
22986.445532	3295.517333	498.881836	-72.305298
22986.445532	3295.517333	497.627930	88.038185
22986.445532	3295.517333	496.374023	-61.949921
22986.445532	3295.517333	495.119141	-199.906387
22986.445532	3295.517333	493.865234	-87.243324
22986.445532	3295.517333	492.610352	92.991936
22986.445532	3295.517333	491.355469	56.558636
22986.445532	3295.517333	490.099609	141.378525
22986.445532	3295.517333	488.843750	214.277069
22986.445532	3295.517333	487.587891	199.787415
22986.445532	3295.517333	486.332031	165.478775
22986.445532	3295.517333	485.075195	240.403595
22986.445532	3295.517333	483.818359	251.809830
22986.445532	3295.517333	482.561523	50.908062
22986.445532	3295.517333	481.304688	96.133453
22986.445532	3295.517333	480.046875	38.216942
22986.445532	3295.517333	478.789063	172.713699
22986.445532	3295.517333	477.531250	182.263733
22986.445532	3295.517333	476.272461	102.627090
22986.445532	3295.517333	475.013672	260.864502
22986.445532	3295.517333	473.754883	284.313965
22986.445532	3295.517333	472.496094	198.814331
22986.445532	3295.517333	471.236328	275.768921
22986.445532	3295.517333	469.976563	263.595520
22986.445532	3295.517333	468.716797	182.145401
22986.445532	3295.517333	467.456055	170.010086
22986.445532	3295.517333	466.196289	300.363770
22986.445532	3295.517333	464.935547	361.416016
22986.445532	3295.517333	463.673828	212.770691
22986.445532	3295.517333	462.413086	210.527405
22986.445532	3295.517333	461.151367	299.225555
22986.445532	3295.517333	459.889648	403.690186
22986.445532	3295.517333	458.626953	464.616638
22986.445532	3295.517333	457.364258	266.662720
22986.445532	3295.517333	456.101563	412.501007
22986.445532	3295.517333	454.838867	342.977692
22986.445532	3295.517333	453.575195	496.584381
22986.445532	3295.517333	452.312500	257.240265
22986.445532	3295.517333	451.047852	175.860489
22986.445532	3295.517333	449.784180	402.315216
22986.445532	3295.517333	448.519531	368.209686
22986.445532	3295.517333	447.254883	363.659912
22986.445532	3295.517333	445.990234	386.670349
22986.445532	3295.517333	444.725586	196.683868
22986.445532	3295.517333	443.459961	274.797150
22986.445532	3295.517333	442.194336	354.783997
22986.445532	3295.517333	440.927734	351.911621
22986.445532	3295.517333	439.662109	477.012543
22986.445532	3295.517333	438.395508	471.991943
22986.445532	3295.517333	437.127930	490.516205
22986.445532	3295.517333	435.861328	380.984070
22986.445532	3295.517333	434.593750	348.160278
22986.445532	3295.517333	433.326172	401.830475
22986.445532	3295.517333	432.058594	492.749420
22986.445532	3295.517333	430.790039	420.258636
22986.445532	3295.517333	429.521484	404.705963
22986.445532	3295.517333	428.252930	316.287994
22986.445532	3295.517333	426.984375	559.966736
22986.445532	3295.517333	425.714844	467.345276
22986.445532	3295.517333	424.445313	673.261353
22986.445532	3295.517333	423.174805	413.377899
22986.445532	3295.517333	421.905273	518.736328
22986.445532	3295.517333	420.634766	564.970154
22986.445532	3295.517333	419.364258	614.929504
22986.445532	3295.517333	418.092773	468.410706
22986.445532	3295.517333	416.822266	635.719055
22986.445532	3295.517333	415.550781	557.520264
22986.445532	3295.517333	414.278320	630.162476
22986.445532	3295.517333	413.006836	333.896515
22986.445532	3295.517333	411.734375	517.849365
22986.445532	3295.517333	410.461914	460.388062
22986.445532	3295.517333	409.188477	643.732971
22986.445532	3295.517333	407.916016	444.688171
22986.445532	3295.517333	406.642578	513.808716
22986.445532	3295.517333	405.368164	412.229980
22986.445532	3295.517333	404.094727	425.925476
22986.445532	3295.517333	402.820313	392.321228
22986.445532	3295.517333	401.545898	608.925537
22986.445532	3295.517333	400.270508	502.244354
22986.445532	3295.517333	398.996094	397.229492
22986.445532	3295.517333	397.720703	479.661407
22986.445532	3295.517333	396.444336	485.420319
22986.445532	3295.517333	395.168945	486.893433
22986.445532	3295.517333	393.892578	386.327332
22986.445532	3295.517333	392.616211	404.600159
22986.445532	3295.517333	391.339844	578.741211
22986.445532	3295.517333	390.062500	396.861969
22986.445532	3295.517333	388.785156	415.756561
22986.445532	3295.517333	387.507813	395.128113
22986.445532	3295.517333	386.229492	293.985474
22986.445532	3295.517333	384.951172	393.403961
22986.445532	3295.517333	383.672852	316.660919
22986.445532	3295.517333	382.394531	393.530334
22986.445532	3295.517333	381.115234	403.498566
22986.445532	3295.517333	379.835938	416.798248
22986.445532	3295.517333	378.556641	353.482605
22986.445532	3295.517333	377.277344	338.321228
22986.445532	3295.517333	375.997070	402.430023
22986.445532	3295.517333	374.716797	382.102325
22986.445532	3295.517333	373.435547	248.141708
22986.445532	3295.517333	372.155273	171.999451
22986.445532	3295.517333	370.874023	247.042130
22986.445532	3295.517333	369.591797	391.393799
22986.445532	3295.517333	368.310547	404.575958
22986.445532	3295.517333	367.028320	298.291534
22986.445532	3295.517333	365.746094	193.218292
22986.445532	3295.517333	364.463867	130.175415
22986.445532	3295.517333	363.180664	-15.347176
22986.445532	3295.517333	361.897461	-101.392067
22986.445532	3295.517333	360.614258	89.656418
22986.445532	3295.517333	359.330078	89.277962
22986.445532	3295.517333	358.045898	53.010509
22986.445532	3295.517333	356.761719	58.543495
22986.445532	3295.517333	355.477539	82.519951
22986.445532	3295.517333	354.192383	84.109993
22986.445532	3295.517333	352.907227	239.954880
22986.445532	3295.517333	351.622070	268.540833
22986.445532	3295.517333	350.336914	200.967819
22986.445532	3295.517333	349.050781	366.997284
22986.445532	3295.517333	347.764648	306.857422
22986.445532	3295.517333	346.477539	92.374176
22986.445532	3295.517333	345.191406	192.786774
22986.445532	3295.517333	343.904297	181.429016
22986.445532	3295.517333	342.616211	37.027519
22986.445532	3295.517333	341.329102	56.089920
22986.445532	3295.517333	340.041016	54.420128
22986.445532	3295.517333	338.752930	-4.761345
22986.445532	3295.517333	337.463867	25.644678
22986.445532	3295.517333	336.175781	54.646526
22986.445532	3295.517333	334.886719	58.918270
22986.445532	3295.517333	333.596680	46.172894
22986.445532	3295.517333	332.307617	-2.877460
22986.445532	3295.517333	331.017578	-161.811539
22986.445532	3295.517333	329.727539	-45.810287
22986.445532	3295.517333	328.436523	-32.066525
22986.445532	3295.517333	327.146484	-108.869148
22986.445532	3295.517333	325.855469	-123.651176
22986.445532	3295.517333	324.563477	-167.286087
22986.445532	3295.517333	323.272461	42.264099
22986.445532	3295.517333	321.980469	-26.292389
22986.445532	3295.517333	320.688477	86.676765
22986.445532	3295.517333	319.395508	-91.901154
22986.445532	3295.517333	318.103516	-121.823769
22986.445532	3295.517333	316.810547	8.232560
22986.445532	3295.517333	315.516602	58.945980
22986.445532	3295.517333	314.223633	-204.820190
22986.445532	3295.517333	312.929688	-2.220783
22986.445532	3295.517333	311.635742	20.737608
22986.445532	3295.517333	310.340820	-64.639053
22986.445532	3295.517333	309.045898	5.681246
22986.445532	3295.517333	307.750977	-107.471481
22986.445532	3295.517333	306.456055	8.095225
22986.445532	3295.517333	305.160156	121.059448
22986.445532	3295.517333	303.865234	60.187786
22986.445532	3295.517333	302.568359	235.245834
22986.445532	3295.517333	301.272461	215.241058
22986.445532	3295.517333	299.975586	579.125427
22986.445532	3295.517333	298.678711	318.863861
