#X		#Y		#Wave		#Intensity
31155.123617	1146.431333	1999.980469	231.149979
31155.123617	1146.431333	1999.016602	2.174992
31155.123617	1146.431333	1998.052734	138.460815
31155.123617	1146.431333	1997.087891	1.758650
31155.123617	1146.431333	1996.123047	50.593971
31155.123617	1146.431333	1995.158203	-14.870158
31155.123617	1146.431333	1994.193359	-100.442566
31155.123617	1146.431333	1993.228516	-77.336090
31155.123617	1146.431333	1992.262695	14.789201
31155.123617	1146.431333	1991.297852	62.028915
31155.123617	1146.431333	1990.332031	-210.290649
31155.123617	1146.431333	1989.366211	212.539581
31155.123617	1146.431333	1988.399414	48.614975
31155.123617	1146.431333	1987.433594	144.213364
31155.123617	1146.431333	1986.466797	138.135666
31155.123617	1146.431333	1985.500977	-4.175576
31155.123617	1146.431333	1984.534180	-35.415894
31155.123617	1146.431333	1983.567383	27.056932
31155.123617	1146.431333	1982.599609	34.925205
31155.123617	1146.431333	1981.632813	-61.192093
31155.123617	1146.431333	1980.665039	40.152584
31155.123617	1146.431333	1979.697266	101.748184
31155.123617	1146.431333	1978.729492	192.766953
31155.123617	1146.431333	1977.761719	-126.272881
31155.123617	1146.431333	1976.792969	-82.498695
31155.123617	1146.431333	1975.825195	-98.140274
31155.123617	1146.431333	1974.856445	16.845896
31155.123617	1146.431333	1973.887695	50.220638
31155.123617	1146.431333	1972.918945	-79.363770
31155.123617	1146.431333	1971.949219	44.976929
31155.123617	1146.431333	1970.980469	-139.081421
31155.123617	1146.431333	1970.010742	236.417511
31155.123617	1146.431333	1969.041016	-34.131126
31155.123617	1146.431333	1968.071289	84.671791
31155.123617	1146.431333	1967.101563	62.874668
31155.123617	1146.431333	1966.130859	16.341665
31155.123617	1146.431333	1965.161133	55.928955
31155.123617	1146.431333	1964.190430	100.326996
31155.123617	1146.431333	1963.219727	21.511896
31155.123617	1146.431333	1962.249023	137.105637
31155.123617	1146.431333	1961.277344	-67.380753
31155.123617	1146.431333	1960.306641	131.687027
31155.123617	1146.431333	1959.334961	153.466202
31155.123617	1146.431333	1958.363281	-28.995995
31155.123617	1146.431333	1957.391602	-71.275444
31155.123617	1146.431333	1956.419922	1.965420
31155.123617	1146.431333	1955.447266	-52.719051
31155.123617	1146.431333	1954.474609	-4.204140
31155.123617	1146.431333	1953.501953	86.019264
31155.123617	1146.431333	1952.529297	45.937710
31155.123617	1146.431333	1951.556641	25.479513
31155.123617	1146.431333	1950.583984	76.216446
31155.123617	1146.431333	1949.610352	119.527161
31155.123617	1146.431333	1948.636719	52.303127
31155.123617	1146.431333	1947.663086	93.082138
31155.123617	1146.431333	1946.689453	30.736826
31155.123617	1146.431333	1945.715820	172.058685
31155.123617	1146.431333	1944.741211	-8.091346
31155.123617	1146.431333	1943.767578	-21.392126
31155.123617	1146.431333	1942.792969	-2.825001
31155.123617	1146.431333	1941.818359	30.432196
31155.123617	1146.431333	1940.842773	-54.012455
31155.123617	1146.431333	1939.868164	-150.689133
31155.123617	1146.431333	1938.892578	51.640118
31155.123617	1146.431333	1937.916992	52.972446
31155.123617	1146.431333	1936.941406	24.904215
31155.123617	1146.431333	1935.965820	31.135214
31155.123617	1146.431333	1934.990234	-23.856529
31155.123617	1146.431333	1934.013672	21.556004
31155.123617	1146.431333	1933.037109	-52.992218
31155.123617	1146.431333	1932.060547	109.897499
31155.123617	1146.431333	1931.083984	121.019783
31155.123617	1146.431333	1930.107422	-39.111107
31155.123617	1146.431333	1929.129883	18.528502
31155.123617	1146.431333	1928.153320	198.442612
31155.123617	1146.431333	1927.175781	21.304834
31155.123617	1146.431333	1926.198242	-18.847080
31155.123617	1146.431333	1925.219727	-51.637630
31155.123617	1146.431333	1924.242188	-45.295143
31155.123617	1146.431333	1923.263672	-16.948366
31155.123617	1146.431333	1922.285156	11.406907
31155.123617	1146.431333	1921.306641	15.348314
31155.123617	1146.431333	1920.328125	-31.972351
31155.123617	1146.431333	1919.349609	1.317352
31155.123617	1146.431333	1918.370117	132.259155
31155.123617	1146.431333	1917.391602	60.605938
31155.123617	1146.431333	1916.412109	-115.924950
31155.123617	1146.431333	1915.431641	-2.040808
31155.123617	1146.431333	1914.452148	45.968937
31155.123617	1146.431333	1913.472656	-13.320513
31155.123617	1146.431333	1912.492188	-126.206451
31155.123617	1146.431333	1911.511719	-70.808113
31155.123617	1146.431333	1910.531250	-42.214951
31155.123617	1146.431333	1909.550781	-18.477921
31155.123617	1146.431333	1908.569336	-2.033060
31155.123617	1146.431333	1907.588867	-36.720833
31155.123617	1146.431333	1906.607422	-90.854095
31155.123617	1146.431333	1905.625977	37.699421
31155.123617	1146.431333	1904.644531	78.584358
31155.123617	1146.431333	1903.662109	-21.704739
31155.123617	1146.431333	1902.680664	-61.080616
31155.123617	1146.431333	1901.698242	-63.914150
31155.123617	1146.431333	1900.715820	-5.895194
31155.123617	1146.431333	1899.733398	66.726158
31155.123617	1146.431333	1898.750000	102.868233
31155.123617	1146.431333	1897.767578	-4.432488
31155.123617	1146.431333	1896.784180	158.182724
31155.123617	1146.431333	1895.800781	14.508045
31155.123617	1146.431333	1894.817383	-97.492424
31155.123617	1146.431333	1893.833984	-41.773083
31155.123617	1146.431333	1892.850586	9.093953
31155.123617	1146.431333	1891.866211	21.108044
31155.123617	1146.431333	1890.881836	-42.134190
31155.123617	1146.431333	1889.897461	57.341934
31155.123617	1146.431333	1888.913086	108.258614
31155.123617	1146.431333	1887.927734	-56.820332
31155.123617	1146.431333	1886.943359	6.282200
31155.123617	1146.431333	1885.958008	81.515076
31155.123617	1146.431333	1884.972656	79.124489
31155.123617	1146.431333	1883.987305	1.577649
31155.123617	1146.431333	1883.001953	-136.534256
31155.123617	1146.431333	1882.015625	33.307171
31155.123617	1146.431333	1881.029297	-34.425499
31155.123617	1146.431333	1880.042969	84.485825
31155.123617	1146.431333	1879.056641	91.919838
31155.123617	1146.431333	1878.070313	-104.113403
31155.123617	1146.431333	1877.083984	26.913198
31155.123617	1146.431333	1876.096680	107.056129
31155.123617	1146.431333	1875.109375	242.871704
31155.123617	1146.431333	1874.122070	-3.805403
31155.123617	1146.431333	1873.134766	139.273529
31155.123617	1146.431333	1872.146484	105.673759
31155.123617	1146.431333	1871.159180	-82.730820
31155.123617	1146.431333	1870.170898	-75.128220
31155.123617	1146.431333	1869.182617	217.849686
31155.123617	1146.431333	1868.194336	-21.208099
31155.123617	1146.431333	1867.205078	46.849613
31155.123617	1146.431333	1866.216797	66.553238
31155.123617	1146.431333	1865.227539	-51.485348
31155.123617	1146.431333	1864.238281	52.809376
31155.123617	1146.431333	1863.249023	-57.919460
31155.123617	1146.431333	1862.259766	94.654854
31155.123617	1146.431333	1861.269531	-57.078697
31155.123617	1146.431333	1860.279297	51.990990
31155.123617	1146.431333	1859.290039	33.091690
31155.123617	1146.431333	1858.298828	101.082169
31155.123617	1146.431333	1857.308594	108.726746
31155.123617	1146.431333	1856.318359	-16.316105
31155.123617	1146.431333	1855.327148	-54.480652
31155.123617	1146.431333	1854.335938	-15.462011
31155.123617	1146.431333	1853.344727	-65.670349
31155.123617	1146.431333	1852.353516	154.129181
31155.123617	1146.431333	1851.362305	-72.043892
31155.123617	1146.431333	1850.370117	53.684700
31155.123617	1146.431333	1849.377930	51.667686
31155.123617	1146.431333	1848.385742	42.417736
31155.123617	1146.431333	1847.393555	-22.229237
31155.123617	1146.431333	1846.401367	-183.178528
31155.123617	1146.431333	1845.408203	53.155510
31155.123617	1146.431333	1844.415039	-110.176125
31155.123617	1146.431333	1843.421875	-15.955195
31155.123617	1146.431333	1842.428711	-58.931736
31155.123617	1146.431333	1841.435547	-140.396790
31155.123617	1146.431333	1840.441406	30.700094
31155.123617	1146.431333	1839.448242	-0.282098
31155.123617	1146.431333	1838.454102	60.092495
31155.123617	1146.431333	1837.459961	185.330521
31155.123617	1146.431333	1836.464844	86.984787
31155.123617	1146.431333	1835.470703	113.610733
31155.123617	1146.431333	1834.475586	214.681671
31155.123617	1146.431333	1833.480469	-49.418697
31155.123617	1146.431333	1832.485352	73.213905
31155.123617	1146.431333	1831.490234	18.091690
31155.123617	1146.431333	1830.495117	99.804031
31155.123617	1146.431333	1829.499023	56.646782
31155.123617	1146.431333	1828.502930	-58.515285
31155.123617	1146.431333	1827.506836	107.060036
31155.123617	1146.431333	1826.510742	-65.698013
31155.123617	1146.431333	1825.513672	63.779766
31155.123617	1146.431333	1824.517578	94.861893
31155.123617	1146.431333	1823.520508	56.370800
31155.123617	1146.431333	1822.523438	1.082115
31155.123617	1146.431333	1821.526367	51.231735
31155.123617	1146.431333	1820.529297	-128.704193
31155.123617	1146.431333	1819.531250	45.956688
31155.123617	1146.431333	1818.533203	-78.892677
31155.123617	1146.431333	1817.535156	-0.174067
31155.123617	1146.431333	1816.537109	-29.269205
31155.123617	1146.431333	1815.539063	-72.755615
31155.123617	1146.431333	1814.540039	-32.496983
31155.123617	1146.431333	1813.541992	-61.689407
31155.123617	1146.431333	1812.542969	-28.708370
31155.123617	1146.431333	1811.543945	150.135788
31155.123617	1146.431333	1810.543945	70.569092
31155.123617	1146.431333	1809.544922	-205.088074
31155.123617	1146.431333	1808.544922	-81.434128
31155.123617	1146.431333	1807.544922	42.127510
31155.123617	1146.431333	1806.544922	10.255753
31155.123617	1146.431333	1805.544922	64.366829
31155.123617	1146.431333	1804.544922	70.629921
31155.123617	1146.431333	1803.543945	57.731747
31155.123617	1146.431333	1802.542969	75.832657
31155.123617	1146.431333	1801.541992	272.945129
31155.123617	1146.431333	1800.541016	28.312613
31155.123617	1146.431333	1799.539063	127.399498
31155.123617	1146.431333	1798.538086	216.853973
31155.123617	1146.431333	1797.536133	29.468315
31155.123617	1146.431333	1796.534180	106.870522
31155.123617	1146.431333	1795.532227	45.865612
31155.123617	1146.431333	1794.529297	80.202957
31155.123617	1146.431333	1793.527344	-26.180590
31155.123617	1146.431333	1792.524414	-61.078186
31155.123617	1146.431333	1791.521484	20.750311
31155.123617	1146.431333	1790.518555	107.255013
31155.123617	1146.431333	1789.514648	84.085953
31155.123617	1146.431333	1788.511719	182.336349
31155.123617	1146.431333	1787.507813	-12.408031
31155.123617	1146.431333	1786.503906	14.275906
31155.123617	1146.431333	1785.500000	133.722610
31155.123617	1146.431333	1784.496094	-8.727579
31155.123617	1146.431333	1783.491211	-25.077251
31155.123617	1146.431333	1782.486328	65.571594
31155.123617	1146.431333	1781.481445	-17.511475
31155.123617	1146.431333	1780.476563	-22.149166
31155.123617	1146.431333	1779.471680	8.815324
31155.123617	1146.431333	1778.465820	-55.387417
31155.123617	1146.431333	1777.460938	94.279671
31155.123617	1146.431333	1776.455078	-36.581730
31155.123617	1146.431333	1775.449219	36.862938
31155.123617	1146.431333	1774.442383	88.831863
31155.123617	1146.431333	1773.436523	-75.402000
31155.123617	1146.431333	1772.429688	-44.936127
31155.123617	1146.431333	1771.422852	-88.144165
31155.123617	1146.431333	1770.416016	-72.063507
31155.123617	1146.431333	1769.409180	-58.430782
31155.123617	1146.431333	1768.402344	-82.834137
31155.123617	1146.431333	1767.394531	37.405697
31155.123617	1146.431333	1766.386719	-46.442936
31155.123617	1146.431333	1765.378906	66.491814
31155.123617	1146.431333	1764.371094	-98.079811
31155.123617	1146.431333	1763.362305	-9.025628
31155.123617	1146.431333	1762.354492	-190.249817
31155.123617	1146.431333	1761.345703	24.232876
31155.123617	1146.431333	1760.336914	94.049179
31155.123617	1146.431333	1759.328125	116.396217
31155.123617	1146.431333	1758.318359	-181.046219
31155.123617	1146.431333	1757.308594	44.822971
31155.123617	1146.431333	1756.299805	204.256042
31155.123617	1146.431333	1755.290039	32.195538
31155.123617	1146.431333	1754.279297	-45.220139
31155.123617	1146.431333	1753.269531	-56.427044
31155.123617	1146.431333	1752.258789	109.704994
31155.123617	1146.431333	1751.249023	74.679657
31155.123617	1146.431333	1750.238281	-163.763245
31155.123617	1146.431333	1749.226563	32.807720
31155.123617	1146.431333	1748.215820	59.051964
31155.123617	1146.431333	1747.204102	7.223085
31155.123617	1146.431333	1746.193359	80.574532
31155.123617	1146.431333	1745.181641	-96.585648
31155.123617	1146.431333	1744.168945	28.564198
31155.123617	1146.431333	1743.157227	-23.506704
31155.123617	1146.431333	1742.144531	125.047417
31155.123617	1146.431333	1741.132813	-47.551964
31155.123617	1146.431333	1740.120117	27.645178
31155.123617	1146.431333	1739.106445	-17.604862
31155.123617	1146.431333	1738.093750	38.541409
31155.123617	1146.431333	1737.080078	75.719208
31155.123617	1146.431333	1736.067383	-42.828266
31155.123617	1146.431333	1735.053711	-116.609093
31155.123617	1146.431333	1734.040039	149.028976
31155.123617	1146.431333	1733.025391	84.519814
31155.123617	1146.431333	1732.011719	-8.306398
31155.123617	1146.431333	1730.997070	49.611122
31155.123617	1146.431333	1729.982422	215.793121
31155.123617	1146.431333	1728.967773	-39.724957
31155.123617	1146.431333	1727.952148	8.530989
31155.123617	1146.431333	1726.937500	94.373314
31155.123617	1146.431333	1725.921875	48.295338
31155.123617	1146.431333	1724.906250	159.839172
31155.123617	1146.431333	1723.890625	115.982231
31155.123617	1146.431333	1722.875000	-76.128677
31155.123617	1146.431333	1721.858398	-30.692083
31155.123617	1146.431333	1720.841797	12.308064
31155.123617	1146.431333	1719.825195	109.299408
31155.123617	1146.431333	1718.808594	-21.823620
31155.123617	1146.431333	1717.791992	32.700146
31155.123617	1146.431333	1716.774414	-77.350563
31155.123617	1146.431333	1715.756836	-69.961746
31155.123617	1146.431333	1714.739258	-220.011856
31155.123617	1146.431333	1713.721680	-90.613258
31155.123617	1146.431333	1712.704102	8.148125
31155.123617	1146.431333	1711.685547	-137.336914
31155.123617	1146.431333	1710.667969	-125.571739
31155.123617	1146.431333	1709.649414	31.605125
31155.123617	1146.431333	1708.630859	-167.951019
31155.123617	1146.431333	1707.611328	17.189028
31155.123617	1146.431333	1706.592773	33.348083
31155.123617	1146.431333	1705.573242	-84.220016
31155.123617	1146.431333	1704.553711	-14.257836
31155.123617	1146.431333	1703.534180	69.680008
31155.123617	1146.431333	1702.513672	-40.985802
31155.123617	1146.431333	1701.494141	127.153114
31155.123617	1146.431333	1700.473633	-9.366703
31155.123617	1146.431333	1699.453125	160.919052
31155.123617	1146.431333	1698.432617	99.260986
31155.123617	1146.431333	1697.412109	68.004951
31155.123617	1146.431333	1696.390625	-106.087807
31155.123617	1146.431333	1695.369141	150.441391
31155.123617	1146.431333	1694.347656	-63.488350
31155.123617	1146.431333	1693.326172	183.466415
31155.123617	1146.431333	1692.304688	109.840065
31155.123617	1146.431333	1691.282227	31.503004
31155.123617	1146.431333	1690.260742	175.264725
31155.123617	1146.431333	1689.238281	127.229652
31155.123617	1146.431333	1688.214844	107.198135
31155.123617	1146.431333	1687.192383	-162.892090
31155.123617	1146.431333	1686.168945	64.679337
31155.123617	1146.431333	1685.146484	93.582268
31155.123617	1146.431333	1684.123047	26.667768
31155.123617	1146.431333	1683.099609	29.778006
31155.123617	1146.431333	1682.075195	-79.221794
31155.123617	1146.431333	1681.051758	-38.842087
31155.123617	1146.431333	1680.027344	120.477379
31155.123617	1146.431333	1679.002930	179.368011
31155.123617	1146.431333	1677.978516	144.886765
31155.123617	1146.431333	1676.953125	257.293732
31155.123617	1146.431333	1675.928711	-17.443613
31155.123617	1146.431333	1674.903320	48.241013
31155.123617	1146.431333	1673.877930	83.558838
31155.123617	1146.431333	1672.852539	284.279724
31155.123617	1146.431333	1671.826172	56.166538
31155.123617	1146.431333	1670.800781	100.661797
31155.123617	1146.431333	1669.774414	198.660522
31155.123617	1146.431333	1668.748047	49.754063
31155.123617	1146.431333	1667.721680	89.448608
31155.123617	1146.431333	1666.694336	173.308212
31155.123617	1146.431333	1665.667969	219.875290
31155.123617	1146.431333	1664.640625	247.766327
31155.123617	1146.431333	1663.613281	357.035675
31155.123617	1146.431333	1662.585938	345.284821
31155.123617	1146.431333	1661.557617	205.597687
31155.123617	1146.431333	1660.530273	45.019470
31155.123617	1146.431333	1659.501953	70.427605
31155.123617	1146.431333	1658.473633	288.697449
31155.123617	1146.431333	1657.444336	67.676025
31155.123617	1146.431333	1656.416016	202.171921
31155.123617	1146.431333	1655.386719	220.443283
31155.123617	1146.431333	1654.358398	229.402771
31155.123617	1146.431333	1653.328125	372.982147
31155.123617	1146.431333	1652.298828	161.318848
31155.123617	1146.431333	1651.269531	330.350708
31155.123617	1146.431333	1650.239258	304.364166
31155.123617	1146.431333	1649.208984	399.009155
31155.123617	1146.431333	1648.178711	291.792480
31155.123617	1146.431333	1647.148438	346.939697
31155.123617	1146.431333	1646.117188	279.146820
31155.123617	1146.431333	1645.086914	556.793152
31155.123617	1146.431333	1644.055664	442.595947
31155.123617	1146.431333	1643.024414	458.200958
31155.123617	1146.431333	1641.992188	624.374451
31155.123617	1146.431333	1640.960938	512.505554
31155.123617	1146.431333	1639.928711	567.410217
31155.123617	1146.431333	1638.896484	587.548523
31155.123617	1146.431333	1637.864258	519.694885
31155.123617	1146.431333	1636.832031	713.415771
31155.123617	1146.431333	1635.798828	849.187317
31155.123617	1146.431333	1634.766602	774.355835
31155.123617	1146.431333	1633.733398	801.323120
31155.123617	1146.431333	1632.699219	842.140808
31155.123617	1146.431333	1631.666016	848.262634
31155.123617	1146.431333	1630.632813	734.155090
31155.123617	1146.431333	1629.598633	636.260254
31155.123617	1146.431333	1628.564453	926.661438
31155.123617	1146.431333	1627.530273	930.432800
31155.123617	1146.431333	1626.495117	878.747864
31155.123617	1146.431333	1625.460938	1058.066162
31155.123617	1146.431333	1624.425781	1024.854004
31155.123617	1146.431333	1623.390625	1241.011963
31155.123617	1146.431333	1622.355469	1138.532227
31155.123617	1146.431333	1621.319336	1195.335449
31155.123617	1146.431333	1620.284180	1263.669189
31155.123617	1146.431333	1619.248047	1283.526001
31155.123617	1146.431333	1618.211914	1250.331177
31155.123617	1146.431333	1617.174805	1136.433838
31155.123617	1146.431333	1616.138672	1064.102051
31155.123617	1146.431333	1615.101563	1134.725098
31155.123617	1146.431333	1614.065430	1147.722290
31155.123617	1146.431333	1613.027344	1388.837158
31155.123617	1146.431333	1611.990234	1146.063354
31155.123617	1146.431333	1610.953125	1011.661377
31155.123617	1146.431333	1609.915039	1091.495483
31155.123617	1146.431333	1608.876953	904.220032
31155.123617	1146.431333	1607.838867	1048.537109
31155.123617	1146.431333	1606.800781	1020.192810
31155.123617	1146.431333	1605.761719	943.543518
31155.123617	1146.431333	1604.723633	1078.623291
31155.123617	1146.431333	1603.684570	1084.845337
31155.123617	1146.431333	1602.644531	1008.282959
31155.123617	1146.431333	1601.605469	1230.705444
31155.123617	1146.431333	1600.566406	1216.272827
31155.123617	1146.431333	1599.526367	1119.115356
31155.123617	1146.431333	1598.486328	1081.770630
31155.123617	1146.431333	1597.446289	1168.539673
31155.123617	1146.431333	1596.405273	1328.801392
31155.123617	1146.431333	1595.365234	1236.400024
31155.123617	1146.431333	1594.324219	1447.163330
31155.123617	1146.431333	1593.283203	1276.768433
31155.123617	1146.431333	1592.242188	1092.698853
31155.123617	1146.431333	1591.200195	1163.461670
31155.123617	1146.431333	1590.159180	1362.729858
31155.123617	1146.431333	1589.117188	1229.310913
31155.123617	1146.431333	1588.075195	1212.952271
31155.123617	1146.431333	1587.032227	1127.833130
31155.123617	1146.431333	1585.990234	1370.646606
31155.123617	1146.431333	1584.947266	1216.838135
31155.123617	1146.431333	1583.904297	1200.635620
31155.123617	1146.431333	1582.861328	1092.825928
31155.123617	1146.431333	1581.818359	1108.806396
31155.123617	1146.431333	1580.775391	1030.913940
31155.123617	1146.431333	1579.731445	1156.895264
31155.123617	1146.431333	1578.687500	1067.652954
31155.123617	1146.431333	1577.643555	1042.584961
31155.123617	1146.431333	1576.598633	1033.583130
31155.123617	1146.431333	1575.554688	1063.538696
31155.123617	1146.431333	1574.509766	1068.355957
31155.123617	1146.431333	1573.464844	990.875549
31155.123617	1146.431333	1572.419922	1146.733032
31155.123617	1146.431333	1571.374023	1053.352417
31155.123617	1146.431333	1570.329102	1033.216187
31155.123617	1146.431333	1569.283203	873.715637
31155.123617	1146.431333	1568.237305	755.460510
31155.123617	1146.431333	1567.191406	861.195801
31155.123617	1146.431333	1566.144531	1019.470581
31155.123617	1146.431333	1565.098633	937.955566
31155.123617	1146.431333	1564.051758	838.253235
31155.123617	1146.431333	1563.004883	982.906738
31155.123617	1146.431333	1561.957031	812.586548
31155.123617	1146.431333	1560.910156	875.153259
31155.123617	1146.431333	1559.862305	855.613098
31155.123617	1146.431333	1558.814453	785.957214
31155.123617	1146.431333	1557.766602	684.459778
31155.123617	1146.431333	1556.718750	612.704529
31155.123617	1146.431333	1555.669922	655.015564
31155.123617	1146.431333	1554.621094	576.572266
31155.123617	1146.431333	1553.573242	571.150391
31155.123617	1146.431333	1552.523438	476.925354
31155.123617	1146.431333	1551.474609	660.710449
31155.123617	1146.431333	1550.424805	682.782471
31155.123617	1146.431333	1549.375000	495.428833
31155.123617	1146.431333	1548.325195	583.676636
31155.123617	1146.431333	1547.275391	610.502014
31155.123617	1146.431333	1546.225586	610.076599
31155.123617	1146.431333	1545.174805	514.155701
31155.123617	1146.431333	1544.124023	577.572266
31155.123617	1146.431333	1543.073242	547.788879
31155.123617	1146.431333	1542.022461	618.136108
31155.123617	1146.431333	1540.970703	708.981018
31155.123617	1146.431333	1539.919922	640.761475
31155.123617	1146.431333	1538.868164	674.898315
31155.123617	1146.431333	1537.815430	511.417664
31155.123617	1146.431333	1536.763672	470.749268
31155.123617	1146.431333	1535.710938	600.502808
31155.123617	1146.431333	1534.659180	678.058777
31155.123617	1146.431333	1533.606445	762.464722
31155.123617	1146.431333	1532.552734	653.972290
31155.123617	1146.431333	1531.500000	808.853210
31155.123617	1146.431333	1530.446289	952.398499
31155.123617	1146.431333	1529.393555	837.365906
31155.123617	1146.431333	1528.338867	690.692200
31155.123617	1146.431333	1527.285156	857.088074
31155.123617	1146.431333	1526.231445	876.133118
31155.123617	1146.431333	1525.176758	727.511536
31155.123617	1146.431333	1524.122070	837.379028
31155.123617	1146.431333	1523.067383	471.470459
31155.123617	1146.431333	1522.012695	647.203247
31155.123617	1146.431333	1520.957031	612.307922
31155.123617	1146.431333	1519.901367	516.370422
31155.123617	1146.431333	1518.845703	309.617737
31155.123617	1146.431333	1517.790039	302.222198
31155.123617	1146.431333	1516.734375	211.180298
31155.123617	1146.431333	1515.677734	414.397705
31155.123617	1146.431333	1514.621094	278.290009
31155.123617	1146.431333	1513.564453	307.428894
31155.123617	1146.431333	1512.507813	273.326477
31155.123617	1146.431333	1511.450195	218.971664
31155.123617	1146.431333	1510.393555	90.136826
31155.123617	1146.431333	1509.335938	106.071960
31155.123617	1146.431333	1508.278320	85.937294
31155.123617	1146.431333	1507.219727	129.148819
31155.123617	1146.431333	1506.162109	136.297501
31155.123617	1146.431333	1505.103516	102.880081
31155.123617	1146.431333	1504.044922	87.628685
31155.123617	1146.431333	1502.986328	128.903961
31155.123617	1146.431333	1501.926758	-35.121872
31155.123617	1146.431333	1500.868164	62.750637
31155.123617	1146.431333	1499.808594	79.458511
31155.123617	1146.431333	1498.749023	48.885727
31155.123617	1146.431333	1497.688477	47.728268
31155.123617	1146.431333	1496.628906	91.758087
31155.123617	1146.431333	1495.568359	-170.703339
31155.123617	1146.431333	1494.507813	-13.782193
31155.123617	1146.431333	1493.447266	-64.128639
31155.123617	1146.431333	1492.386719	-335.136993
31155.123617	1146.431333	1491.325195	33.720215
31155.123617	1146.431333	1490.263672	3.937563
31155.123617	1146.431333	1489.202148	-55.008221
31155.123617	1146.431333	1488.140625	-44.056416
31155.123617	1146.431333	1487.079102	-46.517410
31155.123617	1146.431333	1486.016602	-93.887718
31155.123617	1146.431333	1484.954102	16.331604
31155.123617	1146.431333	1483.891602	-78.076111
31155.123617	1146.431333	1482.829102	-91.395889
31155.123617	1146.431333	1481.765625	-46.161034
31155.123617	1146.431333	1480.702148	-95.250931
31155.123617	1146.431333	1479.638672	51.296436
31155.123617	1146.431333	1478.575195	-29.054003
31155.123617	1146.431333	1477.511719	50.200764
31155.123617	1146.431333	1476.447266	145.291504
31155.123617	1146.431333	1475.382813	20.348122
31155.123617	1146.431333	1474.318359	281.658752
31155.123617	1146.431333	1473.253906	341.022247
31155.123617	1146.431333	1472.189453	559.691589
31155.123617	1146.431333	1471.124023	664.019043
31155.123617	1146.431333	1470.058594	413.981689
31155.123617	1146.431333	1468.993164	693.180115
31155.123617	1146.431333	1467.927734	678.840820
31155.123617	1146.431333	1466.861328	714.103577
31155.123617	1146.431333	1465.794922	753.740967
31155.123617	1146.431333	1464.728516	804.700134
31155.123617	1146.431333	1463.662109	862.139282
31155.123617	1146.431333	1462.594727	866.192627
31155.123617	1146.431333	1461.528320	899.348572
31155.123617	1146.431333	1460.460938	892.511353
31155.123617	1146.431333	1459.393555	740.611084
31155.123617	1146.431333	1458.326172	718.372375
31155.123617	1146.431333	1457.257813	673.480469
31155.123617	1146.431333	1456.189453	785.196350
31155.123617	1146.431333	1455.121094	640.002380
31155.123617	1146.431333	1454.052734	564.562500
31155.123617	1146.431333	1452.984375	533.860840
31155.123617	1146.431333	1451.915039	501.006195
31155.123617	1146.431333	1450.845703	386.083069
31155.123617	1146.431333	1449.776367	542.550415
31155.123617	1146.431333	1448.707031	614.724365
31155.123617	1146.431333	1447.636719	335.399506
31155.123617	1146.431333	1446.567383	406.367279
31155.123617	1146.431333	1445.497070	319.731537
31155.123617	1146.431333	1444.425781	256.193512
31155.123617	1146.431333	1443.355469	167.222870
31155.123617	1146.431333	1442.285156	310.540985
31155.123617	1146.431333	1441.213867	323.966248
31155.123617	1146.431333	1440.142578	456.706329
31155.123617	1146.431333	1439.070313	349.324982
31155.123617	1146.431333	1437.999023	410.352386
31155.123617	1146.431333	1436.926758	370.769745
31155.123617	1146.431333	1435.854492	280.449432
31155.123617	1146.431333	1434.782227	440.041534
31155.123617	1146.431333	1433.709961	481.757721
31155.123617	1146.431333	1432.636719	302.323303
31155.123617	1146.431333	1431.563477	408.896332
31155.123617	1146.431333	1430.490234	515.284180
31155.123617	1146.431333	1429.416992	458.361572
31155.123617	1146.431333	1428.343750	566.593994
31155.123617	1146.431333	1427.269531	193.016632
31155.123617	1146.431333	1426.195313	423.796021
31155.123617	1146.431333	1425.121094	307.614380
31155.123617	1146.431333	1424.046875	367.763397
31155.123617	1146.431333	1422.971680	256.835266
31155.123617	1146.431333	1421.896484	179.222626
31155.123617	1146.431333	1420.821289	312.332306
31155.123617	1146.431333	1419.746094	198.559494
31155.123617	1146.431333	1418.669922	161.241776
31155.123617	1146.431333	1417.594727	318.819122
31155.123617	1146.431333	1416.518555	318.846069
31155.123617	1146.431333	1415.442383	423.412964
31155.123617	1146.431333	1414.365234	458.032532
31155.123617	1146.431333	1413.289063	171.293457
31155.123617	1146.431333	1412.211914	267.136658
31155.123617	1146.431333	1411.134766	161.159927
31155.123617	1146.431333	1410.057617	96.120659
31155.123617	1146.431333	1408.979492	199.147171
31155.123617	1146.431333	1407.902344	262.757019
31155.123617	1146.431333	1406.824219	279.168213
31155.123617	1146.431333	1405.746094	220.102173
31155.123617	1146.431333	1404.666992	231.000015
31155.123617	1146.431333	1403.588867	302.541687
31155.123617	1146.431333	1402.509766	264.750549
31155.123617	1146.431333	1401.430664	179.755844
31155.123617	1146.431333	1400.351563	452.459442
31155.123617	1146.431333	1399.271484	392.593811
31155.123617	1146.431333	1398.192383	365.338135
31155.123617	1146.431333	1397.112305	435.409851
31155.123617	1146.431333	1396.031250	439.876007
31155.123617	1146.431333	1394.951172	440.820679
31155.123617	1146.431333	1393.871094	508.240082
31155.123617	1146.431333	1392.790039	342.689331
31155.123617	1146.431333	1391.708984	520.259888
31155.123617	1146.431333	1390.626953	384.501099
31155.123617	1146.431333	1389.545898	491.025604
31155.123617	1146.431333	1388.463867	408.829193
31155.123617	1146.431333	1387.381836	463.928833
31155.123617	1146.431333	1386.299805	640.558289
31155.123617	1146.431333	1385.217773	597.467041
31155.123617	1146.431333	1384.134766	642.561340
31155.123617	1146.431333	1383.051758	385.955383
31155.123617	1146.431333	1381.968750	403.941589
31155.123617	1146.431333	1380.885742	525.839722
31155.123617	1146.431333	1379.802734	481.163788
31155.123617	1146.431333	1378.718750	528.826233
31155.123617	1146.431333	1377.634766	392.872589
31155.123617	1146.431333	1376.550781	674.293457
31155.123617	1146.431333	1375.465820	429.060059
31155.123617	1146.431333	1374.381836	384.158875
31155.123617	1146.431333	1373.296875	304.916748
31155.123617	1146.431333	1372.211914	306.453094
31155.123617	1146.431333	1371.126953	658.641296
31155.123617	1146.431333	1370.041016	471.519257
31155.123617	1146.431333	1368.955078	647.911255
31155.123617	1146.431333	1367.869141	527.926025
31155.123617	1146.431333	1366.783203	487.106842
31155.123617	1146.431333	1365.697266	433.353485
31155.123617	1146.431333	1364.610352	544.567444
31155.123617	1146.431333	1363.523438	638.079468
31155.123617	1146.431333	1362.436523	773.078308
31155.123617	1146.431333	1361.349609	551.857300
31155.123617	1146.431333	1360.261719	679.131653
31155.123617	1146.431333	1359.174805	746.740601
31155.123617	1146.431333	1358.086914	500.141449
31155.123617	1146.431333	1356.998047	426.439240
31155.123617	1146.431333	1355.910156	579.695557
31155.123617	1146.431333	1354.821289	614.537964
31155.123617	1146.431333	1353.732422	596.928589
31155.123617	1146.431333	1352.643555	643.030762
31155.123617	1146.431333	1351.554688	554.096802
31155.123617	1146.431333	1350.464844	422.514130
31155.123617	1146.431333	1349.375000	643.504333
31155.123617	1146.431333	1348.285156	470.274841
31155.123617	1146.431333	1347.195313	521.258484
31155.123617	1146.431333	1346.105469	630.881287
31155.123617	1146.431333	1345.014648	676.445129
31155.123617	1146.431333	1343.923828	600.947632
31155.123617	1146.431333	1342.833008	547.303223
31155.123617	1146.431333	1341.741211	776.661377
31155.123617	1146.431333	1340.650391	626.004150
31155.123617	1146.431333	1339.558594	509.340454
31155.123617	1146.431333	1338.466797	494.900085
31155.123617	1146.431333	1337.374023	485.597504
31155.123617	1146.431333	1336.282227	392.599854
31155.123617	1146.431333	1335.189453	486.685913
31155.123617	1146.431333	1334.096680	470.568756
31155.123617	1146.431333	1333.003906	563.402954
31155.123617	1146.431333	1331.910156	418.741791
31155.123617	1146.431333	1330.817383	413.528351
31155.123617	1146.431333	1329.723633	521.255676
31155.123617	1146.431333	1328.629883	489.875916
31155.123617	1146.431333	1327.535156	447.368256
31155.123617	1146.431333	1326.441406	752.035889
31155.123617	1146.431333	1325.346680	714.010742
31155.123617	1146.431333	1324.251953	727.824951
31155.123617	1146.431333	1323.156250	741.492981
31155.123617	1146.431333	1322.061523	794.188782
31155.123617	1146.431333	1320.965820	971.770203
31155.123617	1146.431333	1319.870117	946.426453
31155.123617	1146.431333	1318.774414	776.972168
31155.123617	1146.431333	1317.678711	1018.055054
31155.123617	1146.431333	1316.582031	679.899841
31155.123617	1146.431333	1315.485352	667.824402
31155.123617	1146.431333	1314.388672	658.644409
31155.123617	1146.431333	1313.291016	784.279968
31155.123617	1146.431333	1312.194336	637.291077
31155.123617	1146.431333	1311.096680	527.210022
31155.123617	1146.431333	1309.999023	605.720825
31155.123617	1146.431333	1308.901367	492.298340
31155.123617	1146.431333	1307.802734	626.720215
31155.123617	1146.431333	1306.705078	688.929932
31155.123617	1146.431333	1305.606445	611.215942
31155.123617	1146.431333	1304.506836	694.989807
31155.123617	1146.431333	1303.408203	791.202698
31155.123617	1146.431333	1302.308594	844.337524
31155.123617	1146.431333	1301.208984	952.404236
31155.123617	1146.431333	1300.109375	904.543701
31155.123617	1146.431333	1299.009766	943.681946
31155.123617	1146.431333	1297.909180	959.179810
31155.123617	1146.431333	1296.808594	969.709290
31155.123617	1146.431333	1295.708008	942.870178
31155.123617	1146.431333	1294.607422	960.186279
31155.123617	1146.431333	1293.506836	1015.751465
31155.123617	1146.431333	1292.405273	849.157349
31155.123617	1146.431333	1291.303711	788.138123
31155.123617	1146.431333	1290.202148	868.072021
31155.123617	1146.431333	1289.099609	870.735107
31155.123617	1146.431333	1287.998047	742.145447
31155.123617	1146.431333	1286.895508	555.976013
31155.123617	1146.431333	1285.792969	486.471741
31155.123617	1146.431333	1284.689453	617.742798
31155.123617	1146.431333	1283.586914	428.519989
31155.123617	1146.431333	1282.483398	371.138519
31155.123617	1146.431333	1281.379883	476.478088
31155.123617	1146.431333	1280.276367	322.619049
31155.123617	1146.431333	1279.171875	262.481171
31155.123617	1146.431333	1278.067383	292.763489
31155.123617	1146.431333	1276.962891	322.945740
31155.123617	1146.431333	1275.858398	355.904205
31155.123617	1146.431333	1274.753906	222.866730
31155.123617	1146.431333	1273.648438	274.488495
31155.123617	1146.431333	1272.542969	452.137421
31155.123617	1146.431333	1271.437500	441.090149
31155.123617	1146.431333	1270.331055	283.934540
31155.123617	1146.431333	1269.225586	131.924530
31155.123617	1146.431333	1268.119141	104.009949
31155.123617	1146.431333	1267.012695	216.973679
31155.123617	1146.431333	1265.906250	167.621719
31155.123617	1146.431333	1264.798828	127.764572
31155.123617	1146.431333	1263.691406	199.357040
31155.123617	1146.431333	1262.583984	-25.217737
31155.123617	1146.431333	1261.476563	35.363323
31155.123617	1146.431333	1260.368164	92.800888
31155.123617	1146.431333	1259.260742	20.097469
31155.123617	1146.431333	1258.152344	-79.161842
31155.123617	1146.431333	1257.043945	47.901569
31155.123617	1146.431333	1255.934570	15.692012
31155.123617	1146.431333	1254.825195	155.254608
31155.123617	1146.431333	1253.716797	114.871826
31155.123617	1146.431333	1252.606445	77.044411
31155.123617	1146.431333	1251.497070	217.663925
31155.123617	1146.431333	1250.387695	349.716705
31155.123617	1146.431333	1249.277344	337.716461
31155.123617	1146.431333	1248.166992	314.460754
31155.123617	1146.431333	1247.055664	367.958405
31155.123617	1146.431333	1245.945313	318.959564
31155.123617	1146.431333	1244.833984	321.350586
31155.123617	1146.431333	1243.722656	248.236694
31155.123617	1146.431333	1242.611328	283.255035
31155.123617	1146.431333	1241.499023	246.838211
31155.123617	1146.431333	1240.387695	187.183228
31155.123617	1146.431333	1239.275391	154.271606
31155.123617	1146.431333	1238.162109	304.387878
31155.123617	1146.431333	1237.049805	240.935745
31155.123617	1146.431333	1235.936523	184.198837
31155.123617	1146.431333	1234.823242	98.449539
31155.123617	1146.431333	1233.709961	124.596001
31155.123617	1146.431333	1232.596680	149.420380
31155.123617	1146.431333	1231.482422	283.002686
31155.123617	1146.431333	1230.369141	255.764786
31155.123617	1146.431333	1229.253906	149.665512
31155.123617	1146.431333	1228.139648	100.701027
31155.123617	1146.431333	1227.025391	107.361984
31155.123617	1146.431333	1225.910156	73.729324
31155.123617	1146.431333	1224.794922	63.223988
31155.123617	1146.431333	1223.679688	196.412354
31155.123617	1146.431333	1222.563477	42.738613
31155.123617	1146.431333	1221.447266	139.457748
31155.123617	1146.431333	1220.331055	-118.251053
31155.123617	1146.431333	1219.214844	185.975983
31155.123617	1146.431333	1218.098633	106.889854
31155.123617	1146.431333	1216.981445	47.835537
31155.123617	1146.431333	1215.864258	164.231216
31155.123617	1146.431333	1214.747070	25.573503
31155.123617	1146.431333	1213.629883	72.458611
31155.123617	1146.431333	1212.511719	92.224632
31155.123617	1146.431333	1211.393555	223.416809
31155.123617	1146.431333	1210.275391	85.449242
31155.123617	1146.431333	1209.157227	180.417175
31155.123617	1146.431333	1208.038086	117.743645
31155.123617	1146.431333	1206.918945	176.995911
31155.123617	1146.431333	1205.799805	-17.565678
31155.123617	1146.431333	1204.680664	16.393400
31155.123617	1146.431333	1203.560547	79.867859
31155.123617	1146.431333	1202.441406	8.494462
31155.123617	1146.431333	1201.321289	-59.078773
31155.123617	1146.431333	1200.200195	-17.794693
31155.123617	1146.431333	1199.080078	-79.899689
31155.123617	1146.431333	1197.958984	-46.600349
31155.123617	1146.431333	1196.837891	-60.259304
31155.123617	1146.431333	1195.716797	-112.305153
31155.123617	1146.431333	1194.594727	-146.198898
31155.123617	1146.431333	1193.473633	-121.399063
31155.123617	1146.431333	1192.351563	-86.126625
31155.123617	1146.431333	1191.229492	-124.919830
31155.123617	1146.431333	1190.106445	-128.885773
31155.123617	1146.431333	1188.984375	-82.075508
31155.123617	1146.431333	1187.861328	-84.211670
31155.123617	1146.431333	1186.738281	-53.014511
31155.123617	1146.431333	1185.614258	-55.831936
31155.123617	1146.431333	1184.491211	-126.836334
31155.123617	1146.431333	1183.367188	1.740667
31155.123617	1146.431333	1182.243164	-103.633553
31155.123617	1146.431333	1181.119141	-96.496407
31155.123617	1146.431333	1179.994141	-3.392698
31155.123617	1146.431333	1178.869141	-43.220173
31155.123617	1146.431333	1177.744141	-63.156860
31155.123617	1146.431333	1176.619141	-12.763585
31155.123617	1146.431333	1175.493164	-63.006634
31155.123617	1146.431333	1174.368164	18.525677
31155.123617	1146.431333	1173.242188	56.774582
31155.123617	1146.431333	1172.115234	-70.366722
31155.123617	1146.431333	1170.989258	-9.681664
31155.123617	1146.431333	1169.862305	-4.283377
31155.123617	1146.431333	1168.735352	-20.253864
31155.123617	1146.431333	1167.608398	-68.602638
31155.123617	1146.431333	1166.481445	129.783829
31155.123617	1146.431333	1165.353516	-142.368103
31155.123617	1146.431333	1164.225586	-27.683744
31155.123617	1146.431333	1163.097656	32.951927
31155.123617	1146.431333	1161.968750	-2.720660
31155.123617	1146.431333	1160.840820	10.627029
31155.123617	1146.431333	1159.711914	95.393044
31155.123617	1146.431333	1158.583008	-9.450089
31155.123617	1146.431333	1157.453125	-58.268482
31155.123617	1146.431333	1156.324219	12.881923
31155.123617	1146.431333	1155.194336	66.434563
31155.123617	1146.431333	1154.064453	-41.002613
31155.123617	1146.431333	1152.933594	-99.520447
31155.123617	1146.431333	1151.803711	6.402071
31155.123617	1146.431333	1150.672852	22.186899
31155.123617	1146.431333	1149.541992	69.966072
31155.123617	1146.431333	1148.411133	42.910351
31155.123617	1146.431333	1147.279297	-52.613262
31155.123617	1146.431333	1146.147461	38.099659
31155.123617	1146.431333	1145.015625	24.512363
31155.123617	1146.431333	1143.883789	15.986056
31155.123617	1146.431333	1142.750977	45.744072
31155.123617	1146.431333	1141.619141	109.215340
31155.123617	1146.431333	1140.486328	-37.161205
31155.123617	1146.431333	1139.352539	44.418442
31155.123617	1146.431333	1138.219727	10.777471
31155.123617	1146.431333	1137.085938	60.703266
31155.123617	1146.431333	1135.952148	-0.906026
31155.123617	1146.431333	1134.818359	39.297176
31155.123617	1146.431333	1133.683594	-96.977226
31155.123617	1146.431333	1132.549805	-38.465710
31155.123617	1146.431333	1131.415039	71.931274
31155.123617	1146.431333	1130.279297	74.985046
31155.123617	1146.431333	1129.144531	192.744522
31155.123617	1146.431333	1128.008789	2.841258
31155.123617	1146.431333	1126.873047	131.240646
31155.123617	1146.431333	1125.737305	114.711182
31155.123617	1146.431333	1124.601563	96.926193
31155.123617	1146.431333	1123.464844	332.568909
31155.123617	1146.431333	1122.328125	236.633713
31155.123617	1146.431333	1121.191406	109.082474
31155.123617	1146.431333	1120.054688	143.633942
31155.123617	1146.431333	1118.916992	241.765656
31155.123617	1146.431333	1117.779297	306.173309
31155.123617	1146.431333	1116.641602	362.483887
31155.123617	1146.431333	1115.503906	246.946869
31155.123617	1146.431333	1114.365234	296.673004
31155.123617	1146.431333	1113.226563	299.794647
31155.123617	1146.431333	1112.087891	237.126785
31155.123617	1146.431333	1110.949219	190.773926
31155.123617	1146.431333	1109.809570	156.436035
31155.123617	1146.431333	1108.669922	228.861374
31155.123617	1146.431333	1107.530273	233.614899
31155.123617	1146.431333	1106.390625	159.514069
31155.123617	1146.431333	1105.250000	226.423721
31155.123617	1146.431333	1104.109375	290.134308
31155.123617	1146.431333	1102.968750	223.703491
31155.123617	1146.431333	1101.828125	274.715302
31155.123617	1146.431333	1100.686523	354.108704
31155.123617	1146.431333	1099.544922	209.104950
31155.123617	1146.431333	1098.403320	305.211914
31155.123617	1146.431333	1097.261719	314.258820
31155.123617	1146.431333	1096.120117	230.875565
31155.123617	1146.431333	1094.977539	273.211914
31155.123617	1146.431333	1093.834961	246.876038
31155.123617	1146.431333	1092.691406	199.844269
31155.123617	1146.431333	1091.548828	217.655396
31155.123617	1146.431333	1090.405273	349.050049
31155.123617	1146.431333	1089.261719	204.107742
31155.123617	1146.431333	1088.118164	229.779755
31155.123617	1146.431333	1086.973633	233.434860
31155.123617	1146.431333	1085.829102	160.556488
31155.123617	1146.431333	1084.684570	224.839584
31155.123617	1146.431333	1083.540039	159.037201
31155.123617	1146.431333	1082.395508	215.606003
31155.123617	1146.431333	1081.250000	290.907745
31155.123617	1146.431333	1080.104492	266.844543
31155.123617	1146.431333	1078.958984	225.698746
31155.123617	1146.431333	1077.812500	364.368134
31155.123617	1146.431333	1076.666016	256.752502
31155.123617	1146.431333	1075.519531	301.769501
31155.123617	1146.431333	1074.373047	266.818146
31155.123617	1146.431333	1073.226563	296.589539
31155.123617	1146.431333	1072.079102	346.456909
31155.123617	1146.431333	1070.931641	408.621490
31155.123617	1146.431333	1069.784180	292.262115
31155.123617	1146.431333	1068.635742	268.105957
31155.123617	1146.431333	1067.487305	259.623901
31155.123617	1146.431333	1066.338867	260.047546
31155.123617	1146.431333	1065.190430	256.634857
31155.123617	1146.431333	1064.041992	136.260544
31155.123617	1146.431333	1062.892578	379.708710
31155.123617	1146.431333	1061.743164	271.449432
31155.123617	1146.431333	1060.593750	304.117188
31155.123617	1146.431333	1059.443359	270.811401
31155.123617	1146.431333	1058.292969	363.569641
31155.123617	1146.431333	1057.142578	151.507370
31155.123617	1146.431333	1055.992188	154.656006
31155.123617	1146.431333	1054.841797	115.185654
31155.123617	1146.431333	1053.690430	180.627747
31155.123617	1146.431333	1052.539063	257.979523
31155.123617	1146.431333	1051.387695	183.472595
31155.123617	1146.431333	1050.235352	173.495743
31155.123617	1146.431333	1049.083984	60.407280
31155.123617	1146.431333	1047.931641	97.166122
31155.123617	1146.431333	1046.778320	102.426697
31155.123617	1146.431333	1045.625977	242.412231
31155.123617	1146.431333	1044.472656	281.726501
31155.123617	1146.431333	1043.319336	64.334305
31155.123617	1146.431333	1042.166016	189.570786
31155.123617	1146.431333	1041.012695	60.626610
31155.123617	1146.431333	1039.858398	134.374146
31155.123617	1146.431333	1038.704102	123.683098
31155.123617	1146.431333	1037.549805	84.720657
31155.123617	1146.431333	1036.394531	112.387466
31155.123617	1146.431333	1035.239258	0.325268
31155.123617	1146.431333	1034.083984	152.182236
31155.123617	1146.431333	1032.928711	135.460068
31155.123617	1146.431333	1031.773438	183.303497
31155.123617	1146.431333	1030.617188	185.065674
31155.123617	1146.431333	1029.460938	319.961731
31155.123617	1146.431333	1028.304688	374.246765
31155.123617	1146.431333	1027.147461	305.380310
31155.123617	1146.431333	1025.991211	291.329254
31155.123617	1146.431333	1024.833984	145.493286
31155.123617	1146.431333	1023.675781	163.612793
31155.123617	1146.431333	1022.518555	240.278915
31155.123617	1146.431333	1021.360352	237.859894
31155.123617	1146.431333	1020.202148	159.774750
31155.123617	1146.431333	1019.043945	86.457764
31155.123617	1146.431333	1017.884766	131.197342
31155.123617	1146.431333	1016.726563	172.133682
31155.123617	1146.431333	1015.567383	53.088425
31155.123617	1146.431333	1014.407227	191.105164
31155.123617	1146.431333	1013.248047	141.129471
31155.123617	1146.431333	1012.087891	57.149796
31155.123617	1146.431333	1010.927734	82.101448
31155.123617	1146.431333	1009.767578	-114.220421
31155.123617	1146.431333	1008.606445	33.506062
31155.123617	1146.431333	1007.446289	148.104645
31155.123617	1146.431333	1006.285156	185.783234
31155.123617	1146.431333	1005.123047	274.527374
31155.123617	1146.431333	1003.961914	235.262466
31155.123617	1146.431333	1002.799805	304.674866
31155.123617	1146.431333	1001.637695	6.001776
31155.123617	1146.431333	1000.475586	284.306946
31155.123617	1146.431333	999.312500	366.640564
31155.123617	1146.431333	998.149414	142.330780
31155.123617	1146.431333	996.986328	272.760620
31155.123617	1146.431333	995.823242	228.274582
31155.123617	1146.431333	994.659180	156.815308
31155.123617	1146.431333	993.496094	36.532810
31155.123617	1146.431333	992.332031	125.412254
31155.123617	1146.431333	991.166992	84.022171
31155.123617	1146.431333	990.002930	47.082008
31155.123617	1146.431333	988.837891	82.419594
31155.123617	1146.431333	987.672852	-88.706055
31155.123617	1146.431333	986.506836	9.157827
31155.123617	1146.431333	985.341797	-106.111420
31155.123617	1146.431333	984.175781	-90.320915
31155.123617	1146.431333	983.009766	-41.944469
31155.123617	1146.431333	981.843750	25.997625
31155.123617	1146.431333	980.676758	-112.525383
31155.123617	1146.431333	979.509766	-36.387623
31155.123617	1146.431333	978.342773	-134.555206
31155.123617	1146.431333	977.175781	-52.510323
31155.123617	1146.431333	976.007813	117.897324
31155.123617	1146.431333	974.839844	-94.975372
31155.123617	1146.431333	973.671875	-2.879656
31155.123617	1146.431333	972.503906	17.120211
31155.123617	1146.431333	971.334961	85.515282
31155.123617	1146.431333	970.166016	-103.490799
31155.123617	1146.431333	968.997070	-15.677122
31155.123617	1146.431333	967.828125	8.381302
31155.123617	1146.431333	966.658203	41.596344
31155.123617	1146.431333	965.488281	47.456879
31155.123617	1146.431333	964.318359	-23.141405
31155.123617	1146.431333	963.148438	-51.173901
31155.123617	1146.431333	961.977539	155.497742
31155.123617	1146.431333	960.806641	24.353659
31155.123617	1146.431333	959.635742	-8.912601
31155.123617	1146.431333	958.463867	-0.467439
31155.123617	1146.431333	957.292969	-35.125496
31155.123617	1146.431333	956.121094	71.870079
31155.123617	1146.431333	954.948242	51.443722
31155.123617	1146.431333	953.776367	122.731567
31155.123617	1146.431333	952.603516	-13.964723
31155.123617	1146.431333	951.430664	-119.238609
31155.123617	1146.431333	950.257813	-4.103125
31155.123617	1146.431333	949.084961	44.477543
31155.123617	1146.431333	947.911133	50.568752
31155.123617	1146.431333	946.737305	-8.204159
31155.123617	1146.431333	945.563477	-84.126190
31155.123617	1146.431333	944.388672	76.000282
31155.123617	1146.431333	943.213867	75.116562
31155.123617	1146.431333	942.039063	111.126595
31155.123617	1146.431333	940.864258	127.112061
31155.123617	1146.431333	939.688477	55.507343
31155.123617	1146.431333	938.513672	106.240944
31155.123617	1146.431333	937.337891	154.772766
31155.123617	1146.431333	936.161133	18.349480
31155.123617	1146.431333	934.985352	86.288834
31155.123617	1146.431333	933.808594	5.722503
31155.123617	1146.431333	932.631836	150.944931
31155.123617	1146.431333	931.454102	128.501678
31155.123617	1146.431333	930.277344	176.910828
31155.123617	1146.431333	929.099609	147.945023
31155.123617	1146.431333	927.921875	56.701000
31155.123617	1146.431333	926.743164	197.373672
31155.123617	1146.431333	925.565430	69.610107
31155.123617	1146.431333	924.386719	193.034882
31155.123617	1146.431333	923.208008	183.341965
31155.123617	1146.431333	922.028320	-4.475975
31155.123617	1146.431333	920.849609	86.673073
31155.123617	1146.431333	919.669922	88.931137
31155.123617	1146.431333	919.474609	-2.038355
31155.123617	1146.431333	918.309570	13.953172
31155.123617	1146.431333	917.143555	-55.842251
31155.123617	1146.431333	915.977539	60.879734
31155.123617	1146.431333	914.810547	-43.219822
31155.123617	1146.431333	913.644531	-128.008743
31155.123617	1146.431333	912.477539	3.608432
31155.123617	1146.431333	911.310547	98.742249
31155.123617	1146.431333	910.143555	46.054382
31155.123617	1146.431333	908.975586	-90.130135
31155.123617	1146.431333	907.807617	-57.159706
31155.123617	1146.431333	906.639648	-103.408318
31155.123617	1146.431333	905.471680	-108.996521
31155.123617	1146.431333	904.303711	-63.253403
31155.123617	1146.431333	903.134766	-0.430666
31155.123617	1146.431333	901.965820	109.398239
31155.123617	1146.431333	900.796875	125.091743
31155.123617	1146.431333	899.626953	-32.383667
31155.123617	1146.431333	898.457031	-27.383141
31155.123617	1146.431333	897.287109	-39.494068
31155.123617	1146.431333	896.117188	-68.706665
31155.123617	1146.431333	894.947266	17.416075
31155.123617	1146.431333	893.776367	9.530032
31155.123617	1146.431333	892.605469	95.572090
31155.123617	1146.431333	891.434570	57.757576
31155.123617	1146.431333	890.262695	62.628056
31155.123617	1146.431333	889.091797	-45.608128
31155.123617	1146.431333	887.919922	36.048645
31155.123617	1146.431333	886.748047	92.061676
31155.123617	1146.431333	885.575195	137.376266
31155.123617	1146.431333	884.403320	27.020674
31155.123617	1146.431333	883.230469	151.165298
31155.123617	1146.431333	882.057617	21.642147
31155.123617	1146.431333	880.883789	32.782181
31155.123617	1146.431333	879.710938	5.555662
31155.123617	1146.431333	878.537109	-28.063427
31155.123617	1146.431333	877.362305	-110.658173
31155.123617	1146.431333	876.188477	-80.403763
31155.123617	1146.431333	875.013672	-7.606575
31155.123617	1146.431333	873.839844	-62.539398
31155.123617	1146.431333	872.664063	108.063942
31155.123617	1146.431333	871.489258	-51.133152
31155.123617	1146.431333	870.313477	-57.154465
31155.123617	1146.431333	869.138672	-44.054432
31155.123617	1146.431333	867.962891	-20.345177
31155.123617	1146.431333	866.786133	-0.911579
31155.123617	1146.431333	865.610352	29.121202
31155.123617	1146.431333	864.433594	103.742416
31155.123617	1146.431333	863.256836	-48.966759
31155.123617	1146.431333	862.079102	27.730642
31155.123617	1146.431333	860.902344	64.036705
31155.123617	1146.431333	859.724609	93.943489
31155.123617	1146.431333	858.546875	106.841789
31155.123617	1146.431333	857.368164	-81.867928
31155.123617	1146.431333	856.190430	9.522877
31155.123617	1146.431333	855.011719	102.980743
31155.123617	1146.431333	853.833008	260.002472
31155.123617	1146.431333	852.654297	-125.833923
31155.123617	1146.431333	851.474609	-51.536251
31155.123617	1146.431333	850.294922	79.936272
31155.123617	1146.431333	849.115234	88.439003
31155.123617	1146.431333	847.935547	73.617340
31155.123617	1146.431333	846.754883	12.187018
31155.123617	1146.431333	845.575195	160.405655
31155.123617	1146.431333	844.393555	-144.527588
31155.123617	1146.431333	843.212891	-142.428802
31155.123617	1146.431333	842.032227	-222.885513
31155.123617	1146.431333	840.850586	-57.886162
31155.123617	1146.431333	839.668945	-34.708199
31155.123617	1146.431333	838.486328	-30.593046
31155.123617	1146.431333	837.304688	-77.249191
31155.123617	1146.431333	836.122070	-64.709656
31155.123617	1146.431333	834.939453	-5.693242
31155.123617	1146.431333	833.756836	-5.892962
31155.123617	1146.431333	832.573242	-23.013700
31155.123617	1146.431333	831.389648	-154.216599
31155.123617	1146.431333	830.206055	-112.205917
31155.123617	1146.431333	829.022461	-42.783546
31155.123617	1146.431333	827.838867	-184.517990
31155.123617	1146.431333	826.654297	5.156768
31155.123617	1146.431333	825.469727	68.119698
31155.123617	1146.431333	824.284180	71.962654
31155.123617	1146.431333	823.099609	-42.340839
31155.123617	1146.431333	821.914063	-21.648426
31155.123617	1146.431333	820.728516	-87.433624
31155.123617	1146.431333	819.542969	9.105666
31155.123617	1146.431333	818.356445	33.924973
31155.123617	1146.431333	817.169922	-111.968697
31155.123617	1146.431333	815.983398	-11.336728
31155.123617	1146.431333	814.796875	-3.445879
31155.123617	1146.431333	813.609375	134.982544
31155.123617	1146.431333	812.422852	-50.904751
31155.123617	1146.431333	811.235352	7.440486
31155.123617	1146.431333	810.046875	-89.997589
31155.123617	1146.431333	808.859375	-107.463272
31155.123617	1146.431333	807.670898	32.831806
31155.123617	1146.431333	806.482422	-85.654503
31155.123617	1146.431333	805.293945	-25.376942
31155.123617	1146.431333	804.104492	-84.983734
31155.123617	1146.431333	802.915039	109.745239
31155.123617	1146.431333	801.725586	117.334724
31155.123617	1146.431333	800.536133	82.874878
31155.123617	1146.431333	799.345703	46.304329
31155.123617	1146.431333	798.155273	104.232430
31155.123617	1146.431333	796.964844	-41.566082
31155.123617	1146.431333	795.774414	100.279243
31155.123617	1146.431333	794.583008	34.249413
31155.123617	1146.431333	793.392578	68.946838
31155.123617	1146.431333	792.200195	-22.277452
31155.123617	1146.431333	791.008789	-4.414948
31155.123617	1146.431333	789.816406	65.842636
31155.123617	1146.431333	788.625000	117.174049
31155.123617	1146.431333	787.432617	-1.342001
31155.123617	1146.431333	786.239258	-136.603195
31155.123617	1146.431333	785.046875	-120.964355
31155.123617	1146.431333	783.853516	-149.354218
31155.123617	1146.431333	782.660156	8.656200
31155.123617	1146.431333	781.465820	19.984690
31155.123617	1146.431333	780.272461	54.311287
31155.123617	1146.431333	779.078125	94.875053
31155.123617	1146.431333	777.883789	-122.022392
31155.123617	1146.431333	776.688477	-37.555126
31155.123617	1146.431333	775.494141	34.297409
31155.123617	1146.431333	774.298828	-27.765947
31155.123617	1146.431333	773.103516	12.630749
31155.123617	1146.431333	771.907227	15.349955
31155.123617	1146.431333	770.711914	45.212223
31155.123617	1146.431333	769.515625	106.378616
31155.123617	1146.431333	768.318359	94.363586
31155.123617	1146.431333	767.122070	-59.722130
31155.123617	1146.431333	765.924805	3.427910
31155.123617	1146.431333	764.727539	18.496956
31155.123617	1146.431333	763.530273	25.179222
31155.123617	1146.431333	762.333008	69.397446
31155.123617	1146.431333	761.134766	-7.464138
31155.123617	1146.431333	759.936523	111.788574
31155.123617	1146.431333	758.738281	-2.656542
31155.123617	1146.431333	757.540039	-77.460724
31155.123617	1146.431333	756.340820	52.064384
31155.123617	1146.431333	755.141602	-133.264938
31155.123617	1146.431333	753.942383	-99.713928
31155.123617	1146.431333	752.742188	19.222603
31155.123617	1146.431333	751.541992	58.914730
31155.123617	1146.431333	750.341797	83.978569
31155.123617	1146.431333	749.141602	92.341789
31155.123617	1146.431333	747.941406	11.145419
31155.123617	1146.431333	746.740234	79.820313
31155.123617	1146.431333	745.539063	2.758673
31155.123617	1146.431333	744.337891	-45.173851
31155.123617	1146.431333	743.135742	-103.520096
31155.123617	1146.431333	741.933594	-5.889736
31155.123617	1146.431333	740.731445	89.588272
31155.123617	1146.431333	739.529297	26.995920
31155.123617	1146.431333	738.326172	-39.760017
31155.123617	1146.431333	737.124023	57.646393
31155.123617	1146.431333	735.919922	5.389627
31155.123617	1146.431333	734.716797	61.136456
31155.123617	1146.431333	733.513672	-3.623820
31155.123617	1146.431333	732.309570	39.577980
31155.123617	1146.431333	731.105469	20.452280
31155.123617	1146.431333	729.900391	165.261673
31155.123617	1146.431333	728.696289	158.502899
31155.123617	1146.431333	727.491211	66.655251
31155.123617	1146.431333	726.286133	244.452225
31155.123617	1146.431333	725.080078	173.295486
31155.123617	1146.431333	723.874023	112.502098
31155.123617	1146.431333	722.668945	37.192932
31155.123617	1146.431333	721.461914	38.559193
31155.123617	1146.431333	720.255859	128.988846
31155.123617	1146.431333	719.048828	95.053642
31155.123617	1146.431333	717.841797	204.006332
31155.123617	1146.431333	716.634766	56.117500
31155.123617	1146.431333	715.427734	-64.829124
31155.123617	1146.431333	714.219727	37.780376
31155.123617	1146.431333	713.011719	26.498692
31155.123617	1146.431333	711.803711	48.292210
31155.123617	1146.431333	710.594727	10.056026
31155.123617	1146.431333	709.385742	33.846348
31155.123617	1146.431333	708.176758	107.216988
31155.123617	1146.431333	706.967773	62.694427
31155.123617	1146.431333	705.758789	146.298294
31155.123617	1146.431333	704.548828	91.388947
31155.123617	1146.431333	703.338867	30.272743
31155.123617	1146.431333	702.127930	88.946213
31155.123617	1146.431333	700.917969	145.499680
31155.123617	1146.431333	699.707031	71.926575
31155.123617	1146.431333	698.496094	35.507980
31155.123617	1146.431333	697.285156	-38.073803
31155.123617	1146.431333	696.073242	-121.974182
31155.123617	1146.431333	694.861328	-67.658058
31155.123617	1146.431333	693.649414	-48.456779
31155.123617	1146.431333	692.436523	55.245674
31155.123617	1146.431333	691.224609	-1.926228
31155.123617	1146.431333	690.011719	46.011810
31155.123617	1146.431333	688.798828	137.174637
31155.123617	1146.431333	687.584961	285.954590
31155.123617	1146.431333	686.372070	67.992943
31155.123617	1146.431333	685.158203	105.457932
31155.123617	1146.431333	683.943359	202.586060
31155.123617	1146.431333	682.729492	209.070526
31155.123617	1146.431333	681.514648	145.546249
31155.123617	1146.431333	680.299805	154.038437
31155.123617	1146.431333	679.084961	189.242676
31155.123617	1146.431333	677.869141	117.448181
31155.123617	1146.431333	676.653320	300.646576
31155.123617	1146.431333	675.437500	269.922577
31155.123617	1146.431333	674.221680	80.910370
31155.123617	1146.431333	673.004883	140.612427
31155.123617	1146.431333	671.789063	202.320053
31155.123617	1146.431333	670.571289	159.206161
31155.123617	1146.431333	669.354492	163.323151
31155.123617	1146.431333	668.136719	161.250854
31155.123617	1146.431333	666.919922	194.056168
31155.123617	1146.431333	665.701172	206.292664
31155.123617	1146.431333	664.483398	52.286911
31155.123617	1146.431333	663.264648	142.460938
31155.123617	1146.431333	662.045898	88.990761
31155.123617	1146.431333	660.827148	121.650719
31155.123617	1146.431333	659.608398	84.563782
31155.123617	1146.431333	658.388672	24.918386
31155.123617	1146.431333	657.168945	-28.575645
31155.123617	1146.431333	655.949219	-6.255280
31155.123617	1146.431333	654.728516	73.391624
31155.123617	1146.431333	653.507813	206.236099
31155.123617	1146.431333	652.287109	-17.298529
31155.123617	1146.431333	651.066406	-5.321192
31155.123617	1146.431333	649.844727	39.377987
31155.123617	1146.431333	648.623047	108.596405
31155.123617	1146.431333	647.401367	65.237877
31155.123617	1146.431333	646.179688	7.560212
31155.123617	1146.431333	644.957031	35.782051
31155.123617	1146.431333	643.734375	4.678419
31155.123617	1146.431333	642.511719	-59.136398
31155.123617	1146.431333	641.289063	95.748283
31155.123617	1146.431333	640.065430	-51.872753
31155.123617	1146.431333	638.841797	35.493866
31155.123617	1146.431333	637.618164	-42.635689
31155.123617	1146.431333	636.393555	-55.402180
31155.123617	1146.431333	635.168945	-80.426445
31155.123617	1146.431333	633.944336	-140.154205
31155.123617	1146.431333	632.719727	-179.461365
31155.123617	1146.431333	631.494141	-147.353409
31155.123617	1146.431333	630.269531	-58.149635
31155.123617	1146.431333	629.042969	-40.381886
31155.123617	1146.431333	627.817383	-0.199725
31155.123617	1146.431333	626.590820	-0.819356
31155.123617	1146.431333	625.365234	-9.597560
31155.123617	1146.431333	624.137695	42.746735
31155.123617	1146.431333	622.911133	194.894150
31155.123617	1146.431333	621.683594	4.766640
31155.123617	1146.431333	620.456055	40.762093
31155.123617	1146.431333	619.228516	-6.740920
31155.123617	1146.431333	618.000977	-70.513725
31155.123617	1146.431333	616.772461	48.898624
31155.123617	1146.431333	615.543945	-12.835442
31155.123617	1146.431333	614.314453	-109.132545
31155.123617	1146.431333	613.085938	-50.813709
31155.123617	1146.431333	611.856445	-69.794853
31155.123617	1146.431333	610.626953	-15.580871
31155.123617	1146.431333	609.397461	83.326477
31155.123617	1146.431333	608.166992	-69.797523
31155.123617	1146.431333	606.936523	8.760529
31155.123617	1146.431333	605.706055	-83.341461
31155.123617	1146.431333	604.474609	39.866158
31155.123617	1146.431333	603.244141	71.658089
31155.123617	1146.431333	602.012695	12.087696
31155.123617	1146.431333	600.780273	179.854919
31155.123617	1146.431333	599.548828	45.218803
31155.123617	1146.431333	598.316406	-44.726227
31155.123617	1146.431333	597.083984	9.381158
31155.123617	1146.431333	595.851563	-167.701019
31155.123617	1146.431333	594.618164	6.038484
31155.123617	1146.431333	593.384766	-45.281227
31155.123617	1146.431333	592.151367	89.872307
31155.123617	1146.431333	590.917969	113.542274
31155.123617	1146.431333	589.683594	-30.920704
31155.123617	1146.431333	588.449219	-29.493240
31155.123617	1146.431333	587.214844	-121.195129
31155.123617	1146.431333	585.979492	74.614319
31155.123617	1146.431333	584.745117	1.171497
31155.123617	1146.431333	583.509766	22.877687
31155.123617	1146.431333	582.273438	-20.152105
31155.123617	1146.431333	581.038086	-73.258232
31155.123617	1146.431333	579.801758	-174.861115
31155.123617	1146.431333	578.565430	-90.398407
31155.123617	1146.431333	577.329102	-125.213654
31155.123617	1146.431333	576.091797	-48.846729
31155.123617	1146.431333	574.854492	1.240730
31155.123617	1146.431333	573.617188	29.106045
31155.123617	1146.431333	572.378906	56.977936
31155.123617	1146.431333	571.141602	54.573868
31155.123617	1146.431333	569.903320	-85.086403
31155.123617	1146.431333	568.664063	15.517376
31155.123617	1146.431333	567.425781	57.583977
31155.123617	1146.431333	566.186523	89.567345
31155.123617	1146.431333	564.947266	-112.416237
31155.123617	1146.431333	563.708008	10.388265
31155.123617	1146.431333	562.467773	-16.033972
31155.123617	1146.431333	561.227539	38.212559
31155.123617	1146.431333	559.987305	132.770065
31155.123617	1146.431333	558.747070	102.391571
31155.123617	1146.431333	557.505859	170.761551
31155.123617	1146.431333	556.264648	61.896461
31155.123617	1146.431333	555.023438	-6.620129
31155.123617	1146.431333	553.781250	114.159462
31155.123617	1146.431333	552.539063	83.962532
31155.123617	1146.431333	551.296875	172.537155
31155.123617	1146.431333	550.054688	94.119209
31155.123617	1146.431333	548.811523	90.189621
31155.123617	1146.431333	547.569336	152.660599
31155.123617	1146.431333	546.325195	116.615593
31155.123617	1146.431333	545.082031	72.581444
31155.123617	1146.431333	543.837891	50.706123
31155.123617	1146.431333	542.593750	123.312294
31155.123617	1146.431333	541.349609	73.381805
31155.123617	1146.431333	540.105469	-20.676756
31155.123617	1146.431333	538.860352	1.803669
31155.123617	1146.431333	537.615234	66.471237
31155.123617	1146.431333	536.369141	-101.683716
31155.123617	1146.431333	535.124023	-75.075447
31155.123617	1146.431333	533.877930	-42.423336
31155.123617	1146.431333	532.631836	-61.899750
31155.123617	1146.431333	531.384766	97.152664
31155.123617	1146.431333	530.138672	23.596674
31155.123617	1146.431333	528.891602	-29.845070
31155.123617	1146.431333	527.643555	-99.259224
31155.123617	1146.431333	526.396484	81.860756
31155.123617	1146.431333	525.148438	-3.495281
31155.123617	1146.431333	523.900391	35.401279
31155.123617	1146.431333	522.652344	-91.880180
31155.123617	1146.431333	521.403320	45.193710
31155.123617	1146.431333	520.154297	-9.901068
31155.123617	1146.431333	518.905273	-134.972656
31155.123617	1146.431333	517.656250	-119.902000
31155.123617	1146.431333	516.406250	-54.792435
31155.123617	1146.431333	515.156250	36.326878
31155.123617	1146.431333	513.906250	-20.511038
31155.123617	1146.431333	512.655273	178.583618
31155.123617	1146.431333	511.404297	-68.045937
31155.123617	1146.431333	510.153320	-78.752541
31155.123617	1146.431333	508.902344	-111.390518
31155.123617	1146.431333	507.650391	-0.174589
31155.123617	1146.431333	506.398438	81.078506
31155.123617	1146.431333	505.146484	72.495758
31155.123617	1146.431333	503.893555	237.602158
31155.123617	1146.431333	502.641602	255.004456
31155.123617	1146.431333	501.388672	13.068502
31155.123617	1146.431333	500.134766	86.431931
31155.123617	1146.431333	498.881836	50.114277
31155.123617	1146.431333	497.627930	-18.055708
31155.123617	1146.431333	496.374023	11.513334
31155.123617	1146.431333	495.119141	92.918526
31155.123617	1146.431333	493.865234	6.947043
31155.123617	1146.431333	492.610352	-13.217359
31155.123617	1146.431333	491.355469	-5.460204
31155.123617	1146.431333	490.099609	4.312587
31155.123617	1146.431333	488.843750	6.145994
31155.123617	1146.431333	487.587891	2.033514
31155.123617	1146.431333	486.332031	194.955399
31155.123617	1146.431333	485.075195	133.155975
31155.123617	1146.431333	483.818359	216.611557
31155.123617	1146.431333	482.561523	129.025330
31155.123617	1146.431333	481.304688	190.616592
31155.123617	1146.431333	480.046875	315.809174
31155.123617	1146.431333	478.789063	291.910065
31155.123617	1146.431333	477.531250	273.997772
31155.123617	1146.431333	476.272461	216.375320
31155.123617	1146.431333	475.013672	379.248413
31155.123617	1146.431333	473.754883	409.020508
31155.123617	1146.431333	472.496094	353.421600
31155.123617	1146.431333	471.236328	325.639801
31155.123617	1146.431333	469.976563	428.845276
31155.123617	1146.431333	468.716797	391.145782
31155.123617	1146.431333	467.456055	359.412750
31155.123617	1146.431333	466.196289	299.927368
31155.123617	1146.431333	464.935547	339.597168
31155.123617	1146.431333	463.673828	214.714584
31155.123617	1146.431333	462.413086	367.333069
31155.123617	1146.431333	461.151367	363.341736
31155.123617	1146.431333	459.889648	505.929260
31155.123617	1146.431333	458.626953	373.140686
31155.123617	1146.431333	457.364258	499.784149
31155.123617	1146.431333	456.101563	412.542206
31155.123617	1146.431333	454.838867	382.710114
31155.123617	1146.431333	453.575195	346.923370
31155.123617	1146.431333	452.312500	330.903381
31155.123617	1146.431333	451.047852	413.751587
31155.123617	1146.431333	449.784180	393.691284
31155.123617	1146.431333	448.519531	419.069305
31155.123617	1146.431333	447.254883	323.810272
31155.123617	1146.431333	445.990234	384.666351
31155.123617	1146.431333	444.725586	230.074051
31155.123617	1146.431333	443.459961	300.686340
31155.123617	1146.431333	442.194336	130.255737
31155.123617	1146.431333	440.927734	107.922607
31155.123617	1146.431333	439.662109	200.027710
31155.123617	1146.431333	438.395508	173.593063
31155.123617	1146.431333	437.127930	289.164246
31155.123617	1146.431333	435.861328	252.690857
31155.123617	1146.431333	434.593750	302.928101
31155.123617	1146.431333	433.326172	299.804321
31155.123617	1146.431333	432.058594	308.410645
31155.123617	1146.431333	430.790039	385.895782
31155.123617	1146.431333	429.521484	289.812836
31155.123617	1146.431333	428.252930	191.684311
31155.123617	1146.431333	426.984375	296.372314
31155.123617	1146.431333	425.714844	284.688171
31155.123617	1146.431333	424.445313	528.846497
31155.123617	1146.431333	423.174805	400.693817
31155.123617	1146.431333	421.905273	461.395996
31155.123617	1146.431333	420.634766	453.046600
31155.123617	1146.431333	419.364258	416.998688
31155.123617	1146.431333	418.092773	524.380981
31155.123617	1146.431333	416.822266	474.229828
31155.123617	1146.431333	415.550781	408.190399
31155.123617	1146.431333	414.278320	361.645508
31155.123617	1146.431333	413.006836	426.944855
31155.123617	1146.431333	411.734375	466.469635
31155.123617	1146.431333	410.461914	417.374084
31155.123617	1146.431333	409.188477	315.054199
31155.123617	1146.431333	407.916016	426.575195
31155.123617	1146.431333	406.642578	327.765991
31155.123617	1146.431333	405.368164	450.530121
31155.123617	1146.431333	404.094727	416.019684
31155.123617	1146.431333	402.820313	345.950256
31155.123617	1146.431333	401.545898	363.904236
31155.123617	1146.431333	400.270508	389.413330
31155.123617	1146.431333	398.996094	414.630585
31155.123617	1146.431333	397.720703	441.497192
31155.123617	1146.431333	396.444336	477.840515
31155.123617	1146.431333	395.168945	388.469696
31155.123617	1146.431333	393.892578	539.738525
31155.123617	1146.431333	392.616211	496.729584
31155.123617	1146.431333	391.339844	339.835205
31155.123617	1146.431333	390.062500	493.889648
31155.123617	1146.431333	388.785156	445.932343
31155.123617	1146.431333	387.507813	597.197144
31155.123617	1146.431333	386.229492	524.990601
31155.123617	1146.431333	384.951172	413.299011
31155.123617	1146.431333	383.672852	352.084198
31155.123617	1146.431333	382.394531	548.526489
31155.123617	1146.431333	381.115234	498.169128
31155.123617	1146.431333	379.835938	443.476715
31155.123617	1146.431333	378.556641	251.590912
31155.123617	1146.431333	377.277344	471.451447
31155.123617	1146.431333	375.997070	331.399963
31155.123617	1146.431333	374.716797	452.531921
31155.123617	1146.431333	373.435547	567.230774
31155.123617	1146.431333	372.155273	531.094543
31155.123617	1146.431333	370.874023	465.154724
31155.123617	1146.431333	369.591797	326.499695
31155.123617	1146.431333	368.310547	477.939301
31155.123617	1146.431333	367.028320	345.987030
31155.123617	1146.431333	365.746094	190.098816
31155.123617	1146.431333	364.463867	322.116791
31155.123617	1146.431333	363.180664	404.717651
31155.123617	1146.431333	361.897461	303.509308
31155.123617	1146.431333	360.614258	264.010315
31155.123617	1146.431333	359.330078	412.722260
31155.123617	1146.431333	358.045898	307.577850
31155.123617	1146.431333	356.761719	215.392227
31155.123617	1146.431333	355.477539	213.980774
31155.123617	1146.431333	354.192383	106.741211
31155.123617	1146.431333	352.907227	179.684875
31155.123617	1146.431333	351.622070	72.895340
31155.123617	1146.431333	350.336914	165.618011
31155.123617	1146.431333	349.050781	154.431137
31155.123617	1146.431333	347.764648	80.217834
31155.123617	1146.431333	346.477539	-2.616933
31155.123617	1146.431333	345.191406	-12.451765
31155.123617	1146.431333	343.904297	56.427395
31155.123617	1146.431333	342.616211	116.565826
31155.123617	1146.431333	341.329102	105.872215
31155.123617	1146.431333	340.041016	63.142467
31155.123617	1146.431333	338.752930	79.605377
31155.123617	1146.431333	337.463867	-21.376387
31155.123617	1146.431333	336.175781	-1.113225
31155.123617	1146.431333	334.886719	78.182098
31155.123617	1146.431333	333.596680	49.706600
31155.123617	1146.431333	332.307617	55.069580
31155.123617	1146.431333	331.017578	14.708727
31155.123617	1146.431333	329.727539	-152.717911
31155.123617	1146.431333	328.436523	-191.481232
31155.123617	1146.431333	327.146484	-49.333271
31155.123617	1146.431333	325.855469	-32.418308
31155.123617	1146.431333	324.563477	-101.965446
31155.123617	1146.431333	323.272461	-62.391788
31155.123617	1146.431333	321.980469	-169.291107
31155.123617	1146.431333	320.688477	-91.740463
31155.123617	1146.431333	319.395508	1.799898
31155.123617	1146.431333	318.103516	30.152576
31155.123617	1146.431333	316.810547	2.919482
31155.123617	1146.431333	315.516602	-105.022110
31155.123617	1146.431333	314.223633	-61.663822
31155.123617	1146.431333	312.929688	20.720066
31155.123617	1146.431333	311.635742	-16.276094
31155.123617	1146.431333	310.340820	-157.203445
31155.123617	1146.431333	309.045898	53.693390
31155.123617	1146.431333	307.750977	-98.089348
31155.123617	1146.431333	306.456055	41.912910
31155.123617	1146.431333	305.160156	0.689441
31155.123617	1146.431333	303.865234	119.882095
31155.123617	1146.431333	302.568359	3.812761
31155.123617	1146.431333	301.272461	132.903183
31155.123617	1146.431333	299.975586	177.186920
31155.123617	1146.431333	298.678711	418.144501
