#X		#Y		#Wave		#Intensity
22963.112926	3070.615500	1999.980469	-46.939598
22963.112926	3070.615500	1999.016602	-61.682621
22963.112926	3070.615500	1998.052734	-63.129436
22963.112926	3070.615500	1997.087891	-10.323822
22963.112926	3070.615500	1996.123047	-66.818703
22963.112926	3070.615500	1995.158203	-14.550833
22963.112926	3070.615500	1994.193359	-66.572395
22963.112926	3070.615500	1993.228516	61.956341
22963.112926	3070.615500	1992.262695	-89.559341
22963.112926	3070.615500	1991.297852	-77.871193
22963.112926	3070.615500	1990.332031	35.072281
22963.112926	3070.615500	1989.366211	113.122559
22963.112926	3070.615500	1988.399414	106.829407
22963.112926	3070.615500	1987.433594	-95.067131
22963.112926	3070.615500	1986.466797	-69.550575
22963.112926	3070.615500	1985.500977	-76.370171
22963.112926	3070.615500	1984.534180	-53.693123
22963.112926	3070.615500	1983.567383	94.865028
22963.112926	3070.615500	1982.599609	-13.801245
22963.112926	3070.615500	1981.632813	50.371582
22963.112926	3070.615500	1980.665039	-90.664024
22963.112926	3070.615500	1979.697266	32.484798
22963.112926	3070.615500	1978.729492	61.613438
22963.112926	3070.615500	1977.761719	125.164612
22963.112926	3070.615500	1976.792969	42.926098
22963.112926	3070.615500	1975.825195	-9.787708
22963.112926	3070.615500	1974.856445	4.027870
22963.112926	3070.615500	1973.887695	-34.081963
22963.112926	3070.615500	1972.918945	26.382940
22963.112926	3070.615500	1971.949219	96.589035
22963.112926	3070.615500	1970.980469	124.755478
22963.112926	3070.615500	1970.010742	226.778290
22963.112926	3070.615500	1969.041016	126.560509
22963.112926	3070.615500	1968.071289	110.085045
22963.112926	3070.615500	1967.101563	105.857162
22963.112926	3070.615500	1966.130859	91.701744
22963.112926	3070.615500	1965.161133	82.408066
22963.112926	3070.615500	1964.190430	41.036972
22963.112926	3070.615500	1963.219727	-20.077566
22963.112926	3070.615500	1962.249023	71.391403
22963.112926	3070.615500	1961.277344	69.245926
22963.112926	3070.615500	1960.306641	165.477982
22963.112926	3070.615500	1959.334961	40.202457
22963.112926	3070.615500	1958.363281	40.377113
22963.112926	3070.615500	1957.391602	301.198486
22963.112926	3070.615500	1956.419922	94.696976
22963.112926	3070.615500	1955.447266	-195.351624
22963.112926	3070.615500	1954.474609	-101.883804
22963.112926	3070.615500	1953.501953	141.425934
22963.112926	3070.615500	1952.529297	-35.538342
22963.112926	3070.615500	1951.556641	-35.587540
22963.112926	3070.615500	1950.583984	6.094319
22963.112926	3070.615500	1949.610352	-124.158623
22963.112926	3070.615500	1948.636719	79.527786
22963.112926	3070.615500	1947.663086	116.198753
22963.112926	3070.615500	1946.689453	-11.596712
22963.112926	3070.615500	1945.715820	64.312889
22963.112926	3070.615500	1944.741211	-53.635284
22963.112926	3070.615500	1943.767578	-21.917150
22963.112926	3070.615500	1942.792969	-107.937859
22963.112926	3070.615500	1941.818359	-95.850601
22963.112926	3070.615500	1940.842773	46.161354
22963.112926	3070.615500	1939.868164	-181.997345
22963.112926	3070.615500	1938.892578	4.087636
22963.112926	3070.615500	1937.916992	60.244778
22963.112926	3070.615500	1936.941406	-165.336578
22963.112926	3070.615500	1935.965820	59.838501
22963.112926	3070.615500	1934.990234	74.336189
22963.112926	3070.615500	1934.013672	3.140195
22963.112926	3070.615500	1933.037109	-87.604973
22963.112926	3070.615500	1932.060547	46.859032
22963.112926	3070.615500	1931.083984	-4.689988
22963.112926	3070.615500	1930.107422	63.671223
22963.112926	3070.615500	1929.129883	29.281096
22963.112926	3070.615500	1928.153320	4.700059
22963.112926	3070.615500	1927.175781	75.501511
22963.112926	3070.615500	1926.198242	-112.850723
22963.112926	3070.615500	1925.219727	85.074860
22963.112926	3070.615500	1924.242188	-130.062515
22963.112926	3070.615500	1923.263672	99.585815
22963.112926	3070.615500	1922.285156	40.901371
22963.112926	3070.615500	1921.306641	-152.079834
22963.112926	3070.615500	1920.328125	-154.497620
22963.112926	3070.615500	1919.349609	50.632671
22963.112926	3070.615500	1918.370117	14.035269
22963.112926	3070.615500	1917.391602	153.194473
22963.112926	3070.615500	1916.412109	40.980309
22963.112926	3070.615500	1915.431641	-102.892220
22963.112926	3070.615500	1914.452148	-141.804321
22963.112926	3070.615500	1913.472656	-166.051956
22963.112926	3070.615500	1912.492188	-7.398850
22963.112926	3070.615500	1911.511719	36.631977
22963.112926	3070.615500	1910.531250	-58.271126
22963.112926	3070.615500	1909.550781	107.635315
22963.112926	3070.615500	1908.569336	-74.927643
22963.112926	3070.615500	1907.588867	100.697327
22963.112926	3070.615500	1906.607422	-103.684235
22963.112926	3070.615500	1905.625977	-69.328102
22963.112926	3070.615500	1904.644531	1.551509
22963.112926	3070.615500	1903.662109	77.286865
22963.112926	3070.615500	1902.680664	11.849905
22963.112926	3070.615500	1901.698242	-48.682850
22963.112926	3070.615500	1900.715820	-82.417511
22963.112926	3070.615500	1899.733398	105.224983
22963.112926	3070.615500	1898.750000	95.819008
22963.112926	3070.615500	1897.767578	49.956326
22963.112926	3070.615500	1896.784180	45.450260
22963.112926	3070.615500	1895.800781	4.497216
22963.112926	3070.615500	1894.817383	-55.871735
22963.112926	3070.615500	1893.833984	-62.754936
22963.112926	3070.615500	1892.850586	68.840546
22963.112926	3070.615500	1891.866211	159.104706
22963.112926	3070.615500	1890.881836	-129.479141
22963.112926	3070.615500	1889.897461	-114.462532
22963.112926	3070.615500	1888.913086	104.458878
22963.112926	3070.615500	1887.927734	51.480396
22963.112926	3070.615500	1886.943359	-113.093315
22963.112926	3070.615500	1885.958008	-134.464615
22963.112926	3070.615500	1884.972656	-0.585903
22963.112926	3070.615500	1883.987305	-63.194393
22963.112926	3070.615500	1883.001953	-72.435539
22963.112926	3070.615500	1882.015625	-35.613182
22963.112926	3070.615500	1881.029297	-110.300858
22963.112926	3070.615500	1880.042969	33.138153
22963.112926	3070.615500	1879.056641	48.106674
22963.112926	3070.615500	1878.070313	-79.858200
22963.112926	3070.615500	1877.083984	15.041339
22963.112926	3070.615500	1876.096680	-137.097275
22963.112926	3070.615500	1875.109375	11.027354
22963.112926	3070.615500	1874.122070	18.691504
22963.112926	3070.615500	1873.134766	-77.724045
22963.112926	3070.615500	1872.146484	-45.869976
22963.112926	3070.615500	1871.159180	31.927361
22963.112926	3070.615500	1870.170898	-187.831116
22963.112926	3070.615500	1869.182617	-27.839651
22963.112926	3070.615500	1868.194336	37.778591
22963.112926	3070.615500	1867.205078	-19.934811
22963.112926	3070.615500	1866.216797	106.048874
22963.112926	3070.615500	1865.227539	67.641022
22963.112926	3070.615500	1864.238281	-2.180689
22963.112926	3070.615500	1863.249023	80.188080
22963.112926	3070.615500	1862.259766	-124.902740
22963.112926	3070.615500	1861.269531	-64.320404
22963.112926	3070.615500	1860.279297	-27.927523
22963.112926	3070.615500	1859.290039	-49.504570
22963.112926	3070.615500	1858.298828	124.381012
22963.112926	3070.615500	1857.308594	15.863699
22963.112926	3070.615500	1856.318359	83.467773
22963.112926	3070.615500	1855.327148	-133.601456
22963.112926	3070.615500	1854.335938	-29.883190
22963.112926	3070.615500	1853.344727	27.952450
22963.112926	3070.615500	1852.353516	129.124542
22963.112926	3070.615500	1851.362305	54.279377
22963.112926	3070.615500	1850.370117	-25.393492
22963.112926	3070.615500	1849.377930	-15.930210
22963.112926	3070.615500	1848.385742	51.303329
22963.112926	3070.615500	1847.393555	113.655106
22963.112926	3070.615500	1846.401367	7.388141
22963.112926	3070.615500	1845.408203	67.234268
22963.112926	3070.615500	1844.415039	66.838692
22963.112926	3070.615500	1843.421875	78.432228
22963.112926	3070.615500	1842.428711	109.225655
22963.112926	3070.615500	1841.435547	118.309662
22963.112926	3070.615500	1840.441406	163.419296
22963.112926	3070.615500	1839.448242	-56.058578
22963.112926	3070.615500	1838.454102	58.693420
22963.112926	3070.615500	1837.459961	106.042999
22963.112926	3070.615500	1836.464844	-7.706587
22963.112926	3070.615500	1835.470703	94.800682
22963.112926	3070.615500	1834.475586	-33.426785
22963.112926	3070.615500	1833.480469	153.006790
22963.112926	3070.615500	1832.485352	29.508072
22963.112926	3070.615500	1831.490234	59.670723
22963.112926	3070.615500	1830.495117	351.439026
22963.112926	3070.615500	1829.499023	90.981117
22963.112926	3070.615500	1828.502930	164.130112
22963.112926	3070.615500	1827.506836	117.223351
22963.112926	3070.615500	1826.510742	79.866783
22963.112926	3070.615500	1825.513672	20.871906
22963.112926	3070.615500	1824.517578	180.052628
22963.112926	3070.615500	1823.520508	156.892746
22963.112926	3070.615500	1822.523438	30.600796
22963.112926	3070.615500	1821.526367	199.072311
22963.112926	3070.615500	1820.529297	123.002129
22963.112926	3070.615500	1819.531250	109.176552
22963.112926	3070.615500	1818.533203	159.957214
22963.112926	3070.615500	1817.535156	203.462341
22963.112926	3070.615500	1816.537109	88.850731
22963.112926	3070.615500	1815.539063	81.933990
22963.112926	3070.615500	1814.540039	-85.419380
22963.112926	3070.615500	1813.541992	161.207199
22963.112926	3070.615500	1812.542969	254.537903
22963.112926	3070.615500	1811.543945	48.743038
22963.112926	3070.615500	1810.543945	-47.039600
22963.112926	3070.615500	1809.544922	29.303993
22963.112926	3070.615500	1808.544922	79.237175
22963.112926	3070.615500	1807.544922	16.726521
22963.112926	3070.615500	1806.544922	-0.434785
22963.112926	3070.615500	1805.544922	159.142166
22963.112926	3070.615500	1804.544922	-20.653233
22963.112926	3070.615500	1803.543945	246.178192
22963.112926	3070.615500	1802.542969	140.290466
22963.112926	3070.615500	1801.541992	105.984192
22963.112926	3070.615500	1800.541016	181.412994
22963.112926	3070.615500	1799.539063	149.321350
22963.112926	3070.615500	1798.538086	19.322729
22963.112926	3070.615500	1797.536133	-27.216806
22963.112926	3070.615500	1796.534180	95.529732
22963.112926	3070.615500	1795.532227	-15.577897
22963.112926	3070.615500	1794.529297	56.862648
22963.112926	3070.615500	1793.527344	169.716248
22963.112926	3070.615500	1792.524414	108.434128
22963.112926	3070.615500	1791.521484	-36.324688
22963.112926	3070.615500	1790.518555	28.548668
22963.112926	3070.615500	1789.514648	162.381470
22963.112926	3070.615500	1788.511719	53.140152
22963.112926	3070.615500	1787.507813	81.953339
22963.112926	3070.615500	1786.503906	96.375618
22963.112926	3070.615500	1785.500000	25.004208
22963.112926	3070.615500	1784.496094	15.441225
22963.112926	3070.615500	1783.491211	22.435871
22963.112926	3070.615500	1782.486328	-6.354309
22963.112926	3070.615500	1781.481445	50.396976
22963.112926	3070.615500	1780.476563	-30.900963
22963.112926	3070.615500	1779.471680	-64.713791
22963.112926	3070.615500	1778.465820	-100.995323
22963.112926	3070.615500	1777.460938	88.434967
22963.112926	3070.615500	1776.455078	163.625259
22963.112926	3070.615500	1775.449219	-105.810555
22963.112926	3070.615500	1774.442383	-106.830513
22963.112926	3070.615500	1773.436523	-22.446640
22963.112926	3070.615500	1772.429688	-26.057709
22963.112926	3070.615500	1771.422852	-63.005459
22963.112926	3070.615500	1770.416016	-81.051796
22963.112926	3070.615500	1769.409180	-32.744736
22963.112926	3070.615500	1768.402344	-65.228966
22963.112926	3070.615500	1767.394531	-2.920572
22963.112926	3070.615500	1766.386719	-94.903908
22963.112926	3070.615500	1765.378906	-87.358749
22963.112926	3070.615500	1764.371094	-134.449249
22963.112926	3070.615500	1763.362305	-72.591835
22963.112926	3070.615500	1762.354492	-103.282051
22963.112926	3070.615500	1761.345703	43.643360
22963.112926	3070.615500	1760.336914	29.312641
22963.112926	3070.615500	1759.328125	-75.123810
22963.112926	3070.615500	1758.318359	-63.590618
22963.112926	3070.615500	1757.308594	-11.913783
22963.112926	3070.615500	1756.299805	77.524940
22963.112926	3070.615500	1755.290039	36.643139
22963.112926	3070.615500	1754.279297	-125.020821
22963.112926	3070.615500	1753.269531	23.219561
22963.112926	3070.615500	1752.258789	-107.834877
22963.112926	3070.615500	1751.249023	-231.839035
22963.112926	3070.615500	1750.238281	-147.823944
22963.112926	3070.615500	1749.226563	-106.507500
22963.112926	3070.615500	1748.215820	-53.481956
22963.112926	3070.615500	1747.204102	-123.476158
22963.112926	3070.615500	1746.193359	-30.505283
22963.112926	3070.615500	1745.181641	7.984689
22963.112926	3070.615500	1744.168945	6.197337
22963.112926	3070.615500	1743.157227	-33.465401
22963.112926	3070.615500	1742.144531	30.658865
22963.112926	3070.615500	1741.132813	16.769842
22963.112926	3070.615500	1740.120117	-75.107635
22963.112926	3070.615500	1739.106445	7.551393
22963.112926	3070.615500	1738.093750	-98.646019
22963.112926	3070.615500	1737.080078	-84.618423
22963.112926	3070.615500	1736.067383	-35.312069
22963.112926	3070.615500	1735.053711	122.325356
22963.112926	3070.615500	1734.040039	13.419618
22963.112926	3070.615500	1733.025391	-119.122849
22963.112926	3070.615500	1732.011719	-204.573685
22963.112926	3070.615500	1730.997070	103.354614
22963.112926	3070.615500	1729.982422	-48.268909
22963.112926	3070.615500	1728.967773	59.130951
22963.112926	3070.615500	1727.952148	53.357220
22963.112926	3070.615500	1726.937500	101.647545
22963.112926	3070.615500	1725.921875	-118.518059
22963.112926	3070.615500	1724.906250	-126.896660
22963.112926	3070.615500	1723.890625	-45.957916
22963.112926	3070.615500	1722.875000	44.264568
22963.112926	3070.615500	1721.858398	-11.475446
22963.112926	3070.615500	1720.841797	54.991657
22963.112926	3070.615500	1719.825195	20.243147
22963.112926	3070.615500	1718.808594	95.894882
22963.112926	3070.615500	1717.791992	70.368416
22963.112926	3070.615500	1716.774414	65.895660
22963.112926	3070.615500	1715.756836	77.778572
22963.112926	3070.615500	1714.739258	59.031502
22963.112926	3070.615500	1713.721680	82.473007
22963.112926	3070.615500	1712.704102	16.595501
22963.112926	3070.615500	1711.685547	-143.256622
22963.112926	3070.615500	1710.667969	-113.013718
22963.112926	3070.615500	1709.649414	6.287629
22963.112926	3070.615500	1708.630859	-45.809753
22963.112926	3070.615500	1707.611328	113.125175
22963.112926	3070.615500	1706.592773	60.856602
22963.112926	3070.615500	1705.573242	-162.657028
22963.112926	3070.615500	1704.553711	49.875011
22963.112926	3070.615500	1703.534180	-14.333550
22963.112926	3070.615500	1702.513672	31.528389
22963.112926	3070.615500	1701.494141	93.705307
22963.112926	3070.615500	1700.473633	165.134949
22963.112926	3070.615500	1699.453125	142.774994
22963.112926	3070.615500	1698.432617	122.686867
22963.112926	3070.615500	1697.412109	144.668320
22963.112926	3070.615500	1696.390625	117.397316
22963.112926	3070.615500	1695.369141	19.850901
22963.112926	3070.615500	1694.347656	-66.033485
22963.112926	3070.615500	1693.326172	194.268524
22963.112926	3070.615500	1692.304688	56.778393
22963.112926	3070.615500	1691.282227	40.856400
22963.112926	3070.615500	1690.260742	109.051376
22963.112926	3070.615500	1689.238281	55.581921
22963.112926	3070.615500	1688.214844	221.738876
22963.112926	3070.615500	1687.192383	140.088074
22963.112926	3070.615500	1686.168945	70.068497
22963.112926	3070.615500	1685.146484	350.389771
22963.112926	3070.615500	1684.123047	11.660583
22963.112926	3070.615500	1683.099609	165.656723
22963.112926	3070.615500	1682.075195	193.455795
22963.112926	3070.615500	1681.051758	249.202515
22963.112926	3070.615500	1680.027344	90.166283
22963.112926	3070.615500	1679.002930	332.420990
22963.112926	3070.615500	1677.978516	390.244080
22963.112926	3070.615500	1676.953125	179.770569
22963.112926	3070.615500	1675.928711	281.786346
22963.112926	3070.615500	1674.903320	376.698059
22963.112926	3070.615500	1673.877930	543.773254
22963.112926	3070.615500	1672.852539	354.179016
22963.112926	3070.615500	1671.826172	486.121490
22963.112926	3070.615500	1670.800781	242.928131
22963.112926	3070.615500	1669.774414	509.820496
22963.112926	3070.615500	1668.748047	355.085999
22963.112926	3070.615500	1667.721680	514.659363
22963.112926	3070.615500	1666.694336	427.373474
22963.112926	3070.615500	1665.667969	319.144073
22963.112926	3070.615500	1664.640625	550.607483
22963.112926	3070.615500	1663.613281	658.639221
22963.112926	3070.615500	1662.585938	613.077271
22963.112926	3070.615500	1661.557617	630.262329
22963.112926	3070.615500	1660.530273	600.914124
22963.112926	3070.615500	1659.501953	645.907959
22963.112926	3070.615500	1658.473633	588.584412
22963.112926	3070.615500	1657.444336	770.566040
22963.112926	3070.615500	1656.416016	580.743958
22963.112926	3070.615500	1655.386719	839.235413
22963.112926	3070.615500	1654.358398	772.485168
22963.112926	3070.615500	1653.328125	666.225830
22963.112926	3070.615500	1652.298828	748.024231
22963.112926	3070.615500	1651.269531	1045.609375
22963.112926	3070.615500	1650.239258	1001.919189
22963.112926	3070.615500	1649.208984	988.379517
22963.112926	3070.615500	1648.178711	914.508179
22963.112926	3070.615500	1647.148438	1258.086670
22963.112926	3070.615500	1646.117188	1054.277588
22963.112926	3070.615500	1645.086914	973.408081
22963.112926	3070.615500	1644.055664	1098.816528
22963.112926	3070.615500	1643.024414	1228.790039
22963.112926	3070.615500	1641.992188	1252.099731
22963.112926	3070.615500	1640.960938	1453.765259
22963.112926	3070.615500	1639.928711	1657.636353
22963.112926	3070.615500	1638.896484	1551.126709
22963.112926	3070.615500	1637.864258	1442.328125
22963.112926	3070.615500	1636.832031	1414.572021
22963.112926	3070.615500	1635.798828	1650.619629
22963.112926	3070.615500	1634.766602	1639.007080
22963.112926	3070.615500	1633.733398	1625.060181
22963.112926	3070.615500	1632.699219	1678.167603
22963.112926	3070.615500	1631.666016	1437.586670
22963.112926	3070.615500	1630.632813	1493.024658
22963.112926	3070.615500	1629.598633	1663.997559
22963.112926	3070.615500	1628.564453	1418.907959
22963.112926	3070.615500	1627.530273	1580.581421
22963.112926	3070.615500	1626.495117	1792.999634
22963.112926	3070.615500	1625.460938	1684.298584
22963.112926	3070.615500	1624.425781	1841.194702
22963.112926	3070.615500	1623.390625	1686.339355
22963.112926	3070.615500	1622.355469	1801.630371
22963.112926	3070.615500	1621.319336	1741.463745
22963.112926	3070.615500	1620.284180	1895.938110
22963.112926	3070.615500	1619.248047	1833.484741
22963.112926	3070.615500	1618.211914	1893.313843
22963.112926	3070.615500	1617.174805	1904.686646
22963.112926	3070.615500	1616.138672	1952.973999
22963.112926	3070.615500	1615.101563	2005.850586
22963.112926	3070.615500	1614.065430	2141.708984
22963.112926	3070.615500	1613.027344	1814.327271
22963.112926	3070.615500	1611.990234	2155.234375
22963.112926	3070.615500	1610.953125	2088.317627
22963.112926	3070.615500	1609.915039	2032.946899
22963.112926	3070.615500	1608.876953	1993.737305
22963.112926	3070.615500	1607.838867	2081.179443
22963.112926	3070.615500	1606.800781	2120.277344
22963.112926	3070.615500	1605.761719	2147.864014
22963.112926	3070.615500	1604.723633	2186.985352
22963.112926	3070.615500	1603.684570	2315.814941
22963.112926	3070.615500	1602.644531	2237.621338
22963.112926	3070.615500	1601.605469	2345.755371
22963.112926	3070.615500	1600.566406	2469.970703
22963.112926	3070.615500	1599.526367	2322.931641
22963.112926	3070.615500	1598.486328	2428.770508
22963.112926	3070.615500	1597.446289	2270.378174
22963.112926	3070.615500	1596.405273	2406.106201
22963.112926	3070.615500	1595.365234	2376.468994
22963.112926	3070.615500	1594.324219	2486.940918
22963.112926	3070.615500	1593.283203	2262.219971
22963.112926	3070.615500	1592.242188	2386.524902
22963.112926	3070.615500	1591.200195	2460.319824
22963.112926	3070.615500	1590.159180	2325.348389
22963.112926	3070.615500	1589.117188	2612.560791
22963.112926	3070.615500	1588.075195	2496.037598
22963.112926	3070.615500	1587.032227	2583.681396
22963.112926	3070.615500	1585.990234	2717.207764
22963.112926	3070.615500	1584.947266	2419.777588
22963.112926	3070.615500	1583.904297	2454.824707
22963.112926	3070.615500	1582.861328	2363.886230
22963.112926	3070.615500	1581.818359	2328.018799
22963.112926	3070.615500	1580.775391	2241.830322
22963.112926	3070.615500	1579.731445	2281.666016
22963.112926	3070.615500	1578.687500	2191.041504
22963.112926	3070.615500	1577.643555	2029.547607
22963.112926	3070.615500	1576.598633	2181.707764
22963.112926	3070.615500	1575.554688	2114.215820
22963.112926	3070.615500	1574.509766	2138.307861
22963.112926	3070.615500	1573.464844	2288.255127
22963.112926	3070.615500	1572.419922	2136.344482
22963.112926	3070.615500	1571.374023	1861.079346
22963.112926	3070.615500	1570.329102	1944.896851
22963.112926	3070.615500	1569.283203	1914.460815
22963.112926	3070.615500	1568.237305	1744.716431
22963.112926	3070.615500	1567.191406	1739.601196
22963.112926	3070.615500	1566.144531	1417.047485
22963.112926	3070.615500	1565.098633	1663.349243
22963.112926	3070.615500	1564.051758	1642.473389
22963.112926	3070.615500	1563.004883	1630.812378
22963.112926	3070.615500	1561.957031	1402.392090
22963.112926	3070.615500	1560.910156	1445.700562
22963.112926	3070.615500	1559.862305	1489.056763
22963.112926	3070.615500	1558.814453	1475.449341
22963.112926	3070.615500	1557.766602	1425.437622
22963.112926	3070.615500	1556.718750	1512.333496
22963.112926	3070.615500	1555.669922	1414.611572
22963.112926	3070.615500	1554.621094	1547.213257
22963.112926	3070.615500	1553.573242	1855.325562
22963.112926	3070.615500	1552.523438	1566.453857
22963.112926	3070.615500	1551.474609	1478.248047
22963.112926	3070.615500	1550.424805	1396.984619
22963.112926	3070.615500	1549.375000	1413.750854
22963.112926	3070.615500	1548.325195	1464.748901
22963.112926	3070.615500	1547.275391	1363.318604
22963.112926	3070.615500	1546.225586	1398.557495
22963.112926	3070.615500	1545.174805	1609.053589
22963.112926	3070.615500	1544.124023	1539.765747
22963.112926	3070.615500	1543.073242	1609.331543
22963.112926	3070.615500	1542.022461	1731.263550
22963.112926	3070.615500	1540.970703	1478.120117
22963.112926	3070.615500	1539.919922	1484.302002
22963.112926	3070.615500	1538.868164	1636.007813
22963.112926	3070.615500	1537.815430	1537.815918
22963.112926	3070.615500	1536.763672	1519.278931
22963.112926	3070.615500	1535.710938	1743.853882
22963.112926	3070.615500	1534.659180	1441.646729
22963.112926	3070.615500	1533.606445	1595.973145
22963.112926	3070.615500	1532.552734	1609.602783
22963.112926	3070.615500	1531.500000	1371.441895
22963.112926	3070.615500	1530.446289	1746.078125
22963.112926	3070.615500	1529.393555	1671.524658
22963.112926	3070.615500	1528.338867	1553.994629
22963.112926	3070.615500	1527.285156	1305.108398
22963.112926	3070.615500	1526.231445	1489.449707
22963.112926	3070.615500	1525.176758	1397.283813
22963.112926	3070.615500	1524.122070	1092.236694
22963.112926	3070.615500	1523.067383	1353.867432
22963.112926	3070.615500	1522.012695	1046.906372
22963.112926	3070.615500	1520.957031	957.598816
22963.112926	3070.615500	1519.901367	1056.388428
22963.112926	3070.615500	1518.845703	682.077637
22963.112926	3070.615500	1517.790039	880.706177
22963.112926	3070.615500	1516.734375	966.216003
22963.112926	3070.615500	1515.677734	698.825684
22963.112926	3070.615500	1514.621094	605.847412
22963.112926	3070.615500	1513.564453	501.714478
22963.112926	3070.615500	1512.507813	614.824829
22963.112926	3070.615500	1511.450195	698.610352
22963.112926	3070.615500	1510.393555	418.563690
22963.112926	3070.615500	1509.335938	509.374176
22963.112926	3070.615500	1508.278320	349.461700
22963.112926	3070.615500	1507.219727	307.197968
22963.112926	3070.615500	1506.162109	201.839264
22963.112926	3070.615500	1505.103516	437.620789
22963.112926	3070.615500	1504.044922	192.536133
22963.112926	3070.615500	1502.986328	164.370895
22963.112926	3070.615500	1501.926758	-69.037804
22963.112926	3070.615500	1500.868164	22.696924
22963.112926	3070.615500	1499.808594	51.346558
22963.112926	3070.615500	1498.749023	80.111046
22963.112926	3070.615500	1497.688477	45.842552
22963.112926	3070.615500	1496.628906	92.885979
22963.112926	3070.615500	1495.568359	-157.515594
22963.112926	3070.615500	1494.507813	74.600922
22963.112926	3070.615500	1493.447266	-15.460370
22963.112926	3070.615500	1492.386719	-139.149307
22963.112926	3070.615500	1491.325195	-30.674568
22963.112926	3070.615500	1490.263672	-113.524765
22963.112926	3070.615500	1489.202148	-112.907578
22963.112926	3070.615500	1488.140625	-71.642006
22963.112926	3070.615500	1487.079102	-46.016811
22963.112926	3070.615500	1486.016602	-114.780167
22963.112926	3070.615500	1484.954102	127.068893
22963.112926	3070.615500	1483.891602	-11.163693
22963.112926	3070.615500	1482.829102	95.906120
22963.112926	3070.615500	1481.765625	54.675156
22963.112926	3070.615500	1480.702148	-42.613991
22963.112926	3070.615500	1479.638672	120.980316
22963.112926	3070.615500	1478.575195	212.733688
22963.112926	3070.615500	1477.511719	412.390472
22963.112926	3070.615500	1476.447266	425.689819
22963.112926	3070.615500	1475.382813	324.645172
22963.112926	3070.615500	1474.318359	306.802612
22963.112926	3070.615500	1473.253906	372.134888
22963.112926	3070.615500	1472.189453	345.638306
22963.112926	3070.615500	1471.124023	395.445129
22963.112926	3070.615500	1470.058594	618.252747
22963.112926	3070.615500	1468.993164	657.187134
22963.112926	3070.615500	1467.927734	805.726929
22963.112926	3070.615500	1466.861328	939.001099
22963.112926	3070.615500	1465.794922	1161.816650
22963.112926	3070.615500	1464.728516	1084.432495
22963.112926	3070.615500	1463.662109	1199.923706
22963.112926	3070.615500	1462.594727	1261.791016
22963.112926	3070.615500	1461.528320	1221.274780
22963.112926	3070.615500	1460.460938	1294.247192
22963.112926	3070.615500	1459.393555	1459.210571
22963.112926	3070.615500	1458.326172	1292.040039
22963.112926	3070.615500	1457.257813	1474.436890
22963.112926	3070.615500	1456.189453	1327.122925
22963.112926	3070.615500	1455.121094	1501.064819
22963.112926	3070.615500	1454.052734	1307.364136
22963.112926	3070.615500	1452.984375	1357.280640
22963.112926	3070.615500	1451.915039	1188.763184
22963.112926	3070.615500	1450.845703	1159.354004
22963.112926	3070.615500	1449.776367	1381.007446
22963.112926	3070.615500	1448.707031	1361.884277
22963.112926	3070.615500	1447.636719	1208.940796
22963.112926	3070.615500	1446.567383	1265.018188
22963.112926	3070.615500	1445.497070	1238.117188
22963.112926	3070.615500	1444.425781	1007.843201
22963.112926	3070.615500	1443.355469	986.768311
22963.112926	3070.615500	1442.285156	990.940735
22963.112926	3070.615500	1441.213867	899.454041
22963.112926	3070.615500	1440.142578	1156.028931
22963.112926	3070.615500	1439.070313	842.799194
22963.112926	3070.615500	1437.999023	690.872742
22963.112926	3070.615500	1436.926758	825.502930
22963.112926	3070.615500	1435.854492	1069.763306
22963.112926	3070.615500	1434.782227	833.991699
22963.112926	3070.615500	1433.709961	721.247314
22963.112926	3070.615500	1432.636719	685.530945
22963.112926	3070.615500	1431.563477	954.656982
22963.112926	3070.615500	1430.490234	632.926819
22963.112926	3070.615500	1429.416992	717.607788
22963.112926	3070.615500	1428.343750	633.345032
22963.112926	3070.615500	1427.269531	848.255188
22963.112926	3070.615500	1426.195313	573.032715
22963.112926	3070.615500	1425.121094	743.054321
22963.112926	3070.615500	1424.046875	615.350830
22963.112926	3070.615500	1422.971680	807.067566
22963.112926	3070.615500	1421.896484	712.719910
22963.112926	3070.615500	1420.821289	820.744873
22963.112926	3070.615500	1419.746094	811.053345
22963.112926	3070.615500	1418.669922	743.255737
22963.112926	3070.615500	1417.594727	805.380859
22963.112926	3070.615500	1416.518555	662.056641
22963.112926	3070.615500	1415.442383	593.761475
22963.112926	3070.615500	1414.365234	843.081970
22963.112926	3070.615500	1413.289063	611.616089
22963.112926	3070.615500	1412.211914	762.922424
22963.112926	3070.615500	1411.134766	938.634155
22963.112926	3070.615500	1410.057617	822.789856
22963.112926	3070.615500	1408.979492	1049.001099
22963.112926	3070.615500	1407.902344	1004.079407
22963.112926	3070.615500	1406.824219	1078.664673
22963.112926	3070.615500	1405.746094	1092.007446
22963.112926	3070.615500	1404.666992	749.515808
22963.112926	3070.615500	1403.588867	1240.329346
22963.112926	3070.615500	1402.509766	1190.902222
22963.112926	3070.615500	1401.430664	1273.764038
22963.112926	3070.615500	1400.351563	1241.667847
22963.112926	3070.615500	1399.271484	1066.539063
22963.112926	3070.615500	1398.192383	1199.984741
22963.112926	3070.615500	1397.112305	1082.729614
22963.112926	3070.615500	1396.031250	1177.608521
22963.112926	3070.615500	1394.951172	1421.366577
22963.112926	3070.615500	1393.871094	1375.142090
22963.112926	3070.615500	1392.790039	1128.157349
22963.112926	3070.615500	1391.708984	1013.182068
22963.112926	3070.615500	1390.626953	1011.077698
22963.112926	3070.615500	1389.545898	1020.850037
22963.112926	3070.615500	1388.463867	925.410034
22963.112926	3070.615500	1387.381836	685.705627
22963.112926	3070.615500	1386.299805	850.985168
22963.112926	3070.615500	1385.217773	622.362122
22963.112926	3070.615500	1384.134766	891.718079
22963.112926	3070.615500	1383.051758	835.860779
22963.112926	3070.615500	1381.968750	784.798340
22963.112926	3070.615500	1380.885742	856.949829
22963.112926	3070.615500	1379.802734	839.507019
22963.112926	3070.615500	1378.718750	668.284546
22963.112926	3070.615500	1377.634766	820.348267
22963.112926	3070.615500	1376.550781	949.391907
22963.112926	3070.615500	1375.465820	727.014404
22963.112926	3070.615500	1374.381836	985.085815
22963.112926	3070.615500	1373.296875	931.544373
22963.112926	3070.615500	1372.211914	831.287537
22963.112926	3070.615500	1371.126953	895.674927
22963.112926	3070.615500	1370.041016	1038.011108
22963.112926	3070.615500	1368.955078	1085.252686
22963.112926	3070.615500	1367.869141	993.308228
22963.112926	3070.615500	1366.783203	864.141663
22963.112926	3070.615500	1365.697266	1262.505127
22963.112926	3070.615500	1364.610352	1050.602051
22963.112926	3070.615500	1363.523438	1094.294922
22963.112926	3070.615500	1362.436523	989.710876
22963.112926	3070.615500	1361.349609	1014.884155
22963.112926	3070.615500	1360.261719	973.494263
22963.112926	3070.615500	1359.174805	1125.426880
22963.112926	3070.615500	1358.086914	876.820190
22963.112926	3070.615500	1356.998047	741.510559
22963.112926	3070.615500	1355.910156	801.213074
22963.112926	3070.615500	1354.821289	926.711121
22963.112926	3070.615500	1353.732422	728.843628
22963.112926	3070.615500	1352.643555	498.871460
22963.112926	3070.615500	1351.554688	654.218567
22963.112926	3070.615500	1350.464844	579.836609
22963.112926	3070.615500	1349.375000	313.573059
22963.112926	3070.615500	1348.285156	529.913391
22963.112926	3070.615500	1347.195313	579.877136
22963.112926	3070.615500	1346.105469	563.427307
22963.112926	3070.615500	1345.014648	638.383118
22963.112926	3070.615500	1343.923828	660.341614
22963.112926	3070.615500	1342.833008	838.769653
22963.112926	3070.615500	1341.741211	968.187866
22963.112926	3070.615500	1340.650391	726.943909
22963.112926	3070.615500	1339.558594	857.918884
22963.112926	3070.615500	1338.466797	796.811951
22963.112926	3070.615500	1337.374023	713.439941
22963.112926	3070.615500	1336.282227	812.184998
22963.112926	3070.615500	1335.189453	650.879028
22963.112926	3070.615500	1334.096680	668.424072
22963.112926	3070.615500	1333.003906	628.008545
22963.112926	3070.615500	1331.910156	724.188965
22963.112926	3070.615500	1330.817383	389.468689
22963.112926	3070.615500	1329.723633	603.213623
22963.112926	3070.615500	1328.629883	664.937622
22963.112926	3070.615500	1327.535156	413.442505
22963.112926	3070.615500	1326.441406	422.823029
22963.112926	3070.615500	1325.346680	513.541138
22963.112926	3070.615500	1324.251953	344.779541
22963.112926	3070.615500	1323.156250	431.926117
22963.112926	3070.615500	1322.061523	437.931519
22963.112926	3070.615500	1320.965820	236.153824
22963.112926	3070.615500	1319.870117	392.119080
22963.112926	3070.615500	1318.774414	299.752045
22963.112926	3070.615500	1317.678711	501.534180
22963.112926	3070.615500	1316.582031	587.432861
22963.112926	3070.615500	1315.485352	500.021851
22963.112926	3070.615500	1314.388672	622.321472
22963.112926	3070.615500	1313.291016	693.730103
22963.112926	3070.615500	1312.194336	777.235352
22963.112926	3070.615500	1311.096680	567.109375
22963.112926	3070.615500	1309.999023	717.076904
22963.112926	3070.615500	1308.901367	657.383057
22963.112926	3070.615500	1307.802734	778.828613
22963.112926	3070.615500	1306.705078	712.092102
22963.112926	3070.615500	1305.606445	944.002930
22963.112926	3070.615500	1304.506836	1107.021973
22963.112926	3070.615500	1303.408203	980.458496
22963.112926	3070.615500	1302.308594	941.402771
22963.112926	3070.615500	1301.208984	815.792969
22963.112926	3070.615500	1300.109375	891.657349
22963.112926	3070.615500	1299.009766	959.949036
22963.112926	3070.615500	1297.909180	826.189026
22963.112926	3070.615500	1296.808594	982.836731
22963.112926	3070.615500	1295.708008	763.855042
22963.112926	3070.615500	1294.607422	844.825012
22963.112926	3070.615500	1293.506836	917.756287
22963.112926	3070.615500	1292.405273	974.142761
22963.112926	3070.615500	1291.303711	892.869446
22963.112926	3070.615500	1290.202148	849.526123
22963.112926	3070.615500	1289.099609	667.452576
22963.112926	3070.615500	1287.998047	653.473206
22963.112926	3070.615500	1286.895508	691.655090
22963.112926	3070.615500	1285.792969	715.036438
22963.112926	3070.615500	1284.689453	644.397461
22963.112926	3070.615500	1283.586914	439.540009
22963.112926	3070.615500	1282.483398	425.652435
22963.112926	3070.615500	1281.379883	289.709351
22963.112926	3070.615500	1280.276367	291.234192
22963.112926	3070.615500	1279.171875	202.945770
22963.112926	3070.615500	1278.067383	166.784409
22963.112926	3070.615500	1276.962891	214.942474
22963.112926	3070.615500	1275.858398	65.642570
22963.112926	3070.615500	1274.753906	103.692314
22963.112926	3070.615500	1273.648438	129.466919
22963.112926	3070.615500	1272.542969	312.678070
22963.112926	3070.615500	1271.437500	185.677292
22963.112926	3070.615500	1270.331055	168.099670
22963.112926	3070.615500	1269.225586	102.968002
22963.112926	3070.615500	1268.119141	107.154991
22963.112926	3070.615500	1267.012695	84.962067
22963.112926	3070.615500	1265.906250	71.252502
22963.112926	3070.615500	1264.798828	170.102859
22963.112926	3070.615500	1263.691406	163.040115
22963.112926	3070.615500	1262.583984	288.199982
22963.112926	3070.615500	1261.476563	158.494598
22963.112926	3070.615500	1260.368164	271.030853
22963.112926	3070.615500	1259.260742	317.024658
22963.112926	3070.615500	1258.152344	432.949585
22963.112926	3070.615500	1257.043945	347.731964
22963.112926	3070.615500	1255.934570	418.548096
22963.112926	3070.615500	1254.825195	510.970703
22963.112926	3070.615500	1253.716797	586.595093
22963.112926	3070.615500	1252.606445	637.365112
22963.112926	3070.615500	1251.497070	1036.405273
22963.112926	3070.615500	1250.387695	1092.669312
22963.112926	3070.615500	1249.277344	1102.982788
22963.112926	3070.615500	1248.166992	1359.678467
22963.112926	3070.615500	1247.055664	1313.515625
22963.112926	3070.615500	1245.945313	1301.819336
22963.112926	3070.615500	1244.833984	1463.996094
22963.112926	3070.615500	1243.722656	1402.221069
22963.112926	3070.615500	1242.611328	1249.933960
22963.112926	3070.615500	1241.499023	1124.113770
22963.112926	3070.615500	1240.387695	999.181396
22963.112926	3070.615500	1239.275391	1097.127197
22963.112926	3070.615500	1238.162109	1068.633911
22963.112926	3070.615500	1237.049805	1157.343140
22963.112926	3070.615500	1235.936523	1315.093872
22963.112926	3070.615500	1234.823242	1395.597534
22963.112926	3070.615500	1233.709961	1343.652222
22963.112926	3070.615500	1232.596680	1265.320435
22963.112926	3070.615500	1231.482422	1147.923096
22963.112926	3070.615500	1230.369141	1094.535400
22963.112926	3070.615500	1229.253906	919.024292
22963.112926	3070.615500	1228.139648	915.860107
22963.112926	3070.615500	1227.025391	652.712341
22963.112926	3070.615500	1225.910156	604.139160
22963.112926	3070.615500	1224.794922	482.759460
22963.112926	3070.615500	1223.679688	235.412186
22963.112926	3070.615500	1222.563477	287.389893
22963.112926	3070.615500	1221.447266	249.233337
22963.112926	3070.615500	1220.331055	249.341095
22963.112926	3070.615500	1219.214844	156.409622
22963.112926	3070.615500	1218.098633	10.330701
22963.112926	3070.615500	1216.981445	8.973942
22963.112926	3070.615500	1215.864258	84.016922
22963.112926	3070.615500	1214.747070	124.261581
22963.112926	3070.615500	1213.629883	47.442490
22963.112926	3070.615500	1212.511719	89.659691
22963.112926	3070.615500	1211.393555	164.360382
22963.112926	3070.615500	1210.275391	-45.529461
22963.112926	3070.615500	1209.157227	41.138836
22963.112926	3070.615500	1208.038086	-22.630465
22963.112926	3070.615500	1206.918945	62.693932
22963.112926	3070.615500	1205.799805	-69.537155
22963.112926	3070.615500	1204.680664	3.155030
22963.112926	3070.615500	1203.560547	-48.519257
22963.112926	3070.615500	1202.441406	-29.359674
22963.112926	3070.615500	1201.321289	265.777649
22963.112926	3070.615500	1200.200195	288.200531
22963.112926	3070.615500	1199.080078	439.761810
22963.112926	3070.615500	1197.958984	624.143311
22963.112926	3070.615500	1196.837891	684.095337
22963.112926	3070.615500	1195.716797	622.304810
22963.112926	3070.615500	1194.594727	935.677979
22963.112926	3070.615500	1193.473633	1023.919617
22963.112926	3070.615500	1192.351563	852.584412
22963.112926	3070.615500	1191.229492	859.152222
22963.112926	3070.615500	1190.106445	664.761841
22963.112926	3070.615500	1188.984375	484.660309
22963.112926	3070.615500	1187.861328	475.984924
22963.112926	3070.615500	1186.738281	290.166077
22963.112926	3070.615500	1185.614258	197.175354
22963.112926	3070.615500	1184.491211	103.472008
22963.112926	3070.615500	1183.367188	46.567173
22963.112926	3070.615500	1182.243164	-44.768768
22963.112926	3070.615500	1181.119141	-35.705360
22963.112926	3070.615500	1179.994141	-218.225266
22963.112926	3070.615500	1178.869141	-134.427139
22963.112926	3070.615500	1177.744141	-211.176758
22963.112926	3070.615500	1176.619141	-204.260834
22963.112926	3070.615500	1175.493164	-165.440460
22963.112926	3070.615500	1174.368164	-115.622849
22963.112926	3070.615500	1173.242188	-277.928314
22963.112926	3070.615500	1172.115234	-202.351196
22963.112926	3070.615500	1170.989258	-86.934601
22963.112926	3070.615500	1169.862305	-102.154106
22963.112926	3070.615500	1168.735352	-111.926758
22963.112926	3070.615500	1167.608398	-126.070450
22963.112926	3070.615500	1166.481445	61.348919
22963.112926	3070.615500	1165.353516	117.744705
22963.112926	3070.615500	1164.225586	80.835312
22963.112926	3070.615500	1163.097656	150.394684
22963.112926	3070.615500	1161.968750	196.147598
22963.112926	3070.615500	1160.840820	236.768097
22963.112926	3070.615500	1159.711914	161.453232
22963.112926	3070.615500	1158.583008	195.439224
22963.112926	3070.615500	1157.453125	74.125542
22963.112926	3070.615500	1156.324219	190.866272
22963.112926	3070.615500	1155.194336	273.963593
22963.112926	3070.615500	1154.064453	218.513382
22963.112926	3070.615500	1152.933594	208.183441
22963.112926	3070.615500	1151.803711	274.703278
22963.112926	3070.615500	1150.672852	399.502686
22963.112926	3070.615500	1149.541992	293.333954
22963.112926	3070.615500	1148.411133	297.745544
22963.112926	3070.615500	1147.279297	201.181473
22963.112926	3070.615500	1146.147461	295.511383
22963.112926	3070.615500	1145.015625	303.822815
22963.112926	3070.615500	1143.883789	276.960175
22963.112926	3070.615500	1142.750977	164.184662
22963.112926	3070.615500	1141.619141	281.770721
22963.112926	3070.615500	1140.486328	440.128723
22963.112926	3070.615500	1139.352539	310.995544
22963.112926	3070.615500	1138.219727	355.555115
22963.112926	3070.615500	1137.085938	433.737091
22963.112926	3070.615500	1135.952148	499.425293
22963.112926	3070.615500	1134.818359	570.329407
22963.112926	3070.615500	1133.683594	638.132202
22963.112926	3070.615500	1132.549805	650.270203
22963.112926	3070.615500	1131.415039	670.758301
22963.112926	3070.615500	1130.279297	519.606079
22963.112926	3070.615500	1129.144531	436.035339
22963.112926	3070.615500	1128.008789	519.962341
22963.112926	3070.615500	1126.873047	495.913940
22963.112926	3070.615500	1125.737305	421.227875
22963.112926	3070.615500	1124.601563	339.338501
22963.112926	3070.615500	1123.464844	474.454498
22963.112926	3070.615500	1122.328125	411.696777
22963.112926	3070.615500	1121.191406	447.909912
22963.112926	3070.615500	1120.054688	473.106445
22963.112926	3070.615500	1118.916992	414.579803
22963.112926	3070.615500	1117.779297	582.292969
22963.112926	3070.615500	1116.641602	687.730164
22963.112926	3070.615500	1115.503906	776.657837
22963.112926	3070.615500	1114.365234	762.020691
22963.112926	3070.615500	1113.226563	803.212585
22963.112926	3070.615500	1112.087891	764.674744
22963.112926	3070.615500	1110.949219	845.325134
22963.112926	3070.615500	1109.809570	912.420654
22963.112926	3070.615500	1108.669922	949.195251
22963.112926	3070.615500	1107.530273	927.916504
22963.112926	3070.615500	1106.390625	739.297119
22963.112926	3070.615500	1105.250000	816.910400
22963.112926	3070.615500	1104.109375	777.306824
22963.112926	3070.615500	1102.968750	809.770630
22963.112926	3070.615500	1101.828125	661.066406
22963.112926	3070.615500	1100.686523	719.824707
22963.112926	3070.615500	1099.544922	762.101318
22963.112926	3070.615500	1098.403320	770.769287
22963.112926	3070.615500	1097.261719	570.139648
22963.112926	3070.615500	1096.120117	571.677673
22963.112926	3070.615500	1094.977539	484.500549
22963.112926	3070.615500	1093.834961	485.298157
22963.112926	3070.615500	1092.691406	474.466339
22963.112926	3070.615500	1091.548828	352.968323
22963.112926	3070.615500	1090.405273	293.637177
22963.112926	3070.615500	1089.261719	226.679214
22963.112926	3070.615500	1088.118164	435.272217
22963.112926	3070.615500	1086.973633	345.141846
22963.112926	3070.615500	1085.829102	184.258240
22963.112926	3070.615500	1084.684570	236.772339
22963.112926	3070.615500	1083.540039	220.298965
22963.112926	3070.615500	1082.395508	51.760582
22963.112926	3070.615500	1081.250000	123.427017
22963.112926	3070.615500	1080.104492	411.349792
22963.112926	3070.615500	1078.958984	265.708679
22963.112926	3070.615500	1077.812500	252.723129
22963.112926	3070.615500	1076.666016	139.981415
22963.112926	3070.615500	1075.519531	229.586716
22963.112926	3070.615500	1074.373047	223.673431
22963.112926	3070.615500	1073.226563	263.010254
22963.112926	3070.615500	1072.079102	114.153740
22963.112926	3070.615500	1070.931641	290.597321
22963.112926	3070.615500	1069.784180	214.653625
22963.112926	3070.615500	1068.635742	-18.435850
22963.112926	3070.615500	1067.487305	137.380112
22963.112926	3070.615500	1066.338867	233.245728
22963.112926	3070.615500	1065.190430	225.120163
22963.112926	3070.615500	1064.041992	292.753113
22963.112926	3070.615500	1062.892578	82.987869
22963.112926	3070.615500	1061.743164	184.341263
22963.112926	3070.615500	1060.593750	111.187553
22963.112926	3070.615500	1059.443359	4.863985
22963.112926	3070.615500	1058.292969	91.499924
22963.112926	3070.615500	1057.142578	-67.216423
22963.112926	3070.615500	1055.992188	-62.837559
22963.112926	3070.615500	1054.841797	-55.335426
22963.112926	3070.615500	1053.690430	-15.013141
22963.112926	3070.615500	1052.539063	28.466967
22963.112926	3070.615500	1051.387695	74.211098
22963.112926	3070.615500	1050.235352	-34.248554
22963.112926	3070.615500	1049.083984	-37.300861
22963.112926	3070.615500	1047.931641	37.995712
22963.112926	3070.615500	1046.778320	-42.451015
22963.112926	3070.615500	1045.625977	34.646202
22963.112926	3070.615500	1044.472656	127.482506
22963.112926	3070.615500	1043.319336	78.868675
22963.112926	3070.615500	1042.166016	140.714172
22963.112926	3070.615500	1041.012695	97.127220
22963.112926	3070.615500	1039.858398	91.558022
22963.112926	3070.615500	1038.704102	-71.833282
22963.112926	3070.615500	1037.549805	-147.031723
22963.112926	3070.615500	1036.394531	-44.118004
22963.112926	3070.615500	1035.239258	79.993980
22963.112926	3070.615500	1034.083984	-44.801418
22963.112926	3070.615500	1032.928711	-52.723602
22963.112926	3070.615500	1031.773438	47.231174
22963.112926	3070.615500	1030.617188	47.751053
22963.112926	3070.615500	1029.460938	24.382345
22963.112926	3070.615500	1028.304688	-50.134865
22963.112926	3070.615500	1027.147461	46.989487
22963.112926	3070.615500	1025.991211	-61.068375
22963.112926	3070.615500	1024.833984	110.945618
22963.112926	3070.615500	1023.675781	-16.116774
22963.112926	3070.615500	1022.518555	-64.499916
22963.112926	3070.615500	1021.360352	27.218922
22963.112926	3070.615500	1020.202148	-37.246056
22963.112926	3070.615500	1019.043945	98.910202
22963.112926	3070.615500	1017.884766	76.273804
22963.112926	3070.615500	1016.726563	99.291275
22963.112926	3070.615500	1015.567383	0.435695
22963.112926	3070.615500	1014.407227	16.743437
22963.112926	3070.615500	1013.248047	96.879570
22963.112926	3070.615500	1012.087891	167.030289
22963.112926	3070.615500	1010.927734	125.176788
22963.112926	3070.615500	1009.767578	50.154419
22963.112926	3070.615500	1008.606445	91.353142
22963.112926	3070.615500	1007.446289	70.279320
22963.112926	3070.615500	1006.285156	84.754448
22963.112926	3070.615500	1005.123047	-41.274910
22963.112926	3070.615500	1003.961914	91.983986
22963.112926	3070.615500	1002.799805	194.090195
22963.112926	3070.615500	1001.637695	157.388062
22963.112926	3070.615500	1000.475586	139.843323
22963.112926	3070.615500	999.312500	201.231400
22963.112926	3070.615500	998.149414	114.048592
22963.112926	3070.615500	996.986328	189.439865
22963.112926	3070.615500	995.823242	148.862167
22963.112926	3070.615500	994.659180	-170.701233
22963.112926	3070.615500	993.496094	-188.432938
22963.112926	3070.615500	992.332031	-9.614930
22963.112926	3070.615500	991.166992	-105.817711
22963.112926	3070.615500	990.002930	-97.945305
22963.112926	3070.615500	988.837891	55.879738
22963.112926	3070.615500	987.672852	-8.090026
22963.112926	3070.615500	986.506836	-13.526865
22963.112926	3070.615500	985.341797	-167.221237
22963.112926	3070.615500	984.175781	-40.057194
22963.112926	3070.615500	983.009766	23.712099
22963.112926	3070.615500	981.843750	-105.309410
22963.112926	3070.615500	980.676758	5.780050
22963.112926	3070.615500	979.509766	-280.123138
22963.112926	3070.615500	978.342773	-106.541527
22963.112926	3070.615500	977.175781	-46.981010
22963.112926	3070.615500	976.007813	13.791582
22963.112926	3070.615500	974.839844	-74.755455
22963.112926	3070.615500	973.671875	75.246948
22963.112926	3070.615500	972.503906	84.769440
22963.112926	3070.615500	971.334961	24.844864
22963.112926	3070.615500	970.166016	-36.853271
22963.112926	3070.615500	968.997070	-70.580887
22963.112926	3070.615500	967.828125	78.574539
22963.112926	3070.615500	966.658203	19.480217
22963.112926	3070.615500	965.488281	66.508987
22963.112926	3070.615500	964.318359	43.103157
22963.112926	3070.615500	963.148438	43.986794
22963.112926	3070.615500	961.977539	51.272083
22963.112926	3070.615500	960.806641	107.606895
22963.112926	3070.615500	959.635742	214.591736
22963.112926	3070.615500	958.463867	506.152191
22963.112926	3070.615500	957.292969	525.272278
22963.112926	3070.615500	956.121094	693.225159
22963.112926	3070.615500	954.948242	860.931946
22963.112926	3070.615500	953.776367	994.332520
22963.112926	3070.615500	952.603516	888.957520
22963.112926	3070.615500	951.430664	660.113708
22963.112926	3070.615500	950.257813	567.118469
22963.112926	3070.615500	949.084961	359.833496
22963.112926	3070.615500	947.911133	347.439941
22963.112926	3070.615500	946.737305	125.236404
22963.112926	3070.615500	945.563477	266.522095
22963.112926	3070.615500	944.388672	282.860474
22963.112926	3070.615500	943.213867	129.472504
22963.112926	3070.615500	942.039063	236.378113
22963.112926	3070.615500	940.864258	138.989822
22963.112926	3070.615500	939.688477	164.074051
22963.112926	3070.615500	938.513672	23.409603
22963.112926	3070.615500	937.337891	177.603653
22963.112926	3070.615500	936.161133	13.257108
22963.112926	3070.615500	934.985352	83.505310
22963.112926	3070.615500	933.808594	224.776596
22963.112926	3070.615500	932.631836	168.023117
22963.112926	3070.615500	931.454102	160.666916
22963.112926	3070.615500	930.277344	58.594959
22963.112926	3070.615500	929.099609	339.672913
22963.112926	3070.615500	927.921875	207.380310
22963.112926	3070.615500	926.743164	232.285126
22963.112926	3070.615500	925.565430	140.926315
22963.112926	3070.615500	924.386719	217.364700
22963.112926	3070.615500	923.208008	186.227341
22963.112926	3070.615500	922.028320	195.936584
22963.112926	3070.615500	920.849609	270.115540
22963.112926	3070.615500	919.669922	272.597809
22963.112926	3070.615500	919.474609	260.828918
22963.112926	3070.615500	918.309570	154.378571
22963.112926	3070.615500	917.143555	101.666740
22963.112926	3070.615500	915.977539	40.363567
22963.112926	3070.615500	914.810547	84.302376
22963.112926	3070.615500	913.644531	-2.778301
22963.112926	3070.615500	912.477539	255.791275
22963.112926	3070.615500	911.310547	29.162760
22963.112926	3070.615500	910.143555	244.664551
22963.112926	3070.615500	908.975586	125.368637
22963.112926	3070.615500	907.807617	263.507294
22963.112926	3070.615500	906.639648	135.641281
22963.112926	3070.615500	905.471680	145.036057
22963.112926	3070.615500	904.303711	38.648895
22963.112926	3070.615500	903.134766	155.191345
22963.112926	3070.615500	901.965820	-51.901165
22963.112926	3070.615500	900.796875	-23.260231
22963.112926	3070.615500	899.626953	204.558563
22963.112926	3070.615500	898.457031	123.885666
22963.112926	3070.615500	897.287109	128.874161
22963.112926	3070.615500	896.117188	110.297707
22963.112926	3070.615500	894.947266	128.096481
22963.112926	3070.615500	893.776367	105.218704
22963.112926	3070.615500	892.605469	189.303482
22963.112926	3070.615500	891.434570	256.226990
22963.112926	3070.615500	890.262695	-74.648537
22963.112926	3070.615500	889.091797	15.790942
22963.112926	3070.615500	887.919922	-99.030151
22963.112926	3070.615500	886.748047	-68.490746
22963.112926	3070.615500	885.575195	-125.582672
22963.112926	3070.615500	884.403320	92.917053
22963.112926	3070.615500	883.230469	110.543587
22963.112926	3070.615500	882.057617	-61.904236
22963.112926	3070.615500	880.883789	11.231094
22963.112926	3070.615500	879.710938	-3.195035
22963.112926	3070.615500	878.537109	114.688835
22963.112926	3070.615500	877.362305	44.748550
22963.112926	3070.615500	876.188477	173.215042
22963.112926	3070.615500	875.013672	52.077839
22963.112926	3070.615500	873.839844	88.772507
22963.112926	3070.615500	872.664063	-21.661140
22963.112926	3070.615500	871.489258	138.637711
22963.112926	3070.615500	870.313477	136.898758
22963.112926	3070.615500	869.138672	9.439411
22963.112926	3070.615500	867.962891	167.468323
22963.112926	3070.615500	866.786133	61.331730
22963.112926	3070.615500	865.610352	-31.999046
22963.112926	3070.615500	864.433594	-110.399940
22963.112926	3070.615500	863.256836	34.707748
22963.112926	3070.615500	862.079102	-37.312664
22963.112926	3070.615500	860.902344	118.334877
22963.112926	3070.615500	859.724609	-21.764715
22963.112926	3070.615500	858.546875	-151.184570
22963.112926	3070.615500	857.368164	-84.944756
22963.112926	3070.615500	856.190430	-105.903923
22963.112926	3070.615500	855.011719	-111.986557
22963.112926	3070.615500	853.833008	-147.827774
22963.112926	3070.615500	852.654297	-292.016907
22963.112926	3070.615500	851.474609	-200.382187
22963.112926	3070.615500	850.294922	-295.677887
22963.112926	3070.615500	849.115234	-144.653015
22963.112926	3070.615500	847.935547	-27.665947
22963.112926	3070.615500	846.754883	-131.460526
22963.112926	3070.615500	845.575195	-95.179489
22963.112926	3070.615500	844.393555	-65.286285
22963.112926	3070.615500	843.212891	45.181538
22963.112926	3070.615500	842.032227	-247.322128
22963.112926	3070.615500	840.850586	-228.050949
22963.112926	3070.615500	839.668945	-172.764542
22963.112926	3070.615500	838.486328	-102.675560
22963.112926	3070.615500	837.304688	-151.284576
22963.112926	3070.615500	836.122070	-43.120453
22963.112926	3070.615500	834.939453	-26.086325
22963.112926	3070.615500	833.756836	-100.125610
22963.112926	3070.615500	832.573242	29.097744
22963.112926	3070.615500	831.389648	-108.445351
22963.112926	3070.615500	830.206055	164.606827
22963.112926	3070.615500	829.022461	105.352844
22963.112926	3070.615500	827.838867	92.649033
22963.112926	3070.615500	826.654297	115.893402
22963.112926	3070.615500	825.469727	213.122787
22963.112926	3070.615500	824.284180	-46.975304
22963.112926	3070.615500	823.099609	37.540176
22963.112926	3070.615500	821.914063	-63.951271
22963.112926	3070.615500	820.728516	39.523251
22963.112926	3070.615500	819.542969	41.550529
22963.112926	3070.615500	818.356445	168.166138
22963.112926	3070.615500	817.169922	127.911339
22963.112926	3070.615500	815.983398	24.329460
22963.112926	3070.615500	814.796875	26.305103
22963.112926	3070.615500	813.609375	106.342529
22963.112926	3070.615500	812.422852	68.188103
22963.112926	3070.615500	811.235352	17.380259
22963.112926	3070.615500	810.046875	-10.222807
22963.112926	3070.615500	808.859375	126.624832
22963.112926	3070.615500	807.670898	143.248642
22963.112926	3070.615500	806.482422	-23.504398
22963.112926	3070.615500	805.293945	-137.526550
22963.112926	3070.615500	804.104492	34.988529
22963.112926	3070.615500	802.915039	283.240417
22963.112926	3070.615500	801.725586	59.678593
22963.112926	3070.615500	800.536133	335.159790
22963.112926	3070.615500	799.345703	311.614807
22963.112926	3070.615500	798.155273	35.525974
22963.112926	3070.615500	796.964844	203.486298
22963.112926	3070.615500	795.774414	38.990662
22963.112926	3070.615500	794.583008	-62.357822
22963.112926	3070.615500	793.392578	-109.012169
22963.112926	3070.615500	792.200195	-4.297921
22963.112926	3070.615500	791.008789	-82.507706
22963.112926	3070.615500	789.816406	-45.124630
22963.112926	3070.615500	788.625000	53.152298
22963.112926	3070.615500	787.432617	-41.880810
22963.112926	3070.615500	786.239258	-6.685192
22963.112926	3070.615500	785.046875	-19.817690
22963.112926	3070.615500	783.853516	0.624645
22963.112926	3070.615500	782.660156	-216.127213
22963.112926	3070.615500	781.465820	7.849429
22963.112926	3070.615500	780.272461	47.093571
22963.112926	3070.615500	779.078125	94.691109
22963.112926	3070.615500	777.883789	192.577179
22963.112926	3070.615500	776.688477	78.641670
22963.112926	3070.615500	775.494141	12.943733
22963.112926	3070.615500	774.298828	70.901138
22963.112926	3070.615500	773.103516	103.667824
22963.112926	3070.615500	771.907227	107.070618
22963.112926	3070.615500	770.711914	200.509613
22963.112926	3070.615500	769.515625	226.878021
22963.112926	3070.615500	768.318359	159.000656
22963.112926	3070.615500	767.122070	97.406624
22963.112926	3070.615500	765.924805	201.138412
22963.112926	3070.615500	764.727539	187.634277
22963.112926	3070.615500	763.530273	144.825012
22963.112926	3070.615500	762.333008	204.487167
22963.112926	3070.615500	761.134766	308.009399
22963.112926	3070.615500	759.936523	396.828522
22963.112926	3070.615500	758.738281	642.342163
22963.112926	3070.615500	757.540039	415.461151
22963.112926	3070.615500	756.340820	418.463165
22963.112926	3070.615500	755.141602	473.656250
22963.112926	3070.615500	753.942383	413.938446
22963.112926	3070.615500	752.742188	402.239807
22963.112926	3070.615500	751.541992	430.179382
22963.112926	3070.615500	750.341797	276.504425
22963.112926	3070.615500	749.141602	346.132538
22963.112926	3070.615500	747.941406	255.065384
22963.112926	3070.615500	746.740234	205.721558
22963.112926	3070.615500	745.539063	285.657288
22963.112926	3070.615500	744.337891	100.748238
22963.112926	3070.615500	743.135742	157.681488
22963.112926	3070.615500	741.933594	99.938652
22963.112926	3070.615500	740.731445	-18.235989
22963.112926	3070.615500	739.529297	28.174801
22963.112926	3070.615500	738.326172	193.247681
22963.112926	3070.615500	737.124023	-70.729805
22963.112926	3070.615500	735.919922	87.982674
22963.112926	3070.615500	734.716797	0.989802
22963.112926	3070.615500	733.513672	120.014702
22963.112926	3070.615500	732.309570	-39.836304
22963.112926	3070.615500	731.105469	89.478172
22963.112926	3070.615500	729.900391	118.879333
22963.112926	3070.615500	728.696289	256.352844
22963.112926	3070.615500	727.491211	269.005127
22963.112926	3070.615500	726.286133	200.559280
22963.112926	3070.615500	725.080078	348.209381
22963.112926	3070.615500	723.874023	356.568756
22963.112926	3070.615500	722.668945	412.659607
22963.112926	3070.615500	721.461914	420.926331
22963.112926	3070.615500	720.255859	258.904846
22963.112926	3070.615500	719.048828	331.471588
22963.112926	3070.615500	717.841797	179.835358
22963.112926	3070.615500	716.634766	80.095406
22963.112926	3070.615500	715.427734	42.591286
22963.112926	3070.615500	714.219727	90.096863
22963.112926	3070.615500	713.011719	11.053906
22963.112926	3070.615500	711.803711	48.099815
22963.112926	3070.615500	710.594727	-76.582939
22963.112926	3070.615500	709.385742	-74.845444
22963.112926	3070.615500	708.176758	-79.365730
22963.112926	3070.615500	706.967773	-21.783722
22963.112926	3070.615500	705.758789	-49.177826
22963.112926	3070.615500	704.548828	16.570320
22963.112926	3070.615500	703.338867	-48.168026
22963.112926	3070.615500	702.127930	-7.370259
22963.112926	3070.615500	700.917969	101.652939
22963.112926	3070.615500	699.707031	16.118399
22963.112926	3070.615500	698.496094	36.062569
22963.112926	3070.615500	697.285156	250.339706
22963.112926	3070.615500	696.073242	100.601639
22963.112926	3070.615500	694.861328	236.136902
22963.112926	3070.615500	693.649414	158.706985
22963.112926	3070.615500	692.436523	343.669678
22963.112926	3070.615500	691.224609	247.567490
22963.112926	3070.615500	690.011719	201.026352
22963.112926	3070.615500	688.798828	379.531799
22963.112926	3070.615500	687.584961	365.920013
22963.112926	3070.615500	686.372070	290.348053
22963.112926	3070.615500	685.158203	348.893280
22963.112926	3070.615500	683.943359	378.480713
22963.112926	3070.615500	682.729492	443.076691
22963.112926	3070.615500	681.514648	542.655334
22963.112926	3070.615500	680.299805	551.423218
22963.112926	3070.615500	679.084961	708.561279
22963.112926	3070.615500	677.869141	632.692627
22963.112926	3070.615500	676.653320	680.440918
22963.112926	3070.615500	675.437500	520.049072
22963.112926	3070.615500	674.221680	559.465393
22963.112926	3070.615500	673.004883	440.252136
22963.112926	3070.615500	671.789063	434.277344
22963.112926	3070.615500	670.571289	329.450012
22963.112926	3070.615500	669.354492	247.257462
22963.112926	3070.615500	668.136719	179.450882
22963.112926	3070.615500	666.919922	119.853661
22963.112926	3070.615500	665.701172	228.873459
22963.112926	3070.615500	664.483398	193.864716
22963.112926	3070.615500	663.264648	206.102325
22963.112926	3070.615500	662.045898	294.332550
22963.112926	3070.615500	660.827148	213.973312
22963.112926	3070.615500	659.608398	347.263885
22963.112926	3070.615500	658.388672	166.177429
22963.112926	3070.615500	657.168945	194.585907
22963.112926	3070.615500	655.949219	136.699265
22963.112926	3070.615500	654.728516	189.632233
22963.112926	3070.615500	653.507813	302.010284
22963.112926	3070.615500	652.287109	217.311020
22963.112926	3070.615500	651.066406	376.719055
22963.112926	3070.615500	649.844727	373.977386
22963.112926	3070.615500	648.623047	299.417267
22963.112926	3070.615500	647.401367	388.849854
22963.112926	3070.615500	646.179688	494.592621
22963.112926	3070.615500	644.957031	397.360077
22963.112926	3070.615500	643.734375	324.705444
22963.112926	3070.615500	642.511719	321.677612
22963.112926	3070.615500	641.289063	406.664459
22963.112926	3070.615500	640.065430	299.094269
22963.112926	3070.615500	638.841797	480.162506
22963.112926	3070.615500	637.618164	503.510956
22963.112926	3070.615500	636.393555	594.323181
22963.112926	3070.615500	635.168945	640.040894
22963.112926	3070.615500	633.944336	767.505127
22963.112926	3070.615500	632.719727	569.721924
22963.112926	3070.615500	631.494141	650.023254
22963.112926	3070.615500	630.269531	525.838623
22963.112926	3070.615500	629.042969	505.878235
22963.112926	3070.615500	627.817383	373.505127
22963.112926	3070.615500	626.590820	394.345276
22963.112926	3070.615500	625.365234	294.634674
22963.112926	3070.615500	624.137695	305.175934
22963.112926	3070.615500	622.911133	332.001007
22963.112926	3070.615500	621.683594	426.119446
22963.112926	3070.615500	620.456055	544.638977
22963.112926	3070.615500	619.228516	595.736267
22963.112926	3070.615500	618.000977	579.455627
22963.112926	3070.615500	616.772461	638.587158
22963.112926	3070.615500	615.543945	624.249146
22963.112926	3070.615500	614.314453	562.985168
22963.112926	3070.615500	613.085938	570.998718
22963.112926	3070.615500	611.856445	511.721741
22963.112926	3070.615500	610.626953	354.643311
22963.112926	3070.615500	609.397461	254.616821
22963.112926	3070.615500	608.166992	258.436737
22963.112926	3070.615500	606.936523	192.994049
22963.112926	3070.615500	605.706055	182.493820
22963.112926	3070.615500	604.474609	27.469662
22963.112926	3070.615500	603.244141	-23.763861
22963.112926	3070.615500	602.012695	32.788734
22963.112926	3070.615500	600.780273	58.768009
22963.112926	3070.615500	599.548828	-18.994667
22963.112926	3070.615500	598.316406	-159.784714
22963.112926	3070.615500	597.083984	-154.221069
22963.112926	3070.615500	595.851563	-18.652271
22963.112926	3070.615500	594.618164	108.691498
22963.112926	3070.615500	593.384766	51.115749
22963.112926	3070.615500	592.151367	119.428703
22963.112926	3070.615500	590.917969	-29.556530
22963.112926	3070.615500	589.683594	-111.534538
22963.112926	3070.615500	588.449219	-110.307564
22963.112926	3070.615500	587.214844	-42.160622
22963.112926	3070.615500	585.979492	-103.903557
22963.112926	3070.615500	584.745117	-31.795561
22963.112926	3070.615500	583.509766	-32.749489
22963.112926	3070.615500	582.273438	0.724532
22963.112926	3070.615500	581.038086	145.630188
22963.112926	3070.615500	579.801758	63.490547
22963.112926	3070.615500	578.565430	-57.135040
22963.112926	3070.615500	577.329102	57.217041
22963.112926	3070.615500	576.091797	68.211456
22963.112926	3070.615500	574.854492	-68.622154
22963.112926	3070.615500	573.617188	-9.078426
22963.112926	3070.615500	572.378906	-131.726624
22963.112926	3070.615500	571.141602	-15.591497
22963.112926	3070.615500	569.903320	-77.548141
22963.112926	3070.615500	568.664063	22.289913
22963.112926	3070.615500	567.425781	-19.473526
22963.112926	3070.615500	566.186523	19.618389
22963.112926	3070.615500	564.947266	-24.194521
22963.112926	3070.615500	563.708008	10.799497
22963.112926	3070.615500	562.467773	106.363647
22963.112926	3070.615500	561.227539	18.061556
22963.112926	3070.615500	559.987305	87.294930
22963.112926	3070.615500	558.747070	106.007477
22963.112926	3070.615500	557.505859	70.189926
22963.112926	3070.615500	556.264648	193.805389
22963.112926	3070.615500	555.023438	218.486542
22963.112926	3070.615500	553.781250	87.809547
22963.112926	3070.615500	552.539063	320.206299
22963.112926	3070.615500	551.296875	92.752403
22963.112926	3070.615500	550.054688	62.950153
22963.112926	3070.615500	548.811523	170.202866
22963.112926	3070.615500	547.569336	307.632355
22963.112926	3070.615500	546.325195	98.460396
22963.112926	3070.615500	545.082031	26.344400
22963.112926	3070.615500	543.837891	50.911369
22963.112926	3070.615500	542.593750	143.917465
22963.112926	3070.615500	541.349609	142.270813
22963.112926	3070.615500	540.105469	295.584595
22963.112926	3070.615500	538.860352	330.112152
22963.112926	3070.615500	537.615234	129.258667
22963.112926	3070.615500	536.369141	115.529907
22963.112926	3070.615500	535.124023	33.444195
22963.112926	3070.615500	533.877930	-36.548225
22963.112926	3070.615500	532.631836	74.385460
22963.112926	3070.615500	531.384766	-9.653210
22963.112926	3070.615500	530.138672	153.468765
22963.112926	3070.615500	528.891602	-87.217804
22963.112926	3070.615500	527.643555	9.579460
22963.112926	3070.615500	526.396484	168.586273
22963.112926	3070.615500	525.148438	283.365692
22963.112926	3070.615500	523.900391	361.978485
22963.112926	3070.615500	522.652344	229.884476
22963.112926	3070.615500	521.403320	184.111923
22963.112926	3070.615500	520.154297	134.357285
22963.112926	3070.615500	518.905273	110.702904
22963.112926	3070.615500	517.656250	149.217392
22963.112926	3070.615500	516.406250	271.905151
22963.112926	3070.615500	515.156250	178.131439
22963.112926	3070.615500	513.906250	228.662170
22963.112926	3070.615500	512.655273	195.052460
22963.112926	3070.615500	511.404297	157.467834
22963.112926	3070.615500	510.153320	336.150665
22963.112926	3070.615500	508.902344	196.494186
22963.112926	3070.615500	507.650391	184.994949
22963.112926	3070.615500	506.398438	295.573212
22963.112926	3070.615500	505.146484	232.081650
22963.112926	3070.615500	503.893555	106.631020
22963.112926	3070.615500	502.641602	-136.718246
22963.112926	3070.615500	501.388672	-160.038147
22963.112926	3070.615500	500.134766	-37.423340
22963.112926	3070.615500	498.881836	-142.643677
22963.112926	3070.615500	497.627930	-303.742279
22963.112926	3070.615500	496.374023	-127.180122
22963.112926	3070.615500	495.119141	-120.422592
22963.112926	3070.615500	493.865234	-157.565994
22963.112926	3070.615500	492.610352	-156.747177
22963.112926	3070.615500	491.355469	-209.790085
22963.112926	3070.615500	490.099609	-123.119644
22963.112926	3070.615500	488.843750	-188.072586
22963.112926	3070.615500	487.587891	-145.273712
22963.112926	3070.615500	486.332031	-10.743855
22963.112926	3070.615500	485.075195	14.101239
22963.112926	3070.615500	483.818359	76.830376
22963.112926	3070.615500	482.561523	-53.737068
22963.112926	3070.615500	481.304688	-4.917019
22963.112926	3070.615500	480.046875	39.918648
22963.112926	3070.615500	478.789063	48.913673
22963.112926	3070.615500	477.531250	77.839890
22963.112926	3070.615500	476.272461	84.877098
22963.112926	3070.615500	475.013672	225.275772
22963.112926	3070.615500	473.754883	369.617157
22963.112926	3070.615500	472.496094	265.258301
22963.112926	3070.615500	471.236328	381.727570
22963.112926	3070.615500	469.976563	343.071472
22963.112926	3070.615500	468.716797	201.077606
22963.112926	3070.615500	467.456055	186.367905
22963.112926	3070.615500	466.196289	267.072693
22963.112926	3070.615500	464.935547	192.794708
22963.112926	3070.615500	463.673828	211.920471
22963.112926	3070.615500	462.413086	2.686917
22963.112926	3070.615500	461.151367	-23.782766
22963.112926	3070.615500	459.889648	-12.509099
22963.112926	3070.615500	458.626953	-52.827026
22963.112926	3070.615500	457.364258	63.634846
22963.112926	3070.615500	456.101563	-6.408847
22963.112926	3070.615500	454.838867	86.219337
22963.112926	3070.615500	453.575195	49.928833
22963.112926	3070.615500	452.312500	176.227249
22963.112926	3070.615500	451.047852	94.361519
22963.112926	3070.615500	449.784180	-3.310973
22963.112926	3070.615500	448.519531	-53.392689
22963.112926	3070.615500	447.254883	179.792679
22963.112926	3070.615500	445.990234	44.545021
22963.112926	3070.615500	444.725586	10.328210
22963.112926	3070.615500	443.459961	263.137421
22963.112926	3070.615500	442.194336	454.483032
22963.112926	3070.615500	440.927734	552.742371
22963.112926	3070.615500	439.662109	423.466461
22963.112926	3070.615500	438.395508	478.158508
22963.112926	3070.615500	437.127930	445.808136
22963.112926	3070.615500	435.861328	211.818130
22963.112926	3070.615500	434.593750	157.761658
22963.112926	3070.615500	433.326172	117.537048
22963.112926	3070.615500	432.058594	51.622234
22963.112926	3070.615500	430.790039	76.559532
22963.112926	3070.615500	429.521484	89.604866
22963.112926	3070.615500	428.252930	108.532204
22963.112926	3070.615500	426.984375	158.993790
22963.112926	3070.615500	425.714844	47.565006
22963.112926	3070.615500	424.445313	271.548737
22963.112926	3070.615500	423.174805	238.945297
22963.112926	3070.615500	421.905273	243.776291
22963.112926	3070.615500	420.634766	207.135345
22963.112926	3070.615500	419.364258	186.216980
22963.112926	3070.615500	418.092773	208.594986
22963.112926	3070.615500	416.822266	232.865463
22963.112926	3070.615500	415.550781	294.473572
22963.112926	3070.615500	414.278320	147.191513
22963.112926	3070.615500	413.006836	104.255402
22963.112926	3070.615500	411.734375	59.271667
22963.112926	3070.615500	410.461914	104.750999
22963.112926	3070.615500	409.188477	128.455063
22963.112926	3070.615500	407.916016	100.889870
22963.112926	3070.615500	406.642578	136.160080
22963.112926	3070.615500	405.368164	70.991234
22963.112926	3070.615500	404.094727	159.088028
22963.112926	3070.615500	402.820313	93.678085
22963.112926	3070.615500	401.545898	69.425690
22963.112926	3070.615500	400.270508	-118.056931
22963.112926	3070.615500	398.996094	-67.908737
22963.112926	3070.615500	397.720703	-94.548813
22963.112926	3070.615500	396.444336	-9.428847
22963.112926	3070.615500	395.168945	-95.317093
22963.112926	3070.615500	393.892578	46.319111
22963.112926	3070.615500	392.616211	44.448124
22963.112926	3070.615500	391.339844	-167.550690
22963.112926	3070.615500	390.062500	-122.722679
22963.112926	3070.615500	388.785156	59.138069
22963.112926	3070.615500	387.507813	9.334068
22963.112926	3070.615500	386.229492	-13.252546
22963.112926	3070.615500	384.951172	26.633240
22963.112926	3070.615500	383.672852	5.501221
22963.112926	3070.615500	382.394531	87.931267
22963.112926	3070.615500	381.115234	185.705093
22963.112926	3070.615500	379.835938	116.708328
22963.112926	3070.615500	378.556641	113.999069
22963.112926	3070.615500	377.277344	167.736725
22963.112926	3070.615500	375.997070	201.549179
22963.112926	3070.615500	374.716797	193.925354
22963.112926	3070.615500	373.435547	238.757202
22963.112926	3070.615500	372.155273	242.151108
22963.112926	3070.615500	370.874023	90.707558
22963.112926	3070.615500	369.591797	169.582901
22963.112926	3070.615500	368.310547	21.340902
22963.112926	3070.615500	367.028320	19.275192
22963.112926	3070.615500	365.746094	151.565460
22963.112926	3070.615500	364.463867	117.353584
22963.112926	3070.615500	363.180664	-100.851357
22963.112926	3070.615500	361.897461	-112.508820
22963.112926	3070.615500	360.614258	-97.325584
22963.112926	3070.615500	359.330078	-86.567093
22963.112926	3070.615500	358.045898	73.881912
22963.112926	3070.615500	356.761719	9.426929
22963.112926	3070.615500	355.477539	-139.400925
22963.112926	3070.615500	354.192383	-115.235840
22963.112926	3070.615500	352.907227	-2.008298
22963.112926	3070.615500	351.622070	-10.255153
22963.112926	3070.615500	350.336914	-23.016544
22963.112926	3070.615500	349.050781	92.128098
22963.112926	3070.615500	347.764648	-11.550753
22963.112926	3070.615500	346.477539	-185.973190
22963.112926	3070.615500	345.191406	-69.013657
22963.112926	3070.615500	343.904297	47.156521
22963.112926	3070.615500	342.616211	-59.296848
22963.112926	3070.615500	341.329102	-59.455170
22963.112926	3070.615500	340.041016	73.782013
22963.112926	3070.615500	338.752930	87.543381
22963.112926	3070.615500	337.463867	-12.305140
22963.112926	3070.615500	336.175781	87.253784
22963.112926	3070.615500	334.886719	12.929238
22963.112926	3070.615500	333.596680	114.508682
22963.112926	3070.615500	332.307617	-120.881561
22963.112926	3070.615500	331.017578	46.780563
22963.112926	3070.615500	329.727539	5.657184
22963.112926	3070.615500	328.436523	-96.645805
22963.112926	3070.615500	327.146484	-21.361523
22963.112926	3070.615500	325.855469	-28.677856
22963.112926	3070.615500	324.563477	-33.217346
22963.112926	3070.615500	323.272461	-56.288040
22963.112926	3070.615500	321.980469	84.300598
22963.112926	3070.615500	320.688477	20.116766
22963.112926	3070.615500	319.395508	14.818509
22963.112926	3070.615500	318.103516	-73.050789
22963.112926	3070.615500	316.810547	74.178551
22963.112926	3070.615500	315.516602	-4.650427
22963.112926	3070.615500	314.223633	-140.882004
22963.112926	3070.615500	312.929688	77.783768
22963.112926	3070.615500	311.635742	-136.659592
22963.112926	3070.615500	310.340820	-102.829559
22963.112926	3070.615500	309.045898	-10.487679
22963.112926	3070.615500	307.750977	-80.219299
22963.112926	3070.615500	306.456055	28.411137
22963.112926	3070.615500	305.160156	75.457962
22963.112926	3070.615500	303.865234	-33.706692
22963.112926	3070.615500	302.568359	44.851902
22963.112926	3070.615500	301.272461	405.785461
22963.112926	3070.615500	299.975586	299.251251
22963.112926	3070.615500	298.678711	268.270081
