#X		#Y		#Wave		#Intensity
22996.808989	3292.579333	1999.980469	-40.544861
22996.808989	3292.579333	1999.016602	18.729925
22996.808989	3292.579333	1998.052734	41.888020
22996.808989	3292.579333	1997.087891	-49.165367
22996.808989	3292.579333	1996.123047	97.467010
22996.808989	3292.579333	1995.158203	-6.349764
22996.808989	3292.579333	1994.193359	68.007545
22996.808989	3292.579333	1993.228516	-36.138271
22996.808989	3292.579333	1992.262695	-58.719158
22996.808989	3292.579333	1991.297852	-108.691246
22996.808989	3292.579333	1990.332031	-72.186317
22996.808989	3292.579333	1989.366211	77.972504
22996.808989	3292.579333	1988.399414	-9.579553
22996.808989	3292.579333	1987.433594	167.423309
22996.808989	3292.579333	1986.466797	203.254745
22996.808989	3292.579333	1985.500977	206.795090
22996.808989	3292.579333	1984.534180	259.648224
22996.808989	3292.579333	1983.567383	176.414978
22996.808989	3292.579333	1982.599609	-3.284678
22996.808989	3292.579333	1981.632813	34.398857
22996.808989	3292.579333	1980.665039	2.790634
22996.808989	3292.579333	1979.697266	77.295181
22996.808989	3292.579333	1978.729492	186.245499
22996.808989	3292.579333	1977.761719	11.132623
22996.808989	3292.579333	1976.792969	-28.238747
22996.808989	3292.579333	1975.825195	265.505890
22996.808989	3292.579333	1974.856445	-1.079808
22996.808989	3292.579333	1973.887695	-62.872204
22996.808989	3292.579333	1972.918945	20.819391
22996.808989	3292.579333	1971.949219	-1.635849
22996.808989	3292.579333	1970.980469	155.853088
22996.808989	3292.579333	1970.010742	155.444061
22996.808989	3292.579333	1969.041016	-74.250679
22996.808989	3292.579333	1968.071289	97.778824
22996.808989	3292.579333	1967.101563	10.984344
22996.808989	3292.579333	1966.130859	-75.825462
22996.808989	3292.579333	1965.161133	132.914581
22996.808989	3292.579333	1964.190430	119.907486
22996.808989	3292.579333	1963.219727	168.420471
22996.808989	3292.579333	1962.249023	29.798885
22996.808989	3292.579333	1961.277344	-5.434940
22996.808989	3292.579333	1960.306641	102.038948
22996.808989	3292.579333	1959.334961	15.086334
22996.808989	3292.579333	1958.363281	-22.660599
22996.808989	3292.579333	1957.391602	79.768990
22996.808989	3292.579333	1956.419922	-34.238609
22996.808989	3292.579333	1955.447266	-62.175854
22996.808989	3292.579333	1954.474609	-23.750662
22996.808989	3292.579333	1953.501953	265.315094
22996.808989	3292.579333	1952.529297	21.086081
22996.808989	3292.579333	1951.556641	-9.335039
22996.808989	3292.579333	1950.583984	119.899445
22996.808989	3292.579333	1949.610352	185.233582
22996.808989	3292.579333	1948.636719	-51.448689
22996.808989	3292.579333	1947.663086	13.893970
22996.808989	3292.579333	1946.689453	309.920502
22996.808989	3292.579333	1945.715820	48.817551
22996.808989	3292.579333	1944.741211	72.409241
22996.808989	3292.579333	1943.767578	-24.192120
22996.808989	3292.579333	1942.792969	-59.438210
22996.808989	3292.579333	1941.818359	86.789261
22996.808989	3292.579333	1940.842773	147.166687
22996.808989	3292.579333	1939.868164	141.357315
22996.808989	3292.579333	1938.892578	182.124146
22996.808989	3292.579333	1937.916992	-9.877246
22996.808989	3292.579333	1936.941406	163.220398
22996.808989	3292.579333	1935.965820	17.863869
22996.808989	3292.579333	1934.990234	75.832878
22996.808989	3292.579333	1934.013672	160.729294
22996.808989	3292.579333	1933.037109	-79.958656
22996.808989	3292.579333	1932.060547	53.925037
22996.808989	3292.579333	1931.083984	104.582245
22996.808989	3292.579333	1930.107422	13.343199
22996.808989	3292.579333	1929.129883	34.678745
22996.808989	3292.579333	1928.153320	-88.260750
22996.808989	3292.579333	1927.175781	150.754318
22996.808989	3292.579333	1926.198242	0.992912
22996.808989	3292.579333	1925.219727	37.075180
22996.808989	3292.579333	1924.242188	122.046600
22996.808989	3292.579333	1923.263672	104.388748
22996.808989	3292.579333	1922.285156	1.261885
22996.808989	3292.579333	1921.306641	-4.103321
22996.808989	3292.579333	1920.328125	119.985184
22996.808989	3292.579333	1919.349609	-66.021301
22996.808989	3292.579333	1918.370117	36.113461
22996.808989	3292.579333	1917.391602	-74.096001
22996.808989	3292.579333	1916.412109	35.374950
22996.808989	3292.579333	1915.431641	-145.495636
22996.808989	3292.579333	1914.452148	29.860689
22996.808989	3292.579333	1913.472656	14.950545
22996.808989	3292.579333	1912.492188	9.824085
22996.808989	3292.579333	1911.511719	-44.032513
22996.808989	3292.579333	1910.531250	-44.219574
22996.808989	3292.579333	1909.550781	28.727978
22996.808989	3292.579333	1908.569336	-78.630463
22996.808989	3292.579333	1907.588867	-37.322765
22996.808989	3292.579333	1906.607422	35.655361
22996.808989	3292.579333	1905.625977	-35.043747
22996.808989	3292.579333	1904.644531	3.868557
22996.808989	3292.579333	1903.662109	-8.330586
22996.808989	3292.579333	1902.680664	115.791489
22996.808989	3292.579333	1901.698242	13.587326
22996.808989	3292.579333	1900.715820	-105.586906
22996.808989	3292.579333	1899.733398	-20.371401
22996.808989	3292.579333	1898.750000	-37.310822
22996.808989	3292.579333	1897.767578	-42.065144
22996.808989	3292.579333	1896.784180	-102.713844
22996.808989	3292.579333	1895.800781	45.711788
22996.808989	3292.579333	1894.817383	215.971848
22996.808989	3292.579333	1893.833984	77.612984
22996.808989	3292.579333	1892.850586	-118.979263
22996.808989	3292.579333	1891.866211	-7.025845
22996.808989	3292.579333	1890.881836	163.181503
22996.808989	3292.579333	1889.897461	-130.386780
22996.808989	3292.579333	1888.913086	25.243605
22996.808989	3292.579333	1887.927734	-6.049185
22996.808989	3292.579333	1886.943359	28.199278
22996.808989	3292.579333	1885.958008	6.645496
22996.808989	3292.579333	1884.972656	-51.273933
22996.808989	3292.579333	1883.987305	67.875183
22996.808989	3292.579333	1883.001953	111.822441
22996.808989	3292.579333	1882.015625	-52.725433
22996.808989	3292.579333	1881.029297	76.074806
22996.808989	3292.579333	1880.042969	73.972725
22996.808989	3292.579333	1879.056641	-134.069229
22996.808989	3292.579333	1878.070313	81.897705
22996.808989	3292.579333	1877.083984	-26.758768
22996.808989	3292.579333	1876.096680	-11.874916
22996.808989	3292.579333	1875.109375	-149.523148
22996.808989	3292.579333	1874.122070	49.347336
22996.808989	3292.579333	1873.134766	13.386405
22996.808989	3292.579333	1872.146484	37.929146
22996.808989	3292.579333	1871.159180	-19.793802
22996.808989	3292.579333	1870.170898	19.252970
22996.808989	3292.579333	1869.182617	-28.780338
22996.808989	3292.579333	1868.194336	85.198029
22996.808989	3292.579333	1867.205078	136.272598
22996.808989	3292.579333	1866.216797	-37.459267
22996.808989	3292.579333	1865.227539	-68.559906
22996.808989	3292.579333	1864.238281	86.380173
22996.808989	3292.579333	1863.249023	156.704147
22996.808989	3292.579333	1862.259766	41.021313
22996.808989	3292.579333	1861.269531	26.785769
22996.808989	3292.579333	1860.279297	-16.429413
22996.808989	3292.579333	1859.290039	7.944502
22996.808989	3292.579333	1858.298828	-57.003120
22996.808989	3292.579333	1857.308594	8.354007
22996.808989	3292.579333	1856.318359	-95.203407
22996.808989	3292.579333	1855.327148	20.750298
22996.808989	3292.579333	1854.335938	83.585640
22996.808989	3292.579333	1853.344727	20.998343
22996.808989	3292.579333	1852.353516	50.017124
22996.808989	3292.579333	1851.362305	74.180481
22996.808989	3292.579333	1850.370117	74.211334
22996.808989	3292.579333	1849.377930	136.858231
22996.808989	3292.579333	1848.385742	-106.467766
22996.808989	3292.579333	1847.393555	66.919800
22996.808989	3292.579333	1846.401367	139.080414
22996.808989	3292.579333	1845.408203	71.548904
22996.808989	3292.579333	1844.415039	-56.164333
22996.808989	3292.579333	1843.421875	-123.697525
22996.808989	3292.579333	1842.428711	-73.338829
22996.808989	3292.579333	1841.435547	-112.042862
22996.808989	3292.579333	1840.441406	60.890060
22996.808989	3292.579333	1839.448242	82.222496
22996.808989	3292.579333	1838.454102	38.591652
22996.808989	3292.579333	1837.459961	-21.888277
22996.808989	3292.579333	1836.464844	-27.108528
22996.808989	3292.579333	1835.470703	90.185448
22996.808989	3292.579333	1834.475586	12.788806
22996.808989	3292.579333	1833.480469	7.440905
22996.808989	3292.579333	1832.485352	150.949860
22996.808989	3292.579333	1831.490234	159.896240
22996.808989	3292.579333	1830.495117	75.166801
22996.808989	3292.579333	1829.499023	-76.785706
22996.808989	3292.579333	1828.502930	-27.146477
22996.808989	3292.579333	1827.506836	70.412163
22996.808989	3292.579333	1826.510742	112.710106
22996.808989	3292.579333	1825.513672	260.470947
22996.808989	3292.579333	1824.517578	34.042065
22996.808989	3292.579333	1823.520508	-127.622589
22996.808989	3292.579333	1822.523438	19.942997
22996.808989	3292.579333	1821.526367	78.723785
22996.808989	3292.579333	1820.529297	48.769207
22996.808989	3292.579333	1819.531250	136.158081
22996.808989	3292.579333	1818.533203	-37.626751
22996.808989	3292.579333	1817.535156	202.898270
22996.808989	3292.579333	1816.537109	201.444244
22996.808989	3292.579333	1815.539063	94.599213
22996.808989	3292.579333	1814.540039	33.207390
22996.808989	3292.579333	1813.541992	115.360634
22996.808989	3292.579333	1812.542969	15.584058
22996.808989	3292.579333	1811.543945	104.758453
22996.808989	3292.579333	1810.543945	-7.065127
22996.808989	3292.579333	1809.544922	194.338013
22996.808989	3292.579333	1808.544922	32.204464
22996.808989	3292.579333	1807.544922	192.755646
22996.808989	3292.579333	1806.544922	95.076790
22996.808989	3292.579333	1805.544922	104.890350
22996.808989	3292.579333	1804.544922	35.796715
22996.808989	3292.579333	1803.543945	19.204000
22996.808989	3292.579333	1802.542969	143.442398
22996.808989	3292.579333	1801.541992	28.805201
22996.808989	3292.579333	1800.541016	-85.859573
22996.808989	3292.579333	1799.539063	11.858397
22996.808989	3292.579333	1798.538086	-2.681798
22996.808989	3292.579333	1797.536133	161.640396
22996.808989	3292.579333	1796.534180	242.340195
22996.808989	3292.579333	1795.532227	227.540604
22996.808989	3292.579333	1794.529297	162.595505
22996.808989	3292.579333	1793.527344	-28.746578
22996.808989	3292.579333	1792.524414	144.581528
22996.808989	3292.579333	1791.521484	50.864536
22996.808989	3292.579333	1790.518555	100.063377
22996.808989	3292.579333	1789.514648	72.932045
22996.808989	3292.579333	1788.511719	152.914673
22996.808989	3292.579333	1787.507813	75.620750
22996.808989	3292.579333	1786.503906	162.553207
22996.808989	3292.579333	1785.500000	-5.325027
22996.808989	3292.579333	1784.496094	233.744446
22996.808989	3292.579333	1783.491211	11.023573
22996.808989	3292.579333	1782.486328	140.398895
22996.808989	3292.579333	1781.481445	36.545841
22996.808989	3292.579333	1780.476563	51.555862
22996.808989	3292.579333	1779.471680	114.030670
22996.808989	3292.579333	1778.465820	164.508743
22996.808989	3292.579333	1777.460938	-13.277817
22996.808989	3292.579333	1776.455078	-79.399750
22996.808989	3292.579333	1775.449219	-55.297493
22996.808989	3292.579333	1774.442383	-19.416706
22996.808989	3292.579333	1773.436523	208.742477
22996.808989	3292.579333	1772.429688	54.431511
22996.808989	3292.579333	1771.422852	128.002319
22996.808989	3292.579333	1770.416016	-83.370483
22996.808989	3292.579333	1769.409180	-33.702705
22996.808989	3292.579333	1768.402344	77.550880
22996.808989	3292.579333	1767.394531	202.904114
22996.808989	3292.579333	1766.386719	145.495544
22996.808989	3292.579333	1765.378906	33.482269
22996.808989	3292.579333	1764.371094	23.373936
22996.808989	3292.579333	1763.362305	1.324252
22996.808989	3292.579333	1762.354492	152.211487
22996.808989	3292.579333	1761.345703	111.016434
22996.808989	3292.579333	1760.336914	81.595497
22996.808989	3292.579333	1759.328125	54.467186
22996.808989	3292.579333	1758.318359	119.614960
22996.808989	3292.579333	1757.308594	-2.399906
22996.808989	3292.579333	1756.299805	-15.553891
22996.808989	3292.579333	1755.290039	-196.841690
22996.808989	3292.579333	1754.279297	-77.624344
22996.808989	3292.579333	1753.269531	-147.806671
22996.808989	3292.579333	1752.258789	72.896950
22996.808989	3292.579333	1751.249023	-68.412567
22996.808989	3292.579333	1750.238281	-56.065125
22996.808989	3292.579333	1749.226563	102.758957
22996.808989	3292.579333	1748.215820	10.893053
22996.808989	3292.579333	1747.204102	-52.673847
22996.808989	3292.579333	1746.193359	148.335342
22996.808989	3292.579333	1745.181641	-28.798702
22996.808989	3292.579333	1744.168945	-26.457384
22996.808989	3292.579333	1743.157227	-28.918274
22996.808989	3292.579333	1742.144531	98.381104
22996.808989	3292.579333	1741.132813	-1.057185
22996.808989	3292.579333	1740.120117	246.379837
22996.808989	3292.579333	1739.106445	50.018333
22996.808989	3292.579333	1738.093750	129.678299
22996.808989	3292.579333	1737.080078	-52.604908
22996.808989	3292.579333	1736.067383	-131.131073
22996.808989	3292.579333	1735.053711	18.987932
22996.808989	3292.579333	1734.040039	-12.553114
22996.808989	3292.579333	1733.025391	-18.248964
22996.808989	3292.579333	1732.011719	67.884460
22996.808989	3292.579333	1730.997070	142.111679
22996.808989	3292.579333	1729.982422	-54.663681
22996.808989	3292.579333	1728.967773	-6.514462
22996.808989	3292.579333	1727.952148	-259.874237
22996.808989	3292.579333	1726.937500	-14.114982
22996.808989	3292.579333	1725.921875	47.863979
22996.808989	3292.579333	1724.906250	-90.294960
22996.808989	3292.579333	1723.890625	-202.601120
22996.808989	3292.579333	1722.875000	-242.019867
22996.808989	3292.579333	1721.858398	137.136459
22996.808989	3292.579333	1720.841797	-71.812660
22996.808989	3292.579333	1719.825195	-78.569847
22996.808989	3292.579333	1718.808594	-45.443691
22996.808989	3292.579333	1717.791992	-12.408766
22996.808989	3292.579333	1716.774414	29.923943
22996.808989	3292.579333	1715.756836	-19.459637
22996.808989	3292.579333	1714.739258	62.632454
22996.808989	3292.579333	1713.721680	146.964447
22996.808989	3292.579333	1712.704102	120.834770
22996.808989	3292.579333	1711.685547	42.984684
22996.808989	3292.579333	1710.667969	51.939217
22996.808989	3292.579333	1709.649414	91.310150
22996.808989	3292.579333	1708.630859	90.707527
22996.808989	3292.579333	1707.611328	167.428040
22996.808989	3292.579333	1706.592773	-67.857681
22996.808989	3292.579333	1705.573242	46.234119
22996.808989	3292.579333	1704.553711	-29.679865
22996.808989	3292.579333	1703.534180	-9.537442
22996.808989	3292.579333	1702.513672	31.606268
22996.808989	3292.579333	1701.494141	100.790741
22996.808989	3292.579333	1700.473633	-45.644306
22996.808989	3292.579333	1699.453125	-30.488544
22996.808989	3292.579333	1698.432617	94.649368
22996.808989	3292.579333	1697.412109	1.943006
22996.808989	3292.579333	1696.390625	-111.873009
22996.808989	3292.579333	1695.369141	15.337218
22996.808989	3292.579333	1694.347656	-86.869888
22996.808989	3292.579333	1693.326172	93.962494
22996.808989	3292.579333	1692.304688	15.040213
22996.808989	3292.579333	1691.282227	127.828606
22996.808989	3292.579333	1690.260742	-4.969819
22996.808989	3292.579333	1689.238281	-119.090263
22996.808989	3292.579333	1688.214844	-74.314796
22996.808989	3292.579333	1687.192383	28.812372
22996.808989	3292.579333	1686.168945	59.405357
22996.808989	3292.579333	1685.146484	-47.871330
22996.808989	3292.579333	1684.123047	-31.403770
22996.808989	3292.579333	1683.099609	43.372444
22996.808989	3292.579333	1682.075195	87.703995
22996.808989	3292.579333	1681.051758	-66.413132
22996.808989	3292.579333	1680.027344	12.815298
22996.808989	3292.579333	1679.002930	168.951965
22996.808989	3292.579333	1677.978516	133.698914
22996.808989	3292.579333	1676.953125	70.409592
22996.808989	3292.579333	1675.928711	195.975967
22996.808989	3292.579333	1674.903320	97.628403
22996.808989	3292.579333	1673.877930	127.464981
22996.808989	3292.579333	1672.852539	84.999817
22996.808989	3292.579333	1671.826172	205.586639
22996.808989	3292.579333	1670.800781	95.472870
22996.808989	3292.579333	1669.774414	38.911922
22996.808989	3292.579333	1668.748047	119.714035
22996.808989	3292.579333	1667.721680	235.363556
22996.808989	3292.579333	1666.694336	155.386932
22996.808989	3292.579333	1665.667969	296.499268
22996.808989	3292.579333	1664.640625	228.092300
22996.808989	3292.579333	1663.613281	227.135178
22996.808989	3292.579333	1662.585938	93.563454
22996.808989	3292.579333	1661.557617	43.708122
22996.808989	3292.579333	1660.530273	147.296844
22996.808989	3292.579333	1659.501953	185.709351
22996.808989	3292.579333	1658.473633	312.387146
22996.808989	3292.579333	1657.444336	192.662598
22996.808989	3292.579333	1656.416016	405.181091
22996.808989	3292.579333	1655.386719	143.730835
22996.808989	3292.579333	1654.358398	386.302094
22996.808989	3292.579333	1653.328125	289.732971
22996.808989	3292.579333	1652.298828	511.216675
22996.808989	3292.579333	1651.269531	368.197357
22996.808989	3292.579333	1650.239258	468.845612
22996.808989	3292.579333	1649.208984	488.226257
22996.808989	3292.579333	1648.178711	465.820801
22996.808989	3292.579333	1647.148438	508.336334
22996.808989	3292.579333	1646.117188	434.863342
22996.808989	3292.579333	1645.086914	641.919312
22996.808989	3292.579333	1644.055664	679.659668
22996.808989	3292.579333	1643.024414	582.959045
22996.808989	3292.579333	1641.992188	595.157776
22996.808989	3292.579333	1640.960938	718.537170
22996.808989	3292.579333	1639.928711	804.782837
22996.808989	3292.579333	1638.896484	761.306580
22996.808989	3292.579333	1637.864258	699.311523
22996.808989	3292.579333	1636.832031	695.193298
22996.808989	3292.579333	1635.798828	718.820557
22996.808989	3292.579333	1634.766602	629.065613
22996.808989	3292.579333	1633.733398	858.559265
22996.808989	3292.579333	1632.699219	895.973511
22996.808989	3292.579333	1631.666016	799.256775
22996.808989	3292.579333	1630.632813	894.463318
22996.808989	3292.579333	1629.598633	980.368103
22996.808989	3292.579333	1628.564453	941.434570
22996.808989	3292.579333	1627.530273	964.900269
22996.808989	3292.579333	1626.495117	962.926758
22996.808989	3292.579333	1625.460938	1076.452759
22996.808989	3292.579333	1624.425781	871.238953
22996.808989	3292.579333	1623.390625	1120.944336
22996.808989	3292.579333	1622.355469	1072.771973
22996.808989	3292.579333	1621.319336	1126.157104
22996.808989	3292.579333	1620.284180	1147.232544
22996.808989	3292.579333	1619.248047	1267.493652
22996.808989	3292.579333	1618.211914	1318.515259
22996.808989	3292.579333	1617.174805	1498.654297
22996.808989	3292.579333	1616.138672	1429.729248
22996.808989	3292.579333	1615.101563	1330.858398
22996.808989	3292.579333	1614.065430	1388.774292
22996.808989	3292.579333	1613.027344	1525.000000
22996.808989	3292.579333	1611.990234	1575.953003
22996.808989	3292.579333	1610.953125	1447.230591
22996.808989	3292.579333	1609.915039	1433.708496
22996.808989	3292.579333	1608.876953	1583.687988
22996.808989	3292.579333	1607.838867	1542.551025
22996.808989	3292.579333	1606.800781	1476.128662
22996.808989	3292.579333	1605.761719	1453.460815
22996.808989	3292.579333	1604.723633	1483.750122
22996.808989	3292.579333	1603.684570	1764.769897
22996.808989	3292.579333	1602.644531	1636.312988
22996.808989	3292.579333	1601.605469	1491.845703
22996.808989	3292.579333	1600.566406	1657.818237
22996.808989	3292.579333	1599.526367	1803.050781
22996.808989	3292.579333	1598.486328	1727.639404
22996.808989	3292.579333	1597.446289	1620.116089
22996.808989	3292.579333	1596.405273	1652.778076
22996.808989	3292.579333	1595.365234	1678.578491
22996.808989	3292.579333	1594.324219	1688.311279
22996.808989	3292.579333	1593.283203	1858.779175
22996.808989	3292.579333	1592.242188	1726.223633
22996.808989	3292.579333	1591.200195	1770.449463
22996.808989	3292.579333	1590.159180	1688.508179
22996.808989	3292.579333	1589.117188	1975.959717
22996.808989	3292.579333	1588.075195	1777.096802
22996.808989	3292.579333	1587.032227	1949.823364
22996.808989	3292.579333	1585.990234	2030.825195
22996.808989	3292.579333	1584.947266	1949.073730
22996.808989	3292.579333	1583.904297	1835.310791
22996.808989	3292.579333	1582.861328	1925.560913
22996.808989	3292.579333	1581.818359	1986.037842
22996.808989	3292.579333	1580.775391	2254.963379
22996.808989	3292.579333	1579.731445	2200.927002
22996.808989	3292.579333	1578.687500	2153.826416
22996.808989	3292.579333	1577.643555	2200.642334
22996.808989	3292.579333	1576.598633	2057.518799
22996.808989	3292.579333	1575.554688	2115.872559
22996.808989	3292.579333	1574.509766	2160.514648
22996.808989	3292.579333	1573.464844	2216.625732
22996.808989	3292.579333	1572.419922	2172.144287
22996.808989	3292.579333	1571.374023	2022.546265
22996.808989	3292.579333	1570.329102	2019.373047
22996.808989	3292.579333	1569.283203	1922.538208
22996.808989	3292.579333	1568.237305	2090.862793
22996.808989	3292.579333	1567.191406	1989.592651
22996.808989	3292.579333	1566.144531	1678.266357
22996.808989	3292.579333	1565.098633	1611.488647
22996.808989	3292.579333	1564.051758	1690.912354
22996.808989	3292.579333	1563.004883	1574.044067
22996.808989	3292.579333	1561.957031	1580.518066
22996.808989	3292.579333	1560.910156	1320.078125
22996.808989	3292.579333	1559.862305	1445.361206
22996.808989	3292.579333	1558.814453	1438.358765
22996.808989	3292.579333	1557.766602	1440.545288
22996.808989	3292.579333	1556.718750	1148.660767
22996.808989	3292.579333	1555.669922	1223.973755
22996.808989	3292.579333	1554.621094	1187.643433
22996.808989	3292.579333	1553.573242	1329.149902
22996.808989	3292.579333	1552.523438	1206.361694
22996.808989	3292.579333	1551.474609	1261.376587
22996.808989	3292.579333	1550.424805	1307.321167
22996.808989	3292.579333	1549.375000	1362.426392
22996.808989	3292.579333	1548.325195	1210.417603
22996.808989	3292.579333	1547.275391	1308.911865
22996.808989	3292.579333	1546.225586	1396.062256
22996.808989	3292.579333	1545.174805	1364.933716
22996.808989	3292.579333	1544.124023	1509.047974
22996.808989	3292.579333	1543.073242	1735.057129
22996.808989	3292.579333	1542.022461	1576.773438
22996.808989	3292.579333	1540.970703	1536.836426
22996.808989	3292.579333	1539.919922	1362.899902
22996.808989	3292.579333	1538.868164	1361.812622
22996.808989	3292.579333	1537.815430	1135.862671
22996.808989	3292.579333	1536.763672	1025.944580
22996.808989	3292.579333	1535.710938	1027.429077
22996.808989	3292.579333	1534.659180	976.778748
22996.808989	3292.579333	1533.606445	1144.168213
22996.808989	3292.579333	1532.552734	1032.378540
22996.808989	3292.579333	1531.500000	1140.856445
22996.808989	3292.579333	1530.446289	1013.400024
22996.808989	3292.579333	1529.393555	1251.312866
22996.808989	3292.579333	1528.338867	1006.112061
22996.808989	3292.579333	1527.285156	1058.156860
22996.808989	3292.579333	1526.231445	1330.181152
22996.808989	3292.579333	1525.176758	1246.309937
22996.808989	3292.579333	1524.122070	1135.366821
22996.808989	3292.579333	1523.067383	1131.048950
22996.808989	3292.579333	1522.012695	1174.396606
22996.808989	3292.579333	1520.957031	948.289246
22996.808989	3292.579333	1519.901367	1093.731689
22996.808989	3292.579333	1518.845703	1010.545776
22996.808989	3292.579333	1517.790039	1033.873657
22996.808989	3292.579333	1516.734375	876.238464
22996.808989	3292.579333	1515.677734	687.075256
22996.808989	3292.579333	1514.621094	683.583008
22996.808989	3292.579333	1513.564453	908.626404
22996.808989	3292.579333	1512.507813	722.119019
22996.808989	3292.579333	1511.450195	755.078491
22996.808989	3292.579333	1510.393555	629.900818
22996.808989	3292.579333	1509.335938	635.942200
22996.808989	3292.579333	1508.278320	764.094116
22996.808989	3292.579333	1507.219727	838.068848
22996.808989	3292.579333	1506.162109	747.243103
22996.808989	3292.579333	1505.103516	798.811584
22996.808989	3292.579333	1504.044922	744.348022
22996.808989	3292.579333	1502.986328	647.118530
22996.808989	3292.579333	1501.926758	642.553528
22996.808989	3292.579333	1500.868164	493.690857
22996.808989	3292.579333	1499.808594	814.217346
22996.808989	3292.579333	1498.749023	697.156433
22996.808989	3292.579333	1497.688477	715.541443
22996.808989	3292.579333	1496.628906	697.956299
22996.808989	3292.579333	1495.568359	570.025085
22996.808989	3292.579333	1494.507813	611.275635
22996.808989	3292.579333	1493.447266	533.193665
22996.808989	3292.579333	1492.386719	329.093018
22996.808989	3292.579333	1491.325195	550.866943
22996.808989	3292.579333	1490.263672	556.478516
22996.808989	3292.579333	1489.202148	388.832184
22996.808989	3292.579333	1488.140625	322.655884
22996.808989	3292.579333	1487.079102	533.432312
22996.808989	3292.579333	1486.016602	145.698746
22996.808989	3292.579333	1484.954102	406.130554
22996.808989	3292.579333	1483.891602	299.946716
22996.808989	3292.579333	1482.829102	423.286133
22996.808989	3292.579333	1481.765625	396.044922
22996.808989	3292.579333	1480.702148	537.511230
22996.808989	3292.579333	1479.638672	411.589600
22996.808989	3292.579333	1478.575195	714.970581
22996.808989	3292.579333	1477.511719	164.761871
22996.808989	3292.579333	1476.447266	665.912720
22996.808989	3292.579333	1475.382813	830.095520
22996.808989	3292.579333	1474.318359	599.376831
22996.808989	3292.579333	1473.253906	629.063416
22996.808989	3292.579333	1472.189453	477.182770
22996.808989	3292.579333	1471.124023	567.630005
22996.808989	3292.579333	1470.058594	584.231201
22996.808989	3292.579333	1468.993164	591.995300
22996.808989	3292.579333	1467.927734	337.699646
22996.808989	3292.579333	1466.861328	607.765198
22996.808989	3292.579333	1465.794922	465.694305
22996.808989	3292.579333	1464.728516	424.798553
22996.808989	3292.579333	1463.662109	554.159058
22996.808989	3292.579333	1462.594727	412.497925
22996.808989	3292.579333	1461.528320	579.849792
22996.808989	3292.579333	1460.460938	545.909729
22996.808989	3292.579333	1459.393555	433.946045
22996.808989	3292.579333	1458.326172	498.473450
22996.808989	3292.579333	1457.257813	460.706604
22996.808989	3292.579333	1456.189453	427.605804
22996.808989	3292.579333	1455.121094	555.092957
22996.808989	3292.579333	1454.052734	586.995239
22996.808989	3292.579333	1452.984375	227.933578
22996.808989	3292.579333	1451.915039	378.435791
22996.808989	3292.579333	1450.845703	439.645142
22996.808989	3292.579333	1449.776367	538.545959
22996.808989	3292.579333	1448.707031	460.844299
22996.808989	3292.579333	1447.636719	122.188278
22996.808989	3292.579333	1446.567383	291.777496
22996.808989	3292.579333	1445.497070	80.484665
22996.808989	3292.579333	1444.425781	413.635223
22996.808989	3292.579333	1443.355469	387.556000
22996.808989	3292.579333	1442.285156	-54.233574
22996.808989	3292.579333	1441.213867	334.735626
22996.808989	3292.579333	1440.142578	305.953430
22996.808989	3292.579333	1439.070313	125.100029
22996.808989	3292.579333	1437.999023	112.635941
22996.808989	3292.579333	1436.926758	187.531235
22996.808989	3292.579333	1435.854492	98.004745
22996.808989	3292.579333	1434.782227	47.054352
22996.808989	3292.579333	1433.709961	67.088058
22996.808989	3292.579333	1432.636719	-54.311954
22996.808989	3292.579333	1431.563477	-63.461472
22996.808989	3292.579333	1430.490234	45.093391
22996.808989	3292.579333	1429.416992	-35.911270
22996.808989	3292.579333	1428.343750	-153.487411
22996.808989	3292.579333	1427.269531	189.414429
22996.808989	3292.579333	1426.195313	144.395844
22996.808989	3292.579333	1425.121094	94.655823
22996.808989	3292.579333	1424.046875	26.779036
22996.808989	3292.579333	1422.971680	-74.364372
22996.808989	3292.579333	1421.896484	-56.815807
22996.808989	3292.579333	1420.821289	147.250610
22996.808989	3292.579333	1419.746094	-3.419348
22996.808989	3292.579333	1418.669922	3.222586
22996.808989	3292.579333	1417.594727	-9.763719
22996.808989	3292.579333	1416.518555	-74.381950
22996.808989	3292.579333	1415.442383	-163.369476
22996.808989	3292.579333	1414.365234	-7.940394
22996.808989	3292.579333	1413.289063	-150.278824
22996.808989	3292.579333	1412.211914	-42.541954
22996.808989	3292.579333	1411.134766	-34.481300
22996.808989	3292.579333	1410.057617	46.649837
22996.808989	3292.579333	1408.979492	188.846832
22996.808989	3292.579333	1407.902344	86.544624
22996.808989	3292.579333	1406.824219	13.464893
22996.808989	3292.579333	1405.746094	71.377106
22996.808989	3292.579333	1404.666992	49.192997
22996.808989	3292.579333	1403.588867	169.030304
22996.808989	3292.579333	1402.509766	120.392685
22996.808989	3292.579333	1401.430664	62.804085
22996.808989	3292.579333	1400.351563	85.662476
22996.808989	3292.579333	1399.271484	207.531418
22996.808989	3292.579333	1398.192383	75.254204
22996.808989	3292.579333	1397.112305	27.407694
22996.808989	3292.579333	1396.031250	161.611816
22996.808989	3292.579333	1394.951172	368.477814
22996.808989	3292.579333	1393.871094	135.014725
22996.808989	3292.579333	1392.790039	356.723145
22996.808989	3292.579333	1391.708984	351.695404
22996.808989	3292.579333	1390.626953	486.984009
22996.808989	3292.579333	1389.545898	403.551849
22996.808989	3292.579333	1388.463867	246.322845
22996.808989	3292.579333	1387.381836	374.938782
22996.808989	3292.579333	1386.299805	595.200928
22996.808989	3292.579333	1385.217773	416.144745
22996.808989	3292.579333	1384.134766	466.673950
22996.808989	3292.579333	1383.051758	417.348816
22996.808989	3292.579333	1381.968750	404.763458
22996.808989	3292.579333	1380.885742	415.832428
22996.808989	3292.579333	1379.802734	589.202515
22996.808989	3292.579333	1378.718750	477.163574
22996.808989	3292.579333	1377.634766	393.182587
22996.808989	3292.579333	1376.550781	541.948425
22996.808989	3292.579333	1375.465820	316.786285
22996.808989	3292.579333	1374.381836	246.999130
22996.808989	3292.579333	1373.296875	361.503632
22996.808989	3292.579333	1372.211914	415.389404
22996.808989	3292.579333	1371.126953	522.044495
22996.808989	3292.579333	1370.041016	542.940979
22996.808989	3292.579333	1368.955078	509.734558
22996.808989	3292.579333	1367.869141	339.160950
22996.808989	3292.579333	1366.783203	280.882599
22996.808989	3292.579333	1365.697266	375.973022
22996.808989	3292.579333	1364.610352	385.477966
22996.808989	3292.579333	1363.523438	159.479446
22996.808989	3292.579333	1362.436523	368.268799
22996.808989	3292.579333	1361.349609	12.117831
22996.808989	3292.579333	1360.261719	354.774628
22996.808989	3292.579333	1359.174805	201.112122
22996.808989	3292.579333	1358.086914	85.374344
22996.808989	3292.579333	1356.998047	146.538345
22996.808989	3292.579333	1355.910156	296.728546
22996.808989	3292.579333	1354.821289	283.260681
22996.808989	3292.579333	1353.732422	323.231750
22996.808989	3292.579333	1352.643555	339.115631
22996.808989	3292.579333	1351.554688	390.114716
22996.808989	3292.579333	1350.464844	252.392776
22996.808989	3292.579333	1349.375000	366.758392
22996.808989	3292.579333	1348.285156	411.461823
22996.808989	3292.579333	1347.195313	476.124390
22996.808989	3292.579333	1346.105469	451.312744
22996.808989	3292.579333	1345.014648	495.481964
22996.808989	3292.579333	1343.923828	331.784058
22996.808989	3292.579333	1342.833008	570.800232
22996.808989	3292.579333	1341.741211	553.565979
22996.808989	3292.579333	1340.650391	552.032593
22996.808989	3292.579333	1339.558594	720.451477
22996.808989	3292.579333	1338.466797	792.066956
22996.808989	3292.579333	1337.374023	613.682190
22996.808989	3292.579333	1336.282227	602.509888
22996.808989	3292.579333	1335.189453	799.996094
22996.808989	3292.579333	1334.096680	801.258911
22996.808989	3292.579333	1333.003906	926.225342
22996.808989	3292.579333	1331.910156	751.096313
22996.808989	3292.579333	1330.817383	774.066284
22996.808989	3292.579333	1329.723633	754.413940
22996.808989	3292.579333	1328.629883	675.028564
22996.808989	3292.579333	1327.535156	558.258850
22996.808989	3292.579333	1326.441406	598.496948
22996.808989	3292.579333	1325.346680	536.563965
22996.808989	3292.579333	1324.251953	472.439880
22996.808989	3292.579333	1323.156250	425.928528
22996.808989	3292.579333	1322.061523	393.712708
22996.808989	3292.579333	1320.965820	290.530029
22996.808989	3292.579333	1319.870117	198.379639
22996.808989	3292.579333	1318.774414	232.678696
22996.808989	3292.579333	1317.678711	239.864853
22996.808989	3292.579333	1316.582031	444.809753
22996.808989	3292.579333	1315.485352	565.418518
22996.808989	3292.579333	1314.388672	400.593750
22996.808989	3292.579333	1313.291016	283.296936
22996.808989	3292.579333	1312.194336	317.665070
22996.808989	3292.579333	1311.096680	312.419983
22996.808989	3292.579333	1309.999023	262.206879
22996.808989	3292.579333	1308.901367	60.063019
22996.808989	3292.579333	1307.802734	206.942398
22996.808989	3292.579333	1306.705078	308.717773
22996.808989	3292.579333	1305.606445	318.496277
22996.808989	3292.579333	1304.506836	189.635620
22996.808989	3292.579333	1303.408203	126.742638
22996.808989	3292.579333	1302.308594	289.950134
22996.808989	3292.579333	1301.208984	222.803253
22996.808989	3292.579333	1300.109375	381.346130
22996.808989	3292.579333	1299.009766	122.638435
22996.808989	3292.579333	1297.909180	174.153137
22996.808989	3292.579333	1296.808594	101.754555
22996.808989	3292.579333	1295.708008	249.591293
22996.808989	3292.579333	1294.607422	223.721100
22996.808989	3292.579333	1293.506836	287.944916
22996.808989	3292.579333	1292.405273	169.727020
22996.808989	3292.579333	1291.303711	296.826172
22996.808989	3292.579333	1290.202148	129.988541
22996.808989	3292.579333	1289.099609	110.977425
22996.808989	3292.579333	1287.998047	58.140785
22996.808989	3292.579333	1286.895508	356.131012
22996.808989	3292.579333	1285.792969	151.297409
22996.808989	3292.579333	1284.689453	367.001038
22996.808989	3292.579333	1283.586914	368.240997
22996.808989	3292.579333	1282.483398	331.160156
22996.808989	3292.579333	1281.379883	380.220001
22996.808989	3292.579333	1280.276367	368.428497
22996.808989	3292.579333	1279.171875	328.349976
22996.808989	3292.579333	1278.067383	387.211456
22996.808989	3292.579333	1276.962891	468.848083
22996.808989	3292.579333	1275.858398	510.153564
22996.808989	3292.579333	1274.753906	467.015747
22996.808989	3292.579333	1273.648438	381.151398
22996.808989	3292.579333	1272.542969	353.773743
22996.808989	3292.579333	1271.437500	242.560760
22996.808989	3292.579333	1270.331055	337.915741
22996.808989	3292.579333	1269.225586	263.221954
22996.808989	3292.579333	1268.119141	337.627747
22996.808989	3292.579333	1267.012695	215.097305
22996.808989	3292.579333	1265.906250	360.633698
22996.808989	3292.579333	1264.798828	472.448975
22996.808989	3292.579333	1263.691406	311.656677
22996.808989	3292.579333	1262.583984	411.794037
22996.808989	3292.579333	1261.476563	306.341736
22996.808989	3292.579333	1260.368164	285.364410
22996.808989	3292.579333	1259.260742	352.561432
22996.808989	3292.579333	1258.152344	276.255310
22996.808989	3292.579333	1257.043945	211.807495
22996.808989	3292.579333	1255.934570	135.178238
22996.808989	3292.579333	1254.825195	135.052231
22996.808989	3292.579333	1253.716797	157.544815
22996.808989	3292.579333	1252.606445	177.224808
22996.808989	3292.579333	1251.497070	199.186859
22996.808989	3292.579333	1250.387695	216.941986
22996.808989	3292.579333	1249.277344	201.656540
22996.808989	3292.579333	1248.166992	140.611862
22996.808989	3292.579333	1247.055664	279.322937
22996.808989	3292.579333	1245.945313	174.342453
22996.808989	3292.579333	1244.833984	85.842766
22996.808989	3292.579333	1243.722656	5.475316
22996.808989	3292.579333	1242.611328	4.009851
22996.808989	3292.579333	1241.499023	51.724094
22996.808989	3292.579333	1240.387695	-6.301960
22996.808989	3292.579333	1239.275391	-1.118556
22996.808989	3292.579333	1238.162109	66.506958
22996.808989	3292.579333	1237.049805	-21.309278
22996.808989	3292.579333	1235.936523	-12.264967
22996.808989	3292.579333	1234.823242	4.259121
22996.808989	3292.579333	1233.709961	-6.263138
22996.808989	3292.579333	1232.596680	-29.153761
22996.808989	3292.579333	1231.482422	-49.818600
22996.808989	3292.579333	1230.369141	-21.284061
22996.808989	3292.579333	1229.253906	-103.569969
22996.808989	3292.579333	1228.139648	-133.694061
22996.808989	3292.579333	1227.025391	-81.593430
22996.808989	3292.579333	1225.910156	-164.192490
22996.808989	3292.579333	1224.794922	-37.925659
22996.808989	3292.579333	1223.679688	-192.631531
22996.808989	3292.579333	1222.563477	-42.732582
22996.808989	3292.579333	1221.447266	-177.140747
22996.808989	3292.579333	1220.331055	-67.195557
22996.808989	3292.579333	1219.214844	-22.184826
22996.808989	3292.579333	1218.098633	-101.622887
22996.808989	3292.579333	1216.981445	30.057987
22996.808989	3292.579333	1215.864258	9.334605
22996.808989	3292.579333	1214.747070	45.939705
22996.808989	3292.579333	1213.629883	207.988831
22996.808989	3292.579333	1212.511719	168.828995
22996.808989	3292.579333	1211.393555	104.966362
22996.808989	3292.579333	1210.275391	177.006714
22996.808989	3292.579333	1209.157227	58.805893
22996.808989	3292.579333	1208.038086	222.201065
22996.808989	3292.579333	1206.918945	-1.215596
22996.808989	3292.579333	1205.799805	9.544074
22996.808989	3292.579333	1204.680664	32.261677
22996.808989	3292.579333	1203.560547	128.858337
22996.808989	3292.579333	1202.441406	171.831757
22996.808989	3292.579333	1201.321289	101.286972
22996.808989	3292.579333	1200.200195	143.746780
22996.808989	3292.579333	1199.080078	101.180702
22996.808989	3292.579333	1197.958984	44.011536
22996.808989	3292.579333	1196.837891	155.357071
22996.808989	3292.579333	1195.716797	90.835884
22996.808989	3292.579333	1194.594727	133.180481
22996.808989	3292.579333	1193.473633	57.307392
22996.808989	3292.579333	1192.351563	-84.510658
22996.808989	3292.579333	1191.229492	57.035664
22996.808989	3292.579333	1190.106445	109.621178
22996.808989	3292.579333	1188.984375	50.336449
22996.808989	3292.579333	1187.861328	1.229428
22996.808989	3292.579333	1186.738281	83.132996
22996.808989	3292.579333	1185.614258	-32.035431
22996.808989	3292.579333	1184.491211	96.879890
22996.808989	3292.579333	1183.367188	0.415481
22996.808989	3292.579333	1182.243164	-75.618599
22996.808989	3292.579333	1181.119141	-165.276077
22996.808989	3292.579333	1179.994141	-179.136703
22996.808989	3292.579333	1178.869141	-163.965546
22996.808989	3292.579333	1177.744141	-46.320679
22996.808989	3292.579333	1176.619141	-46.805141
22996.808989	3292.579333	1175.493164	-52.189705
22996.808989	3292.579333	1174.368164	-101.046089
22996.808989	3292.579333	1173.242188	-48.872417
22996.808989	3292.579333	1172.115234	16.466021
22996.808989	3292.579333	1170.989258	-11.262465
22996.808989	3292.579333	1169.862305	51.587402
22996.808989	3292.579333	1168.735352	21.176678
22996.808989	3292.579333	1167.608398	-30.223589
22996.808989	3292.579333	1166.481445	104.882759
22996.808989	3292.579333	1165.353516	-4.275288
22996.808989	3292.579333	1164.225586	-35.340714
22996.808989	3292.579333	1163.097656	-122.977989
22996.808989	3292.579333	1161.968750	113.631142
22996.808989	3292.579333	1160.840820	-3.208700
22996.808989	3292.579333	1159.711914	-6.633558
22996.808989	3292.579333	1158.583008	-1.315024
22996.808989	3292.579333	1157.453125	18.519150
22996.808989	3292.579333	1156.324219	69.761772
22996.808989	3292.579333	1155.194336	192.039734
22996.808989	3292.579333	1154.064453	201.621536
22996.808989	3292.579333	1152.933594	64.146500
22996.808989	3292.579333	1151.803711	43.275337
22996.808989	3292.579333	1150.672852	177.788467
22996.808989	3292.579333	1149.541992	314.700653
22996.808989	3292.579333	1148.411133	323.459351
22996.808989	3292.579333	1147.279297	308.915588
22996.808989	3292.579333	1146.147461	535.451477
22996.808989	3292.579333	1145.015625	305.690765
22996.808989	3292.579333	1143.883789	384.176086
22996.808989	3292.579333	1142.750977	370.642151
22996.808989	3292.579333	1141.619141	373.317352
22996.808989	3292.579333	1140.486328	339.868164
22996.808989	3292.579333	1139.352539	392.640839
22996.808989	3292.579333	1138.219727	233.789810
22996.808989	3292.579333	1137.085938	376.160034
22996.808989	3292.579333	1135.952148	357.210693
22996.808989	3292.579333	1134.818359	402.090485
22996.808989	3292.579333	1133.683594	385.942993
22996.808989	3292.579333	1132.549805	409.029510
22996.808989	3292.579333	1131.415039	519.216614
22996.808989	3292.579333	1130.279297	623.890686
22996.808989	3292.579333	1129.144531	709.393860
22996.808989	3292.579333	1128.008789	582.711060
22996.808989	3292.579333	1126.873047	516.488892
22996.808989	3292.579333	1125.737305	414.828705
22996.808989	3292.579333	1124.601563	224.724960
22996.808989	3292.579333	1123.464844	279.241333
22996.808989	3292.579333	1122.328125	189.855621
22996.808989	3292.579333	1121.191406	242.209305
22996.808989	3292.579333	1120.054688	100.254326
22996.808989	3292.579333	1118.916992	214.728073
22996.808989	3292.579333	1117.779297	111.458168
22996.808989	3292.579333	1116.641602	66.005005
22996.808989	3292.579333	1115.503906	67.154579
22996.808989	3292.579333	1114.365234	40.005920
22996.808989	3292.579333	1113.226563	22.405909
22996.808989	3292.579333	1112.087891	52.160084
22996.808989	3292.579333	1110.949219	-20.305418
22996.808989	3292.579333	1109.809570	-84.878525
22996.808989	3292.579333	1108.669922	-17.264887
22996.808989	3292.579333	1107.530273	83.658432
22996.808989	3292.579333	1106.390625	58.943584
22996.808989	3292.579333	1105.250000	-49.059738
22996.808989	3292.579333	1104.109375	59.791172
22996.808989	3292.579333	1102.968750	106.689590
22996.808989	3292.579333	1101.828125	139.923035
22996.808989	3292.579333	1100.686523	58.742413
22996.808989	3292.579333	1099.544922	127.538681
22996.808989	3292.579333	1098.403320	46.310799
22996.808989	3292.579333	1097.261719	113.596802
22996.808989	3292.579333	1096.120117	145.109543
22996.808989	3292.579333	1094.977539	1.332614
22996.808989	3292.579333	1093.834961	45.195335
22996.808989	3292.579333	1092.691406	172.266678
22996.808989	3292.579333	1091.548828	72.003281
22996.808989	3292.579333	1090.405273	97.493294
22996.808989	3292.579333	1089.261719	106.312225
22996.808989	3292.579333	1088.118164	135.727646
22996.808989	3292.579333	1086.973633	207.183319
22996.808989	3292.579333	1085.829102	182.891144
22996.808989	3292.579333	1084.684570	88.957588
22996.808989	3292.579333	1083.540039	-111.732582
22996.808989	3292.579333	1082.395508	-4.873680
22996.808989	3292.579333	1081.250000	124.030602
22996.808989	3292.579333	1080.104492	120.794945
22996.808989	3292.579333	1078.958984	14.378872
22996.808989	3292.579333	1077.812500	-27.003668
22996.808989	3292.579333	1076.666016	33.710705
22996.808989	3292.579333	1075.519531	-29.813406
22996.808989	3292.579333	1074.373047	46.409405
22996.808989	3292.579333	1073.226563	152.455383
22996.808989	3292.579333	1072.079102	-92.079910
22996.808989	3292.579333	1070.931641	139.209961
22996.808989	3292.579333	1069.784180	112.909538
22996.808989	3292.579333	1068.635742	224.896515
22996.808989	3292.579333	1067.487305	253.340134
22996.808989	3292.579333	1066.338867	140.242462
22996.808989	3292.579333	1065.190430	179.079666
22996.808989	3292.579333	1064.041992	78.854759
22996.808989	3292.579333	1062.892578	201.802673
22996.808989	3292.579333	1061.743164	127.016235
22996.808989	3292.579333	1060.593750	151.570297
22996.808989	3292.579333	1059.443359	180.770416
22996.808989	3292.579333	1058.292969	224.819000
22996.808989	3292.579333	1057.142578	68.403648
22996.808989	3292.579333	1055.992188	246.479095
22996.808989	3292.579333	1054.841797	132.238373
22996.808989	3292.579333	1053.690430	-45.314934
22996.808989	3292.579333	1052.539063	15.302592
22996.808989	3292.579333	1051.387695	202.673615
22996.808989	3292.579333	1050.235352	33.560425
22996.808989	3292.579333	1049.083984	-125.205673
22996.808989	3292.579333	1047.931641	-13.112976
22996.808989	3292.579333	1046.778320	50.630058
22996.808989	3292.579333	1045.625977	115.675804
22996.808989	3292.579333	1044.472656	-11.520918
22996.808989	3292.579333	1043.319336	41.067608
22996.808989	3292.579333	1042.166016	125.538246
22996.808989	3292.579333	1041.012695	21.127993
22996.808989	3292.579333	1039.858398	80.865883
22996.808989	3292.579333	1038.704102	-64.875443
22996.808989	3292.579333	1037.549805	122.329498
22996.808989	3292.579333	1036.394531	39.133152
22996.808989	3292.579333	1035.239258	13.093850
22996.808989	3292.579333	1034.083984	33.985722
22996.808989	3292.579333	1032.928711	-35.899513
22996.808989	3292.579333	1031.773438	155.488647
22996.808989	3292.579333	1030.617188	-68.960236
22996.808989	3292.579333	1029.460938	20.803108
22996.808989	3292.579333	1028.304688	34.162212
22996.808989	3292.579333	1027.147461	-151.992996
22996.808989	3292.579333	1025.991211	107.254562
22996.808989	3292.579333	1024.833984	-159.395111
22996.808989	3292.579333	1023.675781	106.323715
22996.808989	3292.579333	1022.518555	25.695086
22996.808989	3292.579333	1021.360352	68.058411
22996.808989	3292.579333	1020.202148	-95.605515
22996.808989	3292.579333	1019.043945	-120.398994
22996.808989	3292.579333	1017.884766	-88.770775
22996.808989	3292.579333	1016.726563	-8.229859
22996.808989	3292.579333	1015.567383	-23.342009
22996.808989	3292.579333	1014.407227	-167.993805
22996.808989	3292.579333	1013.248047	-61.779449
22996.808989	3292.579333	1012.087891	-84.676559
22996.808989	3292.579333	1010.927734	53.856544
22996.808989	3292.579333	1009.767578	-204.223816
22996.808989	3292.579333	1008.606445	-58.149895
22996.808989	3292.579333	1007.446289	11.701299
22996.808989	3292.579333	1006.285156	14.288305
22996.808989	3292.579333	1005.123047	-0.515176
22996.808989	3292.579333	1003.961914	-181.870605
22996.808989	3292.579333	1002.799805	68.412292
22996.808989	3292.579333	1001.637695	-13.037102
22996.808989	3292.579333	1000.475586	9.191168
22996.808989	3292.579333	999.312500	66.335770
22996.808989	3292.579333	998.149414	39.582844
22996.808989	3292.579333	996.986328	100.969803
22996.808989	3292.579333	995.823242	128.714218
22996.808989	3292.579333	994.659180	89.454018
22996.808989	3292.579333	993.496094	212.888794
22996.808989	3292.579333	992.332031	131.180801
22996.808989	3292.579333	991.166992	34.751141
22996.808989	3292.579333	990.002930	238.808868
22996.808989	3292.579333	988.837891	331.242615
22996.808989	3292.579333	987.672852	139.697861
22996.808989	3292.579333	986.506836	386.845978
22996.808989	3292.579333	985.341797	208.339706
22996.808989	3292.579333	984.175781	355.488281
22996.808989	3292.579333	983.009766	196.750793
22996.808989	3292.579333	981.843750	312.524994
22996.808989	3292.579333	980.676758	54.834698
22996.808989	3292.579333	979.509766	126.684952
22996.808989	3292.579333	978.342773	247.862213
22996.808989	3292.579333	977.175781	242.302322
22996.808989	3292.579333	976.007813	221.097794
22996.808989	3292.579333	974.839844	364.160095
22996.808989	3292.579333	973.671875	258.836182
22996.808989	3292.579333	972.503906	247.580978
22996.808989	3292.579333	971.334961	325.049835
22996.808989	3292.579333	970.166016	235.170975
22996.808989	3292.579333	968.997070	92.241066
22996.808989	3292.579333	967.828125	94.644691
22996.808989	3292.579333	966.658203	-3.627927
22996.808989	3292.579333	965.488281	150.592239
22996.808989	3292.579333	964.318359	90.818672
22996.808989	3292.579333	963.148438	-47.440495
22996.808989	3292.579333	961.977539	-23.937361
22996.808989	3292.579333	960.806641	128.649078
22996.808989	3292.579333	959.635742	-33.005096
22996.808989	3292.579333	958.463867	51.318161
22996.808989	3292.579333	957.292969	86.159241
22996.808989	3292.579333	956.121094	18.889435
22996.808989	3292.579333	954.948242	-102.559891
22996.808989	3292.579333	953.776367	162.417755
22996.808989	3292.579333	952.603516	160.561630
22996.808989	3292.579333	951.430664	23.393185
22996.808989	3292.579333	950.257813	69.628029
22996.808989	3292.579333	949.084961	-97.046028
22996.808989	3292.579333	947.911133	145.478928
22996.808989	3292.579333	946.737305	156.685852
22996.808989	3292.579333	945.563477	72.406586
22996.808989	3292.579333	944.388672	-9.275452
22996.808989	3292.579333	943.213867	136.469940
22996.808989	3292.579333	942.039063	7.226043
22996.808989	3292.579333	940.864258	67.503899
22996.808989	3292.579333	939.688477	47.408817
22996.808989	3292.579333	938.513672	211.877991
22996.808989	3292.579333	937.337891	210.490356
22996.808989	3292.579333	936.161133	175.858444
22996.808989	3292.579333	934.985352	148.487457
22996.808989	3292.579333	933.808594	173.138336
22996.808989	3292.579333	932.631836	48.515965
22996.808989	3292.579333	931.454102	139.372452
22996.808989	3292.579333	930.277344	104.811333
22996.808989	3292.579333	929.099609	136.338943
22996.808989	3292.579333	927.921875	-23.723021
22996.808989	3292.579333	926.743164	-15.817384
22996.808989	3292.579333	925.565430	65.370483
22996.808989	3292.579333	924.386719	68.475655
22996.808989	3292.579333	923.208008	-75.039474
22996.808989	3292.579333	922.028320	48.614601
22996.808989	3292.579333	920.849609	-16.890402
22996.808989	3292.579333	919.669922	-14.920061
22996.808989	3292.579333	919.474609	-11.168853
22996.808989	3292.579333	918.309570	50.882725
22996.808989	3292.579333	917.143555	-69.012169
22996.808989	3292.579333	915.977539	129.969315
22996.808989	3292.579333	914.810547	26.593092
22996.808989	3292.579333	913.644531	93.219101
22996.808989	3292.579333	912.477539	41.777386
22996.808989	3292.579333	911.310547	113.050323
22996.808989	3292.579333	910.143555	73.378960
22996.808989	3292.579333	908.975586	97.395828
22996.808989	3292.579333	907.807617	-50.788532
22996.808989	3292.579333	906.639648	-17.366772
22996.808989	3292.579333	905.471680	-57.062798
22996.808989	3292.579333	904.303711	-106.191826
22996.808989	3292.579333	903.134766	198.165665
22996.808989	3292.579333	901.965820	-30.097450
22996.808989	3292.579333	900.796875	111.542450
22996.808989	3292.579333	899.626953	95.312950
22996.808989	3292.579333	898.457031	300.407227
22996.808989	3292.579333	897.287109	142.855789
22996.808989	3292.579333	896.117188	133.631912
22996.808989	3292.579333	894.947266	159.690414
22996.808989	3292.579333	893.776367	181.015121
22996.808989	3292.579333	892.605469	134.096634
22996.808989	3292.579333	891.434570	348.225159
22996.808989	3292.579333	890.262695	261.283447
22996.808989	3292.579333	889.091797	296.599823
22996.808989	3292.579333	887.919922	294.279327
22996.808989	3292.579333	886.748047	228.495773
22996.808989	3292.579333	885.575195	14.711844
22996.808989	3292.579333	884.403320	129.840988
22996.808989	3292.579333	883.230469	17.110178
22996.808989	3292.579333	882.057617	-67.416603
22996.808989	3292.579333	880.883789	38.217896
22996.808989	3292.579333	879.710938	24.095181
22996.808989	3292.579333	878.537109	24.041719
22996.808989	3292.579333	877.362305	94.352036
22996.808989	3292.579333	876.188477	-177.832230
22996.808989	3292.579333	875.013672	14.399270
22996.808989	3292.579333	873.839844	75.238518
22996.808989	3292.579333	872.664063	-65.553627
22996.808989	3292.579333	871.489258	35.086433
22996.808989	3292.579333	870.313477	119.267654
22996.808989	3292.579333	869.138672	60.495102
22996.808989	3292.579333	867.962891	69.654526
22996.808989	3292.579333	866.786133	-94.490334
22996.808989	3292.579333	865.610352	-45.534451
22996.808989	3292.579333	864.433594	-1.295283
22996.808989	3292.579333	863.256836	-46.020218
22996.808989	3292.579333	862.079102	-193.691238
22996.808989	3292.579333	860.902344	-39.549694
22996.808989	3292.579333	859.724609	72.414948
22996.808989	3292.579333	858.546875	-58.868389
22996.808989	3292.579333	857.368164	-115.301674
22996.808989	3292.579333	856.190430	-47.846878
22996.808989	3292.579333	855.011719	3.207104
22996.808989	3292.579333	853.833008	61.233566
22996.808989	3292.579333	852.654297	21.111963
22996.808989	3292.579333	851.474609	-37.691593
22996.808989	3292.579333	850.294922	-115.166084
22996.808989	3292.579333	849.115234	-117.919868
22996.808989	3292.579333	847.935547	5.348867
22996.808989	3292.579333	846.754883	-4.459269
22996.808989	3292.579333	845.575195	81.376564
22996.808989	3292.579333	844.393555	-40.436535
22996.808989	3292.579333	843.212891	-124.901993
22996.808989	3292.579333	842.032227	-81.108475
22996.808989	3292.579333	840.850586	-65.320969
22996.808989	3292.579333	839.668945	97.276299
22996.808989	3292.579333	838.486328	26.774269
22996.808989	3292.579333	837.304688	-101.957634
22996.808989	3292.579333	836.122070	-21.020782
22996.808989	3292.579333	834.939453	-23.967028
22996.808989	3292.579333	833.756836	-8.301259
22996.808989	3292.579333	832.573242	39.932617
22996.808989	3292.579333	831.389648	-77.107277
22996.808989	3292.579333	830.206055	-5.641162
22996.808989	3292.579333	829.022461	109.980354
22996.808989	3292.579333	827.838867	60.402760
22996.808989	3292.579333	826.654297	-65.907188
22996.808989	3292.579333	825.469727	-34.086735
22996.808989	3292.579333	824.284180	-81.324921
22996.808989	3292.579333	823.099609	96.863655
22996.808989	3292.579333	821.914063	-1.529456
22996.808989	3292.579333	820.728516	150.985992
22996.808989	3292.579333	819.542969	61.881134
22996.808989	3292.579333	818.356445	19.238831
22996.808989	3292.579333	817.169922	-2.508272
22996.808989	3292.579333	815.983398	124.287231
22996.808989	3292.579333	814.796875	255.655548
22996.808989	3292.579333	813.609375	238.466110
22996.808989	3292.579333	812.422852	198.071182
22996.808989	3292.579333	811.235352	92.740875
22996.808989	3292.579333	810.046875	63.954582
22996.808989	3292.579333	808.859375	160.346405
22996.808989	3292.579333	807.670898	147.749329
22996.808989	3292.579333	806.482422	16.961342
22996.808989	3292.579333	805.293945	53.018002
22996.808989	3292.579333	804.104492	35.769047
22996.808989	3292.579333	802.915039	-48.648159
22996.808989	3292.579333	801.725586	26.710133
22996.808989	3292.579333	800.536133	60.353104
22996.808989	3292.579333	799.345703	-35.639584
22996.808989	3292.579333	798.155273	-55.251137
22996.808989	3292.579333	796.964844	75.499779
22996.808989	3292.579333	795.774414	-78.311745
22996.808989	3292.579333	794.583008	114.790855
22996.808989	3292.579333	793.392578	115.901962
22996.808989	3292.579333	792.200195	36.092545
22996.808989	3292.579333	791.008789	-94.544052
22996.808989	3292.579333	789.816406	-114.238762
22996.808989	3292.579333	788.625000	39.310425
22996.808989	3292.579333	787.432617	-123.634315
22996.808989	3292.579333	786.239258	-25.601974
22996.808989	3292.579333	785.046875	-66.145927
22996.808989	3292.579333	783.853516	52.569626
22996.808989	3292.579333	782.660156	-8.780644
22996.808989	3292.579333	781.465820	-111.653961
22996.808989	3292.579333	780.272461	43.847080
22996.808989	3292.579333	779.078125	70.115784
22996.808989	3292.579333	777.883789	6.429392
22996.808989	3292.579333	776.688477	-1.923767
22996.808989	3292.579333	775.494141	-70.218048
22996.808989	3292.579333	774.298828	8.972422
22996.808989	3292.579333	773.103516	-73.159027
22996.808989	3292.579333	771.907227	-182.917404
22996.808989	3292.579333	770.711914	-133.751770
22996.808989	3292.579333	769.515625	-174.421402
22996.808989	3292.579333	768.318359	-37.846947
22996.808989	3292.579333	767.122070	-191.331818
22996.808989	3292.579333	765.924805	-61.756050
22996.808989	3292.579333	764.727539	166.664612
22996.808989	3292.579333	763.530273	132.768860
22996.808989	3292.579333	762.333008	128.758698
22996.808989	3292.579333	761.134766	173.008148
22996.808989	3292.579333	759.936523	263.188202
22996.808989	3292.579333	758.738281	100.518471
22996.808989	3292.579333	757.540039	84.941139
22996.808989	3292.579333	756.340820	41.781334
22996.808989	3292.579333	755.141602	120.339539
22996.808989	3292.579333	753.942383	106.994987
22996.808989	3292.579333	752.742188	79.857895
22996.808989	3292.579333	751.541992	227.145309
22996.808989	3292.579333	750.341797	-66.243050
22996.808989	3292.579333	749.141602	370.043243
22996.808989	3292.579333	747.941406	340.484985
22996.808989	3292.579333	746.740234	469.152740
22996.808989	3292.579333	745.539063	180.447220
22996.808989	3292.579333	744.337891	315.922455
22996.808989	3292.579333	743.135742	105.243248
22996.808989	3292.579333	741.933594	89.394798
22996.808989	3292.579333	740.731445	-27.271955
22996.808989	3292.579333	739.529297	25.576790
22996.808989	3292.579333	738.326172	98.987053
22996.808989	3292.579333	737.124023	14.367252
22996.808989	3292.579333	735.919922	-63.377678
22996.808989	3292.579333	734.716797	87.737122
22996.808989	3292.579333	733.513672	3.093601
22996.808989	3292.579333	732.309570	14.536013
22996.808989	3292.579333	731.105469	174.607910
22996.808989	3292.579333	729.900391	101.350784
22996.808989	3292.579333	728.696289	206.416489
22996.808989	3292.579333	727.491211	137.700180
22996.808989	3292.579333	726.286133	52.989120
22996.808989	3292.579333	725.080078	178.477081
22996.808989	3292.579333	723.874023	118.863007
22996.808989	3292.579333	722.668945	141.461670
22996.808989	3292.579333	721.461914	104.655785
22996.808989	3292.579333	720.255859	81.534500
22996.808989	3292.579333	719.048828	1.335914
22996.808989	3292.579333	717.841797	144.762039
22996.808989	3292.579333	716.634766	135.247772
22996.808989	3292.579333	715.427734	59.563488
22996.808989	3292.579333	714.219727	31.769451
22996.808989	3292.579333	713.011719	-27.962023
22996.808989	3292.579333	711.803711	-58.064663
22996.808989	3292.579333	710.594727	7.531006
22996.808989	3292.579333	709.385742	-38.576347
22996.808989	3292.579333	708.176758	-39.134415
22996.808989	3292.579333	706.967773	58.211658
22996.808989	3292.579333	705.758789	68.958328
22996.808989	3292.579333	704.548828	-0.011063
22996.808989	3292.579333	703.338867	1.576595
22996.808989	3292.579333	702.127930	25.888290
22996.808989	3292.579333	700.917969	191.218582
22996.808989	3292.579333	699.707031	-73.464172
22996.808989	3292.579333	698.496094	78.109344
22996.808989	3292.579333	697.285156	45.417530
22996.808989	3292.579333	696.073242	137.734222
22996.808989	3292.579333	694.861328	-1.840152
22996.808989	3292.579333	693.649414	26.761229
22996.808989	3292.579333	692.436523	-44.641987
22996.808989	3292.579333	691.224609	95.187561
22996.808989	3292.579333	690.011719	78.236420
22996.808989	3292.579333	688.798828	47.637894
22996.808989	3292.579333	687.584961	-44.267937
22996.808989	3292.579333	686.372070	231.478668
22996.808989	3292.579333	685.158203	180.348938
22996.808989	3292.579333	683.943359	251.703094
22996.808989	3292.579333	682.729492	320.728577
22996.808989	3292.579333	681.514648	140.265625
22996.808989	3292.579333	680.299805	345.240204
22996.808989	3292.579333	679.084961	191.980927
22996.808989	3292.579333	677.869141	408.121613
22996.808989	3292.579333	676.653320	229.924789
22996.808989	3292.579333	675.437500	294.137482
22996.808989	3292.579333	674.221680	199.765564
22996.808989	3292.579333	673.004883	254.833405
22996.808989	3292.579333	671.789063	284.945953
22996.808989	3292.579333	670.571289	269.745209
22996.808989	3292.579333	669.354492	279.409454
22996.808989	3292.579333	668.136719	139.725723
22996.808989	3292.579333	666.919922	230.771317
22996.808989	3292.579333	665.701172	317.218719
22996.808989	3292.579333	664.483398	295.079071
22996.808989	3292.579333	663.264648	270.652863
22996.808989	3292.579333	662.045898	347.897797
22996.808989	3292.579333	660.827148	210.434998
22996.808989	3292.579333	659.608398	161.095062
22996.808989	3292.579333	658.388672	371.460754
22996.808989	3292.579333	657.168945	416.873199
22996.808989	3292.579333	655.949219	277.120056
22996.808989	3292.579333	654.728516	378.890442
22996.808989	3292.579333	653.507813	286.522705
22996.808989	3292.579333	652.287109	248.306885
22996.808989	3292.579333	651.066406	379.242615
22996.808989	3292.579333	649.844727	271.046814
22996.808989	3292.579333	648.623047	343.234131
22996.808989	3292.579333	647.401367	226.009750
22996.808989	3292.579333	646.179688	331.915771
22996.808989	3292.579333	644.957031	318.322845
22996.808989	3292.579333	643.734375	379.043121
22996.808989	3292.579333	642.511719	414.930725
22996.808989	3292.579333	641.289063	335.930634
22996.808989	3292.579333	640.065430	396.509583
22996.808989	3292.579333	638.841797	236.451080
22996.808989	3292.579333	637.618164	355.470093
22996.808989	3292.579333	636.393555	287.666138
22996.808989	3292.579333	635.168945	109.639717
22996.808989	3292.579333	633.944336	55.347015
22996.808989	3292.579333	632.719727	48.262829
22996.808989	3292.579333	631.494141	-84.737015
22996.808989	3292.579333	630.269531	123.907410
22996.808989	3292.579333	629.042969	-58.550892
22996.808989	3292.579333	627.817383	188.126694
22996.808989	3292.579333	626.590820	120.219345
22996.808989	3292.579333	625.365234	103.962029
22996.808989	3292.579333	624.137695	125.842354
22996.808989	3292.579333	622.911133	96.060165
22996.808989	3292.579333	621.683594	75.234352
22996.808989	3292.579333	620.456055	22.976954
22996.808989	3292.579333	619.228516	85.115372
22996.808989	3292.579333	618.000977	35.062939
22996.808989	3292.579333	616.772461	139.714340
22996.808989	3292.579333	615.543945	87.369217
22996.808989	3292.579333	614.314453	113.460800
22996.808989	3292.579333	613.085938	74.532143
22996.808989	3292.579333	611.856445	136.404968
22996.808989	3292.579333	610.626953	10.075340
22996.808989	3292.579333	609.397461	33.811607
22996.808989	3292.579333	608.166992	113.480034
22996.808989	3292.579333	606.936523	2.821370
22996.808989	3292.579333	605.706055	82.409676
22996.808989	3292.579333	604.474609	-19.300959
22996.808989	3292.579333	603.244141	-78.487320
22996.808989	3292.579333	602.012695	-108.602364
22996.808989	3292.579333	600.780273	-4.569641
22996.808989	3292.579333	599.548828	179.878021
22996.808989	3292.579333	598.316406	87.066887
22996.808989	3292.579333	597.083984	59.075302
22996.808989	3292.579333	595.851563	60.116024
22996.808989	3292.579333	594.618164	-59.489258
22996.808989	3292.579333	593.384766	-2.643563
22996.808989	3292.579333	592.151367	94.344391
22996.808989	3292.579333	590.917969	-49.814560
22996.808989	3292.579333	589.683594	-31.017542
22996.808989	3292.579333	588.449219	10.062500
22996.808989	3292.579333	587.214844	-60.437332
22996.808989	3292.579333	585.979492	51.957401
22996.808989	3292.579333	584.745117	88.471352
22996.808989	3292.579333	583.509766	-77.928940
22996.808989	3292.579333	582.273438	-126.148865
22996.808989	3292.579333	581.038086	35.110531
22996.808989	3292.579333	579.801758	-17.606634
22996.808989	3292.579333	578.565430	-119.325226
22996.808989	3292.579333	577.329102	-58.445713
22996.808989	3292.579333	576.091797	-37.690994
22996.808989	3292.579333	574.854492	5.297898
22996.808989	3292.579333	573.617188	150.629303
22996.808989	3292.579333	572.378906	200.198441
22996.808989	3292.579333	571.141602	85.109673
22996.808989	3292.579333	569.903320	125.742867
22996.808989	3292.579333	568.664063	35.141399
22996.808989	3292.579333	567.425781	169.113785
22996.808989	3292.579333	566.186523	185.204391
22996.808989	3292.579333	564.947266	163.495926
22996.808989	3292.579333	563.708008	168.444870
22996.808989	3292.579333	562.467773	97.849220
22996.808989	3292.579333	561.227539	60.584190
22996.808989	3292.579333	559.987305	129.900681
22996.808989	3292.579333	558.747070	-5.054860
22996.808989	3292.579333	557.505859	28.707893
22996.808989	3292.579333	556.264648	26.942114
22996.808989	3292.579333	555.023438	-1.454803
22996.808989	3292.579333	553.781250	-87.522324
22996.808989	3292.579333	552.539063	-95.949158
22996.808989	3292.579333	551.296875	66.331993
22996.808989	3292.579333	550.054688	-41.888893
22996.808989	3292.579333	548.811523	-39.269981
22996.808989	3292.579333	547.569336	-80.969826
22996.808989	3292.579333	546.325195	-5.263032
22996.808989	3292.579333	545.082031	68.192200
22996.808989	3292.579333	543.837891	-4.532200
22996.808989	3292.579333	542.593750	42.309624
22996.808989	3292.579333	541.349609	9.447546
22996.808989	3292.579333	540.105469	5.359959
22996.808989	3292.579333	538.860352	80.907684
22996.808989	3292.579333	537.615234	48.038231
22996.808989	3292.579333	536.369141	10.751072
22996.808989	3292.579333	535.124023	150.350540
22996.808989	3292.579333	533.877930	55.577885
22996.808989	3292.579333	532.631836	49.239483
22996.808989	3292.579333	531.384766	-87.462112
22996.808989	3292.579333	530.138672	195.605042
22996.808989	3292.579333	528.891602	105.303238
22996.808989	3292.579333	527.643555	-115.241264
22996.808989	3292.579333	526.396484	-64.157791
22996.808989	3292.579333	525.148438	-68.279877
22996.808989	3292.579333	523.900391	7.036167
22996.808989	3292.579333	522.652344	-34.607864
22996.808989	3292.579333	521.403320	-303.424561
22996.808989	3292.579333	520.154297	-12.004135
22996.808989	3292.579333	518.905273	-31.577873
22996.808989	3292.579333	517.656250	-99.637794
22996.808989	3292.579333	516.406250	-68.502487
22996.808989	3292.579333	515.156250	-136.530823
22996.808989	3292.579333	513.906250	-145.053238
22996.808989	3292.579333	512.655273	-76.493866
22996.808989	3292.579333	511.404297	-38.790718
22996.808989	3292.579333	510.153320	49.528423
22996.808989	3292.579333	508.902344	-71.281044
22996.808989	3292.579333	507.650391	25.804457
22996.808989	3292.579333	506.398438	92.047974
22996.808989	3292.579333	505.146484	-107.880119
22996.808989	3292.579333	503.893555	-195.574966
22996.808989	3292.579333	502.641602	-96.349419
22996.808989	3292.579333	501.388672	-126.859070
22996.808989	3292.579333	500.134766	-73.850166
22996.808989	3292.579333	498.881836	-51.621460
22996.808989	3292.579333	497.627930	7.936487
22996.808989	3292.579333	496.374023	58.682701
22996.808989	3292.579333	495.119141	195.035522
22996.808989	3292.579333	493.865234	129.366470
22996.808989	3292.579333	492.610352	188.823456
22996.808989	3292.579333	491.355469	50.762928
22996.808989	3292.579333	490.099609	44.386295
22996.808989	3292.579333	488.843750	73.103172
22996.808989	3292.579333	487.587891	174.169952
22996.808989	3292.579333	486.332031	281.766296
22996.808989	3292.579333	485.075195	270.941162
22996.808989	3292.579333	483.818359	102.328140
22996.808989	3292.579333	482.561523	194.513016
22996.808989	3292.579333	481.304688	-11.262645
22996.808989	3292.579333	480.046875	54.608501
22996.808989	3292.579333	478.789063	133.580688
22996.808989	3292.579333	477.531250	48.325504
22996.808989	3292.579333	476.272461	65.960403
22996.808989	3292.579333	475.013672	322.089874
22996.808989	3292.579333	473.754883	-86.968613
22996.808989	3292.579333	472.496094	29.075968
22996.808989	3292.579333	471.236328	70.703156
22996.808989	3292.579333	469.976563	0.796076
22996.808989	3292.579333	468.716797	-40.680058
22996.808989	3292.579333	467.456055	-93.086235
22996.808989	3292.579333	466.196289	97.038643
22996.808989	3292.579333	464.935547	-121.427223
22996.808989	3292.579333	463.673828	-73.381706
22996.808989	3292.579333	462.413086	109.999504
22996.808989	3292.579333	461.151367	55.327728
22996.808989	3292.579333	459.889648	-64.821884
22996.808989	3292.579333	458.626953	-19.113070
22996.808989	3292.579333	457.364258	39.636650
22996.808989	3292.579333	456.101563	-108.874718
22996.808989	3292.579333	454.838867	161.330063
22996.808989	3292.579333	453.575195	185.020996
22996.808989	3292.579333	452.312500	66.989418
22996.808989	3292.579333	451.047852	53.566803
22996.808989	3292.579333	449.784180	83.689156
22996.808989	3292.579333	448.519531	63.651760
22996.808989	3292.579333	447.254883	67.535637
22996.808989	3292.579333	445.990234	-61.446640
22996.808989	3292.579333	444.725586	16.380806
22996.808989	3292.579333	443.459961	48.415031
22996.808989	3292.579333	442.194336	158.715393
22996.808989	3292.579333	440.927734	-118.325211
22996.808989	3292.579333	439.662109	246.322250
22996.808989	3292.579333	438.395508	32.322929
22996.808989	3292.579333	437.127930	22.707508
22996.808989	3292.579333	435.861328	228.217438
22996.808989	3292.579333	434.593750	190.174500
22996.808989	3292.579333	433.326172	139.038147
22996.808989	3292.579333	432.058594	192.110794
22996.808989	3292.579333	430.790039	119.116699
22996.808989	3292.579333	429.521484	113.377472
22996.808989	3292.579333	428.252930	224.773849
22996.808989	3292.579333	426.984375	-41.599167
22996.808989	3292.579333	425.714844	0.156331
22996.808989	3292.579333	424.445313	78.673775
22996.808989	3292.579333	423.174805	170.061142
22996.808989	3292.579333	421.905273	103.013763
22996.808989	3292.579333	420.634766	66.229263
22996.808989	3292.579333	419.364258	51.018654
22996.808989	3292.579333	418.092773	170.042831
22996.808989	3292.579333	416.822266	141.571548
22996.808989	3292.579333	415.550781	50.161110
22996.808989	3292.579333	414.278320	194.698547
22996.808989	3292.579333	413.006836	367.185730
22996.808989	3292.579333	411.734375	188.774216
22996.808989	3292.579333	410.461914	315.438324
22996.808989	3292.579333	409.188477	164.930618
22996.808989	3292.579333	407.916016	72.741089
22996.808989	3292.579333	406.642578	79.904610
22996.808989	3292.579333	405.368164	419.879913
22996.808989	3292.579333	404.094727	20.189100
22996.808989	3292.579333	402.820313	251.597260
22996.808989	3292.579333	401.545898	132.648895
22996.808989	3292.579333	400.270508	195.022797
22996.808989	3292.579333	398.996094	75.735756
22996.808989	3292.579333	397.720703	55.618443
22996.808989	3292.579333	396.444336	214.481476
22996.808989	3292.579333	395.168945	250.020844
22996.808989	3292.579333	393.892578	309.043274
22996.808989	3292.579333	392.616211	380.745087
22996.808989	3292.579333	391.339844	57.411381
22996.808989	3292.579333	390.062500	76.864693
22996.808989	3292.579333	388.785156	134.857513
22996.808989	3292.579333	387.507813	20.094791
22996.808989	3292.579333	386.229492	120.619133
22996.808989	3292.579333	384.951172	197.107391
22996.808989	3292.579333	383.672852	87.993439
22996.808989	3292.579333	382.394531	77.697784
22996.808989	3292.579333	381.115234	8.939120
22996.808989	3292.579333	379.835938	-1.985494
22996.808989	3292.579333	378.556641	-15.391971
22996.808989	3292.579333	377.277344	-65.720932
22996.808989	3292.579333	375.997070	40.667332
22996.808989	3292.579333	374.716797	19.733629
22996.808989	3292.579333	373.435547	129.607407
22996.808989	3292.579333	372.155273	-18.953653
22996.808989	3292.579333	370.874023	32.058464
22996.808989	3292.579333	369.591797	11.705344
22996.808989	3292.579333	368.310547	68.308784
22996.808989	3292.579333	367.028320	64.293236
22996.808989	3292.579333	365.746094	42.655102
22996.808989	3292.579333	364.463867	48.487709
22996.808989	3292.579333	363.180664	25.927851
22996.808989	3292.579333	361.897461	144.559113
22996.808989	3292.579333	360.614258	15.868622
22996.808989	3292.579333	359.330078	133.438583
22996.808989	3292.579333	358.045898	-26.261856
22996.808989	3292.579333	356.761719	19.447527
22996.808989	3292.579333	355.477539	43.150990
22996.808989	3292.579333	354.192383	10.535014
22996.808989	3292.579333	352.907227	-16.211987
22996.808989	3292.579333	351.622070	-75.675499
22996.808989	3292.579333	350.336914	9.950809
22996.808989	3292.579333	349.050781	-67.867241
22996.808989	3292.579333	347.764648	63.554993
22996.808989	3292.579333	346.477539	31.550913
22996.808989	3292.579333	345.191406	-95.258553
22996.808989	3292.579333	343.904297	14.805191
22996.808989	3292.579333	342.616211	2.155064
22996.808989	3292.579333	341.329102	-21.879311
22996.808989	3292.579333	340.041016	-14.582851
22996.808989	3292.579333	338.752930	-127.769081
22996.808989	3292.579333	337.463867	-64.286278
22996.808989	3292.579333	336.175781	-185.381714
22996.808989	3292.579333	334.886719	-93.600014
22996.808989	3292.579333	333.596680	-160.780258
22996.808989	3292.579333	332.307617	-79.259392
22996.808989	3292.579333	331.017578	-216.451965
22996.808989	3292.579333	329.727539	-96.172165
22996.808989	3292.579333	328.436523	-4.625184
22996.808989	3292.579333	327.146484	26.237244
22996.808989	3292.579333	325.855469	60.375675
22996.808989	3292.579333	324.563477	163.882370
22996.808989	3292.579333	323.272461	51.010864
22996.808989	3292.579333	321.980469	-5.294450
22996.808989	3292.579333	320.688477	67.403496
22996.808989	3292.579333	319.395508	60.130043
22996.808989	3292.579333	318.103516	-14.237535
22996.808989	3292.579333	316.810547	-32.203037
22996.808989	3292.579333	315.516602	-153.550262
22996.808989	3292.579333	314.223633	-90.734146
22996.808989	3292.579333	312.929688	-22.779369
22996.808989	3292.579333	311.635742	43.936565
22996.808989	3292.579333	310.340820	-5.547431
22996.808989	3292.579333	309.045898	41.581486
22996.808989	3292.579333	307.750977	134.188919
22996.808989	3292.579333	306.456055	155.270935
22996.808989	3292.579333	305.160156	234.479965
22996.808989	3292.579333	303.865234	55.153782
22996.808989	3292.579333	302.568359	140.030853
22996.808989	3292.579333	301.272461	180.994507
22996.808989	3292.579333	299.975586	373.361633
22996.808989	3292.579333	298.678711	343.303772
