#X		#Y		#Wave		#Intensity
22970.825266	3068.901667	1999.980469	-124.230217
22970.825266	3068.901667	1999.016602	-59.285091
22970.825266	3068.901667	1998.052734	2.806842
22970.825266	3068.901667	1997.087891	104.558762
22970.825266	3068.901667	1996.123047	62.602039
22970.825266	3068.901667	1995.158203	-38.758186
22970.825266	3068.901667	1994.193359	-43.454544
22970.825266	3068.901667	1993.228516	36.077396
22970.825266	3068.901667	1992.262695	56.190372
22970.825266	3068.901667	1991.297852	-10.308616
22970.825266	3068.901667	1990.332031	32.142872
22970.825266	3068.901667	1989.366211	99.353966
22970.825266	3068.901667	1988.399414	25.551083
22970.825266	3068.901667	1987.433594	43.328087
22970.825266	3068.901667	1986.466797	80.911026
22970.825266	3068.901667	1985.500977	46.804790
22970.825266	3068.901667	1984.534180	25.098833
22970.825266	3068.901667	1983.567383	10.844311
22970.825266	3068.901667	1982.599609	53.459976
22970.825266	3068.901667	1981.632813	-10.155211
22970.825266	3068.901667	1980.665039	-9.492851
22970.825266	3068.901667	1979.697266	23.303778
22970.825266	3068.901667	1978.729492	-13.028949
22970.825266	3068.901667	1977.761719	42.028557
22970.825266	3068.901667	1976.792969	10.692343
22970.825266	3068.901667	1975.825195	-30.478281
22970.825266	3068.901667	1974.856445	69.041298
22970.825266	3068.901667	1973.887695	-26.354263
22970.825266	3068.901667	1972.918945	-13.157804
22970.825266	3068.901667	1971.949219	113.500679
22970.825266	3068.901667	1970.980469	-26.163746
22970.825266	3068.901667	1970.010742	56.120388
22970.825266	3068.901667	1969.041016	-21.817549
22970.825266	3068.901667	1968.071289	-40.560234
22970.825266	3068.901667	1967.101563	14.642668
22970.825266	3068.901667	1966.130859	37.820007
22970.825266	3068.901667	1965.161133	9.287192
22970.825266	3068.901667	1964.190430	-11.828075
22970.825266	3068.901667	1963.219727	-8.294928
22970.825266	3068.901667	1962.249023	103.567650
22970.825266	3068.901667	1961.277344	65.275681
22970.825266	3068.901667	1960.306641	-24.657366
22970.825266	3068.901667	1959.334961	-1.367988
22970.825266	3068.901667	1958.363281	-2.667391
22970.825266	3068.901667	1957.391602	40.319298
22970.825266	3068.901667	1956.419922	51.341961
22970.825266	3068.901667	1955.447266	-70.378181
22970.825266	3068.901667	1954.474609	-5.231248
22970.825266	3068.901667	1953.501953	177.867599
22970.825266	3068.901667	1952.529297	26.755894
22970.825266	3068.901667	1951.556641	-72.695618
22970.825266	3068.901667	1950.583984	-41.919907
22970.825266	3068.901667	1949.610352	57.617355
22970.825266	3068.901667	1948.636719	-19.643728
22970.825266	3068.901667	1947.663086	-55.130985
22970.825266	3068.901667	1946.689453	17.398157
22970.825266	3068.901667	1945.715820	-20.509274
22970.825266	3068.901667	1944.741211	22.572001
22970.825266	3068.901667	1943.767578	-10.390480
22970.825266	3068.901667	1942.792969	44.960545
22970.825266	3068.901667	1941.818359	-10.037935
22970.825266	3068.901667	1940.842773	25.703239
22970.825266	3068.901667	1939.868164	0.165676
22970.825266	3068.901667	1938.892578	13.858839
22970.825266	3068.901667	1937.916992	-85.151314
22970.825266	3068.901667	1936.941406	-0.383416
22970.825266	3068.901667	1935.965820	-35.651749
22970.825266	3068.901667	1934.990234	-26.817951
22970.825266	3068.901667	1934.013672	26.092226
22970.825266	3068.901667	1933.037109	15.346356
22970.825266	3068.901667	1932.060547	-27.203087
22970.825266	3068.901667	1931.083984	13.469954
22970.825266	3068.901667	1930.107422	-9.473936
22970.825266	3068.901667	1929.129883	1.843849
22970.825266	3068.901667	1928.153320	-57.757656
22970.825266	3068.901667	1927.175781	36.716621
22970.825266	3068.901667	1926.198242	11.371365
22970.825266	3068.901667	1925.219727	52.037365
22970.825266	3068.901667	1924.242188	38.931549
22970.825266	3068.901667	1923.263672	20.949938
22970.825266	3068.901667	1922.285156	-6.790358
22970.825266	3068.901667	1921.306641	14.334393
22970.825266	3068.901667	1920.328125	25.688892
22970.825266	3068.901667	1919.349609	-72.824562
22970.825266	3068.901667	1918.370117	-59.006947
22970.825266	3068.901667	1917.391602	-23.223694
22970.825266	3068.901667	1916.412109	46.712578
22970.825266	3068.901667	1915.431641	4.399744
22970.825266	3068.901667	1914.452148	-54.967823
22970.825266	3068.901667	1913.472656	24.701975
22970.825266	3068.901667	1912.492188	23.879910
22970.825266	3068.901667	1911.511719	30.374695
22970.825266	3068.901667	1910.531250	-21.628391
22970.825266	3068.901667	1909.550781	-85.794418
22970.825266	3068.901667	1908.569336	8.439458
22970.825266	3068.901667	1907.588867	58.791489
22970.825266	3068.901667	1906.607422	55.542400
22970.825266	3068.901667	1905.625977	-45.110428
22970.825266	3068.901667	1904.644531	148.875214
22970.825266	3068.901667	1903.662109	48.244572
22970.825266	3068.901667	1902.680664	10.931208
22970.825266	3068.901667	1901.698242	-53.134712
22970.825266	3068.901667	1900.715820	-29.592722
22970.825266	3068.901667	1899.733398	35.292034
22970.825266	3068.901667	1898.750000	66.104134
22970.825266	3068.901667	1897.767578	23.958817
22970.825266	3068.901667	1896.784180	-74.086555
22970.825266	3068.901667	1895.800781	10.199823
22970.825266	3068.901667	1894.817383	4.537438
22970.825266	3068.901667	1893.833984	59.618423
22970.825266	3068.901667	1892.850586	49.087315
22970.825266	3068.901667	1891.866211	-5.160750
22970.825266	3068.901667	1890.881836	25.601164
22970.825266	3068.901667	1889.897461	-43.194077
22970.825266	3068.901667	1888.913086	77.373459
22970.825266	3068.901667	1887.927734	20.722832
22970.825266	3068.901667	1886.943359	-31.056074
22970.825266	3068.901667	1885.958008	9.370942
22970.825266	3068.901667	1884.972656	110.419807
22970.825266	3068.901667	1883.987305	51.366173
22970.825266	3068.901667	1883.001953	60.222260
22970.825266	3068.901667	1882.015625	23.009655
22970.825266	3068.901667	1881.029297	10.044207
22970.825266	3068.901667	1880.042969	-7.767817
22970.825266	3068.901667	1879.056641	112.526489
22970.825266	3068.901667	1878.070313	-19.162941
22970.825266	3068.901667	1877.083984	74.435898
22970.825266	3068.901667	1876.096680	-100.796059
22970.825266	3068.901667	1875.109375	-31.439901
22970.825266	3068.901667	1874.122070	-83.146721
22970.825266	3068.901667	1873.134766	10.369407
22970.825266	3068.901667	1872.146484	-2.623881
22970.825266	3068.901667	1871.159180	47.282078
22970.825266	3068.901667	1870.170898	17.341282
22970.825266	3068.901667	1869.182617	-34.360813
22970.825266	3068.901667	1868.194336	5.829395
22970.825266	3068.901667	1867.205078	-9.604898
22970.825266	3068.901667	1866.216797	-20.206617
22970.825266	3068.901667	1865.227539	-71.894196
22970.825266	3068.901667	1864.238281	31.058990
22970.825266	3068.901667	1863.249023	102.561668
22970.825266	3068.901667	1862.259766	-62.658562
22970.825266	3068.901667	1861.269531	30.549416
22970.825266	3068.901667	1860.279297	-74.256935
22970.825266	3068.901667	1859.290039	64.763321
22970.825266	3068.901667	1858.298828	73.398865
22970.825266	3068.901667	1857.308594	-12.081738
22970.825266	3068.901667	1856.318359	25.495823
22970.825266	3068.901667	1855.327148	14.808261
22970.825266	3068.901667	1854.335938	-20.000965
22970.825266	3068.901667	1853.344727	-54.807522
22970.825266	3068.901667	1852.353516	14.046374
22970.825266	3068.901667	1851.362305	46.710690
22970.825266	3068.901667	1850.370117	-36.316616
22970.825266	3068.901667	1849.377930	25.233707
22970.825266	3068.901667	1848.385742	101.202553
22970.825266	3068.901667	1847.393555	75.979164
22970.825266	3068.901667	1846.401367	-11.852413
22970.825266	3068.901667	1845.408203	-20.216864
22970.825266	3068.901667	1844.415039	-4.519927
22970.825266	3068.901667	1843.421875	23.191849
22970.825266	3068.901667	1842.428711	9.976896
22970.825266	3068.901667	1841.435547	11.188327
22970.825266	3068.901667	1840.441406	34.032742
22970.825266	3068.901667	1839.448242	-63.381569
22970.825266	3068.901667	1838.454102	9.932963
22970.825266	3068.901667	1837.459961	80.802872
22970.825266	3068.901667	1836.464844	77.126617
22970.825266	3068.901667	1835.470703	-10.664413
22970.825266	3068.901667	1834.475586	-14.349590
22970.825266	3068.901667	1833.480469	-61.283714
22970.825266	3068.901667	1832.485352	-48.174450
22970.825266	3068.901667	1831.490234	53.758091
22970.825266	3068.901667	1830.495117	38.004250
22970.825266	3068.901667	1829.499023	-11.362311
22970.825266	3068.901667	1828.502930	-0.730252
22970.825266	3068.901667	1827.506836	79.463768
22970.825266	3068.901667	1826.510742	49.264294
22970.825266	3068.901667	1825.513672	55.036694
22970.825266	3068.901667	1824.517578	-11.146704
22970.825266	3068.901667	1823.520508	32.964973
22970.825266	3068.901667	1822.523438	-9.250240
22970.825266	3068.901667	1821.526367	68.365974
22970.825266	3068.901667	1820.529297	59.675320
22970.825266	3068.901667	1819.531250	-6.526012
22970.825266	3068.901667	1818.533203	-29.603575
22970.825266	3068.901667	1817.535156	98.184456
22970.825266	3068.901667	1816.537109	34.359463
22970.825266	3068.901667	1815.539063	-3.124575
22970.825266	3068.901667	1814.540039	-14.284268
22970.825266	3068.901667	1813.541992	75.051208
22970.825266	3068.901667	1812.542969	44.707371
22970.825266	3068.901667	1811.543945	28.710873
22970.825266	3068.901667	1810.543945	3.135861
22970.825266	3068.901667	1809.544922	-8.098166
22970.825266	3068.901667	1808.544922	23.687212
22970.825266	3068.901667	1807.544922	-4.314043
22970.825266	3068.901667	1806.544922	36.983181
22970.825266	3068.901667	1805.544922	1.787044
22970.825266	3068.901667	1804.544922	100.367233
22970.825266	3068.901667	1803.543945	12.589298
22970.825266	3068.901667	1802.542969	44.228596
22970.825266	3068.901667	1801.541992	61.512585
22970.825266	3068.901667	1800.541016	31.029310
22970.825266	3068.901667	1799.539063	-71.062027
22970.825266	3068.901667	1798.538086	32.083992
22970.825266	3068.901667	1797.536133	1.568047
22970.825266	3068.901667	1796.534180	44.990559
22970.825266	3068.901667	1795.532227	54.989883
22970.825266	3068.901667	1794.529297	107.885048
22970.825266	3068.901667	1793.527344	48.696468
22970.825266	3068.901667	1792.524414	58.632568
22970.825266	3068.901667	1791.521484	23.267736
22970.825266	3068.901667	1790.518555	40.315052
22970.825266	3068.901667	1789.514648	107.361046
22970.825266	3068.901667	1788.511719	55.278603
22970.825266	3068.901667	1787.507813	-32.523571
22970.825266	3068.901667	1786.503906	-29.840862
22970.825266	3068.901667	1785.500000	-10.515602
22970.825266	3068.901667	1784.496094	58.761242
22970.825266	3068.901667	1783.491211	35.192074
22970.825266	3068.901667	1782.486328	-45.483501
22970.825266	3068.901667	1781.481445	-69.062637
22970.825266	3068.901667	1780.476563	-28.443335
22970.825266	3068.901667	1779.471680	33.539906
22970.825266	3068.901667	1778.465820	-21.004591
22970.825266	3068.901667	1777.460938	12.393650
22970.825266	3068.901667	1776.455078	14.866106
22970.825266	3068.901667	1775.449219	164.620544
22970.825266	3068.901667	1774.442383	14.996428
22970.825266	3068.901667	1773.436523	69.656769
22970.825266	3068.901667	1772.429688	72.035889
22970.825266	3068.901667	1771.422852	45.905590
22970.825266	3068.901667	1770.416016	-34.827152
22970.825266	3068.901667	1769.409180	100.406738
22970.825266	3068.901667	1768.402344	-65.762398
22970.825266	3068.901667	1767.394531	62.267750
22970.825266	3068.901667	1766.386719	19.460253
22970.825266	3068.901667	1765.378906	-32.836266
22970.825266	3068.901667	1764.371094	21.557146
22970.825266	3068.901667	1763.362305	-9.427941
22970.825266	3068.901667	1762.354492	106.519859
22970.825266	3068.901667	1761.345703	70.751236
22970.825266	3068.901667	1760.336914	-12.405375
22970.825266	3068.901667	1759.328125	-55.283714
22970.825266	3068.901667	1758.318359	91.286728
22970.825266	3068.901667	1757.308594	12.846605
22970.825266	3068.901667	1756.299805	74.088264
22970.825266	3068.901667	1755.290039	19.309439
22970.825266	3068.901667	1754.279297	4.757656
22970.825266	3068.901667	1753.269531	-92.613747
22970.825266	3068.901667	1752.258789	-90.620415
22970.825266	3068.901667	1751.249023	-36.615078
22970.825266	3068.901667	1750.238281	121.389038
22970.825266	3068.901667	1749.226563	-58.759705
22970.825266	3068.901667	1748.215820	118.057503
22970.825266	3068.901667	1747.204102	-24.250286
22970.825266	3068.901667	1746.193359	-8.215799
22970.825266	3068.901667	1745.181641	43.225452
22970.825266	3068.901667	1744.168945	7.235314
22970.825266	3068.901667	1743.157227	-42.927307
22970.825266	3068.901667	1742.144531	8.428681
22970.825266	3068.901667	1741.132813	156.529297
22970.825266	3068.901667	1740.120117	-84.860939
22970.825266	3068.901667	1739.106445	-40.667099
22970.825266	3068.901667	1738.093750	-20.099072
22970.825266	3068.901667	1737.080078	14.591439
22970.825266	3068.901667	1736.067383	-7.347383
22970.825266	3068.901667	1735.053711	-78.814041
22970.825266	3068.901667	1734.040039	43.031422
22970.825266	3068.901667	1733.025391	11.608375
22970.825266	3068.901667	1732.011719	13.170770
22970.825266	3068.901667	1730.997070	-30.053806
22970.825266	3068.901667	1729.982422	-23.814188
22970.825266	3068.901667	1728.967773	-8.175736
22970.825266	3068.901667	1727.952148	-37.304119
22970.825266	3068.901667	1726.937500	-49.958378
22970.825266	3068.901667	1725.921875	64.473915
22970.825266	3068.901667	1724.906250	28.230843
22970.825266	3068.901667	1723.890625	15.511456
22970.825266	3068.901667	1722.875000	16.892252
22970.825266	3068.901667	1721.858398	34.714558
22970.825266	3068.901667	1720.841797	-20.385769
22970.825266	3068.901667	1719.825195	20.910212
22970.825266	3068.901667	1718.808594	15.158981
22970.825266	3068.901667	1717.791992	14.091836
22970.825266	3068.901667	1716.774414	-90.383812
22970.825266	3068.901667	1715.756836	-13.944264
22970.825266	3068.901667	1714.739258	1.378107
22970.825266	3068.901667	1713.721680	-81.954926
22970.825266	3068.901667	1712.704102	10.819673
22970.825266	3068.901667	1711.685547	-79.565071
22970.825266	3068.901667	1710.667969	48.342819
22970.825266	3068.901667	1709.649414	157.408203
22970.825266	3068.901667	1708.630859	85.762520
22970.825266	3068.901667	1707.611328	84.493965
22970.825266	3068.901667	1706.592773	101.972618
22970.825266	3068.901667	1705.573242	112.390121
22970.825266	3068.901667	1704.553711	21.980043
22970.825266	3068.901667	1703.534180	32.374096
22970.825266	3068.901667	1702.513672	40.400150
22970.825266	3068.901667	1701.494141	81.210915
22970.825266	3068.901667	1700.473633	91.533058
22970.825266	3068.901667	1699.453125	-10.585085
22970.825266	3068.901667	1698.432617	41.866390
22970.825266	3068.901667	1697.412109	12.339761
22970.825266	3068.901667	1696.390625	104.522682
22970.825266	3068.901667	1695.369141	107.723351
22970.825266	3068.901667	1694.347656	-20.123791
22970.825266	3068.901667	1693.326172	22.836632
22970.825266	3068.901667	1692.304688	30.680439
22970.825266	3068.901667	1691.282227	71.240738
22970.825266	3068.901667	1690.260742	11.237956
22970.825266	3068.901667	1689.238281	168.633804
22970.825266	3068.901667	1688.214844	124.957703
22970.825266	3068.901667	1687.192383	106.989479
22970.825266	3068.901667	1686.168945	110.035744
22970.825266	3068.901667	1685.146484	26.645197
22970.825266	3068.901667	1684.123047	48.358532
22970.825266	3068.901667	1683.099609	135.425278
22970.825266	3068.901667	1682.075195	47.358143
22970.825266	3068.901667	1681.051758	113.356300
22970.825266	3068.901667	1680.027344	246.984039
22970.825266	3068.901667	1679.002930	214.897217
22970.825266	3068.901667	1677.978516	201.469742
22970.825266	3068.901667	1676.953125	181.033615
22970.825266	3068.901667	1675.928711	160.594788
22970.825266	3068.901667	1674.903320	177.447678
22970.825266	3068.901667	1673.877930	133.678818
22970.825266	3068.901667	1672.852539	101.565277
22970.825266	3068.901667	1671.826172	260.502686
22970.825266	3068.901667	1670.800781	177.102341
22970.825266	3068.901667	1669.774414	193.866791
22970.825266	3068.901667	1668.748047	222.255005
22970.825266	3068.901667	1667.721680	229.666565
22970.825266	3068.901667	1666.694336	181.194824
22970.825266	3068.901667	1665.667969	160.660187
22970.825266	3068.901667	1664.640625	216.902267
22970.825266	3068.901667	1663.613281	259.152527
22970.825266	3068.901667	1662.585938	278.116241
22970.825266	3068.901667	1661.557617	250.548584
22970.825266	3068.901667	1660.530273	318.308899
22970.825266	3068.901667	1659.501953	90.811142
22970.825266	3068.901667	1658.473633	139.957748
22970.825266	3068.901667	1657.444336	186.747528
22970.825266	3068.901667	1656.416016	242.805008
22970.825266	3068.901667	1655.386719	233.790222
22970.825266	3068.901667	1654.358398	220.127533
22970.825266	3068.901667	1653.328125	297.005280
22970.825266	3068.901667	1652.298828	287.955536
22970.825266	3068.901667	1651.269531	350.849091
22970.825266	3068.901667	1650.239258	297.680115
22970.825266	3068.901667	1649.208984	237.562500
22970.825266	3068.901667	1648.178711	263.284576
22970.825266	3068.901667	1647.148438	244.923920
22970.825266	3068.901667	1646.117188	356.405792
22970.825266	3068.901667	1645.086914	236.013855
22970.825266	3068.901667	1644.055664	428.561035
22970.825266	3068.901667	1643.024414	359.164215
22970.825266	3068.901667	1641.992188	449.649567
22970.825266	3068.901667	1640.960938	320.031952
22970.825266	3068.901667	1639.928711	387.315002
22970.825266	3068.901667	1638.896484	350.364105
22970.825266	3068.901667	1637.864258	480.108978
22970.825266	3068.901667	1636.832031	366.757111
22970.825266	3068.901667	1635.798828	452.461456
22970.825266	3068.901667	1634.766602	429.383026
22970.825266	3068.901667	1633.733398	380.857117
22970.825266	3068.901667	1632.699219	417.916901
22970.825266	3068.901667	1631.666016	417.961365
22970.825266	3068.901667	1630.632813	397.192871
22970.825266	3068.901667	1629.598633	307.077637
22970.825266	3068.901667	1628.564453	455.033112
22970.825266	3068.901667	1627.530273	394.970245
22970.825266	3068.901667	1626.495117	388.056396
22970.825266	3068.901667	1625.460938	272.587341
22970.825266	3068.901667	1624.425781	466.598785
22970.825266	3068.901667	1623.390625	533.545166
22970.825266	3068.901667	1622.355469	348.848541
22970.825266	3068.901667	1621.319336	515.022034
22970.825266	3068.901667	1620.284180	392.696167
22970.825266	3068.901667	1619.248047	383.455933
22970.825266	3068.901667	1618.211914	392.669067
22970.825266	3068.901667	1617.174805	427.240051
22970.825266	3068.901667	1616.138672	524.052612
22970.825266	3068.901667	1615.101563	473.286163
22970.825266	3068.901667	1614.065430	500.904572
22970.825266	3068.901667	1613.027344	450.155304
22970.825266	3068.901667	1611.990234	521.534546
22970.825266	3068.901667	1610.953125	567.546997
22970.825266	3068.901667	1609.915039	509.902069
22970.825266	3068.901667	1608.876953	516.750183
22970.825266	3068.901667	1607.838867	472.949127
22970.825266	3068.901667	1606.800781	654.726563
22970.825266	3068.901667	1605.761719	670.743042
22970.825266	3068.901667	1604.723633	495.794922
22970.825266	3068.901667	1603.684570	596.948181
22970.825266	3068.901667	1602.644531	606.064575
22970.825266	3068.901667	1601.605469	601.386047
22970.825266	3068.901667	1600.566406	592.112427
22970.825266	3068.901667	1599.526367	566.750671
22970.825266	3068.901667	1598.486328	559.785034
22970.825266	3068.901667	1597.446289	536.740906
22970.825266	3068.901667	1596.405273	534.378662
22970.825266	3068.901667	1595.365234	591.738037
22970.825266	3068.901667	1594.324219	587.074707
22970.825266	3068.901667	1593.283203	536.499878
22970.825266	3068.901667	1592.242188	607.602356
22970.825266	3068.901667	1591.200195	552.456360
22970.825266	3068.901667	1590.159180	584.528992
22970.825266	3068.901667	1589.117188	637.235718
22970.825266	3068.901667	1588.075195	524.788452
22970.825266	3068.901667	1587.032227	607.301392
22970.825266	3068.901667	1585.990234	715.010315
22970.825266	3068.901667	1584.947266	572.824951
22970.825266	3068.901667	1583.904297	698.838623
22970.825266	3068.901667	1582.861328	614.005981
22970.825266	3068.901667	1581.818359	687.282959
22970.825266	3068.901667	1580.775391	733.052002
22970.825266	3068.901667	1579.731445	668.886047
22970.825266	3068.901667	1578.687500	611.619995
22970.825266	3068.901667	1577.643555	726.065002
22970.825266	3068.901667	1576.598633	645.933716
22970.825266	3068.901667	1575.554688	572.709106
22970.825266	3068.901667	1574.509766	494.941437
22970.825266	3068.901667	1573.464844	446.946503
22970.825266	3068.901667	1572.419922	520.181396
22970.825266	3068.901667	1571.374023	517.940552
22970.825266	3068.901667	1570.329102	561.431580
22970.825266	3068.901667	1569.283203	694.045288
22970.825266	3068.901667	1568.237305	527.273560
22970.825266	3068.901667	1567.191406	598.175232
22970.825266	3068.901667	1566.144531	577.688599
22970.825266	3068.901667	1565.098633	509.264832
22970.825266	3068.901667	1564.051758	504.805817
22970.825266	3068.901667	1563.004883	530.034851
22970.825266	3068.901667	1561.957031	505.048920
22970.825266	3068.901667	1560.910156	379.682220
22970.825266	3068.901667	1559.862305	423.200958
22970.825266	3068.901667	1558.814453	521.457764
22970.825266	3068.901667	1557.766602	421.277466
22970.825266	3068.901667	1556.718750	514.958740
22970.825266	3068.901667	1555.669922	467.271332
22970.825266	3068.901667	1554.621094	556.368286
22970.825266	3068.901667	1553.573242	563.409729
22970.825266	3068.901667	1552.523438	497.547394
22970.825266	3068.901667	1551.474609	586.623169
22970.825266	3068.901667	1550.424805	520.807800
22970.825266	3068.901667	1549.375000	507.402008
22970.825266	3068.901667	1548.325195	555.481445
22970.825266	3068.901667	1547.275391	489.750946
22970.825266	3068.901667	1546.225586	471.848663
22970.825266	3068.901667	1545.174805	501.743469
22970.825266	3068.901667	1544.124023	320.089050
22970.825266	3068.901667	1543.073242	495.585815
22970.825266	3068.901667	1542.022461	457.286224
22970.825266	3068.901667	1540.970703	339.444366
22970.825266	3068.901667	1539.919922	519.424316
22970.825266	3068.901667	1538.868164	501.637634
22970.825266	3068.901667	1537.815430	383.899750
22970.825266	3068.901667	1536.763672	477.487244
22970.825266	3068.901667	1535.710938	468.848602
22970.825266	3068.901667	1534.659180	485.210541
22970.825266	3068.901667	1533.606445	508.390259
22970.825266	3068.901667	1532.552734	542.923706
22970.825266	3068.901667	1531.500000	659.160950
22970.825266	3068.901667	1530.446289	729.988220
22970.825266	3068.901667	1529.393555	735.022156
22970.825266	3068.901667	1528.338867	678.829102
22970.825266	3068.901667	1527.285156	658.960266
22970.825266	3068.901667	1526.231445	684.460205
22970.825266	3068.901667	1525.176758	753.032043
22970.825266	3068.901667	1524.122070	687.887939
22970.825266	3068.901667	1523.067383	699.824890
22970.825266	3068.901667	1522.012695	571.325439
22970.825266	3068.901667	1520.957031	531.223389
22970.825266	3068.901667	1519.901367	466.248047
22970.825266	3068.901667	1518.845703	358.302185
22970.825266	3068.901667	1517.790039	325.115936
22970.825266	3068.901667	1516.734375	260.279602
22970.825266	3068.901667	1515.677734	385.548920
22970.825266	3068.901667	1514.621094	329.812836
22970.825266	3068.901667	1513.564453	185.911453
22970.825266	3068.901667	1512.507813	254.650558
22970.825266	3068.901667	1511.450195	169.642441
22970.825266	3068.901667	1510.393555	211.274963
22970.825266	3068.901667	1509.335938	178.331329
22970.825266	3068.901667	1508.278320	145.422302
22970.825266	3068.901667	1507.219727	130.618210
22970.825266	3068.901667	1506.162109	120.361961
22970.825266	3068.901667	1505.103516	44.642445
22970.825266	3068.901667	1504.044922	86.377243
22970.825266	3068.901667	1502.986328	128.118286
22970.825266	3068.901667	1501.926758	50.251190
22970.825266	3068.901667	1500.868164	-41.097527
22970.825266	3068.901667	1499.808594	16.502161
22970.825266	3068.901667	1498.749023	-36.416325
22970.825266	3068.901667	1497.688477	16.694345
22970.825266	3068.901667	1496.628906	20.209274
22970.825266	3068.901667	1495.568359	116.164131
22970.825266	3068.901667	1494.507813	-4.249550
22970.825266	3068.901667	1493.447266	3.844115
22970.825266	3068.901667	1492.386719	-8.315941
22970.825266	3068.901667	1491.325195	56.131218
22970.825266	3068.901667	1490.263672	57.524235
22970.825266	3068.901667	1489.202148	13.912824
22970.825266	3068.901667	1488.140625	-27.405014
22970.825266	3068.901667	1487.079102	-30.421314
22970.825266	3068.901667	1486.016602	-33.413208
22970.825266	3068.901667	1484.954102	15.364305
22970.825266	3068.901667	1483.891602	160.864746
22970.825266	3068.901667	1482.829102	-24.235237
22970.825266	3068.901667	1481.765625	116.769257
22970.825266	3068.901667	1480.702148	179.064774
22970.825266	3068.901667	1479.638672	36.857269
22970.825266	3068.901667	1478.575195	-28.872419
22970.825266	3068.901667	1477.511719	-76.558968
22970.825266	3068.901667	1476.447266	-32.130905
22970.825266	3068.901667	1475.382813	52.708038
22970.825266	3068.901667	1474.318359	0.623766
22970.825266	3068.901667	1473.253906	9.163279
22970.825266	3068.901667	1472.189453	94.012733
22970.825266	3068.901667	1471.124023	19.594797
22970.825266	3068.901667	1470.058594	-41.295372
22970.825266	3068.901667	1468.993164	-34.842228
22970.825266	3068.901667	1467.927734	-46.248775
22970.825266	3068.901667	1466.861328	38.613308
22970.825266	3068.901667	1465.794922	112.267593
22970.825266	3068.901667	1464.728516	103.213448
22970.825266	3068.901667	1463.662109	78.439270
22970.825266	3068.901667	1462.594727	89.472893
22970.825266	3068.901667	1461.528320	66.970169
22970.825266	3068.901667	1460.460938	203.408798
22970.825266	3068.901667	1459.393555	178.956970
22970.825266	3068.901667	1458.326172	205.631378
22970.825266	3068.901667	1457.257813	250.321304
22970.825266	3068.901667	1456.189453	250.223633
22970.825266	3068.901667	1455.121094	323.842865
22970.825266	3068.901667	1454.052734	348.951294
22970.825266	3068.901667	1452.984375	335.580292
22970.825266	3068.901667	1451.915039	287.172455
22970.825266	3068.901667	1450.845703	369.420380
22970.825266	3068.901667	1449.776367	408.054901
22970.825266	3068.901667	1448.707031	490.304565
22970.825266	3068.901667	1447.636719	381.183197
22970.825266	3068.901667	1446.567383	459.006683
22970.825266	3068.901667	1445.497070	454.442993
22970.825266	3068.901667	1444.425781	379.785492
22970.825266	3068.901667	1443.355469	450.740509
22970.825266	3068.901667	1442.285156	326.785767
22970.825266	3068.901667	1441.213867	305.342224
22970.825266	3068.901667	1440.142578	342.784546
22970.825266	3068.901667	1439.070313	318.741943
22970.825266	3068.901667	1437.999023	364.502014
22970.825266	3068.901667	1436.926758	338.145264
22970.825266	3068.901667	1435.854492	306.693695
22970.825266	3068.901667	1434.782227	298.022095
22970.825266	3068.901667	1433.709961	285.296753
22970.825266	3068.901667	1432.636719	336.723541
22970.825266	3068.901667	1431.563477	323.335480
22970.825266	3068.901667	1430.490234	477.580200
22970.825266	3068.901667	1429.416992	449.036041
22970.825266	3068.901667	1428.343750	306.393982
22970.825266	3068.901667	1427.269531	457.258423
22970.825266	3068.901667	1426.195313	323.502655
22970.825266	3068.901667	1425.121094	357.604187
22970.825266	3068.901667	1424.046875	430.259125
22970.825266	3068.901667	1422.971680	266.459442
22970.825266	3068.901667	1421.896484	254.799454
22970.825266	3068.901667	1420.821289	295.462769
22970.825266	3068.901667	1419.746094	298.876373
22970.825266	3068.901667	1418.669922	302.766541
22970.825266	3068.901667	1417.594727	230.094223
22970.825266	3068.901667	1416.518555	213.765198
22970.825266	3068.901667	1415.442383	143.639252
22970.825266	3068.901667	1414.365234	164.474670
22970.825266	3068.901667	1413.289063	208.632828
22970.825266	3068.901667	1412.211914	205.824677
22970.825266	3068.901667	1411.134766	258.725525
22970.825266	3068.901667	1410.057617	267.007935
22970.825266	3068.901667	1408.979492	305.629150
22970.825266	3068.901667	1407.902344	192.599106
22970.825266	3068.901667	1406.824219	196.299957
22970.825266	3068.901667	1405.746094	308.683197
22970.825266	3068.901667	1404.666992	195.902679
22970.825266	3068.901667	1403.588867	283.609680
22970.825266	3068.901667	1402.509766	290.256226
22970.825266	3068.901667	1401.430664	301.481628
22970.825266	3068.901667	1400.351563	169.169403
22970.825266	3068.901667	1399.271484	261.089478
22970.825266	3068.901667	1398.192383	297.707367
22970.825266	3068.901667	1397.112305	366.614685
22970.825266	3068.901667	1396.031250	281.690887
22970.825266	3068.901667	1394.951172	223.615631
22970.825266	3068.901667	1393.871094	292.600769
22970.825266	3068.901667	1392.790039	297.481812
22970.825266	3068.901667	1391.708984	254.806793
22970.825266	3068.901667	1390.626953	143.455673
22970.825266	3068.901667	1389.545898	232.561935
22970.825266	3068.901667	1388.463867	270.537720
22970.825266	3068.901667	1387.381836	307.302277
22970.825266	3068.901667	1386.299805	300.990753
22970.825266	3068.901667	1385.217773	198.415909
22970.825266	3068.901667	1384.134766	287.175385
22970.825266	3068.901667	1383.051758	286.545685
22970.825266	3068.901667	1381.968750	206.987732
22970.825266	3068.901667	1380.885742	325.240448
22970.825266	3068.901667	1379.802734	258.163879
22970.825266	3068.901667	1378.718750	372.287720
22970.825266	3068.901667	1377.634766	274.148834
22970.825266	3068.901667	1376.550781	294.231506
22970.825266	3068.901667	1375.465820	294.362946
22970.825266	3068.901667	1374.381836	283.339508
22970.825266	3068.901667	1373.296875	267.207214
22970.825266	3068.901667	1372.211914	191.726669
22970.825266	3068.901667	1371.126953	369.193420
22970.825266	3068.901667	1370.041016	307.487000
22970.825266	3068.901667	1368.955078	308.320526
22970.825266	3068.901667	1367.869141	268.991516
22970.825266	3068.901667	1366.783203	317.861481
22970.825266	3068.901667	1365.697266	301.025970
22970.825266	3068.901667	1364.610352	247.181076
22970.825266	3068.901667	1363.523438	279.359375
22970.825266	3068.901667	1362.436523	362.405426
22970.825266	3068.901667	1361.349609	228.793076
22970.825266	3068.901667	1360.261719	264.225525
22970.825266	3068.901667	1359.174805	188.301605
22970.825266	3068.901667	1358.086914	282.943573
22970.825266	3068.901667	1356.998047	220.354034
22970.825266	3068.901667	1355.910156	329.049347
22970.825266	3068.901667	1354.821289	312.301575
22970.825266	3068.901667	1353.732422	264.404175
22970.825266	3068.901667	1352.643555	304.152954
22970.825266	3068.901667	1351.554688	321.673767
22970.825266	3068.901667	1350.464844	281.463531
22970.825266	3068.901667	1349.375000	244.959930
22970.825266	3068.901667	1348.285156	380.072510
22970.825266	3068.901667	1347.195313	347.604126
22970.825266	3068.901667	1346.105469	438.658386
22970.825266	3068.901667	1345.014648	513.825134
22970.825266	3068.901667	1343.923828	488.429810
22970.825266	3068.901667	1342.833008	528.058289
22970.825266	3068.901667	1341.741211	625.720032
22970.825266	3068.901667	1340.650391	741.458130
22970.825266	3068.901667	1339.558594	654.155518
22970.825266	3068.901667	1338.466797	712.396179
22970.825266	3068.901667	1337.374023	594.268616
22970.825266	3068.901667	1336.282227	416.734497
22970.825266	3068.901667	1335.189453	492.914642
22970.825266	3068.901667	1334.096680	458.024475
22970.825266	3068.901667	1333.003906	513.043518
22970.825266	3068.901667	1331.910156	439.107788
22970.825266	3068.901667	1330.817383	397.488525
22970.825266	3068.901667	1329.723633	361.419342
22970.825266	3068.901667	1328.629883	373.369629
22970.825266	3068.901667	1327.535156	431.779938
22970.825266	3068.901667	1326.441406	444.079498
22970.825266	3068.901667	1325.346680	357.000885
22970.825266	3068.901667	1324.251953	402.532410
22970.825266	3068.901667	1323.156250	351.156708
22970.825266	3068.901667	1322.061523	292.568939
22970.825266	3068.901667	1320.965820	318.233551
22970.825266	3068.901667	1319.870117	328.235657
22970.825266	3068.901667	1318.774414	399.551697
22970.825266	3068.901667	1317.678711	352.386780
22970.825266	3068.901667	1316.582031	329.420898
22970.825266	3068.901667	1315.485352	316.796539
22970.825266	3068.901667	1314.388672	369.794189
22970.825266	3068.901667	1313.291016	271.679199
22970.825266	3068.901667	1312.194336	222.107437
22970.825266	3068.901667	1311.096680	223.298416
22970.825266	3068.901667	1309.999023	226.823120
22970.825266	3068.901667	1308.901367	219.364243
22970.825266	3068.901667	1307.802734	266.721558
22970.825266	3068.901667	1306.705078	245.727783
22970.825266	3068.901667	1305.606445	254.906067
22970.825266	3068.901667	1304.506836	224.588562
22970.825266	3068.901667	1303.408203	161.194458
22970.825266	3068.901667	1302.308594	181.285400
22970.825266	3068.901667	1301.208984	191.894608
22970.825266	3068.901667	1300.109375	211.752090
22970.825266	3068.901667	1299.009766	164.361816
22970.825266	3068.901667	1297.909180	91.814026
22970.825266	3068.901667	1296.808594	147.901627
22970.825266	3068.901667	1295.708008	129.711319
22970.825266	3068.901667	1294.607422	109.357414
22970.825266	3068.901667	1293.506836	96.335045
22970.825266	3068.901667	1292.405273	72.912537
22970.825266	3068.901667	1291.303711	-28.084101
22970.825266	3068.901667	1290.202148	106.726753
22970.825266	3068.901667	1289.099609	147.877884
22970.825266	3068.901667	1287.998047	150.465439
22970.825266	3068.901667	1286.895508	107.141891
22970.825266	3068.901667	1285.792969	71.605705
22970.825266	3068.901667	1284.689453	178.873123
22970.825266	3068.901667	1283.586914	98.110474
22970.825266	3068.901667	1282.483398	161.983536
22970.825266	3068.901667	1281.379883	109.947548
22970.825266	3068.901667	1280.276367	67.303787
22970.825266	3068.901667	1279.171875	175.510483
22970.825266	3068.901667	1278.067383	139.743027
22970.825266	3068.901667	1276.962891	189.341263
22970.825266	3068.901667	1275.858398	120.804474
22970.825266	3068.901667	1274.753906	175.656845
22970.825266	3068.901667	1273.648438	115.097908
22970.825266	3068.901667	1272.542969	192.323685
22970.825266	3068.901667	1271.437500	87.880341
22970.825266	3068.901667	1270.331055	101.278709
22970.825266	3068.901667	1269.225586	126.671486
22970.825266	3068.901667	1268.119141	71.425301
22970.825266	3068.901667	1267.012695	162.760300
22970.825266	3068.901667	1265.906250	101.496567
22970.825266	3068.901667	1264.798828	127.192841
22970.825266	3068.901667	1263.691406	97.027962
22970.825266	3068.901667	1262.583984	71.590805
22970.825266	3068.901667	1261.476563	173.975357
22970.825266	3068.901667	1260.368164	176.799759
22970.825266	3068.901667	1259.260742	159.709122
22970.825266	3068.901667	1258.152344	156.030289
22970.825266	3068.901667	1257.043945	34.146091
22970.825266	3068.901667	1255.934570	97.447189
22970.825266	3068.901667	1254.825195	84.853752
22970.825266	3068.901667	1253.716797	139.208527
22970.825266	3068.901667	1252.606445	151.523819
22970.825266	3068.901667	1251.497070	215.297073
22970.825266	3068.901667	1250.387695	276.912842
22970.825266	3068.901667	1249.277344	337.389069
22970.825266	3068.901667	1248.166992	428.478302
22970.825266	3068.901667	1247.055664	429.505188
22970.825266	3068.901667	1245.945313	532.157715
22970.825266	3068.901667	1244.833984	427.726837
22970.825266	3068.901667	1243.722656	407.006470
22970.825266	3068.901667	1242.611328	298.551727
22970.825266	3068.901667	1241.499023	192.266571
22970.825266	3068.901667	1240.387695	254.245941
22970.825266	3068.901667	1239.275391	162.839249
22970.825266	3068.901667	1238.162109	85.619278
22970.825266	3068.901667	1237.049805	35.362286
22970.825266	3068.901667	1235.936523	59.013206
22970.825266	3068.901667	1234.823242	75.391930
22970.825266	3068.901667	1233.709961	47.635170
22970.825266	3068.901667	1232.596680	59.789063
22970.825266	3068.901667	1231.482422	33.410957
22970.825266	3068.901667	1230.369141	8.961342
22970.825266	3068.901667	1229.253906	23.847399
22970.825266	3068.901667	1228.139648	18.437086
22970.825266	3068.901667	1227.025391	-43.584801
22970.825266	3068.901667	1225.910156	-9.142576
22970.825266	3068.901667	1224.794922	-14.204256
22970.825266	3068.901667	1223.679688	2.086842
22970.825266	3068.901667	1222.563477	-44.763641
22970.825266	3068.901667	1221.447266	-20.349239
22970.825266	3068.901667	1220.331055	-28.007841
22970.825266	3068.901667	1219.214844	-7.039992
22970.825266	3068.901667	1218.098633	58.010117
22970.825266	3068.901667	1216.981445	-4.267867
22970.825266	3068.901667	1215.864258	9.233189
22970.825266	3068.901667	1214.747070	54.424900
22970.825266	3068.901667	1213.629883	7.036513
22970.825266	3068.901667	1212.511719	41.034161
22970.825266	3068.901667	1211.393555	53.140186
22970.825266	3068.901667	1210.275391	-3.130028
22970.825266	3068.901667	1209.157227	38.629280
22970.825266	3068.901667	1208.038086	113.083717
22970.825266	3068.901667	1206.918945	107.099167
22970.825266	3068.901667	1205.799805	53.901718
22970.825266	3068.901667	1204.680664	104.066551
22970.825266	3068.901667	1203.560547	83.209007
22970.825266	3068.901667	1202.441406	93.997108
22970.825266	3068.901667	1201.321289	57.667858
22970.825266	3068.901667	1200.200195	24.057943
22970.825266	3068.901667	1199.080078	95.470879
22970.825266	3068.901667	1197.958984	54.248665
22970.825266	3068.901667	1196.837891	50.774998
22970.825266	3068.901667	1195.716797	-9.213551
22970.825266	3068.901667	1194.594727	93.923515
22970.825266	3068.901667	1193.473633	17.369585
22970.825266	3068.901667	1192.351563	-17.592653
22970.825266	3068.901667	1191.229492	-38.792885
22970.825266	3068.901667	1190.106445	26.382771
22970.825266	3068.901667	1188.984375	29.655312
22970.825266	3068.901667	1187.861328	6.865282
22970.825266	3068.901667	1186.738281	-18.788433
22970.825266	3068.901667	1185.614258	8.471619
22970.825266	3068.901667	1184.491211	60.946526
22970.825266	3068.901667	1183.367188	12.758322
22970.825266	3068.901667	1182.243164	5.028017
22970.825266	3068.901667	1181.119141	14.726333
22970.825266	3068.901667	1179.994141	-15.540428
22970.825266	3068.901667	1178.869141	-69.824341
22970.825266	3068.901667	1177.744141	-72.222794
22970.825266	3068.901667	1176.619141	-81.682304
22970.825266	3068.901667	1175.493164	-36.240372
22970.825266	3068.901667	1174.368164	-96.660072
22970.825266	3068.901667	1173.242188	-110.102600
22970.825266	3068.901667	1172.115234	-120.125572
22970.825266	3068.901667	1170.989258	-84.386803
22970.825266	3068.901667	1169.862305	-57.003567
22970.825266	3068.901667	1168.735352	-46.995445
22970.825266	3068.901667	1167.608398	1.322172
22970.825266	3068.901667	1166.481445	-84.394684
22970.825266	3068.901667	1165.353516	-93.424019
22970.825266	3068.901667	1164.225586	-3.615207
22970.825266	3068.901667	1163.097656	30.063517
22970.825266	3068.901667	1161.968750	61.001377
22970.825266	3068.901667	1160.840820	188.728622
22970.825266	3068.901667	1159.711914	168.929672
22970.825266	3068.901667	1158.583008	193.853317
22970.825266	3068.901667	1157.453125	140.325272
22970.825266	3068.901667	1156.324219	88.965698
22970.825266	3068.901667	1155.194336	36.199680
22970.825266	3068.901667	1154.064453	12.179609
22970.825266	3068.901667	1152.933594	32.839100
22970.825266	3068.901667	1151.803711	-24.356184
22970.825266	3068.901667	1150.672852	39.743900
22970.825266	3068.901667	1149.541992	-25.935524
22970.825266	3068.901667	1148.411133	-6.994504
22970.825266	3068.901667	1147.279297	81.721497
22970.825266	3068.901667	1146.147461	40.307304
22970.825266	3068.901667	1145.015625	111.300331
22970.825266	3068.901667	1143.883789	39.875683
22970.825266	3068.901667	1142.750977	54.423950
22970.825266	3068.901667	1141.619141	106.894592
22970.825266	3068.901667	1140.486328	26.784555
22970.825266	3068.901667	1139.352539	49.656612
22970.825266	3068.901667	1138.219727	118.436600
22970.825266	3068.901667	1137.085938	-19.986252
22970.825266	3068.901667	1135.952148	23.484674
22970.825266	3068.901667	1134.818359	-16.842930
22970.825266	3068.901667	1133.683594	-30.576332
22970.825266	3068.901667	1132.549805	-70.869194
22970.825266	3068.901667	1131.415039	-46.223240
22970.825266	3068.901667	1130.279297	1.064220
22970.825266	3068.901667	1129.144531	-9.818864
22970.825266	3068.901667	1128.008789	34.817139
22970.825266	3068.901667	1126.873047	26.525970
22970.825266	3068.901667	1125.737305	-79.125145
22970.825266	3068.901667	1124.601563	3.501577
22970.825266	3068.901667	1123.464844	-122.003700
22970.825266	3068.901667	1122.328125	-100.672386
22970.825266	3068.901667	1121.191406	-63.922359
22970.825266	3068.901667	1120.054688	-36.591415
22970.825266	3068.901667	1118.916992	-64.700508
22970.825266	3068.901667	1117.779297	3.021484
22970.825266	3068.901667	1116.641602	-32.253456
22970.825266	3068.901667	1115.503906	57.302406
22970.825266	3068.901667	1114.365234	-18.695686
22970.825266	3068.901667	1113.226563	-89.015869
22970.825266	3068.901667	1112.087891	-130.863098
22970.825266	3068.901667	1110.949219	-70.637428
22970.825266	3068.901667	1109.809570	33.218731
22970.825266	3068.901667	1108.669922	-53.330757
22970.825266	3068.901667	1107.530273	-10.080706
22970.825266	3068.901667	1106.390625	-19.875229
22970.825266	3068.901667	1105.250000	0.433052
22970.825266	3068.901667	1104.109375	-11.613819
22970.825266	3068.901667	1102.968750	48.032131
22970.825266	3068.901667	1101.828125	58.853210
22970.825266	3068.901667	1100.686523	41.213554
22970.825266	3068.901667	1099.544922	-2.359390
22970.825266	3068.901667	1098.403320	144.606689
22970.825266	3068.901667	1097.261719	94.466148
22970.825266	3068.901667	1096.120117	59.189857
22970.825266	3068.901667	1094.977539	108.596710
22970.825266	3068.901667	1093.834961	104.995010
22970.825266	3068.901667	1092.691406	49.435570
22970.825266	3068.901667	1091.548828	75.227074
22970.825266	3068.901667	1090.405273	43.948311
22970.825266	3068.901667	1089.261719	75.265793
22970.825266	3068.901667	1088.118164	45.367405
22970.825266	3068.901667	1086.973633	55.635952
22970.825266	3068.901667	1085.829102	0.163036
22970.825266	3068.901667	1084.684570	63.874592
22970.825266	3068.901667	1083.540039	65.803253
22970.825266	3068.901667	1082.395508	47.100788
22970.825266	3068.901667	1081.250000	70.133820
22970.825266	3068.901667	1080.104492	91.892960
22970.825266	3068.901667	1078.958984	32.603962
22970.825266	3068.901667	1077.812500	-1.277970
22970.825266	3068.901667	1076.666016	-34.631557
22970.825266	3068.901667	1075.519531	5.568765
22970.825266	3068.901667	1074.373047	-63.814281
22970.825266	3068.901667	1073.226563	13.204103
22970.825266	3068.901667	1072.079102	66.825394
22970.825266	3068.901667	1070.931641	16.407536
22970.825266	3068.901667	1069.784180	-0.794660
22970.825266	3068.901667	1068.635742	-74.552895
22970.825266	3068.901667	1067.487305	47.644630
22970.825266	3068.901667	1066.338867	23.509041
22970.825266	3068.901667	1065.190430	77.367432
22970.825266	3068.901667	1064.041992	-4.599094
22970.825266	3068.901667	1062.892578	33.339161
22970.825266	3068.901667	1061.743164	-16.877703
22970.825266	3068.901667	1060.593750	28.870394
22970.825266	3068.901667	1059.443359	3.237906
22970.825266	3068.901667	1058.292969	43.532421
22970.825266	3068.901667	1057.142578	54.117920
22970.825266	3068.901667	1055.992188	106.823463
22970.825266	3068.901667	1054.841797	21.466654
22970.825266	3068.901667	1053.690430	32.494358
22970.825266	3068.901667	1052.539063	-38.483746
22970.825266	3068.901667	1051.387695	44.849457
22970.825266	3068.901667	1050.235352	12.317993
22970.825266	3068.901667	1049.083984	44.838173
22970.825266	3068.901667	1047.931641	122.771202
22970.825266	3068.901667	1046.778320	81.846016
22970.825266	3068.901667	1045.625977	70.992455
22970.825266	3068.901667	1044.472656	238.540634
22970.825266	3068.901667	1043.319336	-13.334701
22970.825266	3068.901667	1042.166016	45.693119
22970.825266	3068.901667	1041.012695	67.759331
22970.825266	3068.901667	1039.858398	67.085297
22970.825266	3068.901667	1038.704102	33.092201
22970.825266	3068.901667	1037.549805	131.854492
22970.825266	3068.901667	1036.394531	127.471428
22970.825266	3068.901667	1035.239258	111.383278
22970.825266	3068.901667	1034.083984	41.585651
22970.825266	3068.901667	1032.928711	114.475525
22970.825266	3068.901667	1031.773438	60.650566
22970.825266	3068.901667	1030.617188	24.350092
22970.825266	3068.901667	1029.460938	100.211975
22970.825266	3068.901667	1028.304688	77.825821
22970.825266	3068.901667	1027.147461	161.194092
22970.825266	3068.901667	1025.991211	149.545563
22970.825266	3068.901667	1024.833984	-10.784825
22970.825266	3068.901667	1023.675781	102.028603
22970.825266	3068.901667	1022.518555	162.690536
22970.825266	3068.901667	1021.360352	87.958450
22970.825266	3068.901667	1020.202148	113.326324
22970.825266	3068.901667	1019.043945	70.045166
22970.825266	3068.901667	1017.884766	63.541386
22970.825266	3068.901667	1016.726563	92.087959
22970.825266	3068.901667	1015.567383	135.602386
22970.825266	3068.901667	1014.407227	75.764580
22970.825266	3068.901667	1013.248047	27.592972
22970.825266	3068.901667	1012.087891	12.280856
22970.825266	3068.901667	1010.927734	110.962959
22970.825266	3068.901667	1009.767578	7.860034
22970.825266	3068.901667	1008.606445	150.998978
22970.825266	3068.901667	1007.446289	41.764580
22970.825266	3068.901667	1006.285156	50.727684
22970.825266	3068.901667	1005.123047	27.526960
22970.825266	3068.901667	1003.961914	-2.935112
22970.825266	3068.901667	1002.799805	-25.154198
22970.825266	3068.901667	1001.637695	-38.208805
22970.825266	3068.901667	1000.475586	28.500484
22970.825266	3068.901667	999.312500	-17.469507
22970.825266	3068.901667	998.149414	-28.917456
22970.825266	3068.901667	996.986328	11.506067
22970.825266	3068.901667	995.823242	15.568946
22970.825266	3068.901667	994.659180	-8.228694
22970.825266	3068.901667	993.496094	-90.731163
22970.825266	3068.901667	992.332031	32.975536
22970.825266	3068.901667	991.166992	71.799385
22970.825266	3068.901667	990.002930	17.493822
22970.825266	3068.901667	988.837891	-4.796772
22970.825266	3068.901667	987.672852	1.227464
22970.825266	3068.901667	986.506836	29.841707
22970.825266	3068.901667	985.341797	-3.778113
22970.825266	3068.901667	984.175781	47.424866
22970.825266	3068.901667	983.009766	-10.428872
22970.825266	3068.901667	981.843750	-0.416397
22970.825266	3068.901667	980.676758	-11.852437
22970.825266	3068.901667	979.509766	110.292229
22970.825266	3068.901667	978.342773	42.347515
22970.825266	3068.901667	977.175781	26.503210
22970.825266	3068.901667	976.007813	1.850779
22970.825266	3068.901667	974.839844	65.751778
22970.825266	3068.901667	973.671875	90.378181
22970.825266	3068.901667	972.503906	8.681727
22970.825266	3068.901667	971.334961	5.161311
22970.825266	3068.901667	970.166016	-60.638836
22970.825266	3068.901667	968.997070	68.783585
22970.825266	3068.901667	967.828125	34.434765
22970.825266	3068.901667	966.658203	39.841129
22970.825266	3068.901667	965.488281	-3.529192
22970.825266	3068.901667	964.318359	63.212078
22970.825266	3068.901667	963.148438	-14.002102
22970.825266	3068.901667	961.977539	-26.874844
22970.825266	3068.901667	960.806641	108.470238
22970.825266	3068.901667	959.635742	59.841587
22970.825266	3068.901667	958.463867	29.858080
22970.825266	3068.901667	957.292969	-37.714558
22970.825266	3068.901667	956.121094	173.076141
22970.825266	3068.901667	954.948242	131.730255
22970.825266	3068.901667	953.776367	172.901520
22970.825266	3068.901667	952.603516	105.383636
22970.825266	3068.901667	951.430664	325.065308
22970.825266	3068.901667	950.257813	415.596558
22970.825266	3068.901667	949.084961	267.308075
22970.825266	3068.901667	947.911133	277.305145
22970.825266	3068.901667	946.737305	133.756088
22970.825266	3068.901667	945.563477	63.290909
22970.825266	3068.901667	944.388672	85.225594
22970.825266	3068.901667	943.213867	199.477737
22970.825266	3068.901667	942.039063	252.121689
22970.825266	3068.901667	940.864258	229.239807
22970.825266	3068.901667	939.688477	260.399292
22970.825266	3068.901667	938.513672	232.707077
22970.825266	3068.901667	937.337891	174.132828
22970.825266	3068.901667	936.161133	193.533829
22970.825266	3068.901667	934.985352	116.075165
22970.825266	3068.901667	933.808594	-1.600926
22970.825266	3068.901667	932.631836	117.058022
22970.825266	3068.901667	931.454102	183.719208
22970.825266	3068.901667	930.277344	125.110832
22970.825266	3068.901667	929.099609	111.408218
22970.825266	3068.901667	927.921875	69.327705
22970.825266	3068.901667	926.743164	10.754713
22970.825266	3068.901667	925.565430	79.703896
22970.825266	3068.901667	924.386719	44.742348
22970.825266	3068.901667	923.208008	35.737572
22970.825266	3068.901667	922.028320	165.987061
22970.825266	3068.901667	920.849609	-17.698807
22970.825266	3068.901667	919.669922	-16.820385
22970.825266	3068.901667	919.474609	20.615210
22970.825266	3068.901667	918.309570	30.437021
22970.825266	3068.901667	917.143555	33.169075
22970.825266	3068.901667	915.977539	31.172579
22970.825266	3068.901667	914.810547	-27.415442
22970.825266	3068.901667	913.644531	-22.349180
22970.825266	3068.901667	912.477539	36.907013
22970.825266	3068.901667	911.310547	-64.089333
22970.825266	3068.901667	910.143555	13.975375
22970.825266	3068.901667	908.975586	30.763502
22970.825266	3068.901667	907.807617	-65.491119
22970.825266	3068.901667	906.639648	40.746288
22970.825266	3068.901667	905.471680	22.181646
22970.825266	3068.901667	904.303711	-85.809448
22970.825266	3068.901667	903.134766	-59.656960
22970.825266	3068.901667	901.965820	-5.297421
22970.825266	3068.901667	900.796875	-42.691174
22970.825266	3068.901667	899.626953	35.137314
22970.825266	3068.901667	898.457031	-2.268007
22970.825266	3068.901667	897.287109	-11.462934
22970.825266	3068.901667	896.117188	0.485742
22970.825266	3068.901667	894.947266	80.553719
22970.825266	3068.901667	893.776367	59.575359
22970.825266	3068.901667	892.605469	-41.251522
22970.825266	3068.901667	891.434570	19.965508
22970.825266	3068.901667	890.262695	20.113535
22970.825266	3068.901667	889.091797	60.151840
22970.825266	3068.901667	887.919922	-12.468998
22970.825266	3068.901667	886.748047	-78.030640
22970.825266	3068.901667	885.575195	37.037567
22970.825266	3068.901667	884.403320	16.032848
22970.825266	3068.901667	883.230469	-65.931686
22970.825266	3068.901667	882.057617	56.071079
22970.825266	3068.901667	880.883789	-35.258846
22970.825266	3068.901667	879.710938	126.506187
22970.825266	3068.901667	878.537109	46.896713
22970.825266	3068.901667	877.362305	-107.639435
22970.825266	3068.901667	876.188477	-72.437515
22970.825266	3068.901667	875.013672	40.005138
22970.825266	3068.901667	873.839844	44.716583
22970.825266	3068.901667	872.664063	-51.214695
22970.825266	3068.901667	871.489258	-34.801811
22970.825266	3068.901667	870.313477	12.009355
22970.825266	3068.901667	869.138672	-4.356611
22970.825266	3068.901667	867.962891	72.813805
22970.825266	3068.901667	866.786133	47.076832
22970.825266	3068.901667	865.610352	-2.031597
22970.825266	3068.901667	864.433594	18.983009
22970.825266	3068.901667	863.256836	72.692863
22970.825266	3068.901667	862.079102	9.573253
22970.825266	3068.901667	860.902344	25.880869
22970.825266	3068.901667	859.724609	30.500038
22970.825266	3068.901667	858.546875	77.133362
22970.825266	3068.901667	857.368164	11.704348
22970.825266	3068.901667	856.190430	18.637690
22970.825266	3068.901667	855.011719	13.896279
22970.825266	3068.901667	853.833008	-37.502563
22970.825266	3068.901667	852.654297	-35.246517
22970.825266	3068.901667	851.474609	-19.006832
22970.825266	3068.901667	850.294922	50.838066
22970.825266	3068.901667	849.115234	-44.834805
22970.825266	3068.901667	847.935547	-49.593975
22970.825266	3068.901667	846.754883	-3.101215
22970.825266	3068.901667	845.575195	-80.087746
22970.825266	3068.901667	844.393555	43.232246
22970.825266	3068.901667	843.212891	-15.116388
22970.825266	3068.901667	842.032227	56.914299
22970.825266	3068.901667	840.850586	142.874420
22970.825266	3068.901667	839.668945	96.159042
22970.825266	3068.901667	838.486328	233.246490
22970.825266	3068.901667	837.304688	79.526184
22970.825266	3068.901667	836.122070	144.459625
22970.825266	3068.901667	834.939453	127.985573
22970.825266	3068.901667	833.756836	85.943176
22970.825266	3068.901667	832.573242	25.320278
22970.825266	3068.901667	831.389648	118.072968
22970.825266	3068.901667	830.206055	92.304314
22970.825266	3068.901667	829.022461	147.832474
22970.825266	3068.901667	827.838867	122.057884
22970.825266	3068.901667	826.654297	19.674383
22970.825266	3068.901667	825.469727	-8.394621
22970.825266	3068.901667	824.284180	93.502228
22970.825266	3068.901667	823.099609	23.655569
22970.825266	3068.901667	821.914063	95.336830
22970.825266	3068.901667	820.728516	-25.515202
22970.825266	3068.901667	819.542969	-74.440048
22970.825266	3068.901667	818.356445	-49.163818
22970.825266	3068.901667	817.169922	-37.809975
22970.825266	3068.901667	815.983398	36.102951
22970.825266	3068.901667	814.796875	-3.546601
22970.825266	3068.901667	813.609375	-43.184475
22970.825266	3068.901667	812.422852	-71.231644
22970.825266	3068.901667	811.235352	-87.694603
22970.825266	3068.901667	810.046875	-94.895615
22970.825266	3068.901667	808.859375	-62.752708
22970.825266	3068.901667	807.670898	-0.545844
22970.825266	3068.901667	806.482422	-49.418476
22970.825266	3068.901667	805.293945	-75.145500
22970.825266	3068.901667	804.104492	-31.489721
22970.825266	3068.901667	802.915039	58.385147
22970.825266	3068.901667	801.725586	34.948833
22970.825266	3068.901667	800.536133	-13.905112
22970.825266	3068.901667	799.345703	48.167664
22970.825266	3068.901667	798.155273	68.626747
22970.825266	3068.901667	796.964844	59.046356
22970.825266	3068.901667	795.774414	65.629601
22970.825266	3068.901667	794.583008	37.574078
22970.825266	3068.901667	793.392578	111.088554
22970.825266	3068.901667	792.200195	48.408669
22970.825266	3068.901667	791.008789	-58.089184
22970.825266	3068.901667	789.816406	-76.888481
22970.825266	3068.901667	788.625000	1.181722
22970.825266	3068.901667	787.432617	-54.526127
22970.825266	3068.901667	786.239258	-15.694930
22970.825266	3068.901667	785.046875	59.993744
22970.825266	3068.901667	783.853516	45.772923
22970.825266	3068.901667	782.660156	22.337080
22970.825266	3068.901667	781.465820	19.636932
22970.825266	3068.901667	780.272461	-75.187538
22970.825266	3068.901667	779.078125	32.644268
22970.825266	3068.901667	777.883789	59.854424
22970.825266	3068.901667	776.688477	-46.443054
22970.825266	3068.901667	775.494141	-90.572502
22970.825266	3068.901667	774.298828	17.151409
22970.825266	3068.901667	773.103516	-33.884186
22970.825266	3068.901667	771.907227	-34.311882
22970.825266	3068.901667	770.711914	15.837228
22970.825266	3068.901667	769.515625	-51.274269
22970.825266	3068.901667	768.318359	54.003468
22970.825266	3068.901667	767.122070	9.878133
22970.825266	3068.901667	765.924805	-45.721111
22970.825266	3068.901667	764.727539	-27.805805
22970.825266	3068.901667	763.530273	15.355690
22970.825266	3068.901667	762.333008	122.776505
22970.825266	3068.901667	761.134766	67.176041
22970.825266	3068.901667	759.936523	98.798149
22970.825266	3068.901667	758.738281	13.386424
22970.825266	3068.901667	757.540039	51.875858
22970.825266	3068.901667	756.340820	120.157715
22970.825266	3068.901667	755.141602	94.392845
22970.825266	3068.901667	753.942383	34.245239
22970.825266	3068.901667	752.742188	180.396912
22970.825266	3068.901667	751.541992	356.271179
22970.825266	3068.901667	750.341797	250.265442
22970.825266	3068.901667	749.141602	187.817856
22970.825266	3068.901667	747.941406	79.587524
22970.825266	3068.901667	746.740234	85.876785
22970.825266	3068.901667	745.539063	71.553802
22970.825266	3068.901667	744.337891	-18.296289
22970.825266	3068.901667	743.135742	-16.588467
22970.825266	3068.901667	741.933594	58.318401
22970.825266	3068.901667	740.731445	16.537510
22970.825266	3068.901667	739.529297	86.817810
22970.825266	3068.901667	738.326172	63.323650
22970.825266	3068.901667	737.124023	10.116468
22970.825266	3068.901667	735.919922	36.909908
22970.825266	3068.901667	734.716797	-7.145824
22970.825266	3068.901667	733.513672	-3.218911
22970.825266	3068.901667	732.309570	50.943832
22970.825266	3068.901667	731.105469	68.541191
22970.825266	3068.901667	729.900391	86.122719
22970.825266	3068.901667	728.696289	42.062675
22970.825266	3068.901667	727.491211	4.858198
22970.825266	3068.901667	726.286133	-0.397617
22970.825266	3068.901667	725.080078	-14.784393
22970.825266	3068.901667	723.874023	103.098595
22970.825266	3068.901667	722.668945	8.876698
22970.825266	3068.901667	721.461914	14.987457
22970.825266	3068.901667	720.255859	-3.983647
22970.825266	3068.901667	719.048828	72.747292
22970.825266	3068.901667	717.841797	-46.485382
22970.825266	3068.901667	716.634766	-95.068962
22970.825266	3068.901667	715.427734	-34.335079
22970.825266	3068.901667	714.219727	-23.724512
22970.825266	3068.901667	713.011719	-8.575244
22970.825266	3068.901667	711.803711	-23.027258
22970.825266	3068.901667	710.594727	55.804573
22970.825266	3068.901667	709.385742	16.302505
22970.825266	3068.901667	708.176758	10.922499
22970.825266	3068.901667	706.967773	7.808507
22970.825266	3068.901667	705.758789	-36.235359
22970.825266	3068.901667	704.548828	-25.721230
22970.825266	3068.901667	703.338867	75.676308
22970.825266	3068.901667	702.127930	54.334267
22970.825266	3068.901667	700.917969	85.235397
22970.825266	3068.901667	699.707031	57.066193
22970.825266	3068.901667	698.496094	33.439198
22970.825266	3068.901667	697.285156	34.782310
22970.825266	3068.901667	696.073242	-16.087065
22970.825266	3068.901667	694.861328	35.164108
22970.825266	3068.901667	693.649414	-76.958885
22970.825266	3068.901667	692.436523	-30.275381
22970.825266	3068.901667	691.224609	-62.990963
22970.825266	3068.901667	690.011719	8.586584
22970.825266	3068.901667	688.798828	39.321842
22970.825266	3068.901667	687.584961	106.291924
22970.825266	3068.901667	686.372070	5.555967
22970.825266	3068.901667	685.158203	74.747040
22970.825266	3068.901667	683.943359	55.569149
22970.825266	3068.901667	682.729492	36.387867
22970.825266	3068.901667	681.514648	110.020798
22970.825266	3068.901667	680.299805	237.931946
22970.825266	3068.901667	679.084961	112.331200
22970.825266	3068.901667	677.869141	127.041466
22970.825266	3068.901667	676.653320	89.708183
22970.825266	3068.901667	675.437500	93.085190
22970.825266	3068.901667	674.221680	60.272038
22970.825266	3068.901667	673.004883	108.838898
22970.825266	3068.901667	671.789063	109.912048
22970.825266	3068.901667	670.571289	27.366955
22970.825266	3068.901667	669.354492	143.645157
22970.825266	3068.901667	668.136719	-38.277477
22970.825266	3068.901667	666.919922	100.521530
22970.825266	3068.901667	665.701172	-38.445740
22970.825266	3068.901667	664.483398	79.953308
22970.825266	3068.901667	663.264648	-4.815804
22970.825266	3068.901667	662.045898	-17.362375
22970.825266	3068.901667	660.827148	80.615791
22970.825266	3068.901667	659.608398	77.051270
22970.825266	3068.901667	658.388672	105.041992
22970.825266	3068.901667	657.168945	58.614193
22970.825266	3068.901667	655.949219	-10.345925
22970.825266	3068.901667	654.728516	76.192642
22970.825266	3068.901667	653.507813	52.288647
22970.825266	3068.901667	652.287109	138.750656
22970.825266	3068.901667	651.066406	8.974647
22970.825266	3068.901667	649.844727	32.339977
22970.825266	3068.901667	648.623047	82.694031
22970.825266	3068.901667	647.401367	157.768967
22970.825266	3068.901667	646.179688	77.544762
22970.825266	3068.901667	644.957031	114.318214
22970.825266	3068.901667	643.734375	25.112803
22970.825266	3068.901667	642.511719	3.390182
22970.825266	3068.901667	641.289063	6.392787
22970.825266	3068.901667	640.065430	45.342453
22970.825266	3068.901667	638.841797	138.194824
22970.825266	3068.901667	637.618164	1.828331
22970.825266	3068.901667	636.393555	-4.212707
22970.825266	3068.901667	635.168945	34.650688
22970.825266	3068.901667	633.944336	55.521564
22970.825266	3068.901667	632.719727	9.025191
22970.825266	3068.901667	631.494141	2.932428
22970.825266	3068.901667	630.269531	77.608856
22970.825266	3068.901667	629.042969	66.989052
22970.825266	3068.901667	627.817383	72.061852
22970.825266	3068.901667	626.590820	59.178246
22970.825266	3068.901667	625.365234	-14.245553
22970.825266	3068.901667	624.137695	26.662666
22970.825266	3068.901667	622.911133	56.335732
22970.825266	3068.901667	621.683594	25.487598
22970.825266	3068.901667	620.456055	43.920559
22970.825266	3068.901667	619.228516	30.978182
22970.825266	3068.901667	618.000977	15.788961
22970.825266	3068.901667	616.772461	94.614891
22970.825266	3068.901667	615.543945	5.532011
22970.825266	3068.901667	614.314453	-2.970162
22970.825266	3068.901667	613.085938	10.891288
22970.825266	3068.901667	611.856445	26.970087
22970.825266	3068.901667	610.626953	-24.058802
22970.825266	3068.901667	609.397461	36.710972
22970.825266	3068.901667	608.166992	108.617790
22970.825266	3068.901667	606.936523	30.747299
22970.825266	3068.901667	605.706055	140.584244
22970.825266	3068.901667	604.474609	31.440115
22970.825266	3068.901667	603.244141	-17.366568
22970.825266	3068.901667	602.012695	92.373268
22970.825266	3068.901667	600.780273	45.780586
22970.825266	3068.901667	599.548828	-83.386353
22970.825266	3068.901667	598.316406	86.512161
22970.825266	3068.901667	597.083984	104.616081
22970.825266	3068.901667	595.851563	66.936798
22970.825266	3068.901667	594.618164	0.269926
22970.825266	3068.901667	593.384766	-15.098061
22970.825266	3068.901667	592.151367	14.112064
22970.825266	3068.901667	590.917969	3.183433
22970.825266	3068.901667	589.683594	50.180687
22970.825266	3068.901667	588.449219	-27.604757
22970.825266	3068.901667	587.214844	77.266747
22970.825266	3068.901667	585.979492	15.074667
22970.825266	3068.901667	584.745117	-20.383654
22970.825266	3068.901667	583.509766	26.517441
22970.825266	3068.901667	582.273438	8.852846
22970.825266	3068.901667	581.038086	-68.883514
22970.825266	3068.901667	579.801758	-70.967621
22970.825266	3068.901667	578.565430	-15.237351
22970.825266	3068.901667	577.329102	-1.785008
22970.825266	3068.901667	576.091797	-37.253490
22970.825266	3068.901667	574.854492	31.742744
22970.825266	3068.901667	573.617188	2.932208
22970.825266	3068.901667	572.378906	-94.742798
22970.825266	3068.901667	571.141602	3.072632
22970.825266	3068.901667	569.903320	49.764076
22970.825266	3068.901667	568.664063	45.364502
22970.825266	3068.901667	567.425781	36.522053
22970.825266	3068.901667	566.186523	45.429195
22970.825266	3068.901667	564.947266	112.013054
22970.825266	3068.901667	563.708008	98.706024
22970.825266	3068.901667	562.467773	7.776353
22970.825266	3068.901667	561.227539	38.830868
22970.825266	3068.901667	559.987305	85.385002
22970.825266	3068.901667	558.747070	105.318436
22970.825266	3068.901667	557.505859	12.228518
22970.825266	3068.901667	556.264648	45.451599
22970.825266	3068.901667	555.023438	41.003124
22970.825266	3068.901667	553.781250	-29.881620
22970.825266	3068.901667	552.539063	14.387403
22970.825266	3068.901667	551.296875	-7.770300
22970.825266	3068.901667	550.054688	45.321613
22970.825266	3068.901667	548.811523	38.648441
22970.825266	3068.901667	547.569336	80.643394
22970.825266	3068.901667	546.325195	100.499992
22970.825266	3068.901667	545.082031	206.582260
22970.825266	3068.901667	543.837891	9.757210
22970.825266	3068.901667	542.593750	69.396889
22970.825266	3068.901667	541.349609	31.783371
22970.825266	3068.901667	540.105469	-72.090561
22970.825266	3068.901667	538.860352	25.076323
22970.825266	3068.901667	537.615234	-10.295082
22970.825266	3068.901667	536.369141	-10.326143
22970.825266	3068.901667	535.124023	-16.976694
22970.825266	3068.901667	533.877930	-39.071598
22970.825266	3068.901667	532.631836	-34.678238
22970.825266	3068.901667	531.384766	-32.491451
22970.825266	3068.901667	530.138672	-21.479393
22970.825266	3068.901667	528.891602	82.138824
22970.825266	3068.901667	527.643555	-12.690401
22970.825266	3068.901667	526.396484	-81.025314
22970.825266	3068.901667	525.148438	-34.742493
22970.825266	3068.901667	523.900391	29.149504
22970.825266	3068.901667	522.652344	-72.176613
22970.825266	3068.901667	521.403320	-1.688096
22970.825266	3068.901667	520.154297	-32.500713
22970.825266	3068.901667	518.905273	-58.891453
22970.825266	3068.901667	517.656250	-39.049171
22970.825266	3068.901667	516.406250	-39.012157
22970.825266	3068.901667	515.156250	-80.763634
22970.825266	3068.901667	513.906250	-89.500023
22970.825266	3068.901667	512.655273	-126.810875
22970.825266	3068.901667	511.404297	-113.534912
22970.825266	3068.901667	510.153320	-40.913239
22970.825266	3068.901667	508.902344	-71.592018
22970.825266	3068.901667	507.650391	-38.538452
22970.825266	3068.901667	506.398438	-47.222164
22970.825266	3068.901667	505.146484	-66.872330
22970.825266	3068.901667	503.893555	-44.789879
22970.825266	3068.901667	502.641602	-7.339764
22970.825266	3068.901667	501.388672	65.217369
22970.825266	3068.901667	500.134766	-26.804916
22970.825266	3068.901667	498.881836	72.071625
22970.825266	3068.901667	497.627930	-8.923146
22970.825266	3068.901667	496.374023	17.570877
22970.825266	3068.901667	495.119141	35.295986
22970.825266	3068.901667	493.865234	-36.834625
22970.825266	3068.901667	492.610352	-45.375217
22970.825266	3068.901667	491.355469	-3.510445
22970.825266	3068.901667	490.099609	27.397257
22970.825266	3068.901667	488.843750	-42.428604
22970.825266	3068.901667	487.587891	43.236309
22970.825266	3068.901667	486.332031	50.077251
22970.825266	3068.901667	485.075195	-105.016502
22970.825266	3068.901667	483.818359	-52.171135
22970.825266	3068.901667	482.561523	42.228741
22970.825266	3068.901667	481.304688	-18.676580
22970.825266	3068.901667	480.046875	58.211643
22970.825266	3068.901667	478.789063	78.243675
22970.825266	3068.901667	477.531250	85.168411
22970.825266	3068.901667	476.272461	116.141220
22970.825266	3068.901667	475.013672	-14.549971
22970.825266	3068.901667	473.754883	20.830496
22970.825266	3068.901667	472.496094	16.903751
22970.825266	3068.901667	471.236328	6.443803
22970.825266	3068.901667	469.976563	57.122246
22970.825266	3068.901667	468.716797	51.054054
22970.825266	3068.901667	467.456055	23.184597
22970.825266	3068.901667	466.196289	25.882771
22970.825266	3068.901667	464.935547	56.946308
22970.825266	3068.901667	463.673828	50.943752
22970.825266	3068.901667	462.413086	55.859322
22970.825266	3068.901667	461.151367	130.531296
22970.825266	3068.901667	459.889648	52.653915
22970.825266	3068.901667	458.626953	40.181042
22970.825266	3068.901667	457.364258	71.289520
22970.825266	3068.901667	456.101563	117.642418
22970.825266	3068.901667	454.838867	116.091988
22970.825266	3068.901667	453.575195	127.615189
22970.825266	3068.901667	452.312500	119.561813
22970.825266	3068.901667	451.047852	155.038162
22970.825266	3068.901667	449.784180	257.945435
22970.825266	3068.901667	448.519531	158.564209
22970.825266	3068.901667	447.254883	65.760719
22970.825266	3068.901667	445.990234	138.220963
22970.825266	3068.901667	444.725586	15.056432
22970.825266	3068.901667	443.459961	48.404068
22970.825266	3068.901667	442.194336	73.057137
22970.825266	3068.901667	440.927734	-26.094812
22970.825266	3068.901667	439.662109	57.211029
22970.825266	3068.901667	438.395508	42.790966
22970.825266	3068.901667	437.127930	152.105164
22970.825266	3068.901667	435.861328	76.920662
22970.825266	3068.901667	434.593750	36.487015
22970.825266	3068.901667	433.326172	74.164032
22970.825266	3068.901667	432.058594	131.345764
22970.825266	3068.901667	430.790039	106.112343
22970.825266	3068.901667	429.521484	74.387138
22970.825266	3068.901667	428.252930	40.508385
22970.825266	3068.901667	426.984375	-84.362999
22970.825266	3068.901667	425.714844	52.942520
22970.825266	3068.901667	424.445313	107.882027
22970.825266	3068.901667	423.174805	78.341232
22970.825266	3068.901667	421.905273	70.456223
22970.825266	3068.901667	420.634766	36.592667
22970.825266	3068.901667	419.364258	76.309227
22970.825266	3068.901667	418.092773	25.128799
22970.825266	3068.901667	416.822266	179.447769
22970.825266	3068.901667	415.550781	-1.515248
22970.825266	3068.901667	414.278320	115.953987
22970.825266	3068.901667	413.006836	196.606705
22970.825266	3068.901667	411.734375	91.342384
22970.825266	3068.901667	410.461914	154.636276
22970.825266	3068.901667	409.188477	118.506554
22970.825266	3068.901667	407.916016	170.916901
22970.825266	3068.901667	406.642578	91.557632
22970.825266	3068.901667	405.368164	120.141945
22970.825266	3068.901667	404.094727	120.622437
22970.825266	3068.901667	402.820313	21.802572
22970.825266	3068.901667	401.545898	102.052673
22970.825266	3068.901667	400.270508	46.337650
22970.825266	3068.901667	398.996094	25.107065
22970.825266	3068.901667	397.720703	-32.814991
22970.825266	3068.901667	396.444336	17.014738
22970.825266	3068.901667	395.168945	40.909515
22970.825266	3068.901667	393.892578	19.489550
22970.825266	3068.901667	392.616211	62.643551
22970.825266	3068.901667	391.339844	69.103310
22970.825266	3068.901667	390.062500	66.879494
22970.825266	3068.901667	388.785156	15.073768
22970.825266	3068.901667	387.507813	128.941528
22970.825266	3068.901667	386.229492	53.322289
22970.825266	3068.901667	384.951172	117.490883
22970.825266	3068.901667	383.672852	26.683809
22970.825266	3068.901667	382.394531	32.594238
22970.825266	3068.901667	381.115234	14.757252
22970.825266	3068.901667	379.835938	1.128594
22970.825266	3068.901667	378.556641	45.425732
22970.825266	3068.901667	377.277344	20.842813
22970.825266	3068.901667	375.997070	36.969749
22970.825266	3068.901667	374.716797	-9.308242
22970.825266	3068.901667	373.435547	60.254059
22970.825266	3068.901667	372.155273	-22.752277
22970.825266	3068.901667	370.874023	-47.910587
22970.825266	3068.901667	369.591797	-30.284685
22970.825266	3068.901667	368.310547	-23.534557
22970.825266	3068.901667	367.028320	-23.374237
22970.825266	3068.901667	365.746094	-76.978416
22970.825266	3068.901667	364.463867	34.355392
22970.825266	3068.901667	363.180664	-49.579136
22970.825266	3068.901667	361.897461	-50.078163
22970.825266	3068.901667	360.614258	-31.476545
22970.825266	3068.901667	359.330078	-45.204914
22970.825266	3068.901667	358.045898	-41.990692
22970.825266	3068.901667	356.761719	16.687189
22970.825266	3068.901667	355.477539	100.816437
22970.825266	3068.901667	354.192383	-22.904549
22970.825266	3068.901667	352.907227	17.956606
22970.825266	3068.901667	351.622070	64.984459
22970.825266	3068.901667	350.336914	-55.069878
22970.825266	3068.901667	349.050781	21.393620
22970.825266	3068.901667	347.764648	-67.044342
22970.825266	3068.901667	346.477539	134.960327
22970.825266	3068.901667	345.191406	90.867599
22970.825266	3068.901667	343.904297	95.640854
22970.825266	3068.901667	342.616211	59.528858
22970.825266	3068.901667	341.329102	-32.387398
22970.825266	3068.901667	340.041016	61.161346
22970.825266	3068.901667	338.752930	43.349743
22970.825266	3068.901667	337.463867	-17.476385
22970.825266	3068.901667	336.175781	17.398277
22970.825266	3068.901667	334.886719	-3.566542
22970.825266	3068.901667	333.596680	58.278023
22970.825266	3068.901667	332.307617	83.477745
22970.825266	3068.901667	331.017578	44.317123
22970.825266	3068.901667	329.727539	11.166224
22970.825266	3068.901667	328.436523	-73.531769
22970.825266	3068.901667	327.146484	-79.786621
22970.825266	3068.901667	325.855469	-120.564117
22970.825266	3068.901667	324.563477	-70.220078
22970.825266	3068.901667	323.272461	-105.510178
22970.825266	3068.901667	321.980469	-62.519268
22970.825266	3068.901667	320.688477	-5.142372
22970.825266	3068.901667	319.395508	0.631088
22970.825266	3068.901667	318.103516	33.545719
22970.825266	3068.901667	316.810547	53.139961
22970.825266	3068.901667	315.516602	65.785019
22970.825266	3068.901667	314.223633	-30.538652
22970.825266	3068.901667	312.929688	14.976705
22970.825266	3068.901667	311.635742	45.001816
22970.825266	3068.901667	310.340820	14.906352
22970.825266	3068.901667	309.045898	50.032623
22970.825266	3068.901667	307.750977	141.827759
22970.825266	3068.901667	306.456055	-19.707235
22970.825266	3068.901667	305.160156	-50.278282
22970.825266	3068.901667	303.865234	7.603748
22970.825266	3068.901667	302.568359	-39.246002
22970.825266	3068.901667	301.272461	42.588779
22970.825266	3068.901667	299.975586	74.839394
22970.825266	3068.901667	298.678711	152.942291
