#X		#Y		#Wave		#Intensity
31132.860106	1153.067167	1999.980469	-108.235580
31132.860106	1153.067167	1999.016602	-32.393375
31132.860106	1153.067167	1998.052734	-77.858620
31132.860106	1153.067167	1997.087891	-175.674164
31132.860106	1153.067167	1996.123047	117.693718
31132.860106	1153.067167	1995.158203	-97.193970
31132.860106	1153.067167	1994.193359	148.365219
31132.860106	1153.067167	1993.228516	-86.869781
31132.860106	1153.067167	1992.262695	-27.680426
31132.860106	1153.067167	1991.297852	18.817104
31132.860106	1153.067167	1990.332031	102.147202
31132.860106	1153.067167	1989.366211	113.415169
31132.860106	1153.067167	1988.399414	-120.505844
31132.860106	1153.067167	1987.433594	149.997223
31132.860106	1153.067167	1986.466797	44.246838
31132.860106	1153.067167	1985.500977	12.463296
31132.860106	1153.067167	1984.534180	20.014654
31132.860106	1153.067167	1983.567383	44.632057
31132.860106	1153.067167	1982.599609	34.422749
31132.860106	1153.067167	1981.632813	-84.720665
31132.860106	1153.067167	1980.665039	-90.394394
31132.860106	1153.067167	1979.697266	74.148796
31132.860106	1153.067167	1978.729492	-122.104599
31132.860106	1153.067167	1977.761719	-118.495338
31132.860106	1153.067167	1976.792969	15.756680
31132.860106	1153.067167	1975.825195	75.730392
31132.860106	1153.067167	1974.856445	179.922195
31132.860106	1153.067167	1973.887695	121.072037
31132.860106	1153.067167	1972.918945	-63.722958
31132.860106	1153.067167	1971.949219	133.649887
31132.860106	1153.067167	1970.980469	177.913300
31132.860106	1153.067167	1970.010742	-91.081169
31132.860106	1153.067167	1969.041016	95.867691
31132.860106	1153.067167	1968.071289	80.526413
31132.860106	1153.067167	1967.101563	119.257133
31132.860106	1153.067167	1966.130859	79.009872
31132.860106	1153.067167	1965.161133	36.183304
31132.860106	1153.067167	1964.190430	168.088593
31132.860106	1153.067167	1963.219727	221.036560
31132.860106	1153.067167	1962.249023	-1.854302
31132.860106	1153.067167	1961.277344	-141.095993
31132.860106	1153.067167	1960.306641	-61.391655
31132.860106	1153.067167	1959.334961	143.649292
31132.860106	1153.067167	1958.363281	31.199120
31132.860106	1153.067167	1957.391602	-66.550903
31132.860106	1153.067167	1956.419922	103.658730
31132.860106	1153.067167	1955.447266	15.579546
31132.860106	1153.067167	1954.474609	-75.012589
31132.860106	1153.067167	1953.501953	180.853500
31132.860106	1153.067167	1952.529297	99.927231
31132.860106	1153.067167	1951.556641	-111.246185
31132.860106	1153.067167	1950.583984	16.530750
31132.860106	1153.067167	1949.610352	227.680450
31132.860106	1153.067167	1948.636719	-59.726284
31132.860106	1153.067167	1947.663086	48.124977
31132.860106	1153.067167	1946.689453	-6.112539
31132.860106	1153.067167	1945.715820	221.804153
31132.860106	1153.067167	1944.741211	-38.649502
31132.860106	1153.067167	1943.767578	-14.519025
31132.860106	1153.067167	1942.792969	-81.193329
31132.860106	1153.067167	1941.818359	62.981316
31132.860106	1153.067167	1940.842773	50.152702
31132.860106	1153.067167	1939.868164	-207.827103
31132.860106	1153.067167	1938.892578	-90.805679
31132.860106	1153.067167	1937.916992	92.286621
31132.860106	1153.067167	1936.941406	-62.793209
31132.860106	1153.067167	1935.965820	90.757668
31132.860106	1153.067167	1934.990234	-145.147629
31132.860106	1153.067167	1934.013672	54.810795
31132.860106	1153.067167	1933.037109	49.037445
31132.860106	1153.067167	1932.060547	126.450127
31132.860106	1153.067167	1931.083984	-36.000206
31132.860106	1153.067167	1930.107422	82.936150
31132.860106	1153.067167	1929.129883	-123.528732
31132.860106	1153.067167	1928.153320	-24.233183
31132.860106	1153.067167	1927.175781	23.652403
31132.860106	1153.067167	1926.198242	220.627991
31132.860106	1153.067167	1925.219727	173.083084
31132.860106	1153.067167	1924.242188	125.539635
31132.860106	1153.067167	1923.263672	134.193100
31132.860106	1153.067167	1922.285156	-50.161785
31132.860106	1153.067167	1921.306641	112.365807
31132.860106	1153.067167	1920.328125	20.852192
31132.860106	1153.067167	1919.349609	-165.858795
31132.860106	1153.067167	1918.370117	23.412891
31132.860106	1153.067167	1917.391602	44.203697
31132.860106	1153.067167	1916.412109	-57.033646
31132.860106	1153.067167	1915.431641	56.452690
31132.860106	1153.067167	1914.452148	118.665855
31132.860106	1153.067167	1913.472656	54.030754
31132.860106	1153.067167	1912.492188	-132.504303
31132.860106	1153.067167	1911.511719	-75.186020
31132.860106	1153.067167	1910.531250	-83.704147
31132.860106	1153.067167	1909.550781	161.223160
31132.860106	1153.067167	1908.569336	-17.902271
31132.860106	1153.067167	1907.588867	63.697842
31132.860106	1153.067167	1906.607422	57.581184
31132.860106	1153.067167	1905.625977	22.242069
31132.860106	1153.067167	1904.644531	179.257080
31132.860106	1153.067167	1903.662109	-65.440536
31132.860106	1153.067167	1902.680664	-25.292376
31132.860106	1153.067167	1901.698242	-55.728268
31132.860106	1153.067167	1900.715820	127.941238
31132.860106	1153.067167	1899.733398	-199.268982
31132.860106	1153.067167	1898.750000	271.330994
31132.860106	1153.067167	1897.767578	-87.393013
31132.860106	1153.067167	1896.784180	-98.341675
31132.860106	1153.067167	1895.800781	-21.782749
31132.860106	1153.067167	1894.817383	15.864879
31132.860106	1153.067167	1893.833984	14.623713
31132.860106	1153.067167	1892.850586	-35.200577
31132.860106	1153.067167	1891.866211	46.147163
31132.860106	1153.067167	1890.881836	47.329685
31132.860106	1153.067167	1889.897461	-12.185320
31132.860106	1153.067167	1888.913086	103.098145
31132.860106	1153.067167	1887.927734	-206.384216
31132.860106	1153.067167	1886.943359	-183.315765
31132.860106	1153.067167	1885.958008	-177.239044
31132.860106	1153.067167	1884.972656	25.309284
31132.860106	1153.067167	1883.987305	-68.088951
31132.860106	1153.067167	1883.001953	270.146057
31132.860106	1153.067167	1882.015625	74.914734
31132.860106	1153.067167	1881.029297	-166.296219
31132.860106	1153.067167	1880.042969	162.067581
31132.860106	1153.067167	1879.056641	-185.680740
31132.860106	1153.067167	1878.070313	55.351997
31132.860106	1153.067167	1877.083984	131.596100
31132.860106	1153.067167	1876.096680	43.143250
31132.860106	1153.067167	1875.109375	34.614807
31132.860106	1153.067167	1874.122070	86.601151
31132.860106	1153.067167	1873.134766	15.136013
31132.860106	1153.067167	1872.146484	67.095177
31132.860106	1153.067167	1871.159180	145.643600
31132.860106	1153.067167	1870.170898	-278.956909
31132.860106	1153.067167	1869.182617	-130.255066
31132.860106	1153.067167	1868.194336	119.936157
31132.860106	1153.067167	1867.205078	-159.397232
31132.860106	1153.067167	1866.216797	-8.406702
31132.860106	1153.067167	1865.227539	-0.059112
31132.860106	1153.067167	1864.238281	95.255043
31132.860106	1153.067167	1863.249023	-2.727534
31132.860106	1153.067167	1862.259766	-100.683235
31132.860106	1153.067167	1861.269531	-85.123215
31132.860106	1153.067167	1860.279297	84.932129
31132.860106	1153.067167	1859.290039	30.428261
31132.860106	1153.067167	1858.298828	171.410965
31132.860106	1153.067167	1857.308594	30.017721
31132.860106	1153.067167	1856.318359	-14.838893
31132.860106	1153.067167	1855.327148	97.085693
31132.860106	1153.067167	1854.335938	126.958603
31132.860106	1153.067167	1853.344727	94.116051
31132.860106	1153.067167	1852.353516	-23.104784
31132.860106	1153.067167	1851.362305	281.484833
31132.860106	1153.067167	1850.370117	2.780756
31132.860106	1153.067167	1849.377930	-42.135834
31132.860106	1153.067167	1848.385742	216.457001
31132.860106	1153.067167	1847.393555	171.475510
31132.860106	1153.067167	1846.401367	-63.737286
31132.860106	1153.067167	1845.408203	-22.025940
31132.860106	1153.067167	1844.415039	-160.881424
31132.860106	1153.067167	1843.421875	147.915222
31132.860106	1153.067167	1842.428711	9.031218
31132.860106	1153.067167	1841.435547	38.571270
31132.860106	1153.067167	1840.441406	48.829372
31132.860106	1153.067167	1839.448242	-41.941029
31132.860106	1153.067167	1838.454102	124.553864
31132.860106	1153.067167	1837.459961	226.053680
31132.860106	1153.067167	1836.464844	65.511475
31132.860106	1153.067167	1835.470703	138.088135
31132.860106	1153.067167	1834.475586	49.636787
31132.860106	1153.067167	1833.480469	-96.462196
31132.860106	1153.067167	1832.485352	120.101929
31132.860106	1153.067167	1831.490234	94.035431
31132.860106	1153.067167	1830.495117	29.532833
31132.860106	1153.067167	1829.499023	-82.987190
31132.860106	1153.067167	1828.502930	202.863678
31132.860106	1153.067167	1827.506836	174.257523
31132.860106	1153.067167	1826.510742	54.466038
31132.860106	1153.067167	1825.513672	64.194862
31132.860106	1153.067167	1824.517578	59.496204
31132.860106	1153.067167	1823.520508	2.010596
31132.860106	1153.067167	1822.523438	-19.537489
31132.860106	1153.067167	1821.526367	61.935184
31132.860106	1153.067167	1820.529297	205.634888
31132.860106	1153.067167	1819.531250	159.974091
31132.860106	1153.067167	1818.533203	30.451834
31132.860106	1153.067167	1817.535156	229.022476
31132.860106	1153.067167	1816.537109	118.601273
31132.860106	1153.067167	1815.539063	-6.187484
31132.860106	1153.067167	1814.540039	0.660253
31132.860106	1153.067167	1813.541992	-30.826777
31132.860106	1153.067167	1812.542969	-62.353642
31132.860106	1153.067167	1811.543945	-115.446335
31132.860106	1153.067167	1810.543945	-29.856833
31132.860106	1153.067167	1809.544922	172.820953
31132.860106	1153.067167	1808.544922	112.386490
31132.860106	1153.067167	1807.544922	-74.762192
31132.860106	1153.067167	1806.544922	-42.028107
31132.860106	1153.067167	1805.544922	122.055847
31132.860106	1153.067167	1804.544922	121.188225
31132.860106	1153.067167	1803.543945	-73.205513
31132.860106	1153.067167	1802.542969	59.579601
31132.860106	1153.067167	1801.541992	-39.337936
31132.860106	1153.067167	1800.541016	-114.403099
31132.860106	1153.067167	1799.539063	-74.940605
31132.860106	1153.067167	1798.538086	126.715622
31132.860106	1153.067167	1797.536133	15.696019
31132.860106	1153.067167	1796.534180	50.163925
31132.860106	1153.067167	1795.532227	79.788666
31132.860106	1153.067167	1794.529297	-98.107246
31132.860106	1153.067167	1793.527344	79.219017
31132.860106	1153.067167	1792.524414	13.291925
31132.860106	1153.067167	1791.521484	2.138415
31132.860106	1153.067167	1790.518555	136.264771
31132.860106	1153.067167	1789.514648	103.521576
31132.860106	1153.067167	1788.511719	1.660121
31132.860106	1153.067167	1787.507813	-197.863083
31132.860106	1153.067167	1786.503906	112.116974
31132.860106	1153.067167	1785.500000	48.196445
31132.860106	1153.067167	1784.496094	-134.761856
31132.860106	1153.067167	1783.491211	-139.263153
31132.860106	1153.067167	1782.486328	-43.911701
31132.860106	1153.067167	1781.481445	46.578178
31132.860106	1153.067167	1780.476563	-27.125015
31132.860106	1153.067167	1779.471680	-74.714104
31132.860106	1153.067167	1778.465820	-20.140846
31132.860106	1153.067167	1777.460938	119.910042
31132.860106	1153.067167	1776.455078	72.104744
31132.860106	1153.067167	1775.449219	45.628590
31132.860106	1153.067167	1774.442383	-49.800488
31132.860106	1153.067167	1773.436523	89.858963
31132.860106	1153.067167	1772.429688	-57.925610
31132.860106	1153.067167	1771.422852	-75.154106
31132.860106	1153.067167	1770.416016	104.558868
31132.860106	1153.067167	1769.409180	77.667107
31132.860106	1153.067167	1768.402344	45.966183
31132.860106	1153.067167	1767.394531	-61.714050
31132.860106	1153.067167	1766.386719	-60.326237
31132.860106	1153.067167	1765.378906	64.296349
31132.860106	1153.067167	1764.371094	-50.663956
31132.860106	1153.067167	1763.362305	-224.922455
31132.860106	1153.067167	1762.354492	-55.536629
31132.860106	1153.067167	1761.345703	-28.469143
31132.860106	1153.067167	1760.336914	-37.024673
31132.860106	1153.067167	1759.328125	120.151062
31132.860106	1153.067167	1758.318359	-70.939758
31132.860106	1153.067167	1757.308594	22.092752
31132.860106	1153.067167	1756.299805	-204.563354
31132.860106	1153.067167	1755.290039	-163.765060
31132.860106	1153.067167	1754.279297	-40.244152
31132.860106	1153.067167	1753.269531	118.648323
31132.860106	1153.067167	1752.258789	-41.944996
31132.860106	1153.067167	1751.249023	-29.901192
31132.860106	1153.067167	1750.238281	86.093979
31132.860106	1153.067167	1749.226563	107.393723
31132.860106	1153.067167	1748.215820	78.977890
31132.860106	1153.067167	1747.204102	-8.594564
31132.860106	1153.067167	1746.193359	-67.852280
31132.860106	1153.067167	1745.181641	-101.187729
31132.860106	1153.067167	1744.168945	-63.740803
31132.860106	1153.067167	1743.157227	-234.184189
31132.860106	1153.067167	1742.144531	-17.450808
31132.860106	1153.067167	1741.132813	-15.678852
31132.860106	1153.067167	1740.120117	-84.796631
31132.860106	1153.067167	1739.106445	176.372452
31132.860106	1153.067167	1738.093750	-48.618900
31132.860106	1153.067167	1737.080078	80.196114
31132.860106	1153.067167	1736.067383	-128.342361
31132.860106	1153.067167	1735.053711	19.143339
31132.860106	1153.067167	1734.040039	-151.751801
31132.860106	1153.067167	1733.025391	52.081272
31132.860106	1153.067167	1732.011719	180.359314
31132.860106	1153.067167	1730.997070	9.286604
31132.860106	1153.067167	1729.982422	189.180145
31132.860106	1153.067167	1728.967773	-7.893488
31132.860106	1153.067167	1727.952148	-4.831385
31132.860106	1153.067167	1726.937500	82.911125
31132.860106	1153.067167	1725.921875	-10.707442
31132.860106	1153.067167	1724.906250	20.358849
31132.860106	1153.067167	1723.890625	-96.896606
31132.860106	1153.067167	1722.875000	119.859444
31132.860106	1153.067167	1721.858398	261.182678
31132.860106	1153.067167	1720.841797	96.676979
31132.860106	1153.067167	1719.825195	162.561386
31132.860106	1153.067167	1718.808594	141.371338
31132.860106	1153.067167	1717.791992	-18.547148
31132.860106	1153.067167	1716.774414	72.929672
31132.860106	1153.067167	1715.756836	-23.646633
31132.860106	1153.067167	1714.739258	84.085594
31132.860106	1153.067167	1713.721680	161.172607
31132.860106	1153.067167	1712.704102	-102.293427
31132.860106	1153.067167	1711.685547	-37.098217
31132.860106	1153.067167	1710.667969	206.381500
31132.860106	1153.067167	1709.649414	125.857086
31132.860106	1153.067167	1708.630859	275.209778
31132.860106	1153.067167	1707.611328	318.865540
31132.860106	1153.067167	1706.592773	106.813469
31132.860106	1153.067167	1705.573242	91.719528
31132.860106	1153.067167	1704.553711	182.054108
31132.860106	1153.067167	1703.534180	204.309860
31132.860106	1153.067167	1702.513672	69.466225
31132.860106	1153.067167	1701.494141	96.278610
31132.860106	1153.067167	1700.473633	226.069611
31132.860106	1153.067167	1699.453125	224.585388
31132.860106	1153.067167	1698.432617	-64.987976
31132.860106	1153.067167	1697.412109	268.232849
31132.860106	1153.067167	1696.390625	325.041473
31132.860106	1153.067167	1695.369141	250.703827
31132.860106	1153.067167	1694.347656	321.397278
31132.860106	1153.067167	1693.326172	497.266937
31132.860106	1153.067167	1692.304688	261.351410
31132.860106	1153.067167	1691.282227	60.527126
31132.860106	1153.067167	1690.260742	285.246216
31132.860106	1153.067167	1689.238281	350.847626
31132.860106	1153.067167	1688.214844	343.897278
31132.860106	1153.067167	1687.192383	449.057648
31132.860106	1153.067167	1686.168945	243.384216
31132.860106	1153.067167	1685.146484	399.784851
31132.860106	1153.067167	1684.123047	301.500336
31132.860106	1153.067167	1683.099609	263.900024
31132.860106	1153.067167	1682.075195	480.693848
31132.860106	1153.067167	1681.051758	190.881912
31132.860106	1153.067167	1680.027344	437.822815
31132.860106	1153.067167	1679.002930	451.302155
31132.860106	1153.067167	1677.978516	655.993530
31132.860106	1153.067167	1676.953125	268.162262
31132.860106	1153.067167	1675.928711	442.383331
31132.860106	1153.067167	1674.903320	346.040161
31132.860106	1153.067167	1673.877930	270.657013
31132.860106	1153.067167	1672.852539	493.537384
31132.860106	1153.067167	1671.826172	425.023529
31132.860106	1153.067167	1670.800781	375.131378
31132.860106	1153.067167	1669.774414	569.742065
31132.860106	1153.067167	1668.748047	505.753021
31132.860106	1153.067167	1667.721680	378.878021
31132.860106	1153.067167	1666.694336	601.143799
31132.860106	1153.067167	1665.667969	737.177917
31132.860106	1153.067167	1664.640625	591.557495
31132.860106	1153.067167	1663.613281	625.073792
31132.860106	1153.067167	1662.585938	725.980652
31132.860106	1153.067167	1661.557617	747.725464
31132.860106	1153.067167	1660.530273	783.377808
31132.860106	1153.067167	1659.501953	837.557251
31132.860106	1153.067167	1658.473633	824.272217
31132.860106	1153.067167	1657.444336	908.530579
31132.860106	1153.067167	1656.416016	774.346436
31132.860106	1153.067167	1655.386719	1014.122437
31132.860106	1153.067167	1654.358398	949.557434
31132.860106	1153.067167	1653.328125	1038.194580
31132.860106	1153.067167	1652.298828	1149.984741
31132.860106	1153.067167	1651.269531	1282.584106
31132.860106	1153.067167	1650.239258	1178.390137
31132.860106	1153.067167	1649.208984	1371.168457
31132.860106	1153.067167	1648.178711	1183.420776
31132.860106	1153.067167	1647.148438	1473.458740
31132.860106	1153.067167	1646.117188	1341.333862
31132.860106	1153.067167	1645.086914	1334.426270
31132.860106	1153.067167	1644.055664	1749.318604
31132.860106	1153.067167	1643.024414	1322.818726
31132.860106	1153.067167	1641.992188	1911.248535
31132.860106	1153.067167	1640.960938	1602.963013
31132.860106	1153.067167	1639.928711	1797.332764
31132.860106	1153.067167	1638.896484	1824.878540
31132.860106	1153.067167	1637.864258	1843.128540
31132.860106	1153.067167	1636.832031	1940.044922
31132.860106	1153.067167	1635.798828	2011.430908
31132.860106	1153.067167	1634.766602	1717.204224
31132.860106	1153.067167	1633.733398	1700.655273
31132.860106	1153.067167	1632.699219	1913.053467
31132.860106	1153.067167	1631.666016	1884.870361
31132.860106	1153.067167	1630.632813	1861.303833
31132.860106	1153.067167	1629.598633	1930.175781
31132.860106	1153.067167	1628.564453	2026.737671
31132.860106	1153.067167	1627.530273	1901.426025
31132.860106	1153.067167	1626.495117	2041.805786
31132.860106	1153.067167	1625.460938	2390.006104
31132.860106	1153.067167	1624.425781	2241.550293
31132.860106	1153.067167	1623.390625	2079.287354
31132.860106	1153.067167	1622.355469	2256.409180
31132.860106	1153.067167	1621.319336	2147.255859
31132.860106	1153.067167	1620.284180	2335.814941
31132.860106	1153.067167	1619.248047	2434.305176
31132.860106	1153.067167	1618.211914	2555.817871
31132.860106	1153.067167	1617.174805	2529.671143
31132.860106	1153.067167	1616.138672	2319.087402
31132.860106	1153.067167	1615.101563	2569.617920
31132.860106	1153.067167	1614.065430	2462.819092
31132.860106	1153.067167	1613.027344	2650.990479
31132.860106	1153.067167	1611.990234	2758.465576
31132.860106	1153.067167	1610.953125	2835.954102
31132.860106	1153.067167	1609.915039	2588.679199
31132.860106	1153.067167	1608.876953	2746.752930
31132.860106	1153.067167	1607.838867	2688.370361
31132.860106	1153.067167	1606.800781	2816.450684
31132.860106	1153.067167	1605.761719	2675.232910
31132.860106	1153.067167	1604.723633	2874.602539
31132.860106	1153.067167	1603.684570	2643.731934
31132.860106	1153.067167	1602.644531	2937.316406
31132.860106	1153.067167	1601.605469	2867.502441
31132.860106	1153.067167	1600.566406	2921.871582
31132.860106	1153.067167	1599.526367	2663.622070
31132.860106	1153.067167	1598.486328	2706.532471
31132.860106	1153.067167	1597.446289	2556.441895
31132.860106	1153.067167	1596.405273	2633.832520
31132.860106	1153.067167	1595.365234	2516.001953
31132.860106	1153.067167	1594.324219	2744.959229
31132.860106	1153.067167	1593.283203	2686.868164
31132.860106	1153.067167	1592.242188	2722.930908
31132.860106	1153.067167	1591.200195	2586.868896
31132.860106	1153.067167	1590.159180	2620.686523
31132.860106	1153.067167	1589.117188	2911.432617
31132.860106	1153.067167	1588.075195	2908.511475
31132.860106	1153.067167	1587.032227	2618.963379
31132.860106	1153.067167	1585.990234	2753.714355
31132.860106	1153.067167	1584.947266	2888.427246
31132.860106	1153.067167	1583.904297	2940.612061
31132.860106	1153.067167	1582.861328	2630.776611
31132.860106	1153.067167	1581.818359	2492.909424
31132.860106	1153.067167	1580.775391	2481.102295
31132.860106	1153.067167	1579.731445	2645.650391
31132.860106	1153.067167	1578.687500	2574.344727
31132.860106	1153.067167	1577.643555	2324.554443
31132.860106	1153.067167	1576.598633	2365.542725
31132.860106	1153.067167	1575.554688	2562.163330
31132.860106	1153.067167	1574.509766	2390.404541
31132.860106	1153.067167	1573.464844	2589.296143
31132.860106	1153.067167	1572.419922	2378.804199
31132.860106	1153.067167	1571.374023	2365.055420
31132.860106	1153.067167	1570.329102	2271.357910
31132.860106	1153.067167	1569.283203	2340.000244
31132.860106	1153.067167	1568.237305	2116.174316
31132.860106	1153.067167	1567.191406	2155.211182
31132.860106	1153.067167	1566.144531	1936.158569
31132.860106	1153.067167	1565.098633	2221.951416
31132.860106	1153.067167	1564.051758	1843.239746
31132.860106	1153.067167	1563.004883	1861.937134
31132.860106	1153.067167	1561.957031	1720.901855
31132.860106	1153.067167	1560.910156	1632.469849
31132.860106	1153.067167	1559.862305	1592.025146
31132.860106	1153.067167	1558.814453	1695.354614
31132.860106	1153.067167	1557.766602	1810.101929
31132.860106	1153.067167	1556.718750	1806.294556
31132.860106	1153.067167	1555.669922	1827.611328
31132.860106	1153.067167	1554.621094	1614.217285
31132.860106	1153.067167	1553.573242	1318.941650
31132.860106	1153.067167	1552.523438	1383.796997
31132.860106	1153.067167	1551.474609	1551.204468
31132.860106	1153.067167	1550.424805	1215.283447
31132.860106	1153.067167	1549.375000	1330.402344
31132.860106	1153.067167	1548.325195	1322.607178
31132.860106	1153.067167	1547.275391	1251.150757
31132.860106	1153.067167	1546.225586	1352.736206
31132.860106	1153.067167	1545.174805	1477.091919
31132.860106	1153.067167	1544.124023	1280.726807
31132.860106	1153.067167	1543.073242	1343.778442
31132.860106	1153.067167	1542.022461	1454.626709
31132.860106	1153.067167	1540.970703	1242.669189
31132.860106	1153.067167	1539.919922	1180.892700
31132.860106	1153.067167	1538.868164	1048.754639
31132.860106	1153.067167	1537.815430	1128.035767
31132.860106	1153.067167	1536.763672	1259.616455
31132.860106	1153.067167	1535.710938	1404.838745
31132.860106	1153.067167	1534.659180	1309.394531
31132.860106	1153.067167	1533.606445	980.219666
31132.860106	1153.067167	1532.552734	1216.426758
31132.860106	1153.067167	1531.500000	1066.837769
31132.860106	1153.067167	1530.446289	722.251709
31132.860106	1153.067167	1529.393555	772.606567
31132.860106	1153.067167	1528.338867	800.324707
31132.860106	1153.067167	1527.285156	878.011780
31132.860106	1153.067167	1526.231445	710.901245
31132.860106	1153.067167	1525.176758	786.468079
31132.860106	1153.067167	1524.122070	923.279053
31132.860106	1153.067167	1523.067383	677.204102
31132.860106	1153.067167	1522.012695	825.483276
31132.860106	1153.067167	1520.957031	572.897583
31132.860106	1153.067167	1519.901367	485.805359
31132.860106	1153.067167	1518.845703	457.701569
31132.860106	1153.067167	1517.790039	271.250977
31132.860106	1153.067167	1516.734375	385.958252
31132.860106	1153.067167	1515.677734	260.863556
31132.860106	1153.067167	1514.621094	206.038696
31132.860106	1153.067167	1513.564453	244.062531
31132.860106	1153.067167	1512.507813	200.758987
31132.860106	1153.067167	1511.450195	177.907837
31132.860106	1153.067167	1510.393555	35.367741
31132.860106	1153.067167	1509.335938	168.688828
31132.860106	1153.067167	1508.278320	293.017487
31132.860106	1153.067167	1507.219727	71.750069
31132.860106	1153.067167	1506.162109	94.608696
31132.860106	1153.067167	1505.103516	253.040695
31132.860106	1153.067167	1504.044922	97.687180
31132.860106	1153.067167	1502.986328	138.878876
31132.860106	1153.067167	1501.926758	144.040848
31132.860106	1153.067167	1500.868164	-150.787415
31132.860106	1153.067167	1499.808594	-179.202560
31132.860106	1153.067167	1498.749023	-173.669495
31132.860106	1153.067167	1497.688477	235.610306
31132.860106	1153.067167	1496.628906	-193.865540
31132.860106	1153.067167	1495.568359	-298.476105
31132.860106	1153.067167	1494.507813	-168.553940
31132.860106	1153.067167	1493.447266	10.995295
31132.860106	1153.067167	1492.386719	-359.100311
31132.860106	1153.067167	1491.325195	-116.307373
31132.860106	1153.067167	1490.263672	-8.616021
31132.860106	1153.067167	1489.202148	40.605106
31132.860106	1153.067167	1488.140625	-222.972580
31132.860106	1153.067167	1487.079102	-175.757767
31132.860106	1153.067167	1486.016602	-132.955811
31132.860106	1153.067167	1484.954102	-15.819168
31132.860106	1153.067167	1483.891602	108.132133
31132.860106	1153.067167	1482.829102	38.754017
31132.860106	1153.067167	1481.765625	9.989962
31132.860106	1153.067167	1480.702148	165.679825
31132.860106	1153.067167	1479.638672	-134.783401
31132.860106	1153.067167	1478.575195	97.499168
31132.860106	1153.067167	1477.511719	-25.103905
31132.860106	1153.067167	1476.447266	119.731239
31132.860106	1153.067167	1475.382813	-58.720585
31132.860106	1153.067167	1474.318359	21.147446
31132.860106	1153.067167	1473.253906	184.156998
31132.860106	1153.067167	1472.189453	288.927582
31132.860106	1153.067167	1471.124023	225.492523
31132.860106	1153.067167	1470.058594	303.559662
31132.860106	1153.067167	1468.993164	352.396881
31132.860106	1153.067167	1467.927734	226.695908
31132.860106	1153.067167	1466.861328	195.023743
31132.860106	1153.067167	1465.794922	168.190216
31132.860106	1153.067167	1464.728516	358.793274
31132.860106	1153.067167	1463.662109	144.367386
31132.860106	1153.067167	1462.594727	310.195770
31132.860106	1153.067167	1461.528320	167.795929
31132.860106	1153.067167	1460.460938	99.001686
31132.860106	1153.067167	1459.393555	327.976654
31132.860106	1153.067167	1458.326172	410.937836
31132.860106	1153.067167	1457.257813	126.381851
31132.860106	1153.067167	1456.189453	255.158478
31132.860106	1153.067167	1455.121094	131.026703
31132.860106	1153.067167	1454.052734	337.512115
31132.860106	1153.067167	1452.984375	302.817017
31132.860106	1153.067167	1451.915039	289.657349
31132.860106	1153.067167	1450.845703	15.429066
31132.860106	1153.067167	1449.776367	295.088409
31132.860106	1153.067167	1448.707031	473.716583
31132.860106	1153.067167	1447.636719	252.535736
31132.860106	1153.067167	1446.567383	244.667465
31132.860106	1153.067167	1445.497070	534.258240
31132.860106	1153.067167	1444.425781	384.366119
31132.860106	1153.067167	1443.355469	491.147125
31132.860106	1153.067167	1442.285156	532.480835
31132.860106	1153.067167	1441.213867	786.465088
31132.860106	1153.067167	1440.142578	365.401794
31132.860106	1153.067167	1439.070313	446.751373
31132.860106	1153.067167	1437.999023	326.929291
31132.860106	1153.067167	1436.926758	591.830872
31132.860106	1153.067167	1435.854492	695.023254
31132.860106	1153.067167	1434.782227	491.567902
31132.860106	1153.067167	1433.709961	615.139648
31132.860106	1153.067167	1432.636719	370.831329
31132.860106	1153.067167	1431.563477	433.822815
31132.860106	1153.067167	1430.490234	372.917725
31132.860106	1153.067167	1429.416992	304.342621
31132.860106	1153.067167	1428.343750	139.631622
31132.860106	1153.067167	1427.269531	115.560730
31132.860106	1153.067167	1426.195313	65.397987
31132.860106	1153.067167	1425.121094	193.095490
31132.860106	1153.067167	1424.046875	108.506630
31132.860106	1153.067167	1422.971680	117.826805
31132.860106	1153.067167	1421.896484	187.850906
31132.860106	1153.067167	1420.821289	169.435242
31132.860106	1153.067167	1419.746094	208.455673
31132.860106	1153.067167	1418.669922	202.449783
31132.860106	1153.067167	1417.594727	90.932907
31132.860106	1153.067167	1416.518555	308.625977
31132.860106	1153.067167	1415.442383	-70.623177
31132.860106	1153.067167	1414.365234	158.617035
31132.860106	1153.067167	1413.289063	110.845322
31132.860106	1153.067167	1412.211914	132.673172
31132.860106	1153.067167	1411.134766	236.073883
31132.860106	1153.067167	1410.057617	395.034576
31132.860106	1153.067167	1408.979492	341.420898
31132.860106	1153.067167	1407.902344	358.819275
31132.860106	1153.067167	1406.824219	469.024872
31132.860106	1153.067167	1405.746094	361.594421
31132.860106	1153.067167	1404.666992	390.597107
31132.860106	1153.067167	1403.588867	329.509003
31132.860106	1153.067167	1402.509766	496.821503
31132.860106	1153.067167	1401.430664	637.765564
31132.860106	1153.067167	1400.351563	508.454193
31132.860106	1153.067167	1399.271484	446.741333
31132.860106	1153.067167	1398.192383	571.888000
31132.860106	1153.067167	1397.112305	419.905151
31132.860106	1153.067167	1396.031250	570.560486
31132.860106	1153.067167	1394.951172	604.121948
31132.860106	1153.067167	1393.871094	674.822754
31132.860106	1153.067167	1392.790039	421.203827
31132.860106	1153.067167	1391.708984	505.666077
31132.860106	1153.067167	1390.626953	429.248779
31132.860106	1153.067167	1389.545898	465.440521
31132.860106	1153.067167	1388.463867	600.222900
31132.860106	1153.067167	1387.381836	604.163086
31132.860106	1153.067167	1386.299805	616.895508
31132.860106	1153.067167	1385.217773	706.908020
31132.860106	1153.067167	1384.134766	622.186829
31132.860106	1153.067167	1383.051758	585.632690
31132.860106	1153.067167	1381.968750	814.210022
31132.860106	1153.067167	1380.885742	668.307068
31132.860106	1153.067167	1379.802734	803.800232
31132.860106	1153.067167	1378.718750	572.481018
31132.860106	1153.067167	1377.634766	675.480042
31132.860106	1153.067167	1376.550781	695.636658
31132.860106	1153.067167	1375.465820	831.942749
31132.860106	1153.067167	1374.381836	635.134827
31132.860106	1153.067167	1373.296875	679.768555
31132.860106	1153.067167	1372.211914	485.097046
31132.860106	1153.067167	1371.126953	711.436218
31132.860106	1153.067167	1370.041016	802.126099
31132.860106	1153.067167	1368.955078	785.955627
31132.860106	1153.067167	1367.869141	720.875366
31132.860106	1153.067167	1366.783203	573.847656
31132.860106	1153.067167	1365.697266	359.377838
31132.860106	1153.067167	1364.610352	649.110107
31132.860106	1153.067167	1363.523438	464.765411
31132.860106	1153.067167	1362.436523	659.615662
31132.860106	1153.067167	1361.349609	466.978577
31132.860106	1153.067167	1360.261719	460.693146
31132.860106	1153.067167	1359.174805	663.458557
31132.860106	1153.067167	1358.086914	566.347046
31132.860106	1153.067167	1356.998047	676.953918
31132.860106	1153.067167	1355.910156	591.530457
31132.860106	1153.067167	1354.821289	663.187622
31132.860106	1153.067167	1353.732422	668.662964
31132.860106	1153.067167	1352.643555	669.226257
31132.860106	1153.067167	1351.554688	823.410095
31132.860106	1153.067167	1350.464844	654.620605
31132.860106	1153.067167	1349.375000	463.473877
31132.860106	1153.067167	1348.285156	581.529785
31132.860106	1153.067167	1347.195313	713.764160
31132.860106	1153.067167	1346.105469	567.142151
31132.860106	1153.067167	1345.014648	541.693359
31132.860106	1153.067167	1343.923828	660.971924
31132.860106	1153.067167	1342.833008	569.321716
31132.860106	1153.067167	1341.741211	683.870361
31132.860106	1153.067167	1340.650391	386.822540
31132.860106	1153.067167	1339.558594	734.539673
31132.860106	1153.067167	1338.466797	670.343811
31132.860106	1153.067167	1337.374023	608.882385
31132.860106	1153.067167	1336.282227	429.636749
31132.860106	1153.067167	1335.189453	439.528503
31132.860106	1153.067167	1334.096680	312.321777
31132.860106	1153.067167	1333.003906	363.335114
31132.860106	1153.067167	1331.910156	337.151886
31132.860106	1153.067167	1330.817383	318.339417
31132.860106	1153.067167	1329.723633	345.946136
31132.860106	1153.067167	1328.629883	263.473999
31132.860106	1153.067167	1327.535156	186.855301
31132.860106	1153.067167	1326.441406	101.497528
31132.860106	1153.067167	1325.346680	202.049332
31132.860106	1153.067167	1324.251953	216.323868
31132.860106	1153.067167	1323.156250	253.026154
31132.860106	1153.067167	1322.061523	102.401924
31132.860106	1153.067167	1320.965820	27.107248
31132.860106	1153.067167	1319.870117	137.112167
31132.860106	1153.067167	1318.774414	170.939285
31132.860106	1153.067167	1317.678711	131.908051
31132.860106	1153.067167	1316.582031	114.753212
31132.860106	1153.067167	1315.485352	335.855621
31132.860106	1153.067167	1314.388672	362.453705
31132.860106	1153.067167	1313.291016	241.102692
31132.860106	1153.067167	1312.194336	422.872101
31132.860106	1153.067167	1311.096680	122.282639
31132.860106	1153.067167	1309.999023	180.867081
31132.860106	1153.067167	1308.901367	214.629425
31132.860106	1153.067167	1307.802734	149.699478
31132.860106	1153.067167	1306.705078	379.225189
31132.860106	1153.067167	1305.606445	210.435852
31132.860106	1153.067167	1304.506836	233.813187
31132.860106	1153.067167	1303.408203	262.792816
31132.860106	1153.067167	1302.308594	517.956970
31132.860106	1153.067167	1301.208984	352.781219
31132.860106	1153.067167	1300.109375	455.437531
31132.860106	1153.067167	1299.009766	492.094940
31132.860106	1153.067167	1297.909180	584.328064
31132.860106	1153.067167	1296.808594	573.144531
31132.860106	1153.067167	1295.708008	564.804138
31132.860106	1153.067167	1294.607422	358.787354
31132.860106	1153.067167	1293.506836	330.113831
31132.860106	1153.067167	1292.405273	388.855530
31132.860106	1153.067167	1291.303711	163.527588
31132.860106	1153.067167	1290.202148	34.093853
31132.860106	1153.067167	1289.099609	242.839417
31132.860106	1153.067167	1287.998047	342.918915
31132.860106	1153.067167	1286.895508	179.033340
31132.860106	1153.067167	1285.792969	31.367422
31132.860106	1153.067167	1284.689453	73.126335
31132.860106	1153.067167	1283.586914	115.191833
31132.860106	1153.067167	1282.483398	226.832703
31132.860106	1153.067167	1281.379883	251.549850
31132.860106	1153.067167	1280.276367	122.360886
31132.860106	1153.067167	1279.171875	143.811050
31132.860106	1153.067167	1278.067383	326.759521
31132.860106	1153.067167	1276.962891	273.483643
31132.860106	1153.067167	1275.858398	303.734436
31132.860106	1153.067167	1274.753906	98.292137
31132.860106	1153.067167	1273.648438	249.834091
31132.860106	1153.067167	1272.542969	328.793427
31132.860106	1153.067167	1271.437500	436.170135
31132.860106	1153.067167	1270.331055	337.798920
31132.860106	1153.067167	1269.225586	251.402115
31132.860106	1153.067167	1268.119141	220.694931
31132.860106	1153.067167	1267.012695	349.837860
31132.860106	1153.067167	1265.906250	279.159058
31132.860106	1153.067167	1264.798828	250.129074
31132.860106	1153.067167	1263.691406	365.194397
31132.860106	1153.067167	1262.583984	343.089447
31132.860106	1153.067167	1261.476563	293.811279
31132.860106	1153.067167	1260.368164	389.387207
31132.860106	1153.067167	1259.260742	404.655212
31132.860106	1153.067167	1258.152344	410.865295
31132.860106	1153.067167	1257.043945	268.323151
31132.860106	1153.067167	1255.934570	260.187073
31132.860106	1153.067167	1254.825195	215.290039
31132.860106	1153.067167	1253.716797	171.840897
31132.860106	1153.067167	1252.606445	178.218994
31132.860106	1153.067167	1251.497070	306.553802
31132.860106	1153.067167	1250.387695	135.873764
31132.860106	1153.067167	1249.277344	219.286591
31132.860106	1153.067167	1248.166992	-39.158104
31132.860106	1153.067167	1247.055664	-34.525459
31132.860106	1153.067167	1245.945313	13.708399
31132.860106	1153.067167	1244.833984	62.262836
31132.860106	1153.067167	1243.722656	-25.887808
31132.860106	1153.067167	1242.611328	99.922493
31132.860106	1153.067167	1241.499023	38.588688
31132.860106	1153.067167	1240.387695	31.394213
31132.860106	1153.067167	1239.275391	-152.444290
31132.860106	1153.067167	1238.162109	19.175772
31132.860106	1153.067167	1237.049805	-147.850906
31132.860106	1153.067167	1235.936523	23.907263
31132.860106	1153.067167	1234.823242	-3.577490
31132.860106	1153.067167	1233.709961	24.513237
31132.860106	1153.067167	1232.596680	-40.582237
31132.860106	1153.067167	1231.482422	-24.165134
31132.860106	1153.067167	1230.369141	-38.803783
31132.860106	1153.067167	1229.253906	-65.182167
31132.860106	1153.067167	1228.139648	-207.686523
31132.860106	1153.067167	1227.025391	-233.876846
31132.860106	1153.067167	1225.910156	-229.755493
31132.860106	1153.067167	1224.794922	-168.582672
31132.860106	1153.067167	1223.679688	-83.547791
31132.860106	1153.067167	1222.563477	-49.169777
31132.860106	1153.067167	1221.447266	-220.327026
31132.860106	1153.067167	1220.331055	-198.922821
31132.860106	1153.067167	1219.214844	-267.212921
31132.860106	1153.067167	1218.098633	-222.738281
31132.860106	1153.067167	1216.981445	-42.496326
31132.860106	1153.067167	1215.864258	-133.383026
31132.860106	1153.067167	1214.747070	-81.339714
31132.860106	1153.067167	1213.629883	-48.877037
31132.860106	1153.067167	1212.511719	-143.059799
31132.860106	1153.067167	1211.393555	-150.241974
31132.860106	1153.067167	1210.275391	-129.564072
31132.860106	1153.067167	1209.157227	-171.414673
31132.860106	1153.067167	1208.038086	-2.512882
31132.860106	1153.067167	1206.918945	-51.781971
31132.860106	1153.067167	1205.799805	-127.204247
31132.860106	1153.067167	1204.680664	-41.126270
31132.860106	1153.067167	1203.560547	-15.965407
31132.860106	1153.067167	1202.441406	83.426918
31132.860106	1153.067167	1201.321289	222.586945
31132.860106	1153.067167	1200.200195	109.843857
31132.860106	1153.067167	1199.080078	-100.904648
31132.860106	1153.067167	1197.958984	93.095375
31132.860106	1153.067167	1196.837891	92.805542
31132.860106	1153.067167	1195.716797	-110.270088
31132.860106	1153.067167	1194.594727	74.002815
31132.860106	1153.067167	1193.473633	-9.100956
31132.860106	1153.067167	1192.351563	12.921445
31132.860106	1153.067167	1191.229492	-106.481934
31132.860106	1153.067167	1190.106445	-81.993233
31132.860106	1153.067167	1188.984375	-36.907795
31132.860106	1153.067167	1187.861328	-122.724861
31132.860106	1153.067167	1186.738281	-138.859573
31132.860106	1153.067167	1185.614258	-140.875961
31132.860106	1153.067167	1184.491211	57.463997
31132.860106	1153.067167	1183.367188	77.697075
31132.860106	1153.067167	1182.243164	-116.515610
31132.860106	1153.067167	1181.119141	66.751961
31132.860106	1153.067167	1179.994141	-12.298721
31132.860106	1153.067167	1178.869141	25.311926
31132.860106	1153.067167	1177.744141	-3.654139
31132.860106	1153.067167	1176.619141	130.270126
31132.860106	1153.067167	1175.493164	57.633801
31132.860106	1153.067167	1174.368164	81.281853
31132.860106	1153.067167	1173.242188	188.027985
31132.860106	1153.067167	1172.115234	224.453430
31132.860106	1153.067167	1170.989258	234.980499
31132.860106	1153.067167	1169.862305	175.191284
31132.860106	1153.067167	1168.735352	167.116470
31132.860106	1153.067167	1167.608398	381.124481
31132.860106	1153.067167	1166.481445	271.267395
31132.860106	1153.067167	1165.353516	244.139954
31132.860106	1153.067167	1164.225586	107.884308
31132.860106	1153.067167	1163.097656	170.039841
31132.860106	1153.067167	1161.968750	134.131866
31132.860106	1153.067167	1160.840820	125.997398
31132.860106	1153.067167	1159.711914	98.718994
31132.860106	1153.067167	1158.583008	56.992695
31132.860106	1153.067167	1157.453125	-25.682659
31132.860106	1153.067167	1156.324219	15.491200
31132.860106	1153.067167	1155.194336	139.270370
31132.860106	1153.067167	1154.064453	18.383312
31132.860106	1153.067167	1152.933594	73.108025
31132.860106	1153.067167	1151.803711	24.763626
31132.860106	1153.067167	1150.672852	71.224098
31132.860106	1153.067167	1149.541992	53.562786
31132.860106	1153.067167	1148.411133	54.663898
31132.860106	1153.067167	1147.279297	1.114855
31132.860106	1153.067167	1146.147461	-41.706161
31132.860106	1153.067167	1145.015625	-116.895401
31132.860106	1153.067167	1143.883789	-62.756138
31132.860106	1153.067167	1142.750977	-38.191326
31132.860106	1153.067167	1141.619141	-24.174997
31132.860106	1153.067167	1140.486328	-81.727409
31132.860106	1153.067167	1139.352539	-98.094315
31132.860106	1153.067167	1138.219727	-72.565880
31132.860106	1153.067167	1137.085938	-105.722168
31132.860106	1153.067167	1135.952148	-58.492165
31132.860106	1153.067167	1134.818359	-159.848022
31132.860106	1153.067167	1133.683594	-76.480118
31132.860106	1153.067167	1132.549805	66.226189
31132.860106	1153.067167	1131.415039	62.203102
31132.860106	1153.067167	1130.279297	214.166824
31132.860106	1153.067167	1129.144531	349.988159
31132.860106	1153.067167	1128.008789	306.624420
31132.860106	1153.067167	1126.873047	352.402954
31132.860106	1153.067167	1125.737305	376.584045
31132.860106	1153.067167	1124.601563	315.860657
31132.860106	1153.067167	1123.464844	317.327209
31132.860106	1153.067167	1122.328125	287.888367
31132.860106	1153.067167	1121.191406	68.592606
31132.860106	1153.067167	1120.054688	94.711006
31132.860106	1153.067167	1118.916992	95.382744
31132.860106	1153.067167	1117.779297	321.646515
31132.860106	1153.067167	1116.641602	197.869171
31132.860106	1153.067167	1115.503906	152.193893
31132.860106	1153.067167	1114.365234	23.780191
31132.860106	1153.067167	1113.226563	47.727547
31132.860106	1153.067167	1112.087891	144.082520
31132.860106	1153.067167	1110.949219	-7.626898
31132.860106	1153.067167	1109.809570	75.942207
31132.860106	1153.067167	1108.669922	66.614174
31132.860106	1153.067167	1107.530273	-74.830040
31132.860106	1153.067167	1106.390625	-74.932709
31132.860106	1153.067167	1105.250000	158.146927
31132.860106	1153.067167	1104.109375	258.397522
31132.860106	1153.067167	1102.968750	108.797333
31132.860106	1153.067167	1101.828125	167.450592
31132.860106	1153.067167	1100.686523	206.395142
31132.860106	1153.067167	1099.544922	227.513443
31132.860106	1153.067167	1098.403320	168.423416
31132.860106	1153.067167	1097.261719	144.923691
31132.860106	1153.067167	1096.120117	221.425171
31132.860106	1153.067167	1094.977539	179.906845
31132.860106	1153.067167	1093.834961	157.066940
31132.860106	1153.067167	1092.691406	261.842377
31132.860106	1153.067167	1091.548828	57.450478
31132.860106	1153.067167	1090.405273	310.872650
31132.860106	1153.067167	1089.261719	100.978264
31132.860106	1153.067167	1088.118164	47.556217
31132.860106	1153.067167	1086.973633	81.000198
31132.860106	1153.067167	1085.829102	215.705170
31132.860106	1153.067167	1084.684570	184.430756
31132.860106	1153.067167	1083.540039	111.650459
31132.860106	1153.067167	1082.395508	221.609268
31132.860106	1153.067167	1081.250000	122.694771
31132.860106	1153.067167	1080.104492	-127.073730
31132.860106	1153.067167	1078.958984	72.782181
31132.860106	1153.067167	1077.812500	72.993683
31132.860106	1153.067167	1076.666016	215.223831
31132.860106	1153.067167	1075.519531	-139.115326
31132.860106	1153.067167	1074.373047	164.747604
31132.860106	1153.067167	1073.226563	136.294006
31132.860106	1153.067167	1072.079102	255.254822
31132.860106	1153.067167	1070.931641	80.634232
31132.860106	1153.067167	1069.784180	220.288666
31132.860106	1153.067167	1068.635742	123.756500
31132.860106	1153.067167	1067.487305	192.764786
31132.860106	1153.067167	1066.338867	68.647522
31132.860106	1153.067167	1065.190430	217.047241
31132.860106	1153.067167	1064.041992	180.421005
31132.860106	1153.067167	1062.892578	321.913330
31132.860106	1153.067167	1061.743164	249.612030
31132.860106	1153.067167	1060.593750	105.604004
31132.860106	1153.067167	1059.443359	246.560028
31132.860106	1153.067167	1058.292969	262.093445
31132.860106	1153.067167	1057.142578	177.669144
31132.860106	1153.067167	1055.992188	166.947342
31132.860106	1153.067167	1054.841797	134.135086
31132.860106	1153.067167	1053.690430	82.294533
31132.860106	1153.067167	1052.539063	159.947540
31132.860106	1153.067167	1051.387695	109.501404
31132.860106	1153.067167	1050.235352	228.618668
31132.860106	1153.067167	1049.083984	185.279144
31132.860106	1153.067167	1047.931641	-36.381672
31132.860106	1153.067167	1046.778320	-36.808197
31132.860106	1153.067167	1045.625977	93.466072
31132.860106	1153.067167	1044.472656	47.435673
31132.860106	1153.067167	1043.319336	-29.037136
31132.860106	1153.067167	1042.166016	-57.704182
31132.860106	1153.067167	1041.012695	199.460052
31132.860106	1153.067167	1039.858398	66.496567
31132.860106	1153.067167	1038.704102	94.898712
31132.860106	1153.067167	1037.549805	-148.837265
31132.860106	1153.067167	1036.394531	12.014044
31132.860106	1153.067167	1035.239258	306.979401
31132.860106	1153.067167	1034.083984	189.100952
31132.860106	1153.067167	1032.928711	318.401367
31132.860106	1153.067167	1031.773438	295.470642
31132.860106	1153.067167	1030.617188	273.745880
31132.860106	1153.067167	1029.460938	44.621281
31132.860106	1153.067167	1028.304688	134.590256
31132.860106	1153.067167	1027.147461	279.267426
31132.860106	1153.067167	1025.991211	203.189743
31132.860106	1153.067167	1024.833984	192.161377
31132.860106	1153.067167	1023.675781	323.230255
31132.860106	1153.067167	1022.518555	255.437576
31132.860106	1153.067167	1021.360352	-156.962585
31132.860106	1153.067167	1020.202148	116.509491
31132.860106	1153.067167	1019.043945	-61.348080
31132.860106	1153.067167	1017.884766	10.039864
31132.860106	1153.067167	1016.726563	-16.657951
31132.860106	1153.067167	1015.567383	-60.163559
31132.860106	1153.067167	1014.407227	95.766312
31132.860106	1153.067167	1013.248047	-103.102592
31132.860106	1153.067167	1012.087891	-165.066833
31132.860106	1153.067167	1010.927734	-49.697956
31132.860106	1153.067167	1009.767578	-125.421448
31132.860106	1153.067167	1008.606445	0.936089
31132.860106	1153.067167	1007.446289	-12.265273
31132.860106	1153.067167	1006.285156	51.092422
31132.860106	1153.067167	1005.123047	75.151894
31132.860106	1153.067167	1003.961914	116.774529
31132.860106	1153.067167	1002.799805	155.177582
31132.860106	1153.067167	1001.637695	236.008728
31132.860106	1153.067167	1000.475586	133.578827
31132.860106	1153.067167	999.312500	118.914444
31132.860106	1153.067167	998.149414	-9.900086
31132.860106	1153.067167	996.986328	252.399261
31132.860106	1153.067167	995.823242	122.248360
31132.860106	1153.067167	994.659180	-51.184837
31132.860106	1153.067167	993.496094	102.461037
31132.860106	1153.067167	992.332031	-11.431627
31132.860106	1153.067167	991.166992	192.502594
31132.860106	1153.067167	990.002930	26.267981
31132.860106	1153.067167	988.837891	54.450714
31132.860106	1153.067167	987.672852	61.630775
31132.860106	1153.067167	986.506836	144.865433
31132.860106	1153.067167	985.341797	-35.335751
31132.860106	1153.067167	984.175781	-163.752197
31132.860106	1153.067167	983.009766	92.188454
31132.860106	1153.067167	981.843750	-30.202854
31132.860106	1153.067167	980.676758	22.865292
31132.860106	1153.067167	979.509766	44.105068
31132.860106	1153.067167	978.342773	16.387953
31132.860106	1153.067167	977.175781	-15.372581
31132.860106	1153.067167	976.007813	-37.208527
31132.860106	1153.067167	974.839844	-29.847939
31132.860106	1153.067167	973.671875	-49.813866
31132.860106	1153.067167	972.503906	-138.859818
31132.860106	1153.067167	971.334961	-83.922241
31132.860106	1153.067167	970.166016	-7.203633
31132.860106	1153.067167	968.997070	-189.717255
31132.860106	1153.067167	967.828125	-48.885548
31132.860106	1153.067167	966.658203	-138.282837
31132.860106	1153.067167	965.488281	-119.284279
31132.860106	1153.067167	964.318359	-87.434364
31132.860106	1153.067167	963.148438	140.112015
31132.860106	1153.067167	961.977539	-107.277206
31132.860106	1153.067167	960.806641	23.753441
31132.860106	1153.067167	959.635742	-62.604206
31132.860106	1153.067167	958.463867	87.742233
31132.860106	1153.067167	957.292969	-158.257996
31132.860106	1153.067167	956.121094	-78.885406
31132.860106	1153.067167	954.948242	-9.449283
31132.860106	1153.067167	953.776367	37.707878
31132.860106	1153.067167	952.603516	131.312149
31132.860106	1153.067167	951.430664	-12.629256
31132.860106	1153.067167	950.257813	92.494423
31132.860106	1153.067167	949.084961	82.854507
31132.860106	1153.067167	947.911133	105.993240
31132.860106	1153.067167	946.737305	-33.673824
31132.860106	1153.067167	945.563477	-15.819110
31132.860106	1153.067167	944.388672	-119.600685
31132.860106	1153.067167	943.213867	8.918610
31132.860106	1153.067167	942.039063	-46.584049
31132.860106	1153.067167	940.864258	-64.195152
31132.860106	1153.067167	939.688477	119.738617
31132.860106	1153.067167	938.513672	35.488026
31132.860106	1153.067167	937.337891	59.835808
31132.860106	1153.067167	936.161133	237.121155
31132.860106	1153.067167	934.985352	1.846471
31132.860106	1153.067167	933.808594	108.084335
31132.860106	1153.067167	932.631836	138.886475
31132.860106	1153.067167	931.454102	109.726280
31132.860106	1153.067167	930.277344	437.421875
31132.860106	1153.067167	929.099609	261.980072
31132.860106	1153.067167	927.921875	259.347351
31132.860106	1153.067167	926.743164	258.883606
31132.860106	1153.067167	925.565430	468.854492
31132.860106	1153.067167	924.386719	322.152374
31132.860106	1153.067167	923.208008	235.249146
31132.860106	1153.067167	922.028320	190.410889
31132.860106	1153.067167	920.849609	298.298035
31132.860106	1153.067167	919.669922	301.852448
31132.860106	1153.067167	919.474609	50.384258
31132.860106	1153.067167	918.309570	-12.230092
31132.860106	1153.067167	917.143555	37.974834
31132.860106	1153.067167	915.977539	52.736729
31132.860106	1153.067167	914.810547	63.040226
31132.860106	1153.067167	913.644531	66.671066
31132.860106	1153.067167	912.477539	-22.565954
31132.860106	1153.067167	911.310547	45.108952
31132.860106	1153.067167	910.143555	-130.322403
31132.860106	1153.067167	908.975586	-170.957550
31132.860106	1153.067167	907.807617	-151.973663
31132.860106	1153.067167	906.639648	-159.526642
31132.860106	1153.067167	905.471680	-58.926670
31132.860106	1153.067167	904.303711	-168.089401
31132.860106	1153.067167	903.134766	-41.103733
31132.860106	1153.067167	901.965820	-181.172119
31132.860106	1153.067167	900.796875	-45.468998
31132.860106	1153.067167	899.626953	-99.519882
31132.860106	1153.067167	898.457031	71.337097
31132.860106	1153.067167	897.287109	87.776123
31132.860106	1153.067167	896.117188	115.200844
31132.860106	1153.067167	894.947266	69.865494
31132.860106	1153.067167	893.776367	-43.776070
31132.860106	1153.067167	892.605469	78.300446
31132.860106	1153.067167	891.434570	32.923473
31132.860106	1153.067167	890.262695	-36.680737
31132.860106	1153.067167	889.091797	127.069450
31132.860106	1153.067167	887.919922	39.816612
31132.860106	1153.067167	886.748047	229.841965
31132.860106	1153.067167	885.575195	-88.454544
31132.860106	1153.067167	884.403320	-131.692276
31132.860106	1153.067167	883.230469	117.558273
31132.860106	1153.067167	882.057617	87.442635
31132.860106	1153.067167	880.883789	-171.304367
31132.860106	1153.067167	879.710938	-91.504097
31132.860106	1153.067167	878.537109	80.533493
31132.860106	1153.067167	877.362305	13.012715
31132.860106	1153.067167	876.188477	-56.702148
31132.860106	1153.067167	875.013672	-130.801056
31132.860106	1153.067167	873.839844	-11.681395
31132.860106	1153.067167	872.664063	-19.947216
31132.860106	1153.067167	871.489258	9.076350
31132.860106	1153.067167	870.313477	112.673790
31132.860106	1153.067167	869.138672	1.212503
31132.860106	1153.067167	867.962891	-57.582680
31132.860106	1153.067167	866.786133	100.725922
31132.860106	1153.067167	865.610352	48.470634
31132.860106	1153.067167	864.433594	-65.158005
31132.860106	1153.067167	863.256836	-45.075748
31132.860106	1153.067167	862.079102	-213.455353
31132.860106	1153.067167	860.902344	-219.678253
31132.860106	1153.067167	859.724609	-30.988615
31132.860106	1153.067167	858.546875	-107.356850
31132.860106	1153.067167	857.368164	-109.274162
31132.860106	1153.067167	856.190430	6.985567
31132.860106	1153.067167	855.011719	70.659439
31132.860106	1153.067167	853.833008	-97.635986
31132.860106	1153.067167	852.654297	-119.318512
31132.860106	1153.067167	851.474609	-62.273975
31132.860106	1153.067167	850.294922	-14.018600
31132.860106	1153.067167	849.115234	187.230972
31132.860106	1153.067167	847.935547	38.664330
31132.860106	1153.067167	846.754883	-79.263626
31132.860106	1153.067167	845.575195	202.658798
31132.860106	1153.067167	844.393555	110.923889
31132.860106	1153.067167	843.212891	75.988823
31132.860106	1153.067167	842.032227	141.490097
31132.860106	1153.067167	840.850586	130.542664
31132.860106	1153.067167	839.668945	119.581566
31132.860106	1153.067167	838.486328	126.066437
31132.860106	1153.067167	837.304688	202.343903
31132.860106	1153.067167	836.122070	204.412201
31132.860106	1153.067167	834.939453	51.627316
31132.860106	1153.067167	833.756836	108.199280
31132.860106	1153.067167	832.573242	208.329819
31132.860106	1153.067167	831.389648	105.715744
31132.860106	1153.067167	830.206055	164.370773
31132.860106	1153.067167	829.022461	273.090881
31132.860106	1153.067167	827.838867	248.886841
31132.860106	1153.067167	826.654297	139.749329
31132.860106	1153.067167	825.469727	239.649643
31132.860106	1153.067167	824.284180	237.185806
31132.860106	1153.067167	823.099609	293.465515
31132.860106	1153.067167	821.914063	190.869354
31132.860106	1153.067167	820.728516	77.422386
31132.860106	1153.067167	819.542969	279.371674
31132.860106	1153.067167	818.356445	102.859123
31132.860106	1153.067167	817.169922	172.070908
31132.860106	1153.067167	815.983398	130.382980
31132.860106	1153.067167	814.796875	-98.194885
31132.860106	1153.067167	813.609375	125.227158
31132.860106	1153.067167	812.422852	146.518677
31132.860106	1153.067167	811.235352	156.927216
31132.860106	1153.067167	810.046875	-25.936008
31132.860106	1153.067167	808.859375	75.647278
31132.860106	1153.067167	807.670898	49.114925
31132.860106	1153.067167	806.482422	5.216660
31132.860106	1153.067167	805.293945	230.344009
31132.860106	1153.067167	804.104492	99.627914
31132.860106	1153.067167	802.915039	118.585693
31132.860106	1153.067167	801.725586	87.648895
31132.860106	1153.067167	800.536133	-110.210884
31132.860106	1153.067167	799.345703	-169.297363
31132.860106	1153.067167	798.155273	27.312078
31132.860106	1153.067167	796.964844	-111.971527
31132.860106	1153.067167	795.774414	-32.453953
31132.860106	1153.067167	794.583008	-28.779829
31132.860106	1153.067167	793.392578	52.815300
31132.860106	1153.067167	792.200195	-56.125694
31132.860106	1153.067167	791.008789	-106.609818
31132.860106	1153.067167	789.816406	-70.542503
31132.860106	1153.067167	788.625000	-36.672878
31132.860106	1153.067167	787.432617	-126.117378
31132.860106	1153.067167	786.239258	-167.970947
31132.860106	1153.067167	785.046875	-19.577332
31132.860106	1153.067167	783.853516	-80.929085
31132.860106	1153.067167	782.660156	-14.773355
31132.860106	1153.067167	781.465820	-7.001101
31132.860106	1153.067167	780.272461	-35.976482
31132.860106	1153.067167	779.078125	-58.479294
31132.860106	1153.067167	777.883789	-91.790833
31132.860106	1153.067167	776.688477	-21.486704
31132.860106	1153.067167	775.494141	55.240917
31132.860106	1153.067167	774.298828	-92.505104
31132.860106	1153.067167	773.103516	-134.497238
31132.860106	1153.067167	771.907227	80.190796
31132.860106	1153.067167	770.711914	113.615959
31132.860106	1153.067167	769.515625	32.731529
31132.860106	1153.067167	768.318359	-11.495968
31132.860106	1153.067167	767.122070	-195.816116
31132.860106	1153.067167	765.924805	-168.916351
31132.860106	1153.067167	764.727539	-150.668671
31132.860106	1153.067167	763.530273	-87.221748
31132.860106	1153.067167	762.333008	-118.574860
31132.860106	1153.067167	761.134766	-63.820499
31132.860106	1153.067167	759.936523	-2.655783
31132.860106	1153.067167	758.738281	4.657309
31132.860106	1153.067167	757.540039	-74.123672
31132.860106	1153.067167	756.340820	81.581528
31132.860106	1153.067167	755.141602	13.520196
31132.860106	1153.067167	753.942383	52.975266
31132.860106	1153.067167	752.742188	122.485901
31132.860106	1153.067167	751.541992	-85.330437
31132.860106	1153.067167	750.341797	177.530853
31132.860106	1153.067167	749.141602	156.654434
31132.860106	1153.067167	747.941406	19.764648
31132.860106	1153.067167	746.740234	-74.144402
31132.860106	1153.067167	745.539063	-45.654381
31132.860106	1153.067167	744.337891	64.369186
31132.860106	1153.067167	743.135742	137.832458
31132.860106	1153.067167	741.933594	-159.988770
31132.860106	1153.067167	740.731445	-114.458054
31132.860106	1153.067167	739.529297	-36.802277
31132.860106	1153.067167	738.326172	-21.398594
31132.860106	1153.067167	737.124023	-14.607899
31132.860106	1153.067167	735.919922	2.866617
31132.860106	1153.067167	734.716797	183.179672
31132.860106	1153.067167	733.513672	-5.153348
31132.860106	1153.067167	732.309570	-49.910110
31132.860106	1153.067167	731.105469	14.548678
31132.860106	1153.067167	729.900391	-113.769554
31132.860106	1153.067167	728.696289	64.076401
31132.860106	1153.067167	727.491211	-45.000866
31132.860106	1153.067167	726.286133	68.490585
31132.860106	1153.067167	725.080078	-17.075708
31132.860106	1153.067167	723.874023	235.334229
31132.860106	1153.067167	722.668945	147.562103
31132.860106	1153.067167	721.461914	224.430130
31132.860106	1153.067167	720.255859	-4.464612
31132.860106	1153.067167	719.048828	-137.122025
31132.860106	1153.067167	717.841797	-30.433779
31132.860106	1153.067167	716.634766	-22.099401
31132.860106	1153.067167	715.427734	120.758713
31132.860106	1153.067167	714.219727	-33.316231
31132.860106	1153.067167	713.011719	-18.693331
31132.860106	1153.067167	711.803711	70.595856
31132.860106	1153.067167	710.594727	155.541702
31132.860106	1153.067167	709.385742	48.378727
31132.860106	1153.067167	708.176758	-114.243965
31132.860106	1153.067167	706.967773	53.750469
31132.860106	1153.067167	705.758789	-6.528911
31132.860106	1153.067167	704.548828	73.882736
31132.860106	1153.067167	703.338867	105.197632
31132.860106	1153.067167	702.127930	74.656921
31132.860106	1153.067167	700.917969	178.316437
31132.860106	1153.067167	699.707031	68.876526
31132.860106	1153.067167	698.496094	51.018288
31132.860106	1153.067167	697.285156	75.710190
31132.860106	1153.067167	696.073242	93.961777
31132.860106	1153.067167	694.861328	207.939606
31132.860106	1153.067167	693.649414	157.977402
31132.860106	1153.067167	692.436523	142.031876
31132.860106	1153.067167	691.224609	149.448486
31132.860106	1153.067167	690.011719	337.573547
31132.860106	1153.067167	688.798828	404.387268
31132.860106	1153.067167	687.584961	313.828705
31132.860106	1153.067167	686.372070	182.885162
31132.860106	1153.067167	685.158203	221.933014
31132.860106	1153.067167	683.943359	246.047073
31132.860106	1153.067167	682.729492	236.124100
31132.860106	1153.067167	681.514648	642.350769
31132.860106	1153.067167	680.299805	625.887268
31132.860106	1153.067167	679.084961	513.870117
31132.860106	1153.067167	677.869141	552.520264
31132.860106	1153.067167	676.653320	546.552734
31132.860106	1153.067167	675.437500	483.268097
31132.860106	1153.067167	674.221680	526.001099
31132.860106	1153.067167	673.004883	386.320313
31132.860106	1153.067167	671.789063	227.573334
31132.860106	1153.067167	670.571289	386.753204
31132.860106	1153.067167	669.354492	327.565765
31132.860106	1153.067167	668.136719	234.457687
31132.860106	1153.067167	666.919922	475.996643
31132.860106	1153.067167	665.701172	363.737732
31132.860106	1153.067167	664.483398	308.643158
31132.860106	1153.067167	663.264648	427.092896
31132.860106	1153.067167	662.045898	285.139343
31132.860106	1153.067167	660.827148	454.224823
31132.860106	1153.067167	659.608398	324.918518
31132.860106	1153.067167	658.388672	168.121567
31132.860106	1153.067167	657.168945	366.575104
31132.860106	1153.067167	655.949219	469.762421
31132.860106	1153.067167	654.728516	441.810150
31132.860106	1153.067167	653.507813	204.616821
31132.860106	1153.067167	652.287109	345.648132
31132.860106	1153.067167	651.066406	463.333679
31132.860106	1153.067167	649.844727	300.045166
31132.860106	1153.067167	648.623047	185.336533
31132.860106	1153.067167	647.401367	184.614914
31132.860106	1153.067167	646.179688	264.040466
31132.860106	1153.067167	644.957031	301.178070
31132.860106	1153.067167	643.734375	321.371887
31132.860106	1153.067167	642.511719	124.265480
31132.860106	1153.067167	641.289063	131.733841
31132.860106	1153.067167	640.065430	309.912079
31132.860106	1153.067167	638.841797	279.292938
31132.860106	1153.067167	637.618164	198.057190
31132.860106	1153.067167	636.393555	392.807556
31132.860106	1153.067167	635.168945	265.135620
31132.860106	1153.067167	633.944336	171.162552
31132.860106	1153.067167	632.719727	131.922592
31132.860106	1153.067167	631.494141	40.016460
31132.860106	1153.067167	630.269531	175.407013
31132.860106	1153.067167	629.042969	262.284790
31132.860106	1153.067167	627.817383	332.247528
31132.860106	1153.067167	626.590820	366.370483
31132.860106	1153.067167	625.365234	249.022125
31132.860106	1153.067167	624.137695	224.174789
31132.860106	1153.067167	622.911133	68.965813
31132.860106	1153.067167	621.683594	86.096107
31132.860106	1153.067167	620.456055	176.707657
31132.860106	1153.067167	619.228516	101.279160
31132.860106	1153.067167	618.000977	225.351822
31132.860106	1153.067167	616.772461	4.956707
31132.860106	1153.067167	615.543945	-11.760131
31132.860106	1153.067167	614.314453	183.463745
31132.860106	1153.067167	613.085938	349.180328
31132.860106	1153.067167	611.856445	168.606583
31132.860106	1153.067167	610.626953	235.570450
31132.860106	1153.067167	609.397461	25.639591
31132.860106	1153.067167	608.166992	174.273560
31132.860106	1153.067167	606.936523	188.639282
31132.860106	1153.067167	605.706055	39.481201
31132.860106	1153.067167	604.474609	-199.762665
31132.860106	1153.067167	603.244141	-51.398056
31132.860106	1153.067167	602.012695	107.324722
31132.860106	1153.067167	600.780273	123.538742
31132.860106	1153.067167	599.548828	102.019539
31132.860106	1153.067167	598.316406	113.949280
31132.860106	1153.067167	597.083984	268.128052
31132.860106	1153.067167	595.851563	83.259399
31132.860106	1153.067167	594.618164	210.091675
31132.860106	1153.067167	593.384766	94.233704
31132.860106	1153.067167	592.151367	-52.982040
31132.860106	1153.067167	590.917969	71.575729
31132.860106	1153.067167	589.683594	62.274429
31132.860106	1153.067167	588.449219	205.469162
31132.860106	1153.067167	587.214844	51.910404
31132.860106	1153.067167	585.979492	163.627609
31132.860106	1153.067167	584.745117	5.883556
31132.860106	1153.067167	583.509766	-93.381462
31132.860106	1153.067167	582.273438	-113.333061
31132.860106	1153.067167	581.038086	-35.228733
31132.860106	1153.067167	579.801758	115.821823
31132.860106	1153.067167	578.565430	-108.704865
31132.860106	1153.067167	577.329102	-22.432297
31132.860106	1153.067167	576.091797	-38.407337
31132.860106	1153.067167	574.854492	172.810501
31132.860106	1153.067167	573.617188	-57.946175
31132.860106	1153.067167	572.378906	88.512009
31132.860106	1153.067167	571.141602	76.545265
31132.860106	1153.067167	569.903320	18.721249
31132.860106	1153.067167	568.664063	-59.942924
31132.860106	1153.067167	567.425781	27.955107
31132.860106	1153.067167	566.186523	-32.012245
31132.860106	1153.067167	564.947266	-29.553633
31132.860106	1153.067167	563.708008	-16.727047
31132.860106	1153.067167	562.467773	116.708527
31132.860106	1153.067167	561.227539	-86.862717
31132.860106	1153.067167	559.987305	21.516876
31132.860106	1153.067167	558.747070	44.587189
31132.860106	1153.067167	557.505859	-27.993847
31132.860106	1153.067167	556.264648	-4.987440
31132.860106	1153.067167	555.023438	136.400009
31132.860106	1153.067167	553.781250	28.444546
31132.860106	1153.067167	552.539063	28.492449
31132.860106	1153.067167	551.296875	273.504303
31132.860106	1153.067167	550.054688	9.828437
31132.860106	1153.067167	548.811523	244.306213
31132.860106	1153.067167	547.569336	61.618057
31132.860106	1153.067167	546.325195	38.703842
31132.860106	1153.067167	545.082031	98.738235
31132.860106	1153.067167	543.837891	88.220695
31132.860106	1153.067167	542.593750	139.876556
31132.860106	1153.067167	541.349609	19.460323
31132.860106	1153.067167	540.105469	31.694302
31132.860106	1153.067167	538.860352	23.179512
31132.860106	1153.067167	537.615234	-10.206347
31132.860106	1153.067167	536.369141	-6.328111
31132.860106	1153.067167	535.124023	45.155037
31132.860106	1153.067167	533.877930	-160.083878
31132.860106	1153.067167	532.631836	79.695160
31132.860106	1153.067167	531.384766	104.164360
31132.860106	1153.067167	530.138672	-65.839333
31132.860106	1153.067167	528.891602	-208.905716
31132.860106	1153.067167	527.643555	-167.902435
31132.860106	1153.067167	526.396484	-60.771839
31132.860106	1153.067167	525.148438	38.025101
31132.860106	1153.067167	523.900391	-69.876099
31132.860106	1153.067167	522.652344	14.390258
31132.860106	1153.067167	521.403320	-157.523346
31132.860106	1153.067167	520.154297	-286.009735
31132.860106	1153.067167	518.905273	-154.307755
31132.860106	1153.067167	517.656250	-45.380898
31132.860106	1153.067167	516.406250	-17.003529
31132.860106	1153.067167	515.156250	-38.170101
31132.860106	1153.067167	513.906250	-156.293381
31132.860106	1153.067167	512.655273	78.293587
31132.860106	1153.067167	511.404297	-114.062904
31132.860106	1153.067167	510.153320	-23.914360
31132.860106	1153.067167	508.902344	-102.825981
31132.860106	1153.067167	507.650391	-163.171997
31132.860106	1153.067167	506.398438	-44.263401
31132.860106	1153.067167	505.146484	-170.528778
31132.860106	1153.067167	503.893555	-31.101254
31132.860106	1153.067167	502.641602	-134.686035
31132.860106	1153.067167	501.388672	-48.863983
31132.860106	1153.067167	500.134766	-195.648804
31132.860106	1153.067167	498.881836	-2.876647
31132.860106	1153.067167	497.627930	-96.142197
31132.860106	1153.067167	496.374023	-4.276244
31132.860106	1153.067167	495.119141	-126.313576
31132.860106	1153.067167	493.865234	-5.720382
31132.860106	1153.067167	492.610352	86.030525
31132.860106	1153.067167	491.355469	-52.419159
31132.860106	1153.067167	490.099609	-30.577095
31132.860106	1153.067167	488.843750	167.889725
31132.860106	1153.067167	487.587891	78.758148
31132.860106	1153.067167	486.332031	-43.198914
31132.860106	1153.067167	485.075195	-111.751106
31132.860106	1153.067167	483.818359	-112.563660
31132.860106	1153.067167	482.561523	-43.630474
31132.860106	1153.067167	481.304688	12.950021
31132.860106	1153.067167	480.046875	92.044617
31132.860106	1153.067167	478.789063	123.927307
31132.860106	1153.067167	477.531250	180.377365
31132.860106	1153.067167	476.272461	93.306282
31132.860106	1153.067167	475.013672	-126.942825
31132.860106	1153.067167	473.754883	130.231384
31132.860106	1153.067167	472.496094	200.879379
31132.860106	1153.067167	471.236328	68.731590
31132.860106	1153.067167	469.976563	-94.096649
31132.860106	1153.067167	468.716797	-142.252380
31132.860106	1153.067167	467.456055	-100.376572
31132.860106	1153.067167	466.196289	160.383881
31132.860106	1153.067167	464.935547	-84.273979
31132.860106	1153.067167	463.673828	-40.495705
31132.860106	1153.067167	462.413086	64.573631
31132.860106	1153.067167	461.151367	95.957764
31132.860106	1153.067167	459.889648	25.095644
31132.860106	1153.067167	458.626953	64.558327
31132.860106	1153.067167	457.364258	81.485779
31132.860106	1153.067167	456.101563	37.081516
31132.860106	1153.067167	454.838867	96.792099
31132.860106	1153.067167	453.575195	-186.580566
31132.860106	1153.067167	452.312500	-245.347946
31132.860106	1153.067167	451.047852	71.337318
31132.860106	1153.067167	449.784180	-14.114628
31132.860106	1153.067167	448.519531	249.217484
31132.860106	1153.067167	447.254883	137.108688
31132.860106	1153.067167	445.990234	-5.609592
31132.860106	1153.067167	444.725586	79.973991
31132.860106	1153.067167	443.459961	130.785858
31132.860106	1153.067167	442.194336	146.849716
31132.860106	1153.067167	440.927734	91.507530
31132.860106	1153.067167	439.662109	201.082291
31132.860106	1153.067167	438.395508	159.814453
31132.860106	1153.067167	437.127930	214.143539
31132.860106	1153.067167	435.861328	81.083885
31132.860106	1153.067167	434.593750	271.532227
31132.860106	1153.067167	433.326172	294.943207
31132.860106	1153.067167	432.058594	373.142670
31132.860106	1153.067167	430.790039	231.532120
31132.860106	1153.067167	429.521484	134.580582
31132.860106	1153.067167	428.252930	216.418945
31132.860106	1153.067167	426.984375	279.783417
31132.860106	1153.067167	425.714844	68.647575
31132.860106	1153.067167	424.445313	196.704666
31132.860106	1153.067167	423.174805	168.139526
31132.860106	1153.067167	421.905273	70.380692
31132.860106	1153.067167	420.634766	348.060699
31132.860106	1153.067167	419.364258	256.017975
31132.860106	1153.067167	418.092773	508.793335
31132.860106	1153.067167	416.822266	284.480591
31132.860106	1153.067167	415.550781	279.114502
31132.860106	1153.067167	414.278320	326.249939
31132.860106	1153.067167	413.006836	371.118561
31132.860106	1153.067167	411.734375	391.395111
31132.860106	1153.067167	410.461914	198.616562
31132.860106	1153.067167	409.188477	439.269073
31132.860106	1153.067167	407.916016	290.610199
31132.860106	1153.067167	406.642578	324.011322
31132.860106	1153.067167	405.368164	328.753754
31132.860106	1153.067167	404.094727	258.303558
31132.860106	1153.067167	402.820313	100.531830
31132.860106	1153.067167	401.545898	74.044434
31132.860106	1153.067167	400.270508	160.525146
31132.860106	1153.067167	398.996094	234.501175
31132.860106	1153.067167	397.720703	79.564209
31132.860106	1153.067167	396.444336	375.185791
31132.860106	1153.067167	395.168945	211.456253
31132.860106	1153.067167	393.892578	338.410980
31132.860106	1153.067167	392.616211	283.060638
31132.860106	1153.067167	391.339844	388.922119
31132.860106	1153.067167	390.062500	110.560043
31132.860106	1153.067167	388.785156	247.827667
31132.860106	1153.067167	387.507813	174.622711
31132.860106	1153.067167	386.229492	290.680481
31132.860106	1153.067167	384.951172	355.748688
31132.860106	1153.067167	383.672852	85.384041
31132.860106	1153.067167	382.394531	236.166367
31132.860106	1153.067167	381.115234	168.537842
31132.860106	1153.067167	379.835938	227.394547
31132.860106	1153.067167	378.556641	138.505478
31132.860106	1153.067167	377.277344	224.386353
31132.860106	1153.067167	375.997070	224.978851
31132.860106	1153.067167	374.716797	96.019890
31132.860106	1153.067167	373.435547	99.366302
31132.860106	1153.067167	372.155273	73.871086
31132.860106	1153.067167	370.874023	-18.754221
31132.860106	1153.067167	369.591797	38.874886
31132.860106	1153.067167	368.310547	-55.147614
31132.860106	1153.067167	367.028320	-123.751518
31132.860106	1153.067167	365.746094	-0.018033
31132.860106	1153.067167	364.463867	-62.137211
31132.860106	1153.067167	363.180664	65.915268
31132.860106	1153.067167	361.897461	146.834763
31132.860106	1153.067167	360.614258	130.389664
31132.860106	1153.067167	359.330078	207.459122
31132.860106	1153.067167	358.045898	8.383331
31132.860106	1153.067167	356.761719	-34.909832
31132.860106	1153.067167	355.477539	258.152496
31132.860106	1153.067167	354.192383	52.231472
31132.860106	1153.067167	352.907227	60.112148
31132.860106	1153.067167	351.622070	18.775795
31132.860106	1153.067167	350.336914	321.412109
31132.860106	1153.067167	349.050781	249.725479
31132.860106	1153.067167	347.764648	138.825867
31132.860106	1153.067167	346.477539	86.905869
31132.860106	1153.067167	345.191406	142.064148
31132.860106	1153.067167	343.904297	9.565192
31132.860106	1153.067167	342.616211	138.261993
31132.860106	1153.067167	341.329102	-18.793945
31132.860106	1153.067167	340.041016	-97.058777
31132.860106	1153.067167	338.752930	-106.592758
31132.860106	1153.067167	337.463867	-49.517628
31132.860106	1153.067167	336.175781	20.130682
31132.860106	1153.067167	334.886719	-311.940277
31132.860106	1153.067167	333.596680	-153.342941
31132.860106	1153.067167	332.307617	-72.333389
31132.860106	1153.067167	331.017578	-54.991470
31132.860106	1153.067167	329.727539	-25.308706
31132.860106	1153.067167	328.436523	-45.338276
31132.860106	1153.067167	327.146484	-178.937119
31132.860106	1153.067167	325.855469	-80.559456
31132.860106	1153.067167	324.563477	-251.731018
31132.860106	1153.067167	323.272461	-157.052338
31132.860106	1153.067167	321.980469	-279.989197
31132.860106	1153.067167	320.688477	-49.533878
31132.860106	1153.067167	319.395508	57.035847
31132.860106	1153.067167	318.103516	-137.699661
31132.860106	1153.067167	316.810547	22.547112
31132.860106	1153.067167	315.516602	-50.818886
31132.860106	1153.067167	314.223633	-114.323975
31132.860106	1153.067167	312.929688	126.868523
31132.860106	1153.067167	311.635742	297.892578
31132.860106	1153.067167	310.340820	44.002163
31132.860106	1153.067167	309.045898	188.220291
31132.860106	1153.067167	307.750977	252.232101
31132.860106	1153.067167	306.456055	-170.172806
31132.860106	1153.067167	305.160156	495.894562
31132.860106	1153.067167	303.865234	299.278931
31132.860106	1153.067167	302.568359	539.656616
31132.860106	1153.067167	301.272461	327.624420
31132.860106	1153.067167	299.975586	592.132813
31132.860106	1153.067167	298.678711	791.985840
