#X		#Y		#Wave		#Intensity
-13837.034787	17595.171167	2000.043945	-238.834351
-13837.034787	17595.171167	1999.080078	102.514442
-13837.034787	17595.171167	1998.116211	645.116150
-13837.034787	17595.171167	1997.151367	136.720840
-13837.034787	17595.171167	1996.186523	-64.299713
-13837.034787	17595.171167	1995.222656	-37.393986
-13837.034787	17595.171167	1994.256836	133.108795
-13837.034787	17595.171167	1993.291992	221.784348
-13837.034787	17595.171167	1992.327148	419.315918
-13837.034787	17595.171167	1991.361328	166.214615
-13837.034787	17595.171167	1990.395508	83.937958
-13837.034787	17595.171167	1989.429688	204.558105
-13837.034787	17595.171167	1988.463867	-164.759109
-13837.034787	17595.171167	1987.497070	42.368107
-13837.034787	17595.171167	1986.531250	-74.592270
-13837.034787	17595.171167	1985.564453	369.750397
-13837.034787	17595.171167	1984.597656	-236.783264
-13837.034787	17595.171167	1983.630859	-22.508194
-13837.034787	17595.171167	1982.664063	199.073074
-13837.034787	17595.171167	1981.696289	-187.271484
-13837.034787	17595.171167	1980.728516	86.087250
-13837.034787	17595.171167	1979.761719	-186.526291
-13837.034787	17595.171167	1978.792969	-130.627533
-13837.034787	17595.171167	1977.825195	-42.671448
-13837.034787	17595.171167	1976.857422	-379.359131
-13837.034787	17595.171167	1975.888672	-311.176971
-13837.034787	17595.171167	1974.919922	-72.773430
-13837.034787	17595.171167	1973.951172	197.598511
-13837.034787	17595.171167	1972.982422	201.447479
-13837.034787	17595.171167	1972.013672	-260.839020
-13837.034787	17595.171167	1971.043945	66.080429
-13837.034787	17595.171167	1970.075195	151.259521
-13837.034787	17595.171167	1969.105469	-47.065060
-13837.034787	17595.171167	1968.135742	-255.182632
-13837.034787	17595.171167	1967.165039	-2.482472
-13837.034787	17595.171167	1966.195313	208.229660
-13837.034787	17595.171167	1965.224609	-90.993439
-13837.034787	17595.171167	1964.253906	328.953339
-13837.034787	17595.171167	1963.283203	59.343838
-13837.034787	17595.171167	1962.312500	-131.407578
-13837.034787	17595.171167	1961.341797	29.855679
-13837.034787	17595.171167	1960.370117	205.810349
-13837.034787	17595.171167	1959.399414	199.627075
-13837.034787	17595.171167	1958.427734	-25.485464
-13837.034787	17595.171167	1957.455078	265.941589
-13837.034787	17595.171167	1956.483398	77.762421
-13837.034787	17595.171167	1955.511719	420.669220
-13837.034787	17595.171167	1954.539063	89.951790
-13837.034787	17595.171167	1953.566406	100.941467
-13837.034787	17595.171167	1952.593750	237.228073
-13837.034787	17595.171167	1951.621094	22.159246
-13837.034787	17595.171167	1950.647461	84.704269
-13837.034787	17595.171167	1949.674805	115.295349
-13837.034787	17595.171167	1948.701172	300.542999
-13837.034787	17595.171167	1947.727539	215.684662
-13837.034787	17595.171167	1946.753906	543.173340
-13837.034787	17595.171167	1945.780273	-167.460037
-13837.034787	17595.171167	1944.805664	-345.445526
-13837.034787	17595.171167	1943.831055	-67.123856
-13837.034787	17595.171167	1942.856445	159.574982
-13837.034787	17595.171167	1941.881836	-35.572006
-13837.034787	17595.171167	1940.907227	171.403610
-13837.034787	17595.171167	1939.932617	343.970184
-13837.034787	17595.171167	1938.957031	-22.688511
-13837.034787	17595.171167	1937.981445	100.821068
-13837.034787	17595.171167	1937.005859	-37.856976
-13837.034787	17595.171167	1936.030273	-49.133240
-13837.034787	17595.171167	1935.054688	277.523041
-13837.034787	17595.171167	1934.078125	-223.517029
-13837.034787	17595.171167	1933.101563	-9.586510
-13837.034787	17595.171167	1932.125000	392.704712
-13837.034787	17595.171167	1931.148438	165.938126
-13837.034787	17595.171167	1930.171875	-229.570419
-13837.034787	17595.171167	1929.194336	111.327332
-13837.034787	17595.171167	1928.217773	-269.389526
-13837.034787	17595.171167	1927.240234	215.622910
-13837.034787	17595.171167	1926.262695	267.707397
-13837.034787	17595.171167	1925.284180	195.097992
-13837.034787	17595.171167	1924.306641	794.547302
-13837.034787	17595.171167	1923.328125	18.125628
-13837.034787	17595.171167	1922.350586	72.566086
-13837.034787	17595.171167	1921.372070	-234.525986
-13837.034787	17595.171167	1920.392578	-167.893539
-13837.034787	17595.171167	1919.414063	328.399811
-13837.034787	17595.171167	1918.434570	-125.107208
-13837.034787	17595.171167	1917.456055	-229.458603
-13837.034787	17595.171167	1916.476563	300.653809
-13837.034787	17595.171167	1915.497070	305.998627
-13837.034787	17595.171167	1914.516602	-169.229446
-13837.034787	17595.171167	1913.537109	177.574112
-13837.034787	17595.171167	1912.556641	77.998512
-13837.034787	17595.171167	1911.576172	-631.050781
-13837.034787	17595.171167	1910.595703	-338.070709
-13837.034787	17595.171167	1909.615234	100.988846
-13837.034787	17595.171167	1908.633789	-161.876953
-13837.034787	17595.171167	1907.653320	-51.953827
-13837.034787	17595.171167	1906.671875	28.663439
-13837.034787	17595.171167	1905.690430	-68.553162
-13837.034787	17595.171167	1904.708984	-221.772385
-13837.034787	17595.171167	1903.727539	19.383900
-13837.034787	17595.171167	1902.745117	576.809143
-13837.034787	17595.171167	1901.762695	-46.196476
-13837.034787	17595.171167	1900.780273	-167.828995
-13837.034787	17595.171167	1899.797852	184.871704
-13837.034787	17595.171167	1898.815430	-177.606857
-13837.034787	17595.171167	1897.832031	170.015259
-13837.034787	17595.171167	1896.849609	92.023392
-13837.034787	17595.171167	1895.866211	16.450869
-13837.034787	17595.171167	1894.882813	23.484917
-13837.034787	17595.171167	1893.898438	-122.602486
-13837.034787	17595.171167	1892.915039	-139.928009
-13837.034787	17595.171167	1891.930664	3.006203
-13837.034787	17595.171167	1890.947266	422.673492
-13837.034787	17595.171167	1889.962891	-357.256622
-13837.034787	17595.171167	1888.977539	28.238445
-13837.034787	17595.171167	1887.993164	-54.875519
-13837.034787	17595.171167	1887.007813	-21.534691
-13837.034787	17595.171167	1886.023438	322.281647
-13837.034787	17595.171167	1885.038086	-47.222286
-13837.034787	17595.171167	1884.051758	218.757339
-13837.034787	17595.171167	1883.066406	-22.188152
-13837.034787	17595.171167	1882.081055	-122.486366
-13837.034787	17595.171167	1881.094727	404.966156
-13837.034787	17595.171167	1880.108398	171.224548
-13837.034787	17595.171167	1879.122070	27.159216
-13837.034787	17595.171167	1878.135742	217.390533
-13837.034787	17595.171167	1877.148438	-93.864944
-13837.034787	17595.171167	1876.162109	154.316925
-13837.034787	17595.171167	1875.174805	60.967522
-13837.034787	17595.171167	1874.187500	386.365051
-13837.034787	17595.171167	1873.199219	9.721924
-13837.034787	17595.171167	1872.211914	388.115143
-13837.034787	17595.171167	1871.223633	35.681137
-13837.034787	17595.171167	1870.236328	-261.053650
-13837.034787	17595.171167	1869.248047	-61.972496
-13837.034787	17595.171167	1868.258789	313.470642
-13837.034787	17595.171167	1867.270508	205.216660
-13837.034787	17595.171167	1866.282227	5.091114
-13837.034787	17595.171167	1865.292969	-86.283806
-13837.034787	17595.171167	1864.303711	-15.812835
-13837.034787	17595.171167	1863.314453	6.249549
-13837.034787	17595.171167	1862.324219	-273.669952
-13837.034787	17595.171167	1861.334961	33.237591
-13837.034787	17595.171167	1860.344727	277.181549
-13837.034787	17595.171167	1859.354492	376.132599
-13837.034787	17595.171167	1858.364258	-200.776962
-13837.034787	17595.171167	1857.374023	-212.910950
-13837.034787	17595.171167	1856.383789	105.398125
-13837.034787	17595.171167	1855.392578	310.146912
-13837.034787	17595.171167	1854.401367	-150.853745
-13837.034787	17595.171167	1853.410156	3.083236
-13837.034787	17595.171167	1852.418945	610.094116
-13837.034787	17595.171167	1851.426758	-65.441895
-13837.034787	17595.171167	1850.435547	1.414650
-13837.034787	17595.171167	1849.443359	24.801472
-13837.034787	17595.171167	1848.451172	-200.013031
-13837.034787	17595.171167	1847.458984	288.068420
-13837.034787	17595.171167	1846.466797	-168.028732
-13837.034787	17595.171167	1845.473633	651.941528
-13837.034787	17595.171167	1844.480469	140.427628
-13837.034787	17595.171167	1843.487305	-0.359791
-13837.034787	17595.171167	1842.494141	44.102379
-13837.034787	17595.171167	1841.500977	670.645874
-13837.034787	17595.171167	1840.506836	132.735214
-13837.034787	17595.171167	1839.513672	164.881882
-13837.034787	17595.171167	1838.519531	16.608856
-13837.034787	17595.171167	1837.525391	272.165985
-13837.034787	17595.171167	1836.530273	3.587804
-13837.034787	17595.171167	1835.536133	566.468506
-13837.034787	17595.171167	1834.541016	124.795433
-13837.034787	17595.171167	1833.545898	-35.751606
-13837.034787	17595.171167	1832.550781	-148.286041
-13837.034787	17595.171167	1831.555664	135.332596
-13837.034787	17595.171167	1830.560547	272.315125
-13837.034787	17595.171167	1829.564453	836.410461
-13837.034787	17595.171167	1828.568359	272.295135
-13837.034787	17595.171167	1827.572266	459.312744
-13837.034787	17595.171167	1826.576172	264.748352
-13837.034787	17595.171167	1825.580078	439.535492
-13837.034787	17595.171167	1824.583008	108.188492
-13837.034787	17595.171167	1823.585938	-112.826729
-13837.034787	17595.171167	1822.588867	167.153885
-13837.034787	17595.171167	1821.591797	51.493603
-13837.034787	17595.171167	1820.594727	506.090881
-13837.034787	17595.171167	1819.596680	344.721436
-13837.034787	17595.171167	1818.599609	545.021362
-13837.034787	17595.171167	1817.601563	529.624084
-13837.034787	17595.171167	1816.603516	-24.589840
-13837.034787	17595.171167	1815.604492	726.010620
-13837.034787	17595.171167	1814.606445	810.862915
-13837.034787	17595.171167	1813.607422	622.787476
-13837.034787	17595.171167	1812.608398	248.079315
-13837.034787	17595.171167	1811.609375	531.262024
-13837.034787	17595.171167	1810.610352	32.179588
-13837.034787	17595.171167	1809.610352	250.564072
-13837.034787	17595.171167	1808.611328	93.436096
-13837.034787	17595.171167	1807.611328	340.244080
-13837.034787	17595.171167	1806.611328	278.580505
-13837.034787	17595.171167	1805.610352	455.794495
-13837.034787	17595.171167	1804.610352	42.793961
-13837.034787	17595.171167	1803.609375	-21.418478
-13837.034787	17595.171167	1802.608398	516.101563
-13837.034787	17595.171167	1801.607422	518.514587
-13837.034787	17595.171167	1800.606445	647.363892
-13837.034787	17595.171167	1799.605469	363.181030
-13837.034787	17595.171167	1798.603516	234.127167
-13837.034787	17595.171167	1797.601563	100.268303
-13837.034787	17595.171167	1796.599609	212.073532
-13837.034787	17595.171167	1795.597656	638.562805
-13837.034787	17595.171167	1794.595703	99.111557
-13837.034787	17595.171167	1793.592773	479.997833
-13837.034787	17595.171167	1792.589844	593.705994
-13837.034787	17595.171167	1791.587891	347.451202
-13837.034787	17595.171167	1790.583984	430.000061
-13837.034787	17595.171167	1789.581055	650.618164
-13837.034787	17595.171167	1788.577148	287.540497
-13837.034787	17595.171167	1787.574219	346.021515
-13837.034787	17595.171167	1786.570313	-157.481354
-13837.034787	17595.171167	1785.566406	124.657455
-13837.034787	17595.171167	1784.561523	-47.964134
-13837.034787	17595.171167	1783.557617	-37.360630
-13837.034787	17595.171167	1782.552734	56.417088
-13837.034787	17595.171167	1781.547852	202.420715
-13837.034787	17595.171167	1780.542969	115.232918
-13837.034787	17595.171167	1779.538086	310.955872
-13837.034787	17595.171167	1778.532227	66.734055
-13837.034787	17595.171167	1777.527344	359.694458
-13837.034787	17595.171167	1776.521484	412.453522
-13837.034787	17595.171167	1775.515625	588.668823
-13837.034787	17595.171167	1774.508789	-38.152031
-13837.034787	17595.171167	1773.502930	57.196617
-13837.034787	17595.171167	1772.496094	38.455738
-13837.034787	17595.171167	1771.489258	71.884827
-13837.034787	17595.171167	1770.482422	271.386993
-13837.034787	17595.171167	1769.475586	200.205170
-13837.034787	17595.171167	1768.467773	257.104492
-13837.034787	17595.171167	1767.460938	-18.189083
-13837.034787	17595.171167	1766.453125	294.756226
-13837.034787	17595.171167	1765.445313	619.380005
-13837.034787	17595.171167	1764.437500	130.593323
-13837.034787	17595.171167	1763.428711	149.200058
-13837.034787	17595.171167	1762.420898	56.360413
-13837.034787	17595.171167	1761.412109	309.443207
-13837.034787	17595.171167	1760.403320	-186.267914
-13837.034787	17595.171167	1759.393555	279.816071
-13837.034787	17595.171167	1758.384766	82.578430
-13837.034787	17595.171167	1757.375000	53.461826
-13837.034787	17595.171167	1756.366211	21.943510
-13837.034787	17595.171167	1755.356445	-7.264486
-13837.034787	17595.171167	1754.345703	221.416779
-13837.034787	17595.171167	1753.335938	-129.687485
-13837.034787	17595.171167	1752.325195	-137.724838
-13837.034787	17595.171167	1751.315430	-22.815218
-13837.034787	17595.171167	1750.304688	-300.536011
-13837.034787	17595.171167	1749.292969	362.726959
-13837.034787	17595.171167	1748.282227	-11.970184
-13837.034787	17595.171167	1747.270508	329.486389
-13837.034787	17595.171167	1746.259766	-127.847046
-13837.034787	17595.171167	1745.248047	355.151031
-13837.034787	17595.171167	1744.235352	8.887811
-13837.034787	17595.171167	1743.223633	113.759705
-13837.034787	17595.171167	1742.211914	-159.211105
-13837.034787	17595.171167	1741.199219	-61.522087
-13837.034787	17595.171167	1740.186523	-15.833808
-13837.034787	17595.171167	1739.173828	-125.934212
-13837.034787	17595.171167	1738.160156	-528.582520
-13837.034787	17595.171167	1737.147461	-93.745239
-13837.034787	17595.171167	1736.133789	-267.563019
-13837.034787	17595.171167	1735.120117	-21.649395
-13837.034787	17595.171167	1734.106445	63.832767
-13837.034787	17595.171167	1733.091797	-343.360260
-13837.034787	17595.171167	1732.078125	-338.030518
-13837.034787	17595.171167	1731.063477	72.497444
-13837.034787	17595.171167	1730.048828	-259.174835
-13837.034787	17595.171167	1729.034180	31.016357
-13837.034787	17595.171167	1728.019531	-425.373108
-13837.034787	17595.171167	1727.003906	-389.583069
-13837.034787	17595.171167	1725.988281	-177.297028
-13837.034787	17595.171167	1724.972656	-106.314560
-13837.034787	17595.171167	1723.957031	96.385109
-13837.034787	17595.171167	1722.941406	-16.243639
-13837.034787	17595.171167	1721.924805	-32.425072
-13837.034787	17595.171167	1720.909180	-591.812378
-13837.034787	17595.171167	1719.892578	499.453278
-13837.034787	17595.171167	1718.875977	99.981453
-13837.034787	17595.171167	1717.858398	-219.459869
-13837.034787	17595.171167	1716.841797	-14.781642
-13837.034787	17595.171167	1715.824219	-345.847717
-13837.034787	17595.171167	1714.806641	-362.048401
-13837.034787	17595.171167	1713.789063	-190.378540
-13837.034787	17595.171167	1712.770508	-7.054533
-13837.034787	17595.171167	1711.752930	-211.131775
-13837.034787	17595.171167	1710.734375	331.217316
-13837.034787	17595.171167	1709.715820	87.243019
-13837.034787	17595.171167	1708.697266	-114.408775
-13837.034787	17595.171167	1707.678711	40.564049
-13837.034787	17595.171167	1706.659180	-39.058777
-13837.034787	17595.171167	1705.640625	-226.496750
-13837.034787	17595.171167	1704.621094	-113.793282
-13837.034787	17595.171167	1703.600586	-479.294647
-13837.034787	17595.171167	1702.581055	59.931984
-13837.034787	17595.171167	1701.561523	352.943695
-13837.034787	17595.171167	1700.541016	-246.667160
-13837.034787	17595.171167	1699.520508	-89.540924
-13837.034787	17595.171167	1698.500000	172.913605
-13837.034787	17595.171167	1697.478516	-23.609583
-13837.034787	17595.171167	1696.458008	100.654152
-13837.034787	17595.171167	1695.436523	206.153900
-13837.034787	17595.171167	1694.415039	147.839096
-13837.034787	17595.171167	1693.393555	590.199402
-13837.034787	17595.171167	1692.372070	138.931534
-13837.034787	17595.171167	1691.349609	-78.305534
-13837.034787	17595.171167	1690.327148	66.964874
-13837.034787	17595.171167	1689.304688	272.982452
-13837.034787	17595.171167	1688.282227	144.732941
-13837.034787	17595.171167	1687.259766	434.831055
-13837.034787	17595.171167	1686.236328	689.791443
-13837.034787	17595.171167	1685.213867	129.499207
-13837.034787	17595.171167	1684.190430	213.997894
-13837.034787	17595.171167	1683.166016	630.050720
-13837.034787	17595.171167	1682.142578	751.843445
-13837.034787	17595.171167	1681.119141	467.507904
-13837.034787	17595.171167	1680.094727	643.019958
-13837.034787	17595.171167	1679.070313	475.535583
-13837.034787	17595.171167	1678.045898	539.091370
-13837.034787	17595.171167	1677.020508	215.503052
-13837.034787	17595.171167	1675.996094	251.190277
-13837.034787	17595.171167	1674.970703	734.505859
-13837.034787	17595.171167	1673.945313	490.453308
-13837.034787	17595.171167	1672.919922	81.084778
-13837.034787	17595.171167	1671.893555	585.259277
-13837.034787	17595.171167	1670.868164	725.891968
-13837.034787	17595.171167	1669.841797	468.246429
-13837.034787	17595.171167	1668.815430	820.849243
-13837.034787	17595.171167	1667.789063	477.248688
-13837.034787	17595.171167	1666.761719	583.077576
-13837.034787	17595.171167	1665.735352	356.133148
-13837.034787	17595.171167	1664.708008	538.847656
-13837.034787	17595.171167	1663.680664	228.360641
-13837.034787	17595.171167	1662.653320	492.556305
-13837.034787	17595.171167	1661.625000	663.688782
-13837.034787	17595.171167	1660.597656	762.754089
-13837.034787	17595.171167	1659.569336	789.774780
-13837.034787	17595.171167	1658.541016	500.772919
-13837.034787	17595.171167	1657.512695	692.949097
-13837.034787	17595.171167	1656.483398	724.815674
-13837.034787	17595.171167	1655.455078	1209.688232
-13837.034787	17595.171167	1654.425781	795.699280
-13837.034787	17595.171167	1653.396484	1062.257324
-13837.034787	17595.171167	1652.366211	1189.492188
-13837.034787	17595.171167	1651.336914	290.890717
-13837.034787	17595.171167	1650.306641	548.332214
-13837.034787	17595.171167	1649.276367	991.365356
-13837.034787	17595.171167	1648.246094	824.241577
-13837.034787	17595.171167	1647.215820	1005.145752
-13837.034787	17595.171167	1646.185547	1167.512817
-13837.034787	17595.171167	1645.154297	1063.293579
-13837.034787	17595.171167	1644.123047	491.001068
-13837.034787	17595.171167	1643.091797	1008.191284
-13837.034787	17595.171167	1642.060547	1330.646851
-13837.034787	17595.171167	1641.028320	724.150696
-13837.034787	17595.171167	1639.997070	963.347961
-13837.034787	17595.171167	1638.964844	843.619873
-13837.034787	17595.171167	1637.931641	1177.796143
-13837.034787	17595.171167	1636.899414	1248.071899
-13837.034787	17595.171167	1635.867188	1498.929565
-13837.034787	17595.171167	1634.833984	856.660706
-13837.034787	17595.171167	1633.800781	1283.503906
-13837.034787	17595.171167	1632.767578	1081.183105
-13837.034787	17595.171167	1631.734375	1237.469116
-13837.034787	17595.171167	1630.700195	850.477966
-13837.034787	17595.171167	1629.666016	1166.451782
-13837.034787	17595.171167	1628.631836	1350.681030
-13837.034787	17595.171167	1627.597656	1278.463623
-13837.034787	17595.171167	1626.563477	1686.910278
-13837.034787	17595.171167	1625.528320	1540.961792
-13837.034787	17595.171167	1624.493164	1365.160522
-13837.034787	17595.171167	1623.458008	1729.820190
-13837.034787	17595.171167	1622.422852	1249.574829
-13837.034787	17595.171167	1621.387695	1245.070068
-13837.034787	17595.171167	1620.351563	1688.341064
-13837.034787	17595.171167	1619.315430	1600.933472
-13837.034787	17595.171167	1618.279297	1375.285889
-13837.034787	17595.171167	1617.243164	1518.833252
-13837.034787	17595.171167	1616.207031	1904.553223
-13837.034787	17595.171167	1615.169922	1628.625854
-13837.034787	17595.171167	1614.132813	1629.514282
-13837.034787	17595.171167	1613.095703	1879.399170
-13837.034787	17595.171167	1612.058594	1691.574829
-13837.034787	17595.171167	1611.020508	1547.710083
-13837.034787	17595.171167	1609.983398	1691.919678
-13837.034787	17595.171167	1608.945313	1626.665527
-13837.034787	17595.171167	1607.907227	1690.488037
-13837.034787	17595.171167	1606.868164	2097.365234
-13837.034787	17595.171167	1605.830078	2113.020020
-13837.034787	17595.171167	1604.791016	1974.645874
-13837.034787	17595.171167	1603.751953	1988.286499
-13837.034787	17595.171167	1602.712891	2186.052246
-13837.034787	17595.171167	1601.673828	2443.666748
-13837.034787	17595.171167	1600.633789	1448.370728
-13837.034787	17595.171167	1599.594727	1529.326782
-13837.034787	17595.171167	1598.554688	1679.335449
-13837.034787	17595.171167	1597.513672	1514.648071
-13837.034787	17595.171167	1596.473633	1639.621948
-13837.034787	17595.171167	1595.433594	1792.255615
-13837.034787	17595.171167	1594.392578	1770.458252
-13837.034787	17595.171167	1593.351563	1939.373779
-13837.034787	17595.171167	1592.310547	1757.174927
-13837.034787	17595.171167	1591.268555	1804.697021
-13837.034787	17595.171167	1590.227539	1517.354248
-13837.034787	17595.171167	1589.185547	1790.023682
-13837.034787	17595.171167	1588.143555	1778.336670
-13837.034787	17595.171167	1587.100586	1544.371216
-13837.034787	17595.171167	1586.058594	1294.610718
-13837.034787	17595.171167	1585.015625	1615.870605
-13837.034787	17595.171167	1583.972656	1928.000488
-13837.034787	17595.171167	1582.929688	1795.641724
-13837.034787	17595.171167	1581.886719	1636.006226
-13837.034787	17595.171167	1580.843750	2127.082764
-13837.034787	17595.171167	1579.799805	1498.318115
-13837.034787	17595.171167	1578.755859	1614.068359
-13837.034787	17595.171167	1577.711914	1336.209351
-13837.034787	17595.171167	1576.666992	1372.172241
-13837.034787	17595.171167	1575.623047	1534.140137
-13837.034787	17595.171167	1574.578125	1430.830200
-13837.034787	17595.171167	1573.533203	1476.402588
-13837.034787	17595.171167	1572.488281	1227.119873
-13837.034787	17595.171167	1571.443359	927.806885
-13837.034787	17595.171167	1570.397461	1328.290161
-13837.034787	17595.171167	1569.351563	1557.369995
-13837.034787	17595.171167	1568.305664	1338.660156
-13837.034787	17595.171167	1567.259766	1111.067749
-13837.034787	17595.171167	1566.213867	1363.417480
-13837.034787	17595.171167	1565.166992	770.864868
-13837.034787	17595.171167	1564.120117	925.353760
-13837.034787	17595.171167	1563.073242	1070.826172
-13837.034787	17595.171167	1562.026367	1239.243530
-13837.034787	17595.171167	1560.978516	985.613525
-13837.034787	17595.171167	1559.930664	917.062927
-13837.034787	17595.171167	1558.883789	1229.651123
-13837.034787	17595.171167	1557.834961	1631.244873
-13837.034787	17595.171167	1556.787109	826.658203
-13837.034787	17595.171167	1555.739258	831.860107
-13837.034787	17595.171167	1554.690430	659.468506
-13837.034787	17595.171167	1553.641602	1072.976196
-13837.034787	17595.171167	1552.592773	951.094543
-13837.034787	17595.171167	1551.542969	1455.867798
-13837.034787	17595.171167	1550.494141	990.427856
-13837.034787	17595.171167	1549.444336	1117.382324
-13837.034787	17595.171167	1548.394531	1119.262207
-13837.034787	17595.171167	1547.344727	693.415405
-13837.034787	17595.171167	1546.293945	1030.277710
-13837.034787	17595.171167	1545.244141	666.420593
-13837.034787	17595.171167	1544.193359	719.183838
-13837.034787	17595.171167	1543.142578	831.245789
-13837.034787	17595.171167	1542.090820	652.406067
-13837.034787	17595.171167	1541.040039	908.039368
-13837.034787	17595.171167	1539.988281	820.549377
-13837.034787	17595.171167	1538.936523	1087.797241
-13837.034787	17595.171167	1537.884766	946.158447
-13837.034787	17595.171167	1536.833008	877.453369
-13837.034787	17595.171167	1535.780273	995.217102
-13837.034787	17595.171167	1534.727539	695.306091
-13837.034787	17595.171167	1533.674805	575.060547
-13837.034787	17595.171167	1532.622070	1097.418091
-13837.034787	17595.171167	1531.569336	457.832123
-13837.034787	17595.171167	1530.515625	277.025909
-13837.034787	17595.171167	1529.461914	550.187073
-13837.034787	17595.171167	1528.408203	771.268860
-13837.034787	17595.171167	1527.354492	350.724670
-13837.034787	17595.171167	1526.299805	891.825256
-13837.034787	17595.171167	1525.246094	582.881104
-13837.034787	17595.171167	1524.191406	725.246399
-13837.034787	17595.171167	1523.136719	638.904480
-13837.034787	17595.171167	1522.081055	851.833923
-13837.034787	17595.171167	1521.026367	772.687378
-13837.034787	17595.171167	1519.970703	374.488434
-13837.034787	17595.171167	1518.915039	332.094666
-13837.034787	17595.171167	1517.859375	455.154480
-13837.034787	17595.171167	1516.802734	567.053528
-13837.034787	17595.171167	1515.747070	459.618469
-13837.034787	17595.171167	1514.690430	92.276901
-13837.034787	17595.171167	1513.633789	675.225220
-13837.034787	17595.171167	1512.577148	686.022095
-13837.034787	17595.171167	1511.519531	163.456161
-13837.034787	17595.171167	1510.461914	-98.757111
-13837.034787	17595.171167	1509.405273	319.573425
-13837.034787	17595.171167	1508.346680	148.221573
-13837.034787	17595.171167	1507.289063	105.893822
-13837.034787	17595.171167	1506.231445	657.801147
-13837.034787	17595.171167	1505.172852	618.053589
-13837.034787	17595.171167	1504.114258	379.834167
-13837.034787	17595.171167	1503.055664	209.627106
-13837.034787	17595.171167	1501.996094	269.898438
-13837.034787	17595.171167	1500.937500	680.071167
-13837.034787	17595.171167	1499.877930	327.780823
-13837.034787	17595.171167	1498.818359	27.701664
-13837.034787	17595.171167	1497.757813	138.374603
-13837.034787	17595.171167	1496.698242	1056.342163
-13837.034787	17595.171167	1495.637695	333.120392
-13837.034787	17595.171167	1494.577148	72.394234
-13837.034787	17595.171167	1493.516602	46.311913
-13837.034787	17595.171167	1492.456055	130.822342
-13837.034787	17595.171167	1491.394531	-16.485634
-13837.034787	17595.171167	1490.333008	99.939499
-13837.034787	17595.171167	1489.271484	97.187248
-13837.034787	17595.171167	1488.209961	-344.320862
-13837.034787	17595.171167	1487.148438	101.270294
-13837.034787	17595.171167	1486.085938	-157.391052
-13837.034787	17595.171167	1485.023438	-280.777771
-13837.034787	17595.171167	1483.960938	115.656631
-13837.034787	17595.171167	1482.898438	136.583588
-13837.034787	17595.171167	1481.834961	22.819996
-13837.034787	17595.171167	1480.772461	-110.944801
-13837.034787	17595.171167	1479.708984	-114.076485
-13837.034787	17595.171167	1478.644531	152.561737
-13837.034787	17595.171167	1477.581055	-274.748138
-13837.034787	17595.171167	1476.517578	257.256378
-13837.034787	17595.171167	1475.453125	353.549408
-13837.034787	17595.171167	1474.388672	248.238144
-13837.034787	17595.171167	1473.323242	152.047058
-13837.034787	17595.171167	1472.258789	87.455559
-13837.034787	17595.171167	1471.193359	236.178787
-13837.034787	17595.171167	1470.127930	665.163086
-13837.034787	17595.171167	1469.062500	390.739960
-13837.034787	17595.171167	1467.997070	423.623596
-13837.034787	17595.171167	1466.930664	160.105820
-13837.034787	17595.171167	1465.865234	833.702942
-13837.034787	17595.171167	1464.798828	154.432922
-13837.034787	17595.171167	1463.731445	47.373680
-13837.034787	17595.171167	1462.665039	470.396027
-13837.034787	17595.171167	1461.597656	600.444641
-13837.034787	17595.171167	1460.530273	224.979797
-13837.034787	17595.171167	1459.462891	257.266479
-13837.034787	17595.171167	1458.395508	411.108673
-13837.034787	17595.171167	1457.327148	702.506592
-13837.034787	17595.171167	1456.259766	429.098450
-13837.034787	17595.171167	1455.191406	695.955811
-13837.034787	17595.171167	1454.123047	648.690308
-13837.034787	17595.171167	1453.053711	124.162117
-13837.034787	17595.171167	1451.985352	993.758179
-13837.034787	17595.171167	1450.916016	1044.277832
-13837.034787	17595.171167	1449.846680	890.441284
-13837.034787	17595.171167	1448.776367	595.754028
-13837.034787	17595.171167	1447.707031	249.464767
-13837.034787	17595.171167	1446.636719	714.182800
-13837.034787	17595.171167	1445.566406	702.697998
-13837.034787	17595.171167	1444.496094	443.818146
-13837.034787	17595.171167	1443.425781	505.866577
-13837.034787	17595.171167	1442.354492	430.228394
-13837.034787	17595.171167	1441.283203	600.884277
-13837.034787	17595.171167	1440.211914	694.395813
-13837.034787	17595.171167	1439.140625	887.879272
-13837.034787	17595.171167	1438.069336	524.236145
-13837.034787	17595.171167	1436.997070	779.848267
-13837.034787	17595.171167	1435.924805	263.133026
-13837.034787	17595.171167	1434.852539	538.753479
-13837.034787	17595.171167	1433.780273	550.915833
-13837.034787	17595.171167	1432.707031	194.166473
-13837.034787	17595.171167	1431.633789	18.996374
-13837.034787	17595.171167	1430.560547	308.974854
-13837.034787	17595.171167	1429.487305	151.378296
-13837.034787	17595.171167	1428.413086	637.308411
-13837.034787	17595.171167	1427.339844	226.898727
-13837.034787	17595.171167	1426.265625	184.685852
-13837.034787	17595.171167	1425.191406	514.523071
-13837.034787	17595.171167	1424.116211	444.207947
-13837.034787	17595.171167	1423.041992	66.857246
-13837.034787	17595.171167	1421.966797	111.289879
-13837.034787	17595.171167	1420.891602	128.635880
-13837.034787	17595.171167	1419.816406	97.339493
-13837.034787	17595.171167	1418.740234	197.839554
-13837.034787	17595.171167	1417.665039	136.485764
-13837.034787	17595.171167	1416.588867	270.465576
-13837.034787	17595.171167	1415.512695	54.619217
-13837.034787	17595.171167	1414.435547	-34.113972
-13837.034787	17595.171167	1413.359375	412.583344
-13837.034787	17595.171167	1412.282227	92.876236
-13837.034787	17595.171167	1411.205078	60.061378
-13837.034787	17595.171167	1410.127930	409.668884
-13837.034787	17595.171167	1409.049805	489.166046
-13837.034787	17595.171167	1407.972656	491.224335
-13837.034787	17595.171167	1406.894531	455.189728
-13837.034787	17595.171167	1405.816406	-25.524538
-13837.034787	17595.171167	1404.737305	-103.993721
-13837.034787	17595.171167	1403.659180	372.663605
-13837.034787	17595.171167	1402.580078	543.774780
-13837.034787	17595.171167	1401.500977	30.260403
-13837.034787	17595.171167	1400.421875	119.177788
-13837.034787	17595.171167	1399.341797	-145.321136
-13837.034787	17595.171167	1398.262695	32.022690
-13837.034787	17595.171167	1397.182617	-32.692638
-13837.034787	17595.171167	1396.102539	-3.414433
-13837.034787	17595.171167	1395.021484	39.244007
-13837.034787	17595.171167	1393.941406	-208.248245
-13837.034787	17595.171167	1392.860352	133.356216
-13837.034787	17595.171167	1391.779297	-251.378693
-13837.034787	17595.171167	1390.698242	-462.778442
-13837.034787	17595.171167	1389.616211	-171.096420
-13837.034787	17595.171167	1388.535156	-383.563934
-13837.034787	17595.171167	1387.453125	-295.494995
-13837.034787	17595.171167	1386.371094	-501.009857
-13837.034787	17595.171167	1385.288086	-430.795105
-13837.034787	17595.171167	1384.206055	-177.922745
-13837.034787	17595.171167	1383.123047	-42.577065
-13837.034787	17595.171167	1382.040039	83.629059
-13837.034787	17595.171167	1380.957031	-539.547852
-13837.034787	17595.171167	1379.873047	-393.891663
-13837.034787	17595.171167	1378.789063	-366.816223
-13837.034787	17595.171167	1377.705078	-382.936218
-13837.034787	17595.171167	1376.621094	-118.831062
-13837.034787	17595.171167	1375.537109	-485.826324
-13837.034787	17595.171167	1374.452148	-202.154526
-13837.034787	17595.171167	1373.367188	-423.417664
-13837.034787	17595.171167	1372.282227	-395.831909
-13837.034787	17595.171167	1371.197266	-449.004059
-13837.034787	17595.171167	1370.112305	-243.517532
-13837.034787	17595.171167	1369.026367	-54.112255
-13837.034787	17595.171167	1367.940430	-412.496124
-13837.034787	17595.171167	1366.854492	-113.002510
-13837.034787	17595.171167	1365.767578	-114.820374
-13837.034787	17595.171167	1364.681641	-139.075836
-13837.034787	17595.171167	1363.594727	-245.071106
-13837.034787	17595.171167	1362.507813	83.313606
-13837.034787	17595.171167	1361.419922	-68.407196
-13837.034787	17595.171167	1360.333008	-48.559517
-13837.034787	17595.171167	1359.245117	-48.210579
-13837.034787	17595.171167	1358.157227	-72.838554
-13837.034787	17595.171167	1357.069336	-266.335449
-13837.034787	17595.171167	1355.981445	-114.866730
-13837.034787	17595.171167	1354.892578	175.813034
-13837.034787	17595.171167	1353.803711	-174.704361
-13837.034787	17595.171167	1352.714844	5.138304
-13837.034787	17595.171167	1351.625000	-508.929016
-13837.034787	17595.171167	1350.536133	-288.495300
-13837.034787	17595.171167	1349.446289	348.682007
-13837.034787	17595.171167	1348.356445	332.913208
-13837.034787	17595.171167	1347.266602	5.872633
-13837.034787	17595.171167	1346.175781	85.814018
-13837.034787	17595.171167	1345.085938	324.096924
-13837.034787	17595.171167	1343.995117	84.366959
-13837.034787	17595.171167	1342.903320	49.876755
-13837.034787	17595.171167	1341.812500	234.872299
-13837.034787	17595.171167	1340.720703	295.440887
-13837.034787	17595.171167	1339.629883	228.308731
-13837.034787	17595.171167	1338.538086	122.739136
-13837.034787	17595.171167	1337.445313	-13.405866
-13837.034787	17595.171167	1336.353516	32.416046
-13837.034787	17595.171167	1335.260742	248.269241
-13837.034787	17595.171167	1334.167969	235.935898
-13837.034787	17595.171167	1333.075195	223.188034
-13837.034787	17595.171167	1331.981445	312.424561
-13837.034787	17595.171167	1330.888672	263.265442
-13837.034787	17595.171167	1329.794922	134.162247
-13837.034787	17595.171167	1328.701172	41.865654
-13837.034787	17595.171167	1327.606445	116.958313
-13837.034787	17595.171167	1326.512695	155.700500
-13837.034787	17595.171167	1325.417969	403.688629
-13837.034787	17595.171167	1324.323242	559.016968
-13837.034787	17595.171167	1323.227539	110.576935
-13837.034787	17595.171167	1322.132813	236.483978
-13837.034787	17595.171167	1321.037109	355.041840
-13837.034787	17595.171167	1319.941406	383.871979
-13837.034787	17595.171167	1318.845703	448.230865
-13837.034787	17595.171167	1317.750000	473.144470
-13837.034787	17595.171167	1316.653320	542.332520
-13837.034787	17595.171167	1315.556641	55.510101
-13837.034787	17595.171167	1314.459961	608.316528
-13837.034787	17595.171167	1313.363281	563.047302
-13837.034787	17595.171167	1312.265625	298.910522
-13837.034787	17595.171167	1311.167969	492.359497
-13837.034787	17595.171167	1310.070313	275.189789
-13837.034787	17595.171167	1308.972656	273.095306
-13837.034787	17595.171167	1307.874023	270.471802
-13837.034787	17595.171167	1306.776367	514.254395
-13837.034787	17595.171167	1305.677734	385.134155
-13837.034787	17595.171167	1304.579102	360.517517
-13837.034787	17595.171167	1303.479492	-5.430248
-13837.034787	17595.171167	1302.380859	29.714148
-13837.034787	17595.171167	1301.281250	131.720108
-13837.034787	17595.171167	1300.181641	182.751755
-13837.034787	17595.171167	1299.081055	256.642395
-13837.034787	17595.171167	1297.981445	650.604370
-13837.034787	17595.171167	1296.880859	431.746918
-13837.034787	17595.171167	1295.780273	-45.570431
-13837.034787	17595.171167	1294.679688	124.256454
-13837.034787	17595.171167	1293.578125	125.861694
-13837.034787	17595.171167	1292.476563	302.913330
-13837.034787	17595.171167	1291.375000	-101.113380
-13837.034787	17595.171167	1290.273438	-48.106388
-13837.034787	17595.171167	1289.171875	75.796326
-13837.034787	17595.171167	1288.069336	-3.435167
-13837.034787	17595.171167	1286.966797	-104.636726
-13837.034787	17595.171167	1285.864258	-98.958023
-13837.034787	17595.171167	1284.761719	-64.009674
-13837.034787	17595.171167	1283.658203	-430.712219
-13837.034787	17595.171167	1282.554688	43.243034
-13837.034787	17595.171167	1281.451172	-105.672462
-13837.034787	17595.171167	1280.347656	156.891647
-13837.034787	17595.171167	1279.244141	535.606018
-13837.034787	17595.171167	1278.139648	128.448547
-13837.034787	17595.171167	1277.035156	194.860809
-13837.034787	17595.171167	1275.930664	186.638504
-13837.034787	17595.171167	1274.825195	57.423515
-13837.034787	17595.171167	1273.720703	-120.044128
-13837.034787	17595.171167	1272.615234	22.598660
-13837.034787	17595.171167	1271.508789	35.670975
-13837.034787	17595.171167	1270.403320	45.952030
-13837.034787	17595.171167	1269.297852	265.208710
-13837.034787	17595.171167	1268.191406	536.360229
-13837.034787	17595.171167	1267.084961	404.192047
-13837.034787	17595.171167	1265.977539	183.076492
-13837.034787	17595.171167	1264.871094	188.851624
-13837.034787	17595.171167	1263.763672	-216.018219
-13837.034787	17595.171167	1262.656250	37.072987
-13837.034787	17595.171167	1261.548828	163.721786
-13837.034787	17595.171167	1260.440430	101.487854
-13837.034787	17595.171167	1259.333008	-218.954514
-13837.034787	17595.171167	1258.224609	-179.770096
-13837.034787	17595.171167	1257.115234	-166.354584
-13837.034787	17595.171167	1256.006836	105.224358
-13837.034787	17595.171167	1254.897461	-291.698212
-13837.034787	17595.171167	1253.788086	-188.078506
-13837.034787	17595.171167	1252.678711	265.730896
-13837.034787	17595.171167	1251.569336	115.631317
-13837.034787	17595.171167	1250.458984	-330.165466
-13837.034787	17595.171167	1249.349609	50.980381
-13837.034787	17595.171167	1248.239258	149.301956
-13837.034787	17595.171167	1247.127930	2.063778
-13837.034787	17595.171167	1246.017578	44.230190
-13837.034787	17595.171167	1244.906250	-75.758911
-13837.034787	17595.171167	1243.794922	96.496170
-13837.034787	17595.171167	1242.683594	-40.689102
-13837.034787	17595.171167	1241.571289	26.779573
-13837.034787	17595.171167	1240.459961	61.745911
-13837.034787	17595.171167	1239.347656	-212.600571
-13837.034787	17595.171167	1238.234375	135.125793
-13837.034787	17595.171167	1237.122070	160.167465
-13837.034787	17595.171167	1236.008789	-183.036301
-13837.034787	17595.171167	1234.896484	312.921265
-13837.034787	17595.171167	1233.782227	123.542824
-13837.034787	17595.171167	1232.668945	48.417728
-13837.034787	17595.171167	1231.555664	-56.141186
-13837.034787	17595.171167	1230.441406	-104.024384
-13837.034787	17595.171167	1229.327148	-28.311924
-13837.034787	17595.171167	1228.211914	-196.331848
-13837.034787	17595.171167	1227.097656	-131.633682
-13837.034787	17595.171167	1225.982422	0.283499
-13837.034787	17595.171167	1224.867188	-286.359314
-13837.034787	17595.171167	1223.751953	-97.504311
-13837.034787	17595.171167	1222.635742	-262.827423
-13837.034787	17595.171167	1221.520508	326.153656
-13837.034787	17595.171167	1220.404297	270.372986
-13837.034787	17595.171167	1219.287109	-11.506305
-13837.034787	17595.171167	1218.170898	62.603970
-13837.034787	17595.171167	1217.053711	-33.925003
-13837.034787	17595.171167	1215.936523	185.761108
-13837.034787	17595.171167	1214.819336	-73.229027
-13837.034787	17595.171167	1213.702148	-154.064041
-13837.034787	17595.171167	1212.583984	106.821846
-13837.034787	17595.171167	1211.465820	98.201218
-13837.034787	17595.171167	1210.347656	248.010941
-13837.034787	17595.171167	1209.229492	120.984726
-13837.034787	17595.171167	1208.110352	212.910812
-13837.034787	17595.171167	1206.992188	247.968613
-13837.034787	17595.171167	1205.873047	207.688293
-13837.034787	17595.171167	1204.752930	336.471405
-13837.034787	17595.171167	1203.633789	189.970413
-13837.034787	17595.171167	1202.513672	126.179977
-13837.034787	17595.171167	1201.393555	243.123383
-13837.034787	17595.171167	1200.273438	82.839127
-13837.034787	17595.171167	1199.152344	63.263412
-13837.034787	17595.171167	1198.032227	152.486984
-13837.034787	17595.171167	1196.911133	-259.918060
-13837.034787	17595.171167	1195.790039	-95.697517
-13837.034787	17595.171167	1194.667969	375.834534
-13837.034787	17595.171167	1193.545898	21.147240
-13837.034787	17595.171167	1192.424805	164.331161
-13837.034787	17595.171167	1191.301758	256.331512
-13837.034787	17595.171167	1190.179688	11.436493
-13837.034787	17595.171167	1189.056641	13.928278
-13837.034787	17595.171167	1187.933594	-88.829056
-13837.034787	17595.171167	1186.810547	231.574234
-13837.034787	17595.171167	1185.687500	-41.862289
-13837.034787	17595.171167	1184.563477	54.456955
-13837.034787	17595.171167	1183.440430	50.710655
-13837.034787	17595.171167	1182.316406	87.379349
-13837.034787	17595.171167	1181.191406	-99.060997
-13837.034787	17595.171167	1180.067383	9.799264
-13837.034787	17595.171167	1178.942383	291.573059
-13837.034787	17595.171167	1177.817383	-228.714600
-13837.034787	17595.171167	1176.692383	323.537537
-13837.034787	17595.171167	1175.566406	3.283876
-13837.034787	17595.171167	1174.440430	152.073120
-13837.034787	17595.171167	1173.314453	36.666721
-13837.034787	17595.171167	1172.188477	262.853424
-13837.034787	17595.171167	1171.062500	118.590034
-13837.034787	17595.171167	1169.935547	347.127472
-13837.034787	17595.171167	1168.808594	-289.317169
-13837.034787	17595.171167	1167.681641	47.732510
-13837.034787	17595.171167	1166.553711	107.839699
-13837.034787	17595.171167	1165.426758	-201.779068
-13837.034787	17595.171167	1164.298828	-3.641692
-13837.034787	17595.171167	1163.170898	18.586618
-13837.034787	17595.171167	1162.041992	-27.453060
-13837.034787	17595.171167	1160.914063	52.944756
-13837.034787	17595.171167	1159.785156	252.081894
-13837.034787	17595.171167	1158.656250	-130.280716
-13837.034787	17595.171167	1157.526367	-112.658546
-13837.034787	17595.171167	1156.397461	-195.056351
-13837.034787	17595.171167	1155.267578	-141.657272
-13837.034787	17595.171167	1154.137695	-378.418762
-13837.034787	17595.171167	1153.006836	-119.606613
-13837.034787	17595.171167	1151.876953	-380.607635
-13837.034787	17595.171167	1150.746094	-253.543167
-13837.034787	17595.171167	1149.615234	-220.823364
-13837.034787	17595.171167	1148.484375	-225.522537
-13837.034787	17595.171167	1147.352539	-202.363815
-13837.034787	17595.171167	1146.220703	-287.968079
-13837.034787	17595.171167	1145.088867	-524.589233
-13837.034787	17595.171167	1143.957031	-463.778107
-13837.034787	17595.171167	1142.825195	-439.339417
-13837.034787	17595.171167	1141.692383	-201.199738
-13837.034787	17595.171167	1140.559570	-388.694336
-13837.034787	17595.171167	1139.426758	-59.549793
-13837.034787	17595.171167	1138.292969	103.439919
-13837.034787	17595.171167	1137.159180	-79.103172
-13837.034787	17595.171167	1136.025391	8.836607
-13837.034787	17595.171167	1134.891602	-221.697723
-13837.034787	17595.171167	1133.757813	-157.975616
-13837.034787	17595.171167	1132.623047	-23.451605
-13837.034787	17595.171167	1131.488281	-252.901642
-13837.034787	17595.171167	1130.353516	95.346268
-13837.034787	17595.171167	1129.217773	126.458458
-13837.034787	17595.171167	1128.083008	17.086845
-13837.034787	17595.171167	1126.947266	158.974121
-13837.034787	17595.171167	1125.811523	35.594799
-13837.034787	17595.171167	1124.674805	-125.396782
-13837.034787	17595.171167	1123.539063	78.745735
-13837.034787	17595.171167	1122.402344	310.252716
-13837.034787	17595.171167	1121.265625	219.223999
-13837.034787	17595.171167	1120.127930	-22.264442
-13837.034787	17595.171167	1118.990234	-26.171177
-13837.034787	17595.171167	1117.853516	129.143250
-13837.034787	17595.171167	1116.714844	322.995667
-13837.034787	17595.171167	1115.577148	228.831360
-13837.034787	17595.171167	1114.439453	174.694916
-13837.034787	17595.171167	1113.300781	228.271194
-13837.034787	17595.171167	1112.162109	83.086563
-13837.034787	17595.171167	1111.022461	-167.103928
-13837.034787	17595.171167	1109.883789	53.209812
-13837.034787	17595.171167	1108.744141	-54.669453
-13837.034787	17595.171167	1107.604492	348.269348
-13837.034787	17595.171167	1106.463867	8.355231
-13837.034787	17595.171167	1105.324219	540.016907
-13837.034787	17595.171167	1104.183594	167.372910
-13837.034787	17595.171167	1103.042969	348.301910
-13837.034787	17595.171167	1101.902344	275.222137
-13837.034787	17595.171167	1100.760742	76.520828
-13837.034787	17595.171167	1099.619141	98.826874
-13837.034787	17595.171167	1098.477539	171.445282
-13837.034787	17595.171167	1097.335938	336.888092
-13837.034787	17595.171167	1096.193359	188.550095
-13837.034787	17595.171167	1095.051758	486.943451
-13837.034787	17595.171167	1093.909180	218.607330
-13837.034787	17595.171167	1092.765625	382.307465
-13837.034787	17595.171167	1091.623047	352.423706
-13837.034787	17595.171167	1090.479492	368.569000
-13837.034787	17595.171167	1089.335938	302.994019
-13837.034787	17595.171167	1088.192383	100.699181
-13837.034787	17595.171167	1087.047852	245.930237
-13837.034787	17595.171167	1085.903320	366.250671
-13837.034787	17595.171167	1084.758789	297.637421
-13837.034787	17595.171167	1083.614258	123.446396
-13837.034787	17595.171167	1082.469727	340.635010
-13837.034787	17595.171167	1081.324219	41.015114
-13837.034787	17595.171167	1080.178711	-31.419748
-13837.034787	17595.171167	1079.033203	387.772247
-13837.034787	17595.171167	1077.886719	378.726990
-13837.034787	17595.171167	1076.740234	246.071045
-13837.034787	17595.171167	1075.593750	423.613464
-13837.034787	17595.171167	1074.447266	264.577332
-13837.034787	17595.171167	1073.300781	83.174072
-13837.034787	17595.171167	1072.153320	457.882935
-13837.034787	17595.171167	1071.005859	102.338715
-13837.034787	17595.171167	1069.858398	150.424683
-13837.034787	17595.171167	1068.709961	223.678528
-13837.034787	17595.171167	1067.561523	200.973526
-13837.034787	17595.171167	1066.413086	233.204697
-13837.034787	17595.171167	1065.264648	97.384224
-13837.034787	17595.171167	1064.116211	189.586838
-13837.034787	17595.171167	1062.966797	332.189728
-13837.034787	17595.171167	1061.817383	295.543091
-13837.034787	17595.171167	1060.667969	450.647430
-13837.034787	17595.171167	1059.517578	253.157120
-13837.034787	17595.171167	1058.368164	138.499237
-13837.034787	17595.171167	1057.217773	524.157715
-13837.034787	17595.171167	1056.067383	255.119843
-13837.034787	17595.171167	1054.916016	582.274109
-13837.034787	17595.171167	1053.764648	92.107903
-13837.034787	17595.171167	1052.613281	188.332687
-13837.034787	17595.171167	1051.461914	364.777100
-13837.034787	17595.171167	1050.310547	280.672150
-13837.034787	17595.171167	1049.158203	837.105225
-13837.034787	17595.171167	1048.005859	644.771057
-13837.034787	17595.171167	1046.853516	266.670197
-13837.034787	17595.171167	1045.700195	-122.434303
-13837.034787	17595.171167	1044.547852	-16.887316
-13837.034787	17595.171167	1043.394531	38.488968
-13837.034787	17595.171167	1042.240234	290.765198
-13837.034787	17595.171167	1041.086914	71.663353
-13837.034787	17595.171167	1039.932617	273.591309
-13837.034787	17595.171167	1038.778320	469.045105
-13837.034787	17595.171167	1037.624023	346.974487
-13837.034787	17595.171167	1036.469727	42.938576
-13837.034787	17595.171167	1035.314453	437.778015
-13837.034787	17595.171167	1034.159180	377.532043
-13837.034787	17595.171167	1033.003906	698.166016
-13837.034787	17595.171167	1031.847656	486.789978
-13837.034787	17595.171167	1030.692383	425.185425
-13837.034787	17595.171167	1029.536133	746.165527
-13837.034787	17595.171167	1028.378906	559.082214
-13837.034787	17595.171167	1027.222656	345.986908
-13837.034787	17595.171167	1026.065430	365.239288
-13837.034787	17595.171167	1024.908203	145.539200
-13837.034787	17595.171167	1023.750977	204.031708
-13837.034787	17595.171167	1022.593750	244.076691
-13837.034787	17595.171167	1021.435547	24.377439
-13837.034787	17595.171167	1020.277344	-1.248849
-13837.034787	17595.171167	1019.119141	-195.403214
-13837.034787	17595.171167	1017.959961	-127.070030
-13837.034787	17595.171167	1016.800781	107.857109
-13837.034787	17595.171167	1015.641602	-124.590019
-13837.034787	17595.171167	1014.482422	-131.887466
-13837.034787	17595.171167	1013.323242	-31.616745
-13837.034787	17595.171167	1012.163086	-38.446095
-13837.034787	17595.171167	1011.002930	-110.327454
-13837.034787	17595.171167	1009.842773	-167.494690
-13837.034787	17595.171167	1008.681641	-183.799774
-13837.034787	17595.171167	1007.520508	63.180492
-13837.034787	17595.171167	1006.359375	260.106750
-13837.034787	17595.171167	1005.198242	188.713867
-13837.034787	17595.171167	1004.037109	19.299221
-13837.034787	17595.171167	1002.875000	-10.610507
-13837.034787	17595.171167	1001.712891	370.802612
-13837.034787	17595.171167	1000.550781	193.734406
-13837.034787	17595.171167	999.387695	318.449677
-13837.034787	17595.171167	998.224609	311.235229
-13837.034787	17595.171167	997.061523	179.337616
-13837.034787	17595.171167	995.898438	-58.895008
-13837.034787	17595.171167	994.734375	209.083237
-13837.034787	17595.171167	993.571289	-134.345490
-13837.034787	17595.171167	992.407227	289.820313
-13837.034787	17595.171167	991.242188	-333.692535
-13837.034787	17595.171167	990.078125	188.482819
-13837.034787	17595.171167	988.913086	211.894394
-13837.034787	17595.171167	987.748047	-209.053452
-13837.034787	17595.171167	986.583008	28.108427
-13837.034787	17595.171167	985.416992	-334.593933
-13837.034787	17595.171167	984.250977	-120.404572
-13837.034787	17595.171167	983.084961	283.188660
-13837.034787	17595.171167	981.918945	-46.477894
-13837.034787	17595.171167	980.751953	-280.296387
-13837.034787	17595.171167	979.584961	266.137756
-13837.034787	17595.171167	978.417969	182.117874
-13837.034787	17595.171167	977.250977	261.749817
-13837.034787	17595.171167	976.083008	251.899109
-13837.034787	17595.171167	974.915039	-178.338181
-13837.034787	17595.171167	973.747070	-44.254650
-13837.034787	17595.171167	972.579102	117.232063
-13837.034787	17595.171167	971.410156	-185.192368
-13837.034787	17595.171167	970.242188	-359.074066
-13837.034787	17595.171167	969.072266	-299.923248
-13837.034787	17595.171167	967.903320	-183.822800
-13837.034787	17595.171167	966.733398	52.644939
-13837.034787	17595.171167	965.563477	-136.333878
-13837.034787	17595.171167	964.393555	298.686371
-13837.034787	17595.171167	963.223633	-78.895615
-13837.034787	17595.171167	962.052734	-55.499943
-13837.034787	17595.171167	960.881836	132.813538
-13837.034787	17595.171167	959.710938	-7.720521
-13837.034787	17595.171167	958.540039	58.987976
-13837.034787	17595.171167	957.368164	210.819504
-13837.034787	17595.171167	956.196289	53.694820
-13837.034787	17595.171167	955.024414	-58.635860
-13837.034787	17595.171167	953.851563	158.157043
-13837.034787	17595.171167	952.679688	-86.413101
-13837.034787	17595.171167	951.506836	234.039139
-13837.034787	17595.171167	950.333984	153.325256
-13837.034787	17595.171167	949.160156	30.372320
-13837.034787	17595.171167	947.986328	67.980125
-13837.034787	17595.171167	946.812500	608.859802
-13837.034787	17595.171167	945.638672	130.027115
-13837.034787	17595.171167	944.464844	-159.138855
-13837.034787	17595.171167	943.290039	-114.258102
-13837.034787	17595.171167	942.115234	-180.003372
-13837.034787	17595.171167	940.940430	-129.437042
-13837.034787	17595.171167	939.764648	-176.593292
-13837.034787	17595.171167	938.588867	-284.707275
-13837.034787	17595.171167	937.413086	111.240593
-13837.034787	17595.171167	936.237305	-156.257370
-13837.034787	17595.171167	935.060547	-229.333160
-13837.034787	17595.171167	933.883789	-122.346886
-13837.034787	17595.171167	932.707031	-192.946930
-13837.034787	17595.171167	931.530273	-50.687904
-13837.034787	17595.171167	930.352539	-90.713692
-13837.034787	17595.171167	929.175781	385.322144
-13837.034787	17595.171167	927.998047	-213.317474
-13837.034787	17595.171167	926.819336	-205.999786
-13837.034787	17595.171167	925.641602	-286.229797
-13837.034787	17595.171167	924.462891	-226.900986
-13837.034787	17595.171167	923.284180	-330.783478
-13837.034787	17595.171167	922.104492	92.623169
-13837.034787	17595.171167	920.924805	14.693412
-13837.034787	17595.171167	919.746094	34.004971
-13837.034787	17595.171167	919.551758	247.185471
-13837.034787	17595.171167	918.386719	-211.478760
-13837.034787	17595.171167	917.220703	114.373161
-13837.034787	17595.171167	916.054688	-138.626373
-13837.034787	17595.171167	914.887695	-360.836609
-13837.034787	17595.171167	913.721680	-129.683884
-13837.034787	17595.171167	912.554688	-389.636658
-13837.034787	17595.171167	911.387695	-45.335873
-13837.034787	17595.171167	910.220703	126.546455
-13837.034787	17595.171167	909.052734	-274.923309
-13837.034787	17595.171167	907.885742	-362.577576
-13837.034787	17595.171167	906.717773	-381.826477
-13837.034787	17595.171167	905.548828	-297.342163
-13837.034787	17595.171167	904.380859	-427.449036
-13837.034787	17595.171167	903.211914	-173.373886
-13837.034787	17595.171167	902.042969	80.570572
-13837.034787	17595.171167	900.874023	214.231812
-13837.034787	17595.171167	899.704102	-198.605392
-13837.034787	17595.171167	898.535156	-41.456612
-13837.034787	17595.171167	897.365234	-96.279449
-13837.034787	17595.171167	896.194336	-235.839874
-13837.034787	17595.171167	895.024414	-97.692360
-13837.034787	17595.171167	893.853516	-23.150200
-13837.034787	17595.171167	892.682617	-23.947802
-13837.034787	17595.171167	891.511719	-38.890133
-13837.034787	17595.171167	890.340820	-18.590769
-13837.034787	17595.171167	889.168945	-52.394215
-13837.034787	17595.171167	887.997070	31.308973
-13837.034787	17595.171167	886.825195	-216.411209
-13837.034787	17595.171167	885.653320	12.886290
-13837.034787	17595.171167	884.480469	-272.369751
-13837.034787	17595.171167	883.307617	-120.718231
-13837.034787	17595.171167	882.134766	-229.800140
-13837.034787	17595.171167	880.961914	-104.111954
-13837.034787	17595.171167	879.788086	-32.486794
-13837.034787	17595.171167	878.614258	264.349030
-13837.034787	17595.171167	877.440430	251.332626
-13837.034787	17595.171167	876.266602	41.240917
-13837.034787	17595.171167	875.091797	114.982780
-13837.034787	17595.171167	873.916992	162.859375
-13837.034787	17595.171167	872.742188	-208.942261
-13837.034787	17595.171167	871.567383	167.026672
-13837.034787	17595.171167	870.391602	71.815460
-13837.034787	17595.171167	869.215820	-192.083206
-13837.034787	17595.171167	868.040039	-270.872955
-13837.034787	17595.171167	866.864258	43.758270
-13837.034787	17595.171167	865.687500	16.390808
-13837.034787	17595.171167	864.510742	84.966675
-13837.034787	17595.171167	863.333984	-89.932610
-13837.034787	17595.171167	862.157227	67.461983
-13837.034787	17595.171167	860.979492	-343.726410
-13837.034787	17595.171167	859.802734	208.851959
-13837.034787	17595.171167	858.625000	302.822754
-13837.034787	17595.171167	857.446289	-3.076441
-13837.034787	17595.171167	856.268555	-159.311996
-13837.034787	17595.171167	855.089844	399.620331
-13837.034787	17595.171167	853.911133	273.658936
-13837.034787	17595.171167	852.731445	-181.678879
-13837.034787	17595.171167	851.552734	56.785366
-13837.034787	17595.171167	850.373047	-136.889786
-13837.034787	17595.171167	849.193359	131.726425
-13837.034787	17595.171167	848.013672	5.703685
-13837.034787	17595.171167	846.833008	-106.304245
-13837.034787	17595.171167	845.652344	-47.995407
-13837.034787	17595.171167	844.471680	406.797546
-13837.034787	17595.171167	843.291016	-78.547119
-13837.034787	17595.171167	842.110352	75.157463
-13837.034787	17595.171167	840.928711	191.451492
-13837.034787	17595.171167	839.747070	128.168381
-13837.034787	17595.171167	838.564453	265.277893
-13837.034787	17595.171167	837.382813	6.178337
-13837.034787	17595.171167	836.200195	-29.237062
-13837.034787	17595.171167	835.017578	77.361397
-13837.034787	17595.171167	833.834961	172.215225
-13837.034787	17595.171167	832.651367	408.985321
-13837.034787	17595.171167	831.467773	128.899918
-13837.034787	17595.171167	830.284180	121.122414
-13837.034787	17595.171167	829.100586	550.663818
-13837.034787	17595.171167	827.916992	191.445358
-13837.034787	17595.171167	826.732422	153.244751
-13837.034787	17595.171167	825.547852	421.903809
-13837.034787	17595.171167	824.363281	225.464798
-13837.034787	17595.171167	823.177734	63.916241
-13837.034787	17595.171167	821.992188	443.771973
-13837.034787	17595.171167	820.806641	98.578163
-13837.034787	17595.171167	819.621094	-146.669815
-13837.034787	17595.171167	818.434570	-71.413414
-13837.034787	17595.171167	817.249023	166.247543
-13837.034787	17595.171167	816.062500	41.637894
-13837.034787	17595.171167	814.875000	211.756699
-13837.034787	17595.171167	813.688477	84.723244
-13837.034787	17595.171167	812.500977	-104.958344
-13837.034787	17595.171167	811.313477	586.702881
-13837.034787	17595.171167	810.125977	582.354614
-13837.034787	17595.171167	808.937500	220.914307
-13837.034787	17595.171167	807.749023	112.193367
-13837.034787	17595.171167	806.560547	-15.097996
-13837.034787	17595.171167	805.372070	209.750427
-13837.034787	17595.171167	804.182617	212.062012
-13837.034787	17595.171167	802.994141	-89.113068
-13837.034787	17595.171167	801.803711	158.548187
-13837.034787	17595.171167	800.614258	227.756454
-13837.034787	17595.171167	799.424805	243.616318
-13837.034787	17595.171167	798.234375	361.216431
-13837.034787	17595.171167	797.043945	286.657959
-13837.034787	17595.171167	795.852539	-178.857346
-13837.034787	17595.171167	794.662109	172.073303
-13837.034787	17595.171167	793.470703	16.424444
-13837.034787	17595.171167	792.279297	225.988937
-13837.034787	17595.171167	791.087891	338.312927
-13837.034787	17595.171167	789.895508	291.070526
-13837.034787	17595.171167	788.703125	-236.761612
-13837.034787	17595.171167	787.510742	-11.500590
-13837.034787	17595.171167	786.318359	236.669281
-13837.034787	17595.171167	785.125000	15.972609
-13837.034787	17595.171167	783.931641	-15.445669
-13837.034787	17595.171167	782.738281	-46.945610
-13837.034787	17595.171167	781.544922	122.210381
-13837.034787	17595.171167	780.350586	256.605957
-13837.034787	17595.171167	779.156250	206.339569
-13837.034787	17595.171167	777.961914	-65.370728
-13837.034787	17595.171167	776.767578	167.818161
-13837.034787	17595.171167	775.572266	-18.674475
-13837.034787	17595.171167	774.376953	230.351715
-13837.034787	17595.171167	773.181641	55.239819
-13837.034787	17595.171167	771.986328	-20.850624
-13837.034787	17595.171167	770.790039	329.061859
-13837.034787	17595.171167	769.593750	17.892839
-13837.034787	17595.171167	768.397461	-180.452072
-13837.034787	17595.171167	767.201172	-102.621895
-13837.034787	17595.171167	766.003906	94.731728
-13837.034787	17595.171167	764.806641	119.352837
-13837.034787	17595.171167	763.609375	63.354145
-13837.034787	17595.171167	762.412109	7.270255
-13837.034787	17595.171167	761.213867	91.363266
-13837.034787	17595.171167	760.015625	191.401062
-13837.034787	17595.171167	758.817383	91.344048
-13837.034787	17595.171167	757.618164	-98.385757
-13837.034787	17595.171167	756.419922	-136.532471
-13837.034787	17595.171167	755.220703	-112.755486
-13837.034787	17595.171167	754.021484	92.315132
-13837.034787	17595.171167	752.821289	69.905777
-13837.034787	17595.171167	751.621094	-83.445427
-13837.034787	17595.171167	750.420898	302.456390
-13837.034787	17595.171167	749.220703	185.606873
-13837.034787	17595.171167	748.020508	148.982208
-13837.034787	17595.171167	746.819336	-107.906494
-13837.034787	17595.171167	745.618164	171.752884
-13837.034787	17595.171167	744.416992	205.885742
-13837.034787	17595.171167	743.214844	77.159233
-13837.034787	17595.171167	742.012695	-65.375931
-13837.034787	17595.171167	740.810547	-207.970078
-13837.034787	17595.171167	739.608398	235.767090
-13837.034787	17595.171167	738.406250	-294.090485
-13837.034787	17595.171167	737.203125	2.717710
-13837.034787	17595.171167	736.000000	-105.897705
-13837.034787	17595.171167	734.795898	417.093170
-13837.034787	17595.171167	733.592773	287.606293
-13837.034787	17595.171167	732.388672	183.228958
-13837.034787	17595.171167	731.184570	211.430878
-13837.034787	17595.171167	729.979492	54.284573
-13837.034787	17595.171167	728.775391	550.949036
-13837.034787	17595.171167	727.570313	356.983582
-13837.034787	17595.171167	726.365234	274.959869
-13837.034787	17595.171167	725.160156	0.920769
-13837.034787	17595.171167	723.954102	364.223602
-13837.034787	17595.171167	722.748047	-170.321320
-13837.034787	17595.171167	721.541992	-17.452282
-13837.034787	17595.171167	720.334961	151.219025
-13837.034787	17595.171167	719.128906	61.775215
-13837.034787	17595.171167	717.921875	-219.436798
-13837.034787	17595.171167	716.714844	-147.016251
-13837.034787	17595.171167	715.506836	-106.676666
-13837.034787	17595.171167	714.298828	-148.575638
-13837.034787	17595.171167	713.090820	192.470566
-13837.034787	17595.171167	711.882813	49.981586
-13837.034787	17595.171167	710.674805	-60.659580
-13837.034787	17595.171167	709.465820	81.555786
-13837.034787	17595.171167	708.256836	-232.041000
-13837.034787	17595.171167	707.047852	-217.641113
-13837.034787	17595.171167	705.837891	131.388962
-13837.034787	17595.171167	704.627930	-211.978485
-13837.034787	17595.171167	703.417969	-191.118118
-13837.034787	17595.171167	702.208008	-102.115585
-13837.034787	17595.171167	700.998047	-429.646271
-13837.034787	17595.171167	699.787109	54.950264
-13837.034787	17595.171167	698.576172	79.811043
-13837.034787	17595.171167	697.364258	147.748734
-13837.034787	17595.171167	696.153320	-205.040497
-13837.034787	17595.171167	694.941406	-353.236420
-13837.034787	17595.171167	693.729492	77.981987
-13837.034787	17595.171167	692.516602	-109.065010
-13837.034787	17595.171167	691.304688	408.003174
-13837.034787	17595.171167	690.091797	207.107712
-13837.034787	17595.171167	688.878906	607.867004
-13837.034787	17595.171167	687.665039	243.343155
-13837.034787	17595.171167	686.451172	-109.794327
-13837.034787	17595.171167	685.237305	265.478668
-13837.034787	17595.171167	684.023438	409.080841
-13837.034787	17595.171167	682.809570	196.415268
-13837.034787	17595.171167	681.594727	725.246948
-13837.034787	17595.171167	680.379883	387.691193
-13837.034787	17595.171167	679.165039	154.428543
-13837.034787	17595.171167	677.949219	510.376129
-13837.034787	17595.171167	676.733398	535.266846
-13837.034787	17595.171167	675.517578	872.644531
-13837.034787	17595.171167	674.301758	460.131287
-13837.034787	17595.171167	673.084961	561.683044
-13837.034787	17595.171167	671.869141	466.129028
-13837.034787	17595.171167	670.651367	739.444397
-13837.034787	17595.171167	669.434570	639.159973
-13837.034787	17595.171167	668.216797	611.217712
-13837.034787	17595.171167	667.000000	40.318626
-13837.034787	17595.171167	665.781250	536.968323
-13837.034787	17595.171167	664.563477	384.409637
-13837.034787	17595.171167	663.344727	60.021458
-13837.034787	17595.171167	662.125977	137.952103
-13837.034787	17595.171167	660.907227	534.351257
-13837.034787	17595.171167	659.688477	90.114685
-13837.034787	17595.171167	658.468750	127.053299
-13837.034787	17595.171167	657.249023	391.956390
-13837.034787	17595.171167	656.029297	421.856567
-13837.034787	17595.171167	654.808594	189.830215
-13837.034787	17595.171167	653.587891	111.264572
-13837.034787	17595.171167	652.367188	355.282196
-13837.034787	17595.171167	651.146484	319.404114
-13837.034787	17595.171167	649.924805	33.120533
-13837.034787	17595.171167	648.704102	-95.286713
-13837.034787	17595.171167	647.482422	218.118378
-13837.034787	17595.171167	646.259766	294.661407
-13837.034787	17595.171167	645.037109	456.722534
-13837.034787	17595.171167	643.815430	98.225098
-13837.034787	17595.171167	642.591797	453.811829
-13837.034787	17595.171167	641.369141	198.905884
-13837.034787	17595.171167	640.145508	34.095005
-13837.034787	17595.171167	638.921875	49.357418
-13837.034787	17595.171167	637.698242	159.069885
-13837.034787	17595.171167	636.474609	360.913879
-13837.034787	17595.171167	635.250000	193.691772
-13837.034787	17595.171167	634.025391	309.850830
-13837.034787	17595.171167	632.800781	165.068710
-13837.034787	17595.171167	631.575195	328.280487
-13837.034787	17595.171167	630.349609	394.714935
-13837.034787	17595.171167	629.124023	103.768471
-13837.034787	17595.171167	627.898438	543.060242
-13837.034787	17595.171167	626.671875	667.646423
-13837.034787	17595.171167	625.445313	253.158249
-13837.034787	17595.171167	624.218750	4.941546
-13837.034787	17595.171167	622.992188	169.826447
-13837.034787	17595.171167	621.764648	119.142433
-13837.034787	17595.171167	620.537109	131.267181
-13837.034787	17595.171167	619.309570	-36.121475
-13837.034787	17595.171167	618.081055	-53.209682
-13837.034787	17595.171167	616.852539	113.556129
-13837.034787	17595.171167	615.624023	4.459336
-13837.034787	17595.171167	614.395508	52.275497
-13837.034787	17595.171167	613.166992	-186.797928
-13837.034787	17595.171167	611.937500	-186.068237
-13837.034787	17595.171167	610.708008	34.158974
-13837.034787	17595.171167	609.477539	-160.044708
-13837.034787	17595.171167	608.248047	-170.585495
-13837.034787	17595.171167	607.017578	154.646393
-13837.034787	17595.171167	605.787109	-196.181870
-13837.034787	17595.171167	604.555664	-430.518250
-13837.034787	17595.171167	603.325195	-194.968048
-13837.034787	17595.171167	602.093750	-232.402008
-13837.034787	17595.171167	600.861328	-104.349152
-13837.034787	17595.171167	599.629883	-378.785889
-13837.034787	17595.171167	598.397461	-353.582916
-13837.034787	17595.171167	597.165039	-156.319138
-13837.034787	17595.171167	595.932617	-334.500122
-13837.034787	17595.171167	594.699219	-284.749603
-13837.034787	17595.171167	593.465820	-424.849579
-13837.034787	17595.171167	592.232422	-245.582962
-13837.034787	17595.171167	590.999023	-173.537415
-13837.034787	17595.171167	589.764648	-164.000702
-13837.034787	17595.171167	588.530273	-40.653320
-13837.034787	17595.171167	587.295898	-399.231354
-13837.034787	17595.171167	586.061523	-8.189712
-13837.034787	17595.171167	584.826172	45.969067
-13837.034787	17595.171167	583.590820	-209.775482
-13837.034787	17595.171167	582.355469	-266.999390
-13837.034787	17595.171167	581.119141	-172.627029
-13837.034787	17595.171167	579.882813	-196.354813
-13837.034787	17595.171167	578.646484	-398.254883
-13837.034787	17595.171167	577.410156	-110.055695
-13837.034787	17595.171167	576.172852	-42.388660
-13837.034787	17595.171167	574.935547	-99.380043
-13837.034787	17595.171167	573.698242	-2.727113
-13837.034787	17595.171167	572.460938	42.740009
-13837.034787	17595.171167	571.222656	172.772720
-13837.034787	17595.171167	569.984375	-199.896133
-13837.034787	17595.171167	568.746094	43.641541
-13837.034787	17595.171167	567.506836	231.543365
-13837.034787	17595.171167	566.267578	-107.411156
-13837.034787	17595.171167	565.028320	-261.708618
-13837.034787	17595.171167	563.789063	15.172167
-13837.034787	17595.171167	562.548828	216.463028
-13837.034787	17595.171167	561.309570	62.361225
-13837.034787	17595.171167	560.068359	530.133484
-13837.034787	17595.171167	558.828125	109.746384
-13837.034787	17595.171167	557.586914	-157.244064
-13837.034787	17595.171167	556.345703	-250.973221
-13837.034787	17595.171167	555.104492	258.868744
-13837.034787	17595.171167	553.863281	-14.443598
-13837.034787	17595.171167	552.621094	138.216110
-13837.034787	17595.171167	551.378906	69.161255
-13837.034787	17595.171167	550.136719	226.310745
-13837.034787	17595.171167	548.893555	119.732277
-13837.034787	17595.171167	547.650391	-4.460397
-13837.034787	17595.171167	546.407227	-139.602493
-13837.034787	17595.171167	545.164063	-39.841854
-13837.034787	17595.171167	543.919922	128.592224
-13837.034787	17595.171167	542.675781	55.715267
-13837.034787	17595.171167	541.431641	-295.945038
-13837.034787	17595.171167	540.186523	-98.571274
-13837.034787	17595.171167	538.941406	466.054779
-13837.034787	17595.171167	537.696289	101.483887
-13837.034787	17595.171167	536.451172	270.118317
-13837.034787	17595.171167	535.205078	197.751877
-13837.034787	17595.171167	533.959961	43.698597
-13837.034787	17595.171167	532.712891	31.234797
-13837.034787	17595.171167	531.466797	-47.444214
-13837.034787	17595.171167	530.219727	203.147629
-13837.034787	17595.171167	528.972656	206.332520
-13837.034787	17595.171167	527.725586	77.097771
-13837.034787	17595.171167	526.478516	418.231323
-13837.034787	17595.171167	525.230469	103.733406
-13837.034787	17595.171167	523.982422	356.581665
-13837.034787	17595.171167	522.734375	137.235489
-13837.034787	17595.171167	521.485352	167.311951
-13837.034787	17595.171167	520.236328	380.475586
-13837.034787	17595.171167	518.987305	108.540718
-13837.034787	17595.171167	517.737305	202.710037
-13837.034787	17595.171167	516.488281	501.856445
-13837.034787	17595.171167	515.238281	-45.194748
-13837.034787	17595.171167	513.988281	276.012756
-13837.034787	17595.171167	512.737305	136.806076
-13837.034787	17595.171167	511.486328	486.559021
-13837.034787	17595.171167	510.235352	252.783875
-13837.034787	17595.171167	508.984375	584.828552
-13837.034787	17595.171167	507.732422	868.351501
-13837.034787	17595.171167	506.480469	93.514633
-13837.034787	17595.171167	505.228516	579.446472
-13837.034787	17595.171167	503.976563	928.837891
-13837.034787	17595.171167	502.723633	576.705872
-13837.034787	17595.171167	501.470703	917.187805
-13837.034787	17595.171167	500.217773	912.473755
-13837.034787	17595.171167	498.963867	975.880798
-13837.034787	17595.171167	497.709961	1026.076782
-13837.034787	17595.171167	496.456055	801.692444
-13837.034787	17595.171167	495.202148	1130.752808
-13837.034787	17595.171167	493.947266	1016.175232
-13837.034787	17595.171167	492.692383	1050.868774
-13837.034787	17595.171167	491.437500	1438.822388
-13837.034787	17595.171167	490.181641	1392.151611
-13837.034787	17595.171167	488.926758	1580.153564
-13837.034787	17595.171167	487.670898	1831.612915
-13837.034787	17595.171167	486.414063	1688.232300
-13837.034787	17595.171167	485.158203	1606.214111
-13837.034787	17595.171167	483.901367	1756.455200
-13837.034787	17595.171167	482.644531	1661.124023
-13837.034787	17595.171167	481.386719	2036.728149
-13837.034787	17595.171167	480.128906	1831.646240
-13837.034787	17595.171167	478.871094	2127.973633
-13837.034787	17595.171167	477.613281	2161.323975
-13837.034787	17595.171167	476.355469	1850.866333
-13837.034787	17595.171167	475.096680	2330.371094
-13837.034787	17595.171167	473.837891	2433.180664
-13837.034787	17595.171167	472.578125	2527.013672
-13837.034787	17595.171167	471.319336	2246.641113
-13837.034787	17595.171167	470.059570	2357.554688
-13837.034787	17595.171167	468.799805	2662.740234
-13837.034787	17595.171167	467.539063	2185.148438
-13837.034787	17595.171167	466.278320	2533.448242
-13837.034787	17595.171167	465.017578	2651.944336
-13837.034787	17595.171167	463.756836	2422.836670
-13837.034787	17595.171167	462.495117	2649.897217
-13837.034787	17595.171167	461.233398	2308.926514
-13837.034787	17595.171167	459.971680	2183.848877
-13837.034787	17595.171167	458.709961	2473.088623
-13837.034787	17595.171167	457.447266	2833.824707
-13837.034787	17595.171167	456.184570	2426.212158
-13837.034787	17595.171167	454.921875	3023.708496
-13837.034787	17595.171167	453.658203	3160.467041
-13837.034787	17595.171167	452.394531	3098.348877
-13837.034787	17595.171167	451.130859	2857.079346
-13837.034787	17595.171167	449.867188	2604.523682
-13837.034787	17595.171167	448.602539	3212.035156
-13837.034787	17595.171167	447.337891	2890.938232
-13837.034787	17595.171167	446.073242	3070.237305
-13837.034787	17595.171167	444.807617	3059.469482
-13837.034787	17595.171167	443.542969	3111.219238
-13837.034787	17595.171167	442.276367	3116.598877
-13837.034787	17595.171167	441.010742	3160.480713
-13837.034787	17595.171167	439.744141	3416.808594
-13837.034787	17595.171167	438.478516	3215.637207
-13837.034787	17595.171167	437.210938	3472.546631
-13837.034787	17595.171167	435.944336	3261.228760
-13837.034787	17595.171167	434.676758	3223.046387
-13837.034787	17595.171167	433.409180	3107.998047
-13837.034787	17595.171167	432.141602	3202.850098
-13837.034787	17595.171167	430.873047	3479.184082
-13837.034787	17595.171167	429.604492	3420.076172
-13837.034787	17595.171167	428.335938	3364.372559
-13837.034787	17595.171167	427.067383	3520.395020
-13837.034787	17595.171167	425.797852	3775.117188
-13837.034787	17595.171167	424.528320	3267.169922
-13837.034787	17595.171167	423.258789	3317.942871
-13837.034787	17595.171167	421.988281	3007.549072
-13837.034787	17595.171167	420.717773	3535.150146
-13837.034787	17595.171167	419.447266	3430.523926
-13837.034787	17595.171167	418.175781	3669.235107
-13837.034787	17595.171167	416.905273	3525.220703
-13837.034787	17595.171167	415.633789	3223.932129
-13837.034787	17595.171167	414.362305	3501.796875
-13837.034787	17595.171167	413.089844	3154.484863
-13837.034787	17595.171167	411.817383	3338.376465
-13837.034787	17595.171167	410.544922	3111.602539
-13837.034787	17595.171167	409.272461	3590.924805
-13837.034787	17595.171167	407.999023	3415.047363
-13837.034787	17595.171167	406.725586	3497.113281
-13837.034787	17595.171167	405.452148	3419.561035
-13837.034787	17595.171167	404.177734	3389.954834
-13837.034787	17595.171167	402.903320	3401.754395
-13837.034787	17595.171167	401.628906	3290.648682
-13837.034787	17595.171167	400.354492	3389.376953
-13837.034787	17595.171167	399.079102	3501.148926
-13837.034787	17595.171167	397.803711	3457.476563
-13837.034787	17595.171167	396.528320	3249.770264
-13837.034787	17595.171167	395.251953	3374.529297
-13837.034787	17595.171167	393.976563	3488.405029
-13837.034787	17595.171167	392.700195	3287.011963
-13837.034787	17595.171167	391.422852	3478.067383
-13837.034787	17595.171167	390.145508	3649.354004
-13837.034787	17595.171167	388.869141	3203.555664
-13837.034787	17595.171167	387.590820	3093.750244
-13837.034787	17595.171167	386.313477	3492.237061
-13837.034787	17595.171167	385.035156	2967.627686
-13837.034787	17595.171167	383.756836	3004.929932
-13837.034787	17595.171167	382.478516	2931.657715
-13837.034787	17595.171167	381.199219	3245.210938
-13837.034787	17595.171167	379.919922	3426.427734
-13837.034787	17595.171167	378.640625	2857.528809
-13837.034787	17595.171167	377.360352	3114.198975
-13837.034787	17595.171167	376.080078	2883.384277
-13837.034787	17595.171167	374.799805	2838.632324
-13837.034787	17595.171167	373.519531	3132.447021
-13837.034787	17595.171167	372.238281	2867.773926
-13837.034787	17595.171167	370.957031	2545.875000
-13837.034787	17595.171167	369.675781	2587.959717
-13837.034787	17595.171167	368.394531	2774.517090
-13837.034787	17595.171167	367.112305	2875.389160
-13837.034787	17595.171167	365.830078	2600.658203
-13837.034787	17595.171167	364.546875	2311.137207
-13837.034787	17595.171167	363.264648	2629.565430
-13837.034787	17595.171167	361.981445	2329.585449
-13837.034787	17595.171167	360.698242	1988.874390
-13837.034787	17595.171167	359.414063	2100.736328
-13837.034787	17595.171167	358.129883	1918.366333
-13837.034787	17595.171167	356.845703	1857.917236
-13837.034787	17595.171167	355.561523	2047.844238
-13837.034787	17595.171167	354.276367	1988.265259
-13837.034787	17595.171167	352.991211	1587.186401
-13837.034787	17595.171167	351.706055	1731.822510
-13837.034787	17595.171167	350.420898	1644.042847
-13837.034787	17595.171167	349.134766	1702.839966
-13837.034787	17595.171167	347.848633	1563.367310
-13837.034787	17595.171167	346.561523	1540.194458
-13837.034787	17595.171167	345.275391	1181.783936
-13837.034787	17595.171167	343.988281	1239.047852
-13837.034787	17595.171167	342.700195	1142.454102
-13837.034787	17595.171167	341.413086	1240.969360
-13837.034787	17595.171167	340.125000	999.342773
-13837.034787	17595.171167	338.836914	777.027344
-13837.034787	17595.171167	337.548828	950.092712
-13837.034787	17595.171167	336.259766	1009.302734
-13837.034787	17595.171167	334.970703	1025.269531
-13837.034787	17595.171167	333.681641	483.047791
-13837.034787	17595.171167	332.391602	412.081085
-13837.034787	17595.171167	331.101563	592.161194
-13837.034787	17595.171167	329.811523	275.784424
-13837.034787	17595.171167	328.521484	-67.329109
-13837.034787	17595.171167	327.230469	170.610062
-13837.034787	17595.171167	325.939453	-41.176788
-13837.034787	17595.171167	324.648438	312.733490
-13837.034787	17595.171167	323.356445	-47.954861
-13837.034787	17595.171167	322.064453	209.816971
-13837.034787	17595.171167	320.772461	362.858246
-13837.034787	17595.171167	319.480469	-4.504932
-13837.034787	17595.171167	318.187500	87.706505
-13837.034787	17595.171167	316.894531	170.627762
-13837.034787	17595.171167	315.601563	88.607330
-13837.034787	17595.171167	314.307617	-556.901978
-13837.034787	17595.171167	313.013672	-205.054474
-13837.034787	17595.171167	311.719727	-452.932739
-13837.034787	17595.171167	310.425781	-351.325470
-13837.034787	17595.171167	309.130859	-200.955429
-13837.034787	17595.171167	307.835938	-237.839157
-13837.034787	17595.171167	306.541016	-149.474319
-13837.034787	17595.171167	305.245117	-274.547516
-13837.034787	17595.171167	303.949219	607.254578
-13837.034787	17595.171167	302.653320	652.619568
-13837.034787	17595.171167	301.356445	766.566895
-13837.034787	17595.171167	300.060547	843.367737
-13837.034787	17595.171167	298.763672	1423.583374
