#X		#Y		#Wave		#Intensity
-13833.660638	17583.908833	2000.043945	-173.506836
-13833.660638	17583.908833	1999.080078	-164.489014
-13833.660638	17583.908833	1998.116211	303.169739
-13833.660638	17583.908833	1997.151367	34.322670
-13833.660638	17583.908833	1996.186523	218.668289
-13833.660638	17583.908833	1995.222656	162.320313
-13833.660638	17583.908833	1994.256836	-94.896461
-13833.660638	17583.908833	1993.291992	125.595924
-13833.660638	17583.908833	1992.327148	-28.132244
-13833.660638	17583.908833	1991.361328	293.210602
-13833.660638	17583.908833	1990.395508	-2.094283
-13833.660638	17583.908833	1989.429688	-119.389374
-13833.660638	17583.908833	1988.463867	131.740448
-13833.660638	17583.908833	1987.497070	169.823227
-13833.660638	17583.908833	1986.531250	49.359715
-13833.660638	17583.908833	1985.564453	-103.411873
-13833.660638	17583.908833	1984.597656	-226.678558
-13833.660638	17583.908833	1983.630859	290.067596
-13833.660638	17583.908833	1982.664063	-320.482056
-13833.660638	17583.908833	1981.696289	166.053604
-13833.660638	17583.908833	1980.728516	133.448669
-13833.660638	17583.908833	1979.761719	-255.002609
-13833.660638	17583.908833	1978.792969	-110.064316
-13833.660638	17583.908833	1977.825195	-224.599045
-13833.660638	17583.908833	1976.857422	206.288742
-13833.660638	17583.908833	1975.888672	279.009338
-13833.660638	17583.908833	1974.919922	260.251038
-13833.660638	17583.908833	1973.951172	636.098206
-13833.660638	17583.908833	1972.982422	-68.736046
-13833.660638	17583.908833	1972.013672	213.055023
-13833.660638	17583.908833	1971.043945	-168.666611
-13833.660638	17583.908833	1970.075195	36.368698
-13833.660638	17583.908833	1969.105469	125.374825
-13833.660638	17583.908833	1968.135742	31.875904
-13833.660638	17583.908833	1967.165039	110.799294
-13833.660638	17583.908833	1966.195313	108.286087
-13833.660638	17583.908833	1965.224609	534.255737
-13833.660638	17583.908833	1964.253906	-352.564606
-13833.660638	17583.908833	1963.283203	151.946915
-13833.660638	17583.908833	1962.312500	107.243973
-13833.660638	17583.908833	1961.341797	271.686432
-13833.660638	17583.908833	1960.370117	231.766510
-13833.660638	17583.908833	1959.399414	196.699799
-13833.660638	17583.908833	1958.427734	-150.799469
-13833.660638	17583.908833	1957.455078	465.850525
-13833.660638	17583.908833	1956.483398	344.533325
-13833.660638	17583.908833	1955.511719	537.888855
-13833.660638	17583.908833	1954.539063	195.294998
-13833.660638	17583.908833	1953.566406	-220.943573
-13833.660638	17583.908833	1952.593750	382.617828
-13833.660638	17583.908833	1951.621094	460.197235
-13833.660638	17583.908833	1950.647461	90.703087
-13833.660638	17583.908833	1949.674805	271.382111
-13833.660638	17583.908833	1948.701172	346.395660
-13833.660638	17583.908833	1947.727539	404.169098
-13833.660638	17583.908833	1946.753906	378.451202
-13833.660638	17583.908833	1945.780273	519.584290
-13833.660638	17583.908833	1944.805664	-129.348206
-13833.660638	17583.908833	1943.831055	269.360168
-13833.660638	17583.908833	1942.856445	201.926437
-13833.660638	17583.908833	1941.881836	75.657425
-13833.660638	17583.908833	1940.907227	552.516113
-13833.660638	17583.908833	1939.932617	190.895004
-13833.660638	17583.908833	1938.957031	128.396515
-13833.660638	17583.908833	1937.981445	78.167931
-13833.660638	17583.908833	1937.005859	67.148445
-13833.660638	17583.908833	1936.030273	-39.390835
-13833.660638	17583.908833	1935.054688	1.035960
-13833.660638	17583.908833	1934.078125	528.694763
-13833.660638	17583.908833	1933.101563	-11.150204
-13833.660638	17583.908833	1932.125000	303.385040
-13833.660638	17583.908833	1931.148438	-140.772537
-13833.660638	17583.908833	1930.171875	80.706322
-13833.660638	17583.908833	1929.194336	23.262951
-13833.660638	17583.908833	1928.217773	-293.400330
-13833.660638	17583.908833	1927.240234	121.187874
-13833.660638	17583.908833	1926.262695	-148.900238
-13833.660638	17583.908833	1925.284180	399.971741
-13833.660638	17583.908833	1924.306641	191.044830
-13833.660638	17583.908833	1923.328125	488.001190
-13833.660638	17583.908833	1922.350586	117.929321
-13833.660638	17583.908833	1921.372070	187.659698
-13833.660638	17583.908833	1920.392578	-226.131454
-13833.660638	17583.908833	1919.414063	-63.559002
-13833.660638	17583.908833	1918.434570	-5.987887
-13833.660638	17583.908833	1917.456055	232.169983
-13833.660638	17583.908833	1916.476563	79.830841
-13833.660638	17583.908833	1915.497070	-270.058929
-13833.660638	17583.908833	1914.516602	-400.254089
-13833.660638	17583.908833	1913.537109	-59.705925
-13833.660638	17583.908833	1912.556641	-92.330360
-13833.660638	17583.908833	1911.576172	318.767975
-13833.660638	17583.908833	1910.595703	117.924820
-13833.660638	17583.908833	1909.615234	441.128296
-13833.660638	17583.908833	1908.633789	579.053101
-13833.660638	17583.908833	1907.653320	-45.568928
-13833.660638	17583.908833	1906.671875	38.838352
-13833.660638	17583.908833	1905.690430	111.044922
-13833.660638	17583.908833	1904.708984	287.933167
-13833.660638	17583.908833	1903.727539	326.014374
-13833.660638	17583.908833	1902.745117	-110.497971
-13833.660638	17583.908833	1901.762695	-420.298889
-13833.660638	17583.908833	1900.780273	299.146210
-13833.660638	17583.908833	1899.797852	249.672623
-13833.660638	17583.908833	1898.815430	295.076538
-13833.660638	17583.908833	1897.832031	126.505005
-13833.660638	17583.908833	1896.849609	-173.291245
-13833.660638	17583.908833	1895.866211	336.451172
-13833.660638	17583.908833	1894.882813	-196.549057
-13833.660638	17583.908833	1893.898438	53.042461
-13833.660638	17583.908833	1892.915039	382.699005
-13833.660638	17583.908833	1891.930664	134.187744
-13833.660638	17583.908833	1890.947266	165.017044
-13833.660638	17583.908833	1889.962891	98.731354
-13833.660638	17583.908833	1888.977539	-224.826523
-13833.660638	17583.908833	1887.993164	7.504042
-13833.660638	17583.908833	1887.007813	-34.439610
-13833.660638	17583.908833	1886.023438	-49.699993
-13833.660638	17583.908833	1885.038086	0.548448
-13833.660638	17583.908833	1884.051758	205.992111
-13833.660638	17583.908833	1883.066406	-29.958435
-13833.660638	17583.908833	1882.081055	42.054310
-13833.660638	17583.908833	1881.094727	-75.018478
-13833.660638	17583.908833	1880.108398	384.709534
-13833.660638	17583.908833	1879.122070	371.780121
-13833.660638	17583.908833	1878.135742	-86.889923
-13833.660638	17583.908833	1877.148438	-293.501892
-13833.660638	17583.908833	1876.162109	93.221992
-13833.660638	17583.908833	1875.174805	-48.010265
-13833.660638	17583.908833	1874.187500	185.996231
-13833.660638	17583.908833	1873.199219	277.118164
-13833.660638	17583.908833	1872.211914	610.145203
-13833.660638	17583.908833	1871.223633	422.890533
-13833.660638	17583.908833	1870.236328	151.011078
-13833.660638	17583.908833	1869.248047	-406.148865
-13833.660638	17583.908833	1868.258789	-230.477356
-13833.660638	17583.908833	1867.270508	208.588837
-13833.660638	17583.908833	1866.282227	284.914520
-13833.660638	17583.908833	1865.292969	706.755066
-13833.660638	17583.908833	1864.303711	396.328857
-13833.660638	17583.908833	1863.314453	-300.521606
-13833.660638	17583.908833	1862.324219	-180.791153
-13833.660638	17583.908833	1861.334961	-63.568554
-13833.660638	17583.908833	1860.344727	75.314178
-13833.660638	17583.908833	1859.354492	346.868622
-13833.660638	17583.908833	1858.364258	174.214523
-13833.660638	17583.908833	1857.374023	-343.465912
-13833.660638	17583.908833	1856.383789	330.775146
-13833.660638	17583.908833	1855.392578	351.071503
-13833.660638	17583.908833	1854.401367	-91.713455
-13833.660638	17583.908833	1853.410156	-88.315514
-13833.660638	17583.908833	1852.418945	189.845978
-13833.660638	17583.908833	1851.426758	557.045288
-13833.660638	17583.908833	1850.435547	155.327408
-13833.660638	17583.908833	1849.443359	76.566360
-13833.660638	17583.908833	1848.451172	147.133606
-13833.660638	17583.908833	1847.458984	586.101990
-13833.660638	17583.908833	1846.466797	107.419418
-13833.660638	17583.908833	1845.473633	233.152756
-13833.660638	17583.908833	1844.480469	402.107300
-13833.660638	17583.908833	1843.487305	-326.726135
-13833.660638	17583.908833	1842.494141	-145.821487
-13833.660638	17583.908833	1841.500977	3.675346
-13833.660638	17583.908833	1840.506836	545.116150
-13833.660638	17583.908833	1839.513672	521.152771
-13833.660638	17583.908833	1838.519531	295.177490
-13833.660638	17583.908833	1837.525391	506.722656
-13833.660638	17583.908833	1836.530273	167.741333
-13833.660638	17583.908833	1835.536133	256.538300
-13833.660638	17583.908833	1834.541016	-204.939987
-13833.660638	17583.908833	1833.545898	222.448517
-13833.660638	17583.908833	1832.550781	138.054108
-13833.660638	17583.908833	1831.555664	-40.026791
-13833.660638	17583.908833	1830.560547	206.802261
-13833.660638	17583.908833	1829.564453	494.275177
-13833.660638	17583.908833	1828.568359	589.577393
-13833.660638	17583.908833	1827.572266	454.418579
-13833.660638	17583.908833	1826.576172	21.766386
-13833.660638	17583.908833	1825.580078	426.252441
-13833.660638	17583.908833	1824.583008	341.317352
-13833.660638	17583.908833	1823.585938	174.807129
-13833.660638	17583.908833	1822.588867	-130.755890
-13833.660638	17583.908833	1821.591797	124.521713
-13833.660638	17583.908833	1820.594727	566.517761
-13833.660638	17583.908833	1819.596680	744.731079
-13833.660638	17583.908833	1818.599609	757.500610
-13833.660638	17583.908833	1817.601563	233.735107
-13833.660638	17583.908833	1816.603516	172.191513
-13833.660638	17583.908833	1815.604492	493.610535
-13833.660638	17583.908833	1814.606445	592.210754
-13833.660638	17583.908833	1813.607422	171.396439
-13833.660638	17583.908833	1812.608398	-29.239153
-13833.660638	17583.908833	1811.609375	-2.650086
-13833.660638	17583.908833	1810.610352	607.397095
-13833.660638	17583.908833	1809.610352	612.142639
-13833.660638	17583.908833	1808.611328	666.978271
-13833.660638	17583.908833	1807.611328	279.490753
-13833.660638	17583.908833	1806.611328	666.363892
-13833.660638	17583.908833	1805.610352	634.837646
-13833.660638	17583.908833	1804.610352	610.382751
-13833.660638	17583.908833	1803.609375	822.296082
-13833.660638	17583.908833	1802.608398	191.039368
-13833.660638	17583.908833	1801.607422	316.779816
-13833.660638	17583.908833	1800.606445	315.844788
-13833.660638	17583.908833	1799.605469	338.667175
-13833.660638	17583.908833	1798.603516	230.130798
-13833.660638	17583.908833	1797.601563	539.041687
-13833.660638	17583.908833	1796.599609	-108.807846
-13833.660638	17583.908833	1795.597656	335.761261
-13833.660638	17583.908833	1794.595703	453.381195
-13833.660638	17583.908833	1793.592773	403.962677
-13833.660638	17583.908833	1792.589844	447.406097
-13833.660638	17583.908833	1791.587891	-200.383698
-13833.660638	17583.908833	1790.583984	531.513428
-13833.660638	17583.908833	1789.581055	133.852081
-13833.660638	17583.908833	1788.577148	677.016052
-13833.660638	17583.908833	1787.574219	431.644257
-13833.660638	17583.908833	1786.570313	619.565430
-13833.660638	17583.908833	1785.566406	278.844940
-13833.660638	17583.908833	1784.561523	-68.997917
-13833.660638	17583.908833	1783.557617	401.708008
-13833.660638	17583.908833	1782.552734	665.142151
-13833.660638	17583.908833	1781.547852	768.991577
-13833.660638	17583.908833	1780.542969	332.841949
-13833.660638	17583.908833	1779.538086	602.907776
-13833.660638	17583.908833	1778.532227	47.852268
-13833.660638	17583.908833	1777.527344	-79.296379
-13833.660638	17583.908833	1776.521484	313.893921
-13833.660638	17583.908833	1775.515625	115.224312
-13833.660638	17583.908833	1774.508789	59.033432
-13833.660638	17583.908833	1773.502930	16.983267
-13833.660638	17583.908833	1772.496094	385.622253
-13833.660638	17583.908833	1771.489258	281.556793
-13833.660638	17583.908833	1770.482422	497.845398
-13833.660638	17583.908833	1769.475586	160.980194
-13833.660638	17583.908833	1768.467773	127.822678
-13833.660638	17583.908833	1767.460938	554.774658
-13833.660638	17583.908833	1766.453125	462.012207
-13833.660638	17583.908833	1765.445313	561.244141
-13833.660638	17583.908833	1764.437500	276.220490
-13833.660638	17583.908833	1763.428711	432.091309
-13833.660638	17583.908833	1762.420898	284.412109
-13833.660638	17583.908833	1761.412109	330.967224
-13833.660638	17583.908833	1760.403320	746.966187
-13833.660638	17583.908833	1759.393555	392.863312
-13833.660638	17583.908833	1758.384766	-219.362946
-13833.660638	17583.908833	1757.375000	506.305237
-13833.660638	17583.908833	1756.366211	128.401489
-13833.660638	17583.908833	1755.356445	131.583832
-13833.660638	17583.908833	1754.345703	-139.862640
-13833.660638	17583.908833	1753.335938	80.791748
-13833.660638	17583.908833	1752.325195	0.813794
-13833.660638	17583.908833	1751.315430	3.523532
-13833.660638	17583.908833	1750.304688	140.890457
-13833.660638	17583.908833	1749.292969	512.133362
-13833.660638	17583.908833	1748.282227	379.643341
-13833.660638	17583.908833	1747.270508	258.897095
-13833.660638	17583.908833	1746.259766	147.524506
-13833.660638	17583.908833	1745.248047	-131.654419
-13833.660638	17583.908833	1744.235352	125.301888
-13833.660638	17583.908833	1743.223633	563.875610
-13833.660638	17583.908833	1742.211914	152.199600
-13833.660638	17583.908833	1741.199219	132.410065
-13833.660638	17583.908833	1740.186523	-3.136163
-13833.660638	17583.908833	1739.173828	-70.321281
-13833.660638	17583.908833	1738.160156	-184.782730
-13833.660638	17583.908833	1737.147461	257.345978
-13833.660638	17583.908833	1736.133789	173.289246
-13833.660638	17583.908833	1735.120117	-200.868835
-13833.660638	17583.908833	1734.106445	-193.104141
-13833.660638	17583.908833	1733.091797	-211.382690
-13833.660638	17583.908833	1732.078125	8.237435
-13833.660638	17583.908833	1731.063477	-59.782043
-13833.660638	17583.908833	1730.048828	-66.641586
-13833.660638	17583.908833	1729.034180	305.565857
-13833.660638	17583.908833	1728.019531	-177.237030
-13833.660638	17583.908833	1727.003906	-0.778466
-13833.660638	17583.908833	1725.988281	-283.484985
-13833.660638	17583.908833	1724.972656	-279.090088
-13833.660638	17583.908833	1723.957031	-8.924881
-13833.660638	17583.908833	1722.941406	-242.398636
-13833.660638	17583.908833	1721.924805	149.740479
-13833.660638	17583.908833	1720.909180	-232.031906
-13833.660638	17583.908833	1719.892578	-244.646729
-13833.660638	17583.908833	1718.875977	99.935181
-13833.660638	17583.908833	1717.858398	-213.772949
-13833.660638	17583.908833	1716.841797	175.111603
-13833.660638	17583.908833	1715.824219	427.485321
-13833.660638	17583.908833	1714.806641	-184.717606
-13833.660638	17583.908833	1713.789063	140.226517
-13833.660638	17583.908833	1712.770508	-284.052246
-13833.660638	17583.908833	1711.752930	122.751709
-13833.660638	17583.908833	1710.734375	78.666870
-13833.660638	17583.908833	1709.715820	212.842773
-13833.660638	17583.908833	1708.697266	-138.778015
-13833.660638	17583.908833	1707.678711	105.450218
-13833.660638	17583.908833	1706.659180	-105.491341
-13833.660638	17583.908833	1705.640625	-239.061554
-13833.660638	17583.908833	1704.621094	492.392120
-13833.660638	17583.908833	1703.600586	236.687073
-13833.660638	17583.908833	1702.581055	-2.595945
-13833.660638	17583.908833	1701.561523	-82.550056
-13833.660638	17583.908833	1700.541016	95.114151
-13833.660638	17583.908833	1699.520508	40.762051
-13833.660638	17583.908833	1698.500000	527.266052
-13833.660638	17583.908833	1697.478516	-121.983063
-13833.660638	17583.908833	1696.458008	17.776131
-13833.660638	17583.908833	1695.436523	5.273063
-13833.660638	17583.908833	1694.415039	114.373550
-13833.660638	17583.908833	1693.393555	623.391479
-13833.660638	17583.908833	1692.372070	322.863403
-13833.660638	17583.908833	1691.349609	125.265755
-13833.660638	17583.908833	1690.327148	371.902161
-13833.660638	17583.908833	1689.304688	358.895142
-13833.660638	17583.908833	1688.282227	212.609436
-13833.660638	17583.908833	1687.259766	559.355103
-13833.660638	17583.908833	1686.236328	321.831024
-13833.660638	17583.908833	1685.213867	458.069641
-13833.660638	17583.908833	1684.190430	666.580444
-13833.660638	17583.908833	1683.166016	706.829529
-13833.660638	17583.908833	1682.142578	478.549072
-13833.660638	17583.908833	1681.119141	439.347961
-13833.660638	17583.908833	1680.094727	614.788086
-13833.660638	17583.908833	1679.070313	1182.064575
-13833.660638	17583.908833	1678.045898	820.670959
-13833.660638	17583.908833	1677.020508	622.610596
-13833.660638	17583.908833	1675.996094	287.006775
-13833.660638	17583.908833	1674.970703	706.821289
-13833.660638	17583.908833	1673.945313	273.331512
-13833.660638	17583.908833	1672.919922	427.222626
-13833.660638	17583.908833	1671.893555	1021.368713
-13833.660638	17583.908833	1670.868164	1133.038208
-13833.660638	17583.908833	1669.841797	664.676819
-13833.660638	17583.908833	1668.815430	748.339539
-13833.660638	17583.908833	1667.789063	654.992859
-13833.660638	17583.908833	1666.761719	212.475616
-13833.660638	17583.908833	1665.735352	498.536987
-13833.660638	17583.908833	1664.708008	775.142090
-13833.660638	17583.908833	1663.680664	905.045166
-13833.660638	17583.908833	1662.653320	995.326172
-13833.660638	17583.908833	1661.625000	634.394104
-13833.660638	17583.908833	1660.597656	631.639038
-13833.660638	17583.908833	1659.569336	1182.096191
-13833.660638	17583.908833	1658.541016	509.828644
-13833.660638	17583.908833	1657.512695	704.529541
-13833.660638	17583.908833	1656.483398	339.232941
-13833.660638	17583.908833	1655.455078	1109.899414
-13833.660638	17583.908833	1654.425781	881.645996
-13833.660638	17583.908833	1653.396484	539.696106
-13833.660638	17583.908833	1652.366211	344.103333
-13833.660638	17583.908833	1651.336914	879.691589
-13833.660638	17583.908833	1650.306641	1192.284912
-13833.660638	17583.908833	1649.276367	458.391998
-13833.660638	17583.908833	1648.246094	970.420776
-13833.660638	17583.908833	1647.215820	760.978577
-13833.660638	17583.908833	1646.185547	1052.465576
-13833.660638	17583.908833	1645.154297	1137.497803
-13833.660638	17583.908833	1644.123047	1287.400269
-13833.660638	17583.908833	1643.091797	1351.506836
-13833.660638	17583.908833	1642.060547	1309.010742
-13833.660638	17583.908833	1641.028320	1389.301514
-13833.660638	17583.908833	1639.997070	1099.011597
-13833.660638	17583.908833	1638.964844	1769.809082
-13833.660638	17583.908833	1637.931641	1745.809082
-13833.660638	17583.908833	1636.899414	2156.995605
-13833.660638	17583.908833	1635.867188	1406.293213
-13833.660638	17583.908833	1634.833984	1655.447388
-13833.660638	17583.908833	1633.800781	1474.243774
-13833.660638	17583.908833	1632.767578	1420.340454
-13833.660638	17583.908833	1631.734375	1958.465820
-13833.660638	17583.908833	1630.700195	1800.486084
-13833.660638	17583.908833	1629.666016	1434.558350
-13833.660638	17583.908833	1628.631836	1591.106201
-13833.660638	17583.908833	1627.597656	1733.760254
-13833.660638	17583.908833	1626.563477	1391.249023
-13833.660638	17583.908833	1625.528320	1998.204590
-13833.660638	17583.908833	1624.493164	2099.224854
-13833.660638	17583.908833	1623.458008	1535.288696
-13833.660638	17583.908833	1622.422852	1652.592651
-13833.660638	17583.908833	1621.387695	1806.818604
-13833.660638	17583.908833	1620.351563	1474.133911
-13833.660638	17583.908833	1619.315430	1633.030884
-13833.660638	17583.908833	1618.279297	1817.281128
-13833.660638	17583.908833	1617.243164	1743.218140
-13833.660638	17583.908833	1616.207031	1526.281494
-13833.660638	17583.908833	1615.169922	1629.908325
-13833.660638	17583.908833	1614.132813	1590.645508
-13833.660638	17583.908833	1613.095703	1993.893311
-13833.660638	17583.908833	1612.058594	2019.200317
-13833.660638	17583.908833	1611.020508	1639.136841
-13833.660638	17583.908833	1609.983398	1809.712158
-13833.660638	17583.908833	1608.945313	1625.678467
-13833.660638	17583.908833	1607.907227	2003.504150
-13833.660638	17583.908833	1606.868164	2003.763794
-13833.660638	17583.908833	1605.830078	1799.290039
-13833.660638	17583.908833	1604.791016	1539.742188
-13833.660638	17583.908833	1603.751953	1781.834106
-13833.660638	17583.908833	1602.712891	1961.813843
-13833.660638	17583.908833	1601.673828	2190.085449
-13833.660638	17583.908833	1600.633789	1958.540161
-13833.660638	17583.908833	1599.594727	2223.654297
-13833.660638	17583.908833	1598.554688	1868.256226
-13833.660638	17583.908833	1597.513672	1919.757568
-13833.660638	17583.908833	1596.473633	2201.044678
-13833.660638	17583.908833	1595.433594	2284.790039
-13833.660638	17583.908833	1594.392578	1893.253052
-13833.660638	17583.908833	1593.351563	1949.646606
-13833.660638	17583.908833	1592.310547	1957.902344
-13833.660638	17583.908833	1591.268555	1573.810547
-13833.660638	17583.908833	1590.227539	1820.955444
-13833.660638	17583.908833	1589.185547	2235.561035
-13833.660638	17583.908833	1588.143555	2150.098145
-13833.660638	17583.908833	1587.100586	2064.759521
-13833.660638	17583.908833	1586.058594	2036.879028
-13833.660638	17583.908833	1585.015625	1963.266968
-13833.660638	17583.908833	1583.972656	2162.510742
-13833.660638	17583.908833	1582.929688	2600.084961
-13833.660638	17583.908833	1581.886719	2086.865723
-13833.660638	17583.908833	1580.843750	1867.136108
-13833.660638	17583.908833	1579.799805	1888.054688
-13833.660638	17583.908833	1578.755859	1842.677124
-13833.660638	17583.908833	1577.711914	1721.891724
-13833.660638	17583.908833	1576.666992	1626.443237
-13833.660638	17583.908833	1575.623047	2123.799805
-13833.660638	17583.908833	1574.578125	2007.957520
-13833.660638	17583.908833	1573.533203	1757.330933
-13833.660638	17583.908833	1572.488281	1623.554077
-13833.660638	17583.908833	1571.443359	1453.366943
-13833.660638	17583.908833	1570.397461	1836.581421
-13833.660638	17583.908833	1569.351563	1783.236328
-13833.660638	17583.908833	1568.305664	1650.059692
-13833.660638	17583.908833	1567.259766	1446.244263
-13833.660638	17583.908833	1566.213867	1868.506470
-13833.660638	17583.908833	1565.166992	1231.084473
-13833.660638	17583.908833	1564.120117	1413.743164
-13833.660638	17583.908833	1563.073242	1313.397949
-13833.660638	17583.908833	1562.026367	2039.452393
-13833.660638	17583.908833	1560.978516	1528.547852
-13833.660638	17583.908833	1559.930664	1278.073364
-13833.660638	17583.908833	1558.883789	929.757446
-13833.660638	17583.908833	1557.834961	1247.658325
-13833.660638	17583.908833	1556.787109	1394.564087
-13833.660638	17583.908833	1555.739258	941.998962
-13833.660638	17583.908833	1554.690430	1027.659546
-13833.660638	17583.908833	1553.641602	1323.090332
-13833.660638	17583.908833	1552.592773	1067.190918
-13833.660638	17583.908833	1551.542969	911.771790
-13833.660638	17583.908833	1550.494141	567.540344
-13833.660638	17583.908833	1549.444336	1252.807373
-13833.660638	17583.908833	1548.394531	1006.843262
-13833.660638	17583.908833	1547.344727	1157.180420
-13833.660638	17583.908833	1546.293945	1155.149170
-13833.660638	17583.908833	1545.244141	705.057373
-13833.660638	17583.908833	1544.193359	359.943542
-13833.660638	17583.908833	1543.142578	706.522583
-13833.660638	17583.908833	1542.090820	1150.910645
-13833.660638	17583.908833	1541.040039	849.597717
-13833.660638	17583.908833	1539.988281	507.662659
-13833.660638	17583.908833	1538.936523	900.054077
-13833.660638	17583.908833	1537.884766	488.144073
-13833.660638	17583.908833	1536.833008	698.992310
-13833.660638	17583.908833	1535.780273	805.454041
-13833.660638	17583.908833	1534.727539	528.293579
-13833.660638	17583.908833	1533.674805	639.636841
-13833.660638	17583.908833	1532.622070	1093.851929
-13833.660638	17583.908833	1531.569336	640.311096
-13833.660638	17583.908833	1530.515625	919.995239
-13833.660638	17583.908833	1529.461914	802.757629
-13833.660638	17583.908833	1528.408203	549.665466
-13833.660638	17583.908833	1527.354492	1042.891602
-13833.660638	17583.908833	1526.299805	989.722351
-13833.660638	17583.908833	1525.246094	490.212830
-13833.660638	17583.908833	1524.191406	256.235779
-13833.660638	17583.908833	1523.136719	867.686218
-13833.660638	17583.908833	1522.081055	332.808197
-13833.660638	17583.908833	1521.026367	199.213898
-13833.660638	17583.908833	1519.970703	462.144592
-13833.660638	17583.908833	1518.915039	-12.911665
-13833.660638	17583.908833	1517.859375	109.991158
-13833.660638	17583.908833	1516.802734	518.191650
-13833.660638	17583.908833	1515.747070	145.792328
-13833.660638	17583.908833	1514.690430	140.219757
-13833.660638	17583.908833	1513.633789	467.324310
-13833.660638	17583.908833	1512.577148	235.938660
-13833.660638	17583.908833	1511.519531	484.152161
-13833.660638	17583.908833	1510.461914	124.408318
-13833.660638	17583.908833	1509.405273	-164.951614
-13833.660638	17583.908833	1508.346680	-176.058273
-13833.660638	17583.908833	1507.289063	-345.111877
-13833.660638	17583.908833	1506.231445	-245.120499
-13833.660638	17583.908833	1505.172852	78.596077
-13833.660638	17583.908833	1504.114258	-390.086212
-13833.660638	17583.908833	1503.055664	-352.748901
-13833.660638	17583.908833	1501.996094	145.179306
-13833.660638	17583.908833	1500.937500	306.901184
-13833.660638	17583.908833	1499.877930	130.371521
-13833.660638	17583.908833	1498.818359	278.906647
-13833.660638	17583.908833	1497.757813	12.660544
-13833.660638	17583.908833	1496.698242	55.600071
-13833.660638	17583.908833	1495.637695	-221.361542
-13833.660638	17583.908833	1494.577148	11.333392
-13833.660638	17583.908833	1493.516602	235.126633
-13833.660638	17583.908833	1492.456055	143.643524
-13833.660638	17583.908833	1491.394531	-15.164046
-13833.660638	17583.908833	1490.333008	188.862366
-13833.660638	17583.908833	1489.271484	224.148834
-13833.660638	17583.908833	1488.209961	138.074509
-13833.660638	17583.908833	1487.148438	241.288055
-13833.660638	17583.908833	1486.085938	-494.621002
-13833.660638	17583.908833	1485.023438	27.543747
-13833.660638	17583.908833	1483.960938	-50.834652
-13833.660638	17583.908833	1482.898438	-284.142761
-13833.660638	17583.908833	1481.834961	332.733032
-13833.660638	17583.908833	1480.772461	342.636414
-13833.660638	17583.908833	1479.708984	150.493851
-13833.660638	17583.908833	1478.644531	-218.846329
-13833.660638	17583.908833	1477.581055	153.485718
-13833.660638	17583.908833	1476.517578	-399.454712
-13833.660638	17583.908833	1475.453125	327.845490
-13833.660638	17583.908833	1474.388672	267.194000
-13833.660638	17583.908833	1473.323242	312.221436
-13833.660638	17583.908833	1472.258789	258.994843
-13833.660638	17583.908833	1471.193359	212.400635
-13833.660638	17583.908833	1470.127930	578.296448
-13833.660638	17583.908833	1469.062500	279.014191
-13833.660638	17583.908833	1467.997070	240.018661
-13833.660638	17583.908833	1466.930664	277.300903
-13833.660638	17583.908833	1465.865234	664.136475
-13833.660638	17583.908833	1464.798828	175.585922
-13833.660638	17583.908833	1463.731445	452.696472
-13833.660638	17583.908833	1462.665039	515.793335
-13833.660638	17583.908833	1461.597656	554.043457
-13833.660638	17583.908833	1460.530273	346.794861
-13833.660638	17583.908833	1459.462891	360.726990
-13833.660638	17583.908833	1458.395508	597.905945
-13833.660638	17583.908833	1457.327148	851.363464
-13833.660638	17583.908833	1456.259766	655.504333
-13833.660638	17583.908833	1455.191406	1144.146118
-13833.660638	17583.908833	1454.123047	72.616150
-13833.660638	17583.908833	1453.053711	418.161438
-13833.660638	17583.908833	1451.985352	430.361084
-13833.660638	17583.908833	1450.916016	485.612274
-13833.660638	17583.908833	1449.846680	608.131958
-13833.660638	17583.908833	1448.776367	509.855499
-13833.660638	17583.908833	1447.707031	322.500977
-13833.660638	17583.908833	1446.636719	526.127197
-13833.660638	17583.908833	1445.566406	400.645569
-13833.660638	17583.908833	1444.496094	-4.842770
-13833.660638	17583.908833	1443.425781	520.724182
-13833.660638	17583.908833	1442.354492	568.060120
-13833.660638	17583.908833	1441.283203	481.353027
-13833.660638	17583.908833	1440.211914	340.801605
-13833.660638	17583.908833	1439.140625	405.803741
-13833.660638	17583.908833	1438.069336	803.507324
-13833.660638	17583.908833	1436.997070	403.052612
-13833.660638	17583.908833	1435.924805	511.462616
-13833.660638	17583.908833	1434.852539	364.072601
-13833.660638	17583.908833	1433.780273	664.710083
-13833.660638	17583.908833	1432.707031	118.965279
-13833.660638	17583.908833	1431.633789	-263.338928
-13833.660638	17583.908833	1430.560547	-163.121201
-13833.660638	17583.908833	1429.487305	131.152954
-13833.660638	17583.908833	1428.413086	-23.355295
-13833.660638	17583.908833	1427.339844	-354.833588
-13833.660638	17583.908833	1426.265625	169.174164
-13833.660638	17583.908833	1425.191406	-104.904892
-13833.660638	17583.908833	1424.116211	111.993439
-13833.660638	17583.908833	1423.041992	6.832384
-13833.660638	17583.908833	1421.966797	-114.090805
-13833.660638	17583.908833	1420.891602	-224.045044
-13833.660638	17583.908833	1419.816406	40.504021
-13833.660638	17583.908833	1418.740234	-64.097412
-13833.660638	17583.908833	1417.665039	552.908936
-13833.660638	17583.908833	1416.588867	204.857193
-13833.660638	17583.908833	1415.512695	-12.335060
-13833.660638	17583.908833	1414.435547	-4.277968
-13833.660638	17583.908833	1413.359375	165.230637
-13833.660638	17583.908833	1412.282227	-72.145760
-13833.660638	17583.908833	1411.205078	-117.943352
-13833.660638	17583.908833	1410.127930	-8.506858
-13833.660638	17583.908833	1409.049805	160.901962
-13833.660638	17583.908833	1407.972656	-335.852417
-13833.660638	17583.908833	1406.894531	-376.511139
-13833.660638	17583.908833	1405.816406	-125.310532
-13833.660638	17583.908833	1404.737305	12.023391
-13833.660638	17583.908833	1403.659180	-316.345459
-13833.660638	17583.908833	1402.580078	169.323471
-13833.660638	17583.908833	1401.500977	-15.390455
-13833.660638	17583.908833	1400.421875	120.101532
-13833.660638	17583.908833	1399.341797	-165.546936
-13833.660638	17583.908833	1398.262695	49.236534
-13833.660638	17583.908833	1397.182617	306.783875
-13833.660638	17583.908833	1396.102539	97.454826
-13833.660638	17583.908833	1395.021484	-26.721394
-13833.660638	17583.908833	1393.941406	147.513824
-13833.660638	17583.908833	1392.860352	66.731873
-13833.660638	17583.908833	1391.779297	68.315269
-13833.660638	17583.908833	1390.698242	-56.362175
-13833.660638	17583.908833	1389.616211	67.268478
-13833.660638	17583.908833	1388.535156	67.538521
-13833.660638	17583.908833	1387.453125	170.626221
-13833.660638	17583.908833	1386.371094	203.866425
-13833.660638	17583.908833	1385.288086	83.324730
-13833.660638	17583.908833	1384.206055	313.393677
-13833.660638	17583.908833	1383.123047	525.272217
-13833.660638	17583.908833	1382.040039	431.985992
-13833.660638	17583.908833	1380.957031	218.764114
-13833.660638	17583.908833	1379.873047	370.465820
-13833.660638	17583.908833	1378.789063	431.717865
-13833.660638	17583.908833	1377.705078	319.362610
-13833.660638	17583.908833	1376.621094	295.847992
-13833.660638	17583.908833	1375.537109	529.281982
-13833.660638	17583.908833	1374.452148	720.567444
-13833.660638	17583.908833	1373.367188	448.392792
-13833.660638	17583.908833	1372.282227	282.659027
-13833.660638	17583.908833	1371.197266	496.349152
-13833.660638	17583.908833	1370.112305	597.223511
-13833.660638	17583.908833	1369.026367	651.876770
-13833.660638	17583.908833	1367.940430	699.610168
-13833.660638	17583.908833	1366.854492	625.601868
-13833.660638	17583.908833	1365.767578	575.478271
-13833.660638	17583.908833	1364.681641	280.849670
-13833.660638	17583.908833	1363.594727	296.298431
-13833.660638	17583.908833	1362.507813	712.824219
-13833.660638	17583.908833	1361.419922	738.670959
-13833.660638	17583.908833	1360.333008	608.065247
-13833.660638	17583.908833	1359.245117	347.891113
-13833.660638	17583.908833	1358.157227	68.272690
-13833.660638	17583.908833	1357.069336	182.470215
-13833.660638	17583.908833	1355.981445	160.474350
-13833.660638	17583.908833	1354.892578	671.682068
-13833.660638	17583.908833	1353.803711	514.158508
-13833.660638	17583.908833	1352.714844	385.269226
-13833.660638	17583.908833	1351.625000	361.356873
-13833.660638	17583.908833	1350.536133	451.907562
-13833.660638	17583.908833	1349.446289	672.197937
-13833.660638	17583.908833	1348.356445	448.015076
-13833.660638	17583.908833	1347.266602	260.853607
-13833.660638	17583.908833	1346.175781	966.724487
-13833.660638	17583.908833	1345.085938	382.511353
-13833.660638	17583.908833	1343.995117	457.811981
-13833.660638	17583.908833	1342.903320	135.441528
-13833.660638	17583.908833	1341.812500	82.833733
-13833.660638	17583.908833	1340.720703	386.450317
-13833.660638	17583.908833	1339.629883	746.337952
-13833.660638	17583.908833	1338.538086	406.720337
-13833.660638	17583.908833	1337.445313	291.744659
-13833.660638	17583.908833	1336.353516	319.152313
-13833.660638	17583.908833	1335.260742	586.484009
-13833.660638	17583.908833	1334.167969	414.916168
-13833.660638	17583.908833	1333.075195	537.037109
-13833.660638	17583.908833	1331.981445	-27.691893
-13833.660638	17583.908833	1330.888672	146.633789
-13833.660638	17583.908833	1329.794922	444.184570
-13833.660638	17583.908833	1328.701172	236.769287
-13833.660638	17583.908833	1327.606445	212.564438
-13833.660638	17583.908833	1326.512695	297.977905
-13833.660638	17583.908833	1325.417969	422.614288
-13833.660638	17583.908833	1324.323242	70.407166
-13833.660638	17583.908833	1323.227539	-130.689438
-13833.660638	17583.908833	1322.132813	299.954468
-13833.660638	17583.908833	1321.037109	362.920624
-13833.660638	17583.908833	1319.941406	257.130554
-13833.660638	17583.908833	1318.845703	167.731033
-13833.660638	17583.908833	1317.750000	495.868866
-13833.660638	17583.908833	1316.653320	338.307068
-13833.660638	17583.908833	1315.556641	391.517731
-13833.660638	17583.908833	1314.459961	164.921051
-13833.660638	17583.908833	1313.363281	-145.445541
-13833.660638	17583.908833	1312.265625	503.032715
-13833.660638	17583.908833	1311.167969	143.714432
-13833.660638	17583.908833	1310.070313	172.582306
-13833.660638	17583.908833	1308.972656	155.037003
-13833.660638	17583.908833	1307.874023	566.666199
-13833.660638	17583.908833	1306.776367	218.367783
-13833.660638	17583.908833	1305.677734	391.834381
-13833.660638	17583.908833	1304.579102	449.967255
-13833.660638	17583.908833	1303.479492	112.529961
-13833.660638	17583.908833	1302.380859	83.341965
-13833.660638	17583.908833	1301.281250	109.557152
-13833.660638	17583.908833	1300.181641	153.662537
-13833.660638	17583.908833	1299.081055	370.265625
-13833.660638	17583.908833	1297.981445	313.494110
-13833.660638	17583.908833	1296.880859	303.760071
-13833.660638	17583.908833	1295.780273	197.257324
-13833.660638	17583.908833	1294.679688	204.187393
-13833.660638	17583.908833	1293.578125	88.384506
-13833.660638	17583.908833	1292.476563	-200.699722
-13833.660638	17583.908833	1291.375000	-172.164612
-13833.660638	17583.908833	1290.273438	-237.535217
-13833.660638	17583.908833	1289.171875	194.155579
-13833.660638	17583.908833	1288.069336	202.449188
-13833.660638	17583.908833	1286.966797	85.082237
-13833.660638	17583.908833	1285.864258	-25.321884
-13833.660638	17583.908833	1284.761719	-356.956207
-13833.660638	17583.908833	1283.658203	-214.966736
-13833.660638	17583.908833	1282.554688	4.437768
-13833.660638	17583.908833	1281.451172	-176.884903
-13833.660638	17583.908833	1280.347656	-47.131680
-13833.660638	17583.908833	1279.244141	-321.608826
-13833.660638	17583.908833	1278.139648	-349.860748
-13833.660638	17583.908833	1277.035156	151.485809
-13833.660638	17583.908833	1275.930664	82.796471
-13833.660638	17583.908833	1274.825195	25.003435
-13833.660638	17583.908833	1273.720703	-7.024178
-13833.660638	17583.908833	1272.615234	-76.986748
-13833.660638	17583.908833	1271.508789	-193.108490
-13833.660638	17583.908833	1270.403320	-102.813248
-13833.660638	17583.908833	1269.297852	-223.328934
-13833.660638	17583.908833	1268.191406	-68.574867
-13833.660638	17583.908833	1267.084961	19.134712
-13833.660638	17583.908833	1265.977539	-35.279671
-13833.660638	17583.908833	1264.871094	57.453514
-13833.660638	17583.908833	1263.763672	-273.393463
-13833.660638	17583.908833	1262.656250	-198.021515
-13833.660638	17583.908833	1261.548828	-356.232941
-13833.660638	17583.908833	1260.440430	-282.689240
-13833.660638	17583.908833	1259.333008	35.529648
-13833.660638	17583.908833	1258.224609	-167.702499
-13833.660638	17583.908833	1257.115234	-22.410639
-13833.660638	17583.908833	1256.006836	-354.045654
-13833.660638	17583.908833	1254.897461	-116.081543
-13833.660638	17583.908833	1253.788086	-89.437798
-13833.660638	17583.908833	1252.678711	70.200539
-13833.660638	17583.908833	1251.569336	-24.160179
-13833.660638	17583.908833	1250.458984	23.685604
-13833.660638	17583.908833	1249.349609	157.049026
-13833.660638	17583.908833	1248.239258	-26.903473
-13833.660638	17583.908833	1247.127930	55.146912
-13833.660638	17583.908833	1246.017578	-106.230675
-13833.660638	17583.908833	1244.906250	206.614426
-13833.660638	17583.908833	1243.794922	3.278606
-13833.660638	17583.908833	1242.683594	-292.567627
-13833.660638	17583.908833	1241.571289	-255.136871
-13833.660638	17583.908833	1240.459961	12.456773
-13833.660638	17583.908833	1239.347656	-17.382406
-13833.660638	17583.908833	1238.234375	100.289444
-13833.660638	17583.908833	1237.122070	-61.825104
-13833.660638	17583.908833	1236.008789	-351.611053
-13833.660638	17583.908833	1234.896484	33.212498
-13833.660638	17583.908833	1233.782227	-86.005806
-13833.660638	17583.908833	1232.668945	74.023399
-13833.660638	17583.908833	1231.555664	333.708466
-13833.660638	17583.908833	1230.441406	32.691940
-13833.660638	17583.908833	1229.327148	65.289581
-13833.660638	17583.908833	1228.211914	24.202456
-13833.660638	17583.908833	1227.097656	-71.166771
-13833.660638	17583.908833	1225.982422	112.436821
-13833.660638	17583.908833	1224.867188	171.087036
-13833.660638	17583.908833	1223.751953	-51.967342
-13833.660638	17583.908833	1222.635742	116.478462
-13833.660638	17583.908833	1221.520508	-61.617641
-13833.660638	17583.908833	1220.404297	-76.809792
-13833.660638	17583.908833	1219.287109	191.447556
-13833.660638	17583.908833	1218.170898	-49.727169
-13833.660638	17583.908833	1217.053711	-94.919662
-13833.660638	17583.908833	1215.936523	23.362364
-13833.660638	17583.908833	1214.819336	159.063095
-13833.660638	17583.908833	1213.702148	58.372841
-13833.660638	17583.908833	1212.583984	50.456863
-13833.660638	17583.908833	1211.465820	28.260860
-13833.660638	17583.908833	1210.347656	117.326729
-13833.660638	17583.908833	1209.229492	259.266693
-13833.660638	17583.908833	1208.110352	21.698910
-13833.660638	17583.908833	1206.992188	108.399460
-13833.660638	17583.908833	1205.873047	49.629143
-13833.660638	17583.908833	1204.752930	-6.925763
-13833.660638	17583.908833	1203.633789	12.120617
-13833.660638	17583.908833	1202.513672	182.712296
-13833.660638	17583.908833	1201.393555	-107.477737
-13833.660638	17583.908833	1200.273438	-87.157509
-13833.660638	17583.908833	1199.152344	-162.775696
-13833.660638	17583.908833	1198.032227	283.187164
-13833.660638	17583.908833	1196.911133	147.322861
-13833.660638	17583.908833	1195.790039	-41.968643
-13833.660638	17583.908833	1194.667969	148.957443
-13833.660638	17583.908833	1193.545898	142.575470
-13833.660638	17583.908833	1192.424805	139.172607
-13833.660638	17583.908833	1191.301758	71.454155
-13833.660638	17583.908833	1190.179688	-149.388458
-13833.660638	17583.908833	1189.056641	41.860542
-13833.660638	17583.908833	1187.933594	224.195511
-13833.660638	17583.908833	1186.810547	126.267952
-13833.660638	17583.908833	1185.687500	-63.133850
-13833.660638	17583.908833	1184.563477	365.028809
-13833.660638	17583.908833	1183.440430	305.230774
-13833.660638	17583.908833	1182.316406	-108.684181
-13833.660638	17583.908833	1181.191406	-200.463165
-13833.660638	17583.908833	1180.067383	14.599689
-13833.660638	17583.908833	1178.942383	-44.257790
-13833.660638	17583.908833	1177.817383	93.119751
-13833.660638	17583.908833	1176.692383	5.157414
-13833.660638	17583.908833	1175.566406	55.467537
-13833.660638	17583.908833	1174.440430	186.783905
-13833.660638	17583.908833	1173.314453	66.625404
-13833.660638	17583.908833	1172.188477	-34.422680
-13833.660638	17583.908833	1171.062500	-0.122687
-13833.660638	17583.908833	1169.935547	282.820953
-13833.660638	17583.908833	1168.808594	197.130783
-13833.660638	17583.908833	1167.681641	-19.881252
-13833.660638	17583.908833	1166.553711	354.990326
-13833.660638	17583.908833	1165.426758	-118.190689
-13833.660638	17583.908833	1164.298828	252.393417
-13833.660638	17583.908833	1163.170898	330.485291
-13833.660638	17583.908833	1162.041992	282.251038
-13833.660638	17583.908833	1160.914063	162.704468
-13833.660638	17583.908833	1159.785156	-56.985844
-13833.660638	17583.908833	1158.656250	-162.885406
-13833.660638	17583.908833	1157.526367	211.206665
-13833.660638	17583.908833	1156.397461	166.332428
-13833.660638	17583.908833	1155.267578	-225.289536
-13833.660638	17583.908833	1154.137695	-196.939133
-13833.660638	17583.908833	1153.006836	-113.548599
-13833.660638	17583.908833	1151.876953	-243.422729
-13833.660638	17583.908833	1150.746094	-102.343658
-13833.660638	17583.908833	1149.615234	-96.590851
-13833.660638	17583.908833	1148.484375	-259.527924
-13833.660638	17583.908833	1147.352539	-221.907898
-13833.660638	17583.908833	1146.220703	41.423706
-13833.660638	17583.908833	1145.088867	-78.592018
-13833.660638	17583.908833	1143.957031	-271.806946
-13833.660638	17583.908833	1142.825195	16.454435
-13833.660638	17583.908833	1141.692383	-81.530067
-13833.660638	17583.908833	1140.559570	-229.675735
-13833.660638	17583.908833	1139.426758	7.997658
-13833.660638	17583.908833	1138.292969	-19.369049
-13833.660638	17583.908833	1137.159180	53.223263
-13833.660638	17583.908833	1136.025391	-139.682648
-13833.660638	17583.908833	1134.891602	20.936478
-13833.660638	17583.908833	1133.757813	-137.271118
-13833.660638	17583.908833	1132.623047	9.842754
-13833.660638	17583.908833	1131.488281	-113.812027
-13833.660638	17583.908833	1130.353516	-149.997330
-13833.660638	17583.908833	1129.217773	-162.932404
-13833.660638	17583.908833	1128.083008	322.949677
-13833.660638	17583.908833	1126.947266	201.718246
-13833.660638	17583.908833	1125.811523	335.350189
-13833.660638	17583.908833	1124.674805	277.336792
-13833.660638	17583.908833	1123.539063	286.597443
-13833.660638	17583.908833	1122.402344	-47.412540
-13833.660638	17583.908833	1121.265625	-21.477606
-13833.660638	17583.908833	1120.127930	-13.860696
-13833.660638	17583.908833	1118.990234	-36.388954
-13833.660638	17583.908833	1117.853516	373.157776
-13833.660638	17583.908833	1116.714844	235.779175
-13833.660638	17583.908833	1115.577148	360.077148
-13833.660638	17583.908833	1114.439453	339.726105
-13833.660638	17583.908833	1113.300781	121.400040
-13833.660638	17583.908833	1112.162109	-166.950165
-13833.660638	17583.908833	1111.022461	-5.678048
-13833.660638	17583.908833	1109.883789	171.122803
-13833.660638	17583.908833	1108.744141	202.627975
-13833.660638	17583.908833	1107.604492	263.597412
-13833.660638	17583.908833	1106.463867	320.708466
-13833.660638	17583.908833	1105.324219	343.669220
-13833.660638	17583.908833	1104.183594	338.705231
-13833.660638	17583.908833	1103.042969	214.635513
-13833.660638	17583.908833	1101.902344	-186.656967
-13833.660638	17583.908833	1100.760742	195.782028
-13833.660638	17583.908833	1099.619141	495.232758
-13833.660638	17583.908833	1098.477539	259.886871
-13833.660638	17583.908833	1097.335938	405.525787
-13833.660638	17583.908833	1096.193359	285.837769
-13833.660638	17583.908833	1095.051758	732.833557
-13833.660638	17583.908833	1093.909180	257.225281
-13833.660638	17583.908833	1092.765625	271.891815
-13833.660638	17583.908833	1091.623047	282.317230
-13833.660638	17583.908833	1090.479492	333.478668
-13833.660638	17583.908833	1089.335938	614.251221
-13833.660638	17583.908833	1088.192383	587.932007
-13833.660638	17583.908833	1087.047852	481.618683
-13833.660638	17583.908833	1085.903320	593.085144
-13833.660638	17583.908833	1084.758789	428.628479
-13833.660638	17583.908833	1083.614258	230.659256
-13833.660638	17583.908833	1082.469727	216.822281
-13833.660638	17583.908833	1081.324219	205.847580
-13833.660638	17583.908833	1080.178711	366.099396
-13833.660638	17583.908833	1079.033203	339.972565
-13833.660638	17583.908833	1077.886719	499.497650
-13833.660638	17583.908833	1076.740234	292.562653
-13833.660638	17583.908833	1075.593750	165.492142
-13833.660638	17583.908833	1074.447266	124.692772
-13833.660638	17583.908833	1073.300781	284.504791
-13833.660638	17583.908833	1072.153320	337.661377
-13833.660638	17583.908833	1071.005859	201.777634
-13833.660638	17583.908833	1069.858398	400.900848
-13833.660638	17583.908833	1068.709961	108.611618
-13833.660638	17583.908833	1067.561523	215.158142
-13833.660638	17583.908833	1066.413086	181.783081
-13833.660638	17583.908833	1065.264648	146.662643
-13833.660638	17583.908833	1064.116211	371.191833
-13833.660638	17583.908833	1062.966797	-23.197676
-13833.660638	17583.908833	1061.817383	96.238983
-13833.660638	17583.908833	1060.667969	201.025711
-13833.660638	17583.908833	1059.517578	-87.406052
-13833.660638	17583.908833	1058.368164	281.000153
-13833.660638	17583.908833	1057.217773	500.278534
-13833.660638	17583.908833	1056.067383	219.299393
-13833.660638	17583.908833	1054.916016	86.427422
-13833.660638	17583.908833	1053.764648	199.732376
-13833.660638	17583.908833	1052.613281	565.679626
-13833.660638	17583.908833	1051.461914	180.547073
-13833.660638	17583.908833	1050.310547	-202.801529
-13833.660638	17583.908833	1049.158203	354.084045
-13833.660638	17583.908833	1048.005859	371.609985
-13833.660638	17583.908833	1046.853516	548.132263
-13833.660638	17583.908833	1045.700195	512.737610
-13833.660638	17583.908833	1044.547852	27.586212
-13833.660638	17583.908833	1043.394531	526.042236
-13833.660638	17583.908833	1042.240234	550.734863
-13833.660638	17583.908833	1041.086914	257.664795
-13833.660638	17583.908833	1039.932617	63.011971
-13833.660638	17583.908833	1038.778320	202.585678
-13833.660638	17583.908833	1037.624023	368.628693
-13833.660638	17583.908833	1036.469727	336.141571
-13833.660638	17583.908833	1035.314453	359.163391
-13833.660638	17583.908833	1034.159180	643.464661
-13833.660638	17583.908833	1033.003906	580.549927
-13833.660638	17583.908833	1031.847656	401.446228
-13833.660638	17583.908833	1030.692383	403.448822
-13833.660638	17583.908833	1029.536133	561.478333
-13833.660638	17583.908833	1028.378906	806.132751
-13833.660638	17583.908833	1027.222656	27.059393
-13833.660638	17583.908833	1026.065430	417.154999
-13833.660638	17583.908833	1024.908203	324.702515
-13833.660638	17583.908833	1023.750977	-256.277924
-13833.660638	17583.908833	1022.593750	-26.656782
-13833.660638	17583.908833	1021.435547	392.225098
-13833.660638	17583.908833	1020.277344	497.197906
-13833.660638	17583.908833	1019.119141	-28.581497
-13833.660638	17583.908833	1017.959961	24.866127
-13833.660638	17583.908833	1016.800781	-376.355377
-13833.660638	17583.908833	1015.641602	8.762432
-13833.660638	17583.908833	1014.482422	86.056084
-13833.660638	17583.908833	1013.323242	-110.321449
-13833.660638	17583.908833	1012.163086	273.221985
-13833.660638	17583.908833	1011.002930	105.478127
-13833.660638	17583.908833	1009.842773	88.213188
-13833.660638	17583.908833	1008.681641	-39.492592
-13833.660638	17583.908833	1007.520508	136.266006
-13833.660638	17583.908833	1006.359375	68.891930
-13833.660638	17583.908833	1005.198242	-348.907166
-13833.660638	17583.908833	1004.037109	208.099747
-13833.660638	17583.908833	1002.875000	-77.917580
-13833.660638	17583.908833	1001.712891	-74.787964
-13833.660638	17583.908833	1000.550781	10.555598
-13833.660638	17583.908833	999.387695	2.813852
-13833.660638	17583.908833	998.224609	-12.892583
-13833.660638	17583.908833	997.061523	127.624382
-13833.660638	17583.908833	995.898438	639.763794
-13833.660638	17583.908833	994.734375	187.675278
-13833.660638	17583.908833	993.571289	-27.505186
-13833.660638	17583.908833	992.407227	-164.928146
-13833.660638	17583.908833	991.242188	-25.101030
-13833.660638	17583.908833	990.078125	103.049965
-13833.660638	17583.908833	988.913086	-96.637802
-13833.660638	17583.908833	987.748047	212.613113
-13833.660638	17583.908833	986.583008	77.127495
-13833.660638	17583.908833	985.416992	-41.070522
-13833.660638	17583.908833	984.250977	182.687302
-13833.660638	17583.908833	983.084961	10.991371
-13833.660638	17583.908833	981.918945	134.935959
-13833.660638	17583.908833	980.751953	472.103546
-13833.660638	17583.908833	979.584961	356.221191
-13833.660638	17583.908833	978.417969	-218.859009
-13833.660638	17583.908833	977.250977	129.746277
-13833.660638	17583.908833	976.083008	-54.001850
-13833.660638	17583.908833	974.915039	396.702026
-13833.660638	17583.908833	973.747070	-328.821259
-13833.660638	17583.908833	972.579102	-279.289978
-13833.660638	17583.908833	971.410156	41.350464
-13833.660638	17583.908833	970.242188	381.832123
-13833.660638	17583.908833	969.072266	69.923103
-13833.660638	17583.908833	967.903320	3.922659
-13833.660638	17583.908833	966.733398	-190.361618
-13833.660638	17583.908833	965.563477	23.485510
-13833.660638	17583.908833	964.393555	104.937134
-13833.660638	17583.908833	963.223633	145.185104
-13833.660638	17583.908833	962.052734	0.928034
-13833.660638	17583.908833	960.881836	167.046188
-13833.660638	17583.908833	959.710938	-2.229564
-13833.660638	17583.908833	958.540039	-45.453484
-13833.660638	17583.908833	957.368164	-84.415497
-13833.660638	17583.908833	956.196289	129.319534
-13833.660638	17583.908833	955.024414	-57.552692
-13833.660638	17583.908833	953.851563	210.439438
-13833.660638	17583.908833	952.679688	129.209229
-13833.660638	17583.908833	951.506836	81.703362
-13833.660638	17583.908833	950.333984	-170.865448
-13833.660638	17583.908833	949.160156	-174.092224
-13833.660638	17583.908833	947.986328	53.591255
-13833.660638	17583.908833	946.812500	-175.330276
-13833.660638	17583.908833	945.638672	296.311432
-13833.660638	17583.908833	944.464844	403.598755
-13833.660638	17583.908833	943.290039	-44.821507
-13833.660638	17583.908833	942.115234	-367.208984
-13833.660638	17583.908833	940.940430	-204.707932
-13833.660638	17583.908833	939.764648	10.027530
-13833.660638	17583.908833	938.588867	128.749588
-13833.660638	17583.908833	937.413086	31.267069
-13833.660638	17583.908833	936.237305	28.045063
-13833.660638	17583.908833	935.060547	-174.008286
-13833.660638	17583.908833	933.883789	18.714817
-13833.660638	17583.908833	932.707031	166.472412
-13833.660638	17583.908833	931.530273	-67.520493
-13833.660638	17583.908833	930.352539	-170.375504
-13833.660638	17583.908833	929.175781	-37.665787
-13833.660638	17583.908833	927.998047	489.267975
-13833.660638	17583.908833	926.819336	73.996117
-13833.660638	17583.908833	925.641602	221.336349
-13833.660638	17583.908833	924.462891	319.107819
-13833.660638	17583.908833	923.284180	-88.663368
-13833.660638	17583.908833	922.104492	427.633423
-13833.660638	17583.908833	920.924805	114.008781
-13833.660638	17583.908833	919.746094	129.438278
-13833.660638	17583.908833	919.551758	-60.835907
-13833.660638	17583.908833	918.386719	135.434189
-13833.660638	17583.908833	917.220703	79.121338
-13833.660638	17583.908833	916.054688	59.900322
-13833.660638	17583.908833	914.887695	-16.263142
-13833.660638	17583.908833	913.721680	60.906574
-13833.660638	17583.908833	912.554688	-168.667023
-13833.660638	17583.908833	911.387695	-232.531647
-13833.660638	17583.908833	910.220703	146.086121
-13833.660638	17583.908833	909.052734	-258.996765
-13833.660638	17583.908833	907.885742	-23.957348
-13833.660638	17583.908833	906.717773	-11.415642
-13833.660638	17583.908833	905.548828	-80.430443
-13833.660638	17583.908833	904.380859	-85.272331
-13833.660638	17583.908833	903.211914	-102.503021
-13833.660638	17583.908833	902.042969	85.115204
-13833.660638	17583.908833	900.874023	-28.507610
-13833.660638	17583.908833	899.704102	-36.015903
-13833.660638	17583.908833	898.535156	-144.742340
-13833.660638	17583.908833	897.365234	-48.737434
-13833.660638	17583.908833	896.194336	-418.907776
-13833.660638	17583.908833	895.024414	-44.386513
-13833.660638	17583.908833	893.853516	186.962967
-13833.660638	17583.908833	892.682617	324.507568
-13833.660638	17583.908833	891.511719	-8.698208
-13833.660638	17583.908833	890.340820	-95.467094
-13833.660638	17583.908833	889.168945	34.505157
-13833.660638	17583.908833	887.997070	-239.492523
-13833.660638	17583.908833	886.825195	116.852097
-13833.660638	17583.908833	885.653320	212.070023
-13833.660638	17583.908833	884.480469	420.410522
-13833.660638	17583.908833	883.307617	-220.286484
-13833.660638	17583.908833	882.134766	-144.904160
-13833.660638	17583.908833	880.961914	65.666573
-13833.660638	17583.908833	879.788086	226.920868
-13833.660638	17583.908833	878.614258	196.280762
-13833.660638	17583.908833	877.440430	155.765457
-13833.660638	17583.908833	876.266602	-27.332455
-13833.660638	17583.908833	875.091797	504.591309
-13833.660638	17583.908833	873.916992	-172.380905
-13833.660638	17583.908833	872.742188	35.035675
-13833.660638	17583.908833	871.567383	-27.799971
-13833.660638	17583.908833	870.391602	-291.979156
-13833.660638	17583.908833	869.215820	-23.477945
-13833.660638	17583.908833	868.040039	308.652466
-13833.660638	17583.908833	866.864258	149.880341
-13833.660638	17583.908833	865.687500	81.879753
-13833.660638	17583.908833	864.510742	129.112320
-13833.660638	17583.908833	863.333984	-154.766174
-13833.660638	17583.908833	862.157227	-141.959381
-13833.660638	17583.908833	860.979492	5.593228
-13833.660638	17583.908833	859.802734	15.776873
-13833.660638	17583.908833	858.625000	337.048920
-13833.660638	17583.908833	857.446289	-145.306198
-13833.660638	17583.908833	856.268555	232.058029
-13833.660638	17583.908833	855.089844	-15.159243
-13833.660638	17583.908833	853.911133	119.543098
-13833.660638	17583.908833	852.731445	479.295380
-13833.660638	17583.908833	851.552734	-0.496895
-13833.660638	17583.908833	850.373047	-350.494415
-13833.660638	17583.908833	849.193359	331.788452
-13833.660638	17583.908833	848.013672	204.261292
-13833.660638	17583.908833	846.833008	66.940788
-13833.660638	17583.908833	845.652344	125.160423
-13833.660638	17583.908833	844.471680	-298.178070
-13833.660638	17583.908833	843.291016	-288.930847
-13833.660638	17583.908833	842.110352	-145.399323
-13833.660638	17583.908833	840.928711	17.546120
-13833.660638	17583.908833	839.747070	-149.319351
-13833.660638	17583.908833	838.564453	-189.229568
-13833.660638	17583.908833	837.382813	17.320101
-13833.660638	17583.908833	836.200195	167.585220
-13833.660638	17583.908833	835.017578	-136.123611
-13833.660638	17583.908833	833.834961	172.513214
-13833.660638	17583.908833	832.651367	-184.886978
-13833.660638	17583.908833	831.467773	255.150650
-13833.660638	17583.908833	830.284180	-265.632416
-13833.660638	17583.908833	829.100586	-89.174461
-13833.660638	17583.908833	827.916992	311.324585
-13833.660638	17583.908833	826.732422	343.673126
-13833.660638	17583.908833	825.547852	-191.649841
-13833.660638	17583.908833	824.363281	110.948700
-13833.660638	17583.908833	823.177734	-390.184052
-13833.660638	17583.908833	821.992188	128.821762
-13833.660638	17583.908833	820.806641	53.645100
-13833.660638	17583.908833	819.621094	17.339848
-13833.660638	17583.908833	818.434570	173.166931
-13833.660638	17583.908833	817.249023	377.477112
-13833.660638	17583.908833	816.062500	-177.144608
-13833.660638	17583.908833	814.875000	-7.058595
-13833.660638	17583.908833	813.688477	68.043365
-13833.660638	17583.908833	812.500977	320.445038
-13833.660638	17583.908833	811.313477	169.278732
-13833.660638	17583.908833	810.125977	557.406860
-13833.660638	17583.908833	808.937500	265.187439
-13833.660638	17583.908833	807.749023	-63.438538
-13833.660638	17583.908833	806.560547	273.211792
-13833.660638	17583.908833	805.372070	-208.409302
-13833.660638	17583.908833	804.182617	254.133911
-13833.660638	17583.908833	802.994141	311.166779
-13833.660638	17583.908833	801.803711	205.548462
-13833.660638	17583.908833	800.614258	104.711136
-13833.660638	17583.908833	799.424805	304.496674
-13833.660638	17583.908833	798.234375	203.473114
-13833.660638	17583.908833	797.043945	124.199524
-13833.660638	17583.908833	795.852539	-18.154631
-13833.660638	17583.908833	794.662109	287.666901
-13833.660638	17583.908833	793.470703	515.738098
-13833.660638	17583.908833	792.279297	145.403595
-13833.660638	17583.908833	791.087891	2.713323
-13833.660638	17583.908833	789.895508	-86.765259
-13833.660638	17583.908833	788.703125	511.066620
-13833.660638	17583.908833	787.510742	191.399597
-13833.660638	17583.908833	786.318359	26.592274
-13833.660638	17583.908833	785.125000	272.946075
-13833.660638	17583.908833	783.931641	323.193024
-13833.660638	17583.908833	782.738281	-3.890350
-13833.660638	17583.908833	781.544922	205.699142
-13833.660638	17583.908833	780.350586	146.813354
-13833.660638	17583.908833	779.156250	-144.139526
-13833.660638	17583.908833	777.961914	55.324108
-13833.660638	17583.908833	776.767578	237.672302
-13833.660638	17583.908833	775.572266	-147.665329
-13833.660638	17583.908833	774.376953	27.165123
-13833.660638	17583.908833	773.181641	126.963737
-13833.660638	17583.908833	771.986328	-63.008457
-13833.660638	17583.908833	770.790039	133.033234
-13833.660638	17583.908833	769.593750	-61.935726
-13833.660638	17583.908833	768.397461	-215.951157
-13833.660638	17583.908833	767.201172	-148.185593
-13833.660638	17583.908833	766.003906	3.797626
-13833.660638	17583.908833	764.806641	235.134583
-13833.660638	17583.908833	763.609375	333.695740
-13833.660638	17583.908833	762.412109	210.429733
-13833.660638	17583.908833	761.213867	318.327515
-13833.660638	17583.908833	760.015625	-7.450930
-13833.660638	17583.908833	758.817383	85.734459
-13833.660638	17583.908833	757.618164	190.784515
-13833.660638	17583.908833	756.419922	-72.592461
-13833.660638	17583.908833	755.220703	82.710358
-13833.660638	17583.908833	754.021484	-12.400336
-13833.660638	17583.908833	752.821289	-54.688148
-13833.660638	17583.908833	751.621094	395.894501
-13833.660638	17583.908833	750.420898	43.104946
-13833.660638	17583.908833	749.220703	46.087296
-13833.660638	17583.908833	748.020508	-59.221390
-13833.660638	17583.908833	746.819336	260.676514
-13833.660638	17583.908833	745.618164	34.969887
-13833.660638	17583.908833	744.416992	131.060669
-13833.660638	17583.908833	743.214844	87.696205
-13833.660638	17583.908833	742.012695	20.194664
-13833.660638	17583.908833	740.810547	72.598686
-13833.660638	17583.908833	739.608398	-9.556855
-13833.660638	17583.908833	738.406250	-163.795670
-13833.660638	17583.908833	737.203125	228.812698
-13833.660638	17583.908833	736.000000	-110.373848
-13833.660638	17583.908833	734.795898	444.821045
-13833.660638	17583.908833	733.592773	512.985352
-13833.660638	17583.908833	732.388672	403.612579
-13833.660638	17583.908833	731.184570	404.369751
-13833.660638	17583.908833	729.979492	426.542236
-13833.660638	17583.908833	728.775391	106.031540
-13833.660638	17583.908833	727.570313	-94.751732
-13833.660638	17583.908833	726.365234	281.426453
-13833.660638	17583.908833	725.160156	-72.805038
-13833.660638	17583.908833	723.954102	197.616074
-13833.660638	17583.908833	722.748047	149.533615
-13833.660638	17583.908833	721.541992	316.631226
-13833.660638	17583.908833	720.334961	213.236526
-13833.660638	17583.908833	719.128906	-57.649250
-13833.660638	17583.908833	717.921875	-491.148376
-13833.660638	17583.908833	716.714844	-274.447601
-13833.660638	17583.908833	715.506836	-519.215698
-13833.660638	17583.908833	714.298828	-235.994598
-13833.660638	17583.908833	713.090820	187.899582
-13833.660638	17583.908833	711.882813	198.295273
-13833.660638	17583.908833	710.674805	-61.279873
-13833.660638	17583.908833	709.465820	-289.858368
-13833.660638	17583.908833	708.256836	-150.922791
-13833.660638	17583.908833	707.047852	221.667908
-13833.660638	17583.908833	705.837891	-38.279186
-13833.660638	17583.908833	704.627930	171.636597
-13833.660638	17583.908833	703.417969	35.529076
-13833.660638	17583.908833	702.208008	335.660522
-13833.660638	17583.908833	700.998047	68.179962
-13833.660638	17583.908833	699.787109	-99.234840
-13833.660638	17583.908833	698.576172	54.954262
-13833.660638	17583.908833	697.364258	-15.000905
-13833.660638	17583.908833	696.153320	124.530838
-13833.660638	17583.908833	694.941406	521.044556
-13833.660638	17583.908833	693.729492	360.141571
-13833.660638	17583.908833	692.516602	382.452271
-13833.660638	17583.908833	691.304688	318.940857
-13833.660638	17583.908833	690.091797	79.250191
-13833.660638	17583.908833	688.878906	-51.049179
-13833.660638	17583.908833	687.665039	-76.791931
-13833.660638	17583.908833	686.451172	-0.411103
-13833.660638	17583.908833	685.237305	292.133423
-13833.660638	17583.908833	684.023438	242.166977
-13833.660638	17583.908833	682.809570	455.858673
-13833.660638	17583.908833	681.594727	215.549286
-13833.660638	17583.908833	680.379883	34.591637
-13833.660638	17583.908833	679.165039	-113.169258
-13833.660638	17583.908833	677.949219	85.646263
-13833.660638	17583.908833	676.733398	179.805511
-13833.660638	17583.908833	675.517578	401.958313
-13833.660638	17583.908833	674.301758	132.723251
-13833.660638	17583.908833	673.084961	88.846985
-13833.660638	17583.908833	671.869141	184.805405
-13833.660638	17583.908833	670.651367	67.182968
-13833.660638	17583.908833	669.434570	165.234283
-13833.660638	17583.908833	668.216797	234.681335
-13833.660638	17583.908833	667.000000	88.340775
-13833.660638	17583.908833	665.781250	169.389877
-13833.660638	17583.908833	664.563477	153.174362
-13833.660638	17583.908833	663.344727	35.017216
-13833.660638	17583.908833	662.125977	489.808472
-13833.660638	17583.908833	660.907227	492.147644
-13833.660638	17583.908833	659.688477	281.368683
-13833.660638	17583.908833	658.468750	136.830994
-13833.660638	17583.908833	657.249023	44.296154
-13833.660638	17583.908833	656.029297	93.621681
-13833.660638	17583.908833	654.808594	-228.446411
-13833.660638	17583.908833	653.587891	203.732742
-13833.660638	17583.908833	652.367188	377.985535
-13833.660638	17583.908833	651.146484	419.728210
-13833.660638	17583.908833	649.924805	-330.172211
-13833.660638	17583.908833	648.704102	87.131210
-13833.660638	17583.908833	647.482422	317.592896
-13833.660638	17583.908833	646.259766	332.988495
-13833.660638	17583.908833	645.037109	272.752563
-13833.660638	17583.908833	643.815430	498.070007
-13833.660638	17583.908833	642.591797	-69.689865
-13833.660638	17583.908833	641.369141	275.776642
-13833.660638	17583.908833	640.145508	269.556305
-13833.660638	17583.908833	638.921875	187.810791
-13833.660638	17583.908833	637.698242	-7.140845
-13833.660638	17583.908833	636.474609	71.375977
-13833.660638	17583.908833	635.250000	-10.467206
-13833.660638	17583.908833	634.025391	294.100983
-13833.660638	17583.908833	632.800781	223.911469
-13833.660638	17583.908833	631.575195	521.127991
-13833.660638	17583.908833	630.349609	288.334686
-13833.660638	17583.908833	629.124023	-109.203827
-13833.660638	17583.908833	627.898438	223.062271
-13833.660638	17583.908833	626.671875	178.617081
-13833.660638	17583.908833	625.445313	329.435608
-13833.660638	17583.908833	624.218750	663.638123
-13833.660638	17583.908833	622.992188	856.559692
-13833.660638	17583.908833	621.764648	435.672852
-13833.660638	17583.908833	620.537109	181.851151
-13833.660638	17583.908833	619.309570	24.476778
-13833.660638	17583.908833	618.081055	22.233137
-13833.660638	17583.908833	616.852539	92.806541
-13833.660638	17583.908833	615.624023	-22.213776
-13833.660638	17583.908833	614.395508	-181.816696
-13833.660638	17583.908833	613.166992	64.821442
-13833.660638	17583.908833	611.937500	-273.135315
-13833.660638	17583.908833	610.708008	-202.598160
-13833.660638	17583.908833	609.477539	-66.399033
-13833.660638	17583.908833	608.248047	-174.203568
-13833.660638	17583.908833	607.017578	-462.546234
-13833.660638	17583.908833	605.787109	-549.092041
-13833.660638	17583.908833	604.555664	-607.458008
-13833.660638	17583.908833	603.325195	-339.977722
-13833.660638	17583.908833	602.093750	72.697418
-13833.660638	17583.908833	600.861328	-84.085220
-13833.660638	17583.908833	599.629883	-97.878113
-13833.660638	17583.908833	598.397461	-266.195740
-13833.660638	17583.908833	597.165039	239.906204
-13833.660638	17583.908833	595.932617	29.540735
-13833.660638	17583.908833	594.699219	-87.076668
-13833.660638	17583.908833	593.465820	-67.884590
-13833.660638	17583.908833	592.232422	-74.371552
-13833.660638	17583.908833	590.999023	-111.205772
-13833.660638	17583.908833	589.764648	-5.323871
-13833.660638	17583.908833	588.530273	180.069778
-13833.660638	17583.908833	587.295898	-116.044579
-13833.660638	17583.908833	586.061523	277.418732
-13833.660638	17583.908833	584.826172	156.789017
-13833.660638	17583.908833	583.590820	68.994446
-13833.660638	17583.908833	582.355469	-63.047245
-13833.660638	17583.908833	581.119141	-267.330811
-13833.660638	17583.908833	579.882813	-160.959518
-13833.660638	17583.908833	578.646484	-42.871147
-13833.660638	17583.908833	577.410156	16.937920
-13833.660638	17583.908833	576.172852	-58.487713
-13833.660638	17583.908833	574.935547	274.396729
-13833.660638	17583.908833	573.698242	294.778442
-13833.660638	17583.908833	572.460938	224.340607
-13833.660638	17583.908833	571.222656	317.214081
-13833.660638	17583.908833	569.984375	193.439270
-13833.660638	17583.908833	568.746094	-135.179565
-13833.660638	17583.908833	567.506836	104.836281
-13833.660638	17583.908833	566.267578	4.862786
-13833.660638	17583.908833	565.028320	-134.510773
-13833.660638	17583.908833	563.789063	-178.242020
-13833.660638	17583.908833	562.548828	-63.551147
-13833.660638	17583.908833	561.309570	-134.905884
-13833.660638	17583.908833	560.068359	-124.668350
-13833.660638	17583.908833	558.828125	57.842369
-13833.660638	17583.908833	557.586914	168.343201
-13833.660638	17583.908833	556.345703	32.513504
-13833.660638	17583.908833	555.104492	338.543701
-13833.660638	17583.908833	553.863281	440.104645
-13833.660638	17583.908833	552.621094	348.945465
-13833.660638	17583.908833	551.378906	717.940063
-13833.660638	17583.908833	550.136719	522.594971
-13833.660638	17583.908833	548.893555	1321.300171
-13833.660638	17583.908833	547.650391	1490.737549
-13833.660638	17583.908833	546.407227	1114.858521
-13833.660638	17583.908833	545.164063	899.439148
-13833.660638	17583.908833	543.919922	440.701447
-13833.660638	17583.908833	542.675781	430.006042
-13833.660638	17583.908833	541.431641	-4.859876
-13833.660638	17583.908833	540.186523	318.787048
-13833.660638	17583.908833	538.941406	90.818268
-13833.660638	17583.908833	537.696289	423.973785
-13833.660638	17583.908833	536.451172	608.899719
-13833.660638	17583.908833	535.205078	275.056976
-13833.660638	17583.908833	533.959961	316.750824
-13833.660638	17583.908833	532.712891	400.306488
-13833.660638	17583.908833	531.466797	-157.216156
-13833.660638	17583.908833	530.219727	206.869064
-13833.660638	17583.908833	528.972656	-69.963211
-13833.660638	17583.908833	527.725586	153.244659
-13833.660638	17583.908833	526.478516	52.743130
-13833.660638	17583.908833	525.230469	236.938553
-13833.660638	17583.908833	523.982422	298.726135
-13833.660638	17583.908833	522.734375	210.449585
-13833.660638	17583.908833	521.485352	180.194901
-13833.660638	17583.908833	520.236328	-231.069504
-13833.660638	17583.908833	518.987305	-94.473160
-13833.660638	17583.908833	517.737305	-73.199638
-13833.660638	17583.908833	516.488281	121.447876
-13833.660638	17583.908833	515.238281	177.708191
-13833.660638	17583.908833	513.988281	204.145523
-13833.660638	17583.908833	512.737305	23.099524
-13833.660638	17583.908833	511.486328	520.606262
-13833.660638	17583.908833	510.235352	540.644165
-13833.660638	17583.908833	508.984375	351.023315
-13833.660638	17583.908833	507.732422	691.958130
-13833.660638	17583.908833	506.480469	511.998657
-13833.660638	17583.908833	505.228516	452.141815
-13833.660638	17583.908833	503.976563	81.454544
-13833.660638	17583.908833	502.723633	796.092163
-13833.660638	17583.908833	501.470703	752.892090
-13833.660638	17583.908833	500.217773	1036.854004
-13833.660638	17583.908833	498.963867	996.273499
-13833.660638	17583.908833	497.709961	902.943604
-13833.660638	17583.908833	496.456055	825.921692
-13833.660638	17583.908833	495.202148	1066.577393
-13833.660638	17583.908833	493.947266	959.963196
-13833.660638	17583.908833	492.692383	1180.089233
-13833.660638	17583.908833	491.437500	1485.323853
-13833.660638	17583.908833	490.181641	1211.312866
-13833.660638	17583.908833	488.926758	1305.244385
-13833.660638	17583.908833	487.670898	1272.884277
-13833.660638	17583.908833	486.414063	1438.209595
-13833.660638	17583.908833	485.158203	1628.820679
-13833.660638	17583.908833	483.901367	1582.947876
-13833.660638	17583.908833	482.644531	1736.898193
-13833.660638	17583.908833	481.386719	1799.057007
-13833.660638	17583.908833	480.128906	1670.796997
-13833.660638	17583.908833	478.871094	1983.127075
-13833.660638	17583.908833	477.613281	1864.153809
-13833.660638	17583.908833	476.355469	2236.010254
-13833.660638	17583.908833	475.096680	1956.603516
-13833.660638	17583.908833	473.837891	2564.408691
-13833.660638	17583.908833	472.578125	2074.226563
-13833.660638	17583.908833	471.319336	2102.046143
-13833.660638	17583.908833	470.059570	2555.902100
-13833.660638	17583.908833	468.799805	2331.611572
-13833.660638	17583.908833	467.539063	2366.101563
-13833.660638	17583.908833	466.278320	2869.789795
-13833.660638	17583.908833	465.017578	2652.222900
-13833.660638	17583.908833	463.756836	2722.958496
-13833.660638	17583.908833	462.495117	2628.823730
-13833.660638	17583.908833	461.233398	2701.554199
-13833.660638	17583.908833	459.971680	2760.377930
-13833.660638	17583.908833	458.709961	2583.506592
-13833.660638	17583.908833	457.447266	2838.525879
-13833.660638	17583.908833	456.184570	3077.220215
-13833.660638	17583.908833	454.921875	3050.533691
-13833.660638	17583.908833	453.658203	3003.041748
-13833.660638	17583.908833	452.394531	2870.785156
-13833.660638	17583.908833	451.130859	3199.502930
-13833.660638	17583.908833	449.867188	3235.550293
-13833.660638	17583.908833	448.602539	3348.822998
-13833.660638	17583.908833	447.337891	3623.676270
-13833.660638	17583.908833	446.073242	3037.943848
-13833.660638	17583.908833	444.807617	3375.764404
-13833.660638	17583.908833	443.542969	3587.561279
-13833.660638	17583.908833	442.276367	3589.026855
-13833.660638	17583.908833	441.010742	3526.154053
-13833.660638	17583.908833	439.744141	3617.717773
-13833.660638	17583.908833	438.478516	3824.856201
-13833.660638	17583.908833	437.210938	4167.964355
-13833.660638	17583.908833	435.944336	3647.154053
-13833.660638	17583.908833	434.676758	3874.981689
-13833.660638	17583.908833	433.409180	3519.239258
-13833.660638	17583.908833	432.141602	3818.356201
-13833.660638	17583.908833	430.873047	3688.781006
-13833.660638	17583.908833	429.604492	3528.858398
-13833.660638	17583.908833	428.335938	3959.495850
-13833.660638	17583.908833	427.067383	4184.388672
-13833.660638	17583.908833	425.797852	4214.990234
-13833.660638	17583.908833	424.528320	3760.459961
-13833.660638	17583.908833	423.258789	3630.052979
-13833.660638	17583.908833	421.988281	3891.673584
-13833.660638	17583.908833	420.717773	4206.578613
-13833.660638	17583.908833	419.447266	4640.542969
-13833.660638	17583.908833	418.175781	4117.227051
-13833.660638	17583.908833	416.905273	4621.191895
-13833.660638	17583.908833	415.633789	4651.559570
-13833.660638	17583.908833	414.362305	4031.619629
-13833.660638	17583.908833	413.089844	4215.844238
-13833.660638	17583.908833	411.817383	3831.514893
-13833.660638	17583.908833	410.544922	4482.086426
-13833.660638	17583.908833	409.272461	4199.050293
-13833.660638	17583.908833	407.999023	4345.126465
-13833.660638	17583.908833	406.725586	4425.990234
-13833.660638	17583.908833	405.452148	4294.368652
-13833.660638	17583.908833	404.177734	4240.241699
-13833.660638	17583.908833	402.903320	4388.067383
-13833.660638	17583.908833	401.628906	4155.785156
-13833.660638	17583.908833	400.354492	4616.511719
-13833.660638	17583.908833	399.079102	4472.949219
-13833.660638	17583.908833	397.803711	4567.133789
-13833.660638	17583.908833	396.528320	4326.526367
-13833.660638	17583.908833	395.251953	4520.193359
-13833.660638	17583.908833	393.976563	4390.367188
-13833.660638	17583.908833	392.700195	4450.274902
-13833.660638	17583.908833	391.422852	4808.195313
-13833.660638	17583.908833	390.145508	4546.475586
-13833.660638	17583.908833	388.869141	4273.197754
-13833.660638	17583.908833	387.590820	4112.379883
-13833.660638	17583.908833	386.313477	4115.943359
-13833.660638	17583.908833	385.035156	3832.048096
-13833.660638	17583.908833	383.756836	3935.755371
-13833.660638	17583.908833	382.478516	4665.934570
-13833.660638	17583.908833	381.199219	4314.062012
-13833.660638	17583.908833	379.919922	4132.738281
-13833.660638	17583.908833	378.640625	4509.655762
-13833.660638	17583.908833	377.360352	4244.760742
-13833.660638	17583.908833	376.080078	4406.957031
-13833.660638	17583.908833	374.799805	4394.103027
-13833.660638	17583.908833	373.519531	4143.124512
-13833.660638	17583.908833	372.238281	3906.297607
-13833.660638	17583.908833	370.957031	4001.160156
-13833.660638	17583.908833	369.675781	3731.570557
-13833.660638	17583.908833	368.394531	3764.048340
-13833.660638	17583.908833	367.112305	3407.187256
-13833.660638	17583.908833	365.830078	3624.354248
-13833.660638	17583.908833	364.546875	3935.740234
-13833.660638	17583.908833	363.264648	3882.484619
-13833.660638	17583.908833	361.981445	3849.062012
-13833.660638	17583.908833	360.698242	3830.933594
-13833.660638	17583.908833	359.414063	3560.348633
-13833.660638	17583.908833	358.129883	3473.437988
-13833.660638	17583.908833	356.845703	3623.884033
-13833.660638	17583.908833	355.561523	3640.726563
-13833.660638	17583.908833	354.276367	3537.266846
-13833.660638	17583.908833	352.991211	3434.813232
-13833.660638	17583.908833	351.706055	3674.460205
-13833.660638	17583.908833	350.420898	3492.713135
-13833.660638	17583.908833	349.134766	3324.884277
-13833.660638	17583.908833	347.848633	3464.847168
-13833.660638	17583.908833	346.561523	2635.823975
-13833.660638	17583.908833	345.275391	2737.999756
-13833.660638	17583.908833	343.988281	3187.365723
-13833.660638	17583.908833	342.700195	2371.855713
-13833.660638	17583.908833	341.413086	2618.665771
-13833.660638	17583.908833	340.125000	2483.667725
-13833.660638	17583.908833	338.836914	2522.648438
-13833.660638	17583.908833	337.548828	1991.776611
-13833.660638	17583.908833	336.259766	1737.417725
-13833.660638	17583.908833	334.970703	1869.092285
-13833.660638	17583.908833	333.681641	1811.162720
-13833.660638	17583.908833	332.391602	1335.110840
-13833.660638	17583.908833	331.101563	1848.379395
-13833.660638	17583.908833	329.811523	1842.625366
-13833.660638	17583.908833	328.521484	1695.904785
-13833.660638	17583.908833	327.230469	1372.081299
-13833.660638	17583.908833	325.939453	1378.688110
-13833.660638	17583.908833	324.648438	1096.286255
-13833.660638	17583.908833	323.356445	745.769592
-13833.660638	17583.908833	322.064453	691.310181
-13833.660638	17583.908833	320.772461	1084.356812
-13833.660638	17583.908833	319.480469	1111.675171
-13833.660638	17583.908833	318.187500	799.757263
-13833.660638	17583.908833	316.894531	662.181152
-13833.660638	17583.908833	315.601563	437.540649
-13833.660638	17583.908833	314.307617	96.322083
-13833.660638	17583.908833	313.013672	11.127707
-13833.660638	17583.908833	311.719727	335.390991
-13833.660638	17583.908833	310.425781	76.541451
-13833.660638	17583.908833	309.130859	-63.569183
-13833.660638	17583.908833	307.835938	-145.109177
-13833.660638	17583.908833	306.541016	-81.497574
-13833.660638	17583.908833	305.245117	-169.729538
-13833.660638	17583.908833	303.949219	-396.255035
-13833.660638	17583.908833	302.653320	-22.096146
-13833.660638	17583.908833	301.356445	-190.249619
-13833.660638	17583.908833	300.060547	479.953369
-13833.660638	17583.908833	298.763672	816.490417
