#X		#Y		#Wave		#Intensity
3053.977553	5959.762167	1999.980469	-241.459991
3053.977553	5959.762167	1999.016602	-33.006508
3053.977553	5959.762167	1998.052734	-130.150101
3053.977553	5959.762167	1997.087891	-4.733588
3053.977553	5959.762167	1996.123047	-78.075920
3053.977553	5959.762167	1995.158203	-72.601250
3053.977553	5959.762167	1994.193359	88.441658
3053.977553	5959.762167	1993.228516	199.451157
3053.977553	5959.762167	1992.262695	32.698502
3053.977553	5959.762167	1991.297852	-72.529877
3053.977553	5959.762167	1990.332031	-131.092514
3053.977553	5959.762167	1989.366211	35.153442
3053.977553	5959.762167	1988.399414	55.003674
3053.977553	5959.762167	1987.433594	-108.557213
3053.977553	5959.762167	1986.466797	68.885178
3053.977553	5959.762167	1985.500977	-55.729687
3053.977553	5959.762167	1984.534180	177.848480
3053.977553	5959.762167	1983.567383	186.110519
3053.977553	5959.762167	1982.599609	50.746685
3053.977553	5959.762167	1981.632813	68.341301
3053.977553	5959.762167	1980.665039	-57.616798
3053.977553	5959.762167	1979.697266	23.685534
3053.977553	5959.762167	1978.729492	112.121338
3053.977553	5959.762167	1977.761719	173.132675
3053.977553	5959.762167	1976.792969	-42.571918
3053.977553	5959.762167	1975.825195	94.521843
3053.977553	5959.762167	1974.856445	327.598389
3053.977553	5959.762167	1973.887695	74.375938
3053.977553	5959.762167	1972.918945	208.331314
3053.977553	5959.762167	1971.949219	-69.791161
3053.977553	5959.762167	1970.980469	192.027298
3053.977553	5959.762167	1970.010742	177.482635
3053.977553	5959.762167	1969.041016	39.558311
3053.977553	5959.762167	1968.071289	229.309967
3053.977553	5959.762167	1967.101563	120.732452
3053.977553	5959.762167	1966.130859	76.124382
3053.977553	5959.762167	1965.161133	-145.911270
3053.977553	5959.762167	1964.190430	18.648487
3053.977553	5959.762167	1963.219727	-156.715469
3053.977553	5959.762167	1962.249023	-21.938169
3053.977553	5959.762167	1961.277344	218.535217
3053.977553	5959.762167	1960.306641	104.506676
3053.977553	5959.762167	1959.334961	98.701324
3053.977553	5959.762167	1958.363281	218.285919
3053.977553	5959.762167	1957.391602	276.287231
3053.977553	5959.762167	1956.419922	120.296257
3053.977553	5959.762167	1955.447266	190.492218
3053.977553	5959.762167	1954.474609	240.960236
3053.977553	5959.762167	1953.501953	70.201874
3053.977553	5959.762167	1952.529297	361.404968
3053.977553	5959.762167	1951.556641	202.922302
3053.977553	5959.762167	1950.583984	17.463760
3053.977553	5959.762167	1949.610352	94.815720
3053.977553	5959.762167	1948.636719	0.266449
3053.977553	5959.762167	1947.663086	-59.884804
3053.977553	5959.762167	1946.689453	142.598541
3053.977553	5959.762167	1945.715820	94.717537
3053.977553	5959.762167	1944.741211	105.742058
3053.977553	5959.762167	1943.767578	146.212982
3053.977553	5959.762167	1942.792969	-46.304783
3053.977553	5959.762167	1941.818359	99.646744
3053.977553	5959.762167	1940.842773	20.019478
3053.977553	5959.762167	1939.868164	94.870117
3053.977553	5959.762167	1938.892578	137.859818
3053.977553	5959.762167	1937.916992	-152.362747
3053.977553	5959.762167	1936.941406	-72.533287
3053.977553	5959.762167	1935.965820	271.825226
3053.977553	5959.762167	1934.990234	317.337128
3053.977553	5959.762167	1934.013672	2.957490
3053.977553	5959.762167	1933.037109	-61.574085
3053.977553	5959.762167	1932.060547	89.338997
3053.977553	5959.762167	1931.083984	15.117423
3053.977553	5959.762167	1930.107422	-107.959854
3053.977553	5959.762167	1929.129883	-62.164738
3053.977553	5959.762167	1928.153320	91.274605
3053.977553	5959.762167	1927.175781	-12.037908
3053.977553	5959.762167	1926.198242	-39.471306
3053.977553	5959.762167	1925.219727	-81.509682
3053.977553	5959.762167	1924.242188	-52.603760
3053.977553	5959.762167	1923.263672	-106.729729
3053.977553	5959.762167	1922.285156	-141.235809
3053.977553	5959.762167	1921.306641	14.839524
3053.977553	5959.762167	1920.328125	-26.887068
3053.977553	5959.762167	1919.349609	-2.618343
3053.977553	5959.762167	1918.370117	-134.531097
3053.977553	5959.762167	1917.391602	216.908691
3053.977553	5959.762167	1916.412109	-61.288685
3053.977553	5959.762167	1915.431641	-29.482468
3053.977553	5959.762167	1914.452148	-61.047447
3053.977553	5959.762167	1913.472656	56.223995
3053.977553	5959.762167	1912.492188	7.700767
3053.977553	5959.762167	1911.511719	17.763418
3053.977553	5959.762167	1910.531250	261.873413
3053.977553	5959.762167	1909.550781	-74.051834
3053.977553	5959.762167	1908.569336	-75.993095
3053.977553	5959.762167	1907.588867	43.928295
3053.977553	5959.762167	1906.607422	-118.674515
3053.977553	5959.762167	1905.625977	69.502037
3053.977553	5959.762167	1904.644531	36.103523
3053.977553	5959.762167	1903.662109	-109.207382
3053.977553	5959.762167	1902.680664	-98.647636
3053.977553	5959.762167	1901.698242	-36.942757
3053.977553	5959.762167	1900.715820	-104.155029
3053.977553	5959.762167	1899.733398	52.490677
3053.977553	5959.762167	1898.750000	-63.259048
3053.977553	5959.762167	1897.767578	-166.760635
3053.977553	5959.762167	1896.784180	-109.729668
3053.977553	5959.762167	1895.800781	-11.356879
3053.977553	5959.762167	1894.817383	-117.113510
3053.977553	5959.762167	1893.833984	-213.071442
3053.977553	5959.762167	1892.850586	-10.158082
3053.977553	5959.762167	1891.866211	102.850632
3053.977553	5959.762167	1890.881836	-228.535339
3053.977553	5959.762167	1889.897461	229.298462
3053.977553	5959.762167	1888.913086	-4.824580
3053.977553	5959.762167	1887.927734	227.147675
3053.977553	5959.762167	1886.943359	99.935524
3053.977553	5959.762167	1885.958008	21.317862
3053.977553	5959.762167	1884.972656	5.819820
3053.977553	5959.762167	1883.987305	63.104454
3053.977553	5959.762167	1883.001953	-105.110535
3053.977553	5959.762167	1882.015625	100.089203
3053.977553	5959.762167	1881.029297	50.729549
3053.977553	5959.762167	1880.042969	-127.036339
3053.977553	5959.762167	1879.056641	34.481777
3053.977553	5959.762167	1878.070313	145.077621
3053.977553	5959.762167	1877.083984	-148.833023
3053.977553	5959.762167	1876.096680	-21.282200
3053.977553	5959.762167	1875.109375	89.275246
3053.977553	5959.762167	1874.122070	-148.777191
3053.977553	5959.762167	1873.134766	-217.330490
3053.977553	5959.762167	1872.146484	94.032448
3053.977553	5959.762167	1871.159180	85.929504
3053.977553	5959.762167	1870.170898	-197.923019
3053.977553	5959.762167	1869.182617	11.663493
3053.977553	5959.762167	1868.194336	143.785294
3053.977553	5959.762167	1867.205078	94.532204
3053.977553	5959.762167	1866.216797	79.117821
3053.977553	5959.762167	1865.227539	90.269981
3053.977553	5959.762167	1864.238281	-38.738724
3053.977553	5959.762167	1863.249023	-51.774002
3053.977553	5959.762167	1862.259766	-224.234772
3053.977553	5959.762167	1861.269531	-89.991379
3053.977553	5959.762167	1860.279297	-103.102257
3053.977553	5959.762167	1859.290039	-65.553421
3053.977553	5959.762167	1858.298828	126.398315
3053.977553	5959.762167	1857.308594	303.759735
3053.977553	5959.762167	1856.318359	232.528564
3053.977553	5959.762167	1855.327148	313.234589
3053.977553	5959.762167	1854.335938	3.189681
3053.977553	5959.762167	1853.344727	-51.212112
3053.977553	5959.762167	1852.353516	243.897842
3053.977553	5959.762167	1851.362305	90.545418
3053.977553	5959.762167	1850.370117	28.761112
3053.977553	5959.762167	1849.377930	304.239899
3053.977553	5959.762167	1848.385742	213.409012
3053.977553	5959.762167	1847.393555	247.783615
3053.977553	5959.762167	1846.401367	248.366150
3053.977553	5959.762167	1845.408203	-6.317063
3053.977553	5959.762167	1844.415039	242.092361
3053.977553	5959.762167	1843.421875	117.313690
3053.977553	5959.762167	1842.428711	9.346505
3053.977553	5959.762167	1841.435547	199.643494
3053.977553	5959.762167	1840.441406	243.065613
3053.977553	5959.762167	1839.448242	69.959999
3053.977553	5959.762167	1838.454102	130.048874
3053.977553	5959.762167	1837.459961	194.832809
3053.977553	5959.762167	1836.464844	170.570923
3053.977553	5959.762167	1835.470703	352.880585
3053.977553	5959.762167	1834.475586	-51.187469
3053.977553	5959.762167	1833.480469	306.246613
3053.977553	5959.762167	1832.485352	185.527298
3053.977553	5959.762167	1831.490234	40.737305
3053.977553	5959.762167	1830.495117	210.387131
3053.977553	5959.762167	1829.499023	24.625912
3053.977553	5959.762167	1828.502930	42.806782
3053.977553	5959.762167	1827.506836	447.159027
3053.977553	5959.762167	1826.510742	304.300659
3053.977553	5959.762167	1825.513672	298.084534
3053.977553	5959.762167	1824.517578	219.816086
3053.977553	5959.762167	1823.520508	481.900360
3053.977553	5959.762167	1822.523438	194.832855
3053.977553	5959.762167	1821.526367	379.882080
3053.977553	5959.762167	1820.529297	281.984528
3053.977553	5959.762167	1819.531250	42.643841
3053.977553	5959.762167	1818.533203	258.360992
3053.977553	5959.762167	1817.535156	320.595001
3053.977553	5959.762167	1816.537109	241.402588
3053.977553	5959.762167	1815.539063	241.100220
3053.977553	5959.762167	1814.540039	542.229126
3053.977553	5959.762167	1813.541992	113.241264
3053.977553	5959.762167	1812.542969	239.339020
3053.977553	5959.762167	1811.543945	90.151398
3053.977553	5959.762167	1810.543945	340.272888
3053.977553	5959.762167	1809.544922	267.345123
3053.977553	5959.762167	1808.544922	471.613434
3053.977553	5959.762167	1807.544922	51.786583
3053.977553	5959.762167	1806.544922	377.593445
3053.977553	5959.762167	1805.544922	476.129089
3053.977553	5959.762167	1804.544922	254.351929
3053.977553	5959.762167	1803.543945	209.240387
3053.977553	5959.762167	1802.542969	283.386932
3053.977553	5959.762167	1801.541992	471.946381
3053.977553	5959.762167	1800.541016	524.203369
3053.977553	5959.762167	1799.539063	666.962036
3053.977553	5959.762167	1798.538086	580.428223
3053.977553	5959.762167	1797.536133	529.538574
3053.977553	5959.762167	1796.534180	297.212799
3053.977553	5959.762167	1795.532227	522.698730
3053.977553	5959.762167	1794.529297	437.943237
3053.977553	5959.762167	1793.527344	665.354248
3053.977553	5959.762167	1792.524414	513.515320
3053.977553	5959.762167	1791.521484	514.073792
3053.977553	5959.762167	1790.518555	478.714081
3053.977553	5959.762167	1789.514648	290.721313
3053.977553	5959.762167	1788.511719	424.159515
3053.977553	5959.762167	1787.507813	535.925232
3053.977553	5959.762167	1786.503906	140.352219
3053.977553	5959.762167	1785.500000	156.548035
3053.977553	5959.762167	1784.496094	493.839844
3053.977553	5959.762167	1783.491211	309.708313
3053.977553	5959.762167	1782.486328	113.563255
3053.977553	5959.762167	1781.481445	331.173462
3053.977553	5959.762167	1780.476563	187.041061
3053.977553	5959.762167	1779.471680	278.160431
3053.977553	5959.762167	1778.465820	26.727283
3053.977553	5959.762167	1777.460938	164.996384
3053.977553	5959.762167	1776.455078	41.616585
3053.977553	5959.762167	1775.449219	219.823471
3053.977553	5959.762167	1774.442383	347.874664
3053.977553	5959.762167	1773.436523	119.453300
3053.977553	5959.762167	1772.429688	54.750820
3053.977553	5959.762167	1771.422852	82.465622
3053.977553	5959.762167	1770.416016	238.148056
3053.977553	5959.762167	1769.409180	66.080933
3053.977553	5959.762167	1768.402344	143.013901
3053.977553	5959.762167	1767.394531	324.087311
3053.977553	5959.762167	1766.386719	170.471329
3053.977553	5959.762167	1765.378906	-18.855761
3053.977553	5959.762167	1764.371094	111.761101
3053.977553	5959.762167	1763.362305	171.001678
3053.977553	5959.762167	1762.354492	52.285011
3053.977553	5959.762167	1761.345703	165.615250
3053.977553	5959.762167	1760.336914	-48.231586
3053.977553	5959.762167	1759.328125	102.572571
3053.977553	5959.762167	1758.318359	89.699913
3053.977553	5959.762167	1757.308594	-72.535797
3053.977553	5959.762167	1756.299805	113.095062
3053.977553	5959.762167	1755.290039	4.953005
3053.977553	5959.762167	1754.279297	3.122543
3053.977553	5959.762167	1753.269531	-119.554657
3053.977553	5959.762167	1752.258789	-164.339233
3053.977553	5959.762167	1751.249023	-318.084015
3053.977553	5959.762167	1750.238281	-273.361847
3053.977553	5959.762167	1749.226563	-39.742306
3053.977553	5959.762167	1748.215820	-73.491096
3053.977553	5959.762167	1747.204102	34.349182
3053.977553	5959.762167	1746.193359	-84.860359
3053.977553	5959.762167	1745.181641	150.108490
3053.977553	5959.762167	1744.168945	-413.542236
3053.977553	5959.762167	1743.157227	118.541016
3053.977553	5959.762167	1742.144531	41.074680
3053.977553	5959.762167	1741.132813	-171.092773
3053.977553	5959.762167	1740.120117	-24.662544
3053.977553	5959.762167	1739.106445	-159.298630
3053.977553	5959.762167	1738.093750	-270.470703
3053.977553	5959.762167	1737.080078	16.810419
3053.977553	5959.762167	1736.067383	-57.011036
3053.977553	5959.762167	1735.053711	149.563217
3053.977553	5959.762167	1734.040039	42.333443
3053.977553	5959.762167	1733.025391	-138.132568
3053.977553	5959.762167	1732.011719	-108.976944
3053.977553	5959.762167	1730.997070	141.422318
3053.977553	5959.762167	1729.982422	155.977631
3053.977553	5959.762167	1728.967773	85.551254
3053.977553	5959.762167	1727.952148	85.583313
3053.977553	5959.762167	1726.937500	116.050766
3053.977553	5959.762167	1725.921875	101.576958
3053.977553	5959.762167	1724.906250	18.674921
3053.977553	5959.762167	1723.890625	1.499060
3053.977553	5959.762167	1722.875000	-37.026669
3053.977553	5959.762167	1721.858398	91.245995
3053.977553	5959.762167	1720.841797	19.408049
3053.977553	5959.762167	1719.825195	-118.415283
3053.977553	5959.762167	1718.808594	-16.603657
3053.977553	5959.762167	1717.791992	131.992615
3053.977553	5959.762167	1716.774414	207.489883
3053.977553	5959.762167	1715.756836	108.934181
3053.977553	5959.762167	1714.739258	-107.200478
3053.977553	5959.762167	1713.721680	75.794281
3053.977553	5959.762167	1712.704102	-100.685638
3053.977553	5959.762167	1711.685547	-131.751114
3053.977553	5959.762167	1710.667969	-73.766136
3053.977553	5959.762167	1709.649414	148.263779
3053.977553	5959.762167	1708.630859	27.506134
3053.977553	5959.762167	1707.611328	-210.679779
3053.977553	5959.762167	1706.592773	90.484009
3053.977553	5959.762167	1705.573242	-68.229836
3053.977553	5959.762167	1704.553711	-23.091578
3053.977553	5959.762167	1703.534180	-1.570330
3053.977553	5959.762167	1702.513672	90.061752
3053.977553	5959.762167	1701.494141	-62.145279
3053.977553	5959.762167	1700.473633	-249.613434
3053.977553	5959.762167	1699.453125	92.143700
3053.977553	5959.762167	1698.432617	35.539955
3053.977553	5959.762167	1697.412109	-72.700272
3053.977553	5959.762167	1696.390625	181.739029
3053.977553	5959.762167	1695.369141	-46.165798
3053.977553	5959.762167	1694.347656	-5.050662
3053.977553	5959.762167	1693.326172	-88.083656
3053.977553	5959.762167	1692.304688	-96.383049
3053.977553	5959.762167	1691.282227	56.509224
3053.977553	5959.762167	1690.260742	-1.195411
3053.977553	5959.762167	1689.238281	-255.398193
3053.977553	5959.762167	1688.214844	147.068451
3053.977553	5959.762167	1687.192383	212.788803
3053.977553	5959.762167	1686.168945	82.080711
3053.977553	5959.762167	1685.146484	-132.767929
3053.977553	5959.762167	1684.123047	271.171600
3053.977553	5959.762167	1683.099609	32.735783
3053.977553	5959.762167	1682.075195	-114.714897
3053.977553	5959.762167	1681.051758	-45.147404
3053.977553	5959.762167	1680.027344	-120.432648
3053.977553	5959.762167	1679.002930	-104.817650
3053.977553	5959.762167	1677.978516	87.953590
3053.977553	5959.762167	1676.953125	-76.315475
3053.977553	5959.762167	1675.928711	-7.434457
3053.977553	5959.762167	1674.903320	324.716980
3053.977553	5959.762167	1673.877930	293.021332
3053.977553	5959.762167	1672.852539	519.904541
3053.977553	5959.762167	1671.826172	571.822144
3053.977553	5959.762167	1670.800781	602.678284
3053.977553	5959.762167	1669.774414	153.612030
3053.977553	5959.762167	1668.748047	438.127533
3053.977553	5959.762167	1667.721680	543.168396
3053.977553	5959.762167	1666.694336	554.941650
3053.977553	5959.762167	1665.667969	645.770447
3053.977553	5959.762167	1664.640625	461.884827
3053.977553	5959.762167	1663.613281	782.801147
3053.977553	5959.762167	1662.585938	696.474792
3053.977553	5959.762167	1661.557617	824.012878
3053.977553	5959.762167	1660.530273	1049.098755
3053.977553	5959.762167	1659.501953	1162.411011
3053.977553	5959.762167	1658.473633	1203.558105
3053.977553	5959.762167	1657.444336	1061.018188
3053.977553	5959.762167	1656.416016	1125.256104
3053.977553	5959.762167	1655.386719	1449.516846
3053.977553	5959.762167	1654.358398	1281.288696
3053.977553	5959.762167	1653.328125	1275.532227
3053.977553	5959.762167	1652.298828	1794.381714
3053.977553	5959.762167	1651.269531	1927.689941
3053.977553	5959.762167	1650.239258	1889.145874
3053.977553	5959.762167	1649.208984	1836.639648
3053.977553	5959.762167	1648.178711	1677.400269
3053.977553	5959.762167	1647.148438	2206.961426
3053.977553	5959.762167	1646.117188	2012.802734
3053.977553	5959.762167	1645.086914	2018.073730
3053.977553	5959.762167	1644.055664	1986.186523
3053.977553	5959.762167	1643.024414	2192.957031
3053.977553	5959.762167	1641.992188	2457.505859
3053.977553	5959.762167	1640.960938	2626.966797
3053.977553	5959.762167	1639.928711	2678.185303
3053.977553	5959.762167	1638.896484	3062.792480
3053.977553	5959.762167	1637.864258	3134.683105
3053.977553	5959.762167	1636.832031	3639.361572
3053.977553	5959.762167	1635.798828	4141.477539
3053.977553	5959.762167	1634.766602	4467.559570
3053.977553	5959.762167	1633.733398	4476.543457
3053.977553	5959.762167	1632.699219	4684.383789
3053.977553	5959.762167	1631.666016	4330.240723
3053.977553	5959.762167	1630.632813	4066.391357
3053.977553	5959.762167	1629.598633	3747.130615
3053.977553	5959.762167	1628.564453	3991.888672
3053.977553	5959.762167	1627.530273	3889.955322
3053.977553	5959.762167	1626.495117	3700.243164
3053.977553	5959.762167	1625.460938	3896.359863
3053.977553	5959.762167	1624.425781	4041.570313
3053.977553	5959.762167	1623.390625	4043.583496
3053.977553	5959.762167	1622.355469	4040.988037
3053.977553	5959.762167	1621.319336	4216.085449
3053.977553	5959.762167	1620.284180	4208.867676
3053.977553	5959.762167	1619.248047	4127.812988
3053.977553	5959.762167	1618.211914	4224.417480
3053.977553	5959.762167	1617.174805	3880.504395
3053.977553	5959.762167	1616.138672	4276.903320
3053.977553	5959.762167	1615.101563	4265.117676
3053.977553	5959.762167	1614.065430	4419.338379
3053.977553	5959.762167	1613.027344	4815.429199
3053.977553	5959.762167	1611.990234	4405.066406
3053.977553	5959.762167	1610.953125	4568.456055
3053.977553	5959.762167	1609.915039	4803.184082
3053.977553	5959.762167	1608.876953	4370.124512
3053.977553	5959.762167	1607.838867	4929.481445
3053.977553	5959.762167	1606.800781	5276.915039
3053.977553	5959.762167	1605.761719	5288.257813
3053.977553	5959.762167	1604.723633	5044.290527
3053.977553	5959.762167	1603.684570	5166.193848
3053.977553	5959.762167	1602.644531	5308.774902
3053.977553	5959.762167	1601.605469	5058.188477
3053.977553	5959.762167	1600.566406	5189.386719
3053.977553	5959.762167	1599.526367	5394.122070
3053.977553	5959.762167	1598.486328	5196.682617
3053.977553	5959.762167	1597.446289	5111.972656
3053.977553	5959.762167	1596.405273	5162.869629
3053.977553	5959.762167	1595.365234	5239.110840
3053.977553	5959.762167	1594.324219	5542.700195
3053.977553	5959.762167	1593.283203	5901.349121
3053.977553	5959.762167	1592.242188	6009.744141
3053.977553	5959.762167	1591.200195	6466.978516
3053.977553	5959.762167	1590.159180	6722.232910
3053.977553	5959.762167	1589.117188	6699.870605
3053.977553	5959.762167	1588.075195	6441.369141
3053.977553	5959.762167	1587.032227	6098.186523
3053.977553	5959.762167	1585.990234	6289.453613
3053.977553	5959.762167	1584.947266	6001.642090
3053.977553	5959.762167	1583.904297	5837.795898
3053.977553	5959.762167	1582.861328	5658.075684
3053.977553	5959.762167	1581.818359	5446.458008
3053.977553	5959.762167	1580.775391	5509.880859
3053.977553	5959.762167	1579.731445	5653.511719
3053.977553	5959.762167	1578.687500	6085.678223
3053.977553	5959.762167	1577.643555	6529.233887
3053.977553	5959.762167	1576.598633	7359.485352
3053.977553	5959.762167	1575.554688	7562.589355
3053.977553	5959.762167	1574.509766	8154.624023
3053.977553	5959.762167	1573.464844	8632.181641
3053.977553	5959.762167	1572.419922	8007.416504
3053.977553	5959.762167	1571.374023	7403.575684
3053.977553	5959.762167	1570.329102	7111.011719
3053.977553	5959.762167	1569.283203	6610.688477
3053.977553	5959.762167	1568.237305	6295.784180
3053.977553	5959.762167	1567.191406	5878.331055
3053.977553	5959.762167	1566.144531	5458.869629
3053.977553	5959.762167	1565.098633	4879.875000
3053.977553	5959.762167	1564.051758	4620.882324
3053.977553	5959.762167	1563.004883	4083.632813
3053.977553	5959.762167	1561.957031	4092.198486
3053.977553	5959.762167	1560.910156	3749.519287
3053.977553	5959.762167	1559.862305	3559.958252
3053.977553	5959.762167	1558.814453	3338.687500
3053.977553	5959.762167	1557.766602	3249.933594
3053.977553	5959.762167	1556.718750	3165.928711
3053.977553	5959.762167	1555.669922	2984.063965
3053.977553	5959.762167	1554.621094	2822.944824
3053.977553	5959.762167	1553.573242	2987.938721
3053.977553	5959.762167	1552.523438	2724.660156
3053.977553	5959.762167	1551.474609	2755.520264
3053.977553	5959.762167	1550.424805	2645.311768
3053.977553	5959.762167	1549.375000	2756.184326
3053.977553	5959.762167	1548.325195	2466.514160
3053.977553	5959.762167	1547.275391	2386.530029
3053.977553	5959.762167	1546.225586	2227.106201
3053.977553	5959.762167	1545.174805	1956.415039
3053.977553	5959.762167	1544.124023	2184.178711
3053.977553	5959.762167	1543.073242	2018.578735
3053.977553	5959.762167	1542.022461	1648.579346
3053.977553	5959.762167	1540.970703	1519.870850
3053.977553	5959.762167	1539.919922	1275.497803
3053.977553	5959.762167	1538.868164	1601.788330
3053.977553	5959.762167	1537.815430	1650.926270
3053.977553	5959.762167	1536.763672	1527.614868
3053.977553	5959.762167	1535.710938	1577.130981
3053.977553	5959.762167	1534.659180	1756.274536
3053.977553	5959.762167	1533.606445	1588.170776
3053.977553	5959.762167	1532.552734	1579.200439
3053.977553	5959.762167	1531.500000	1935.818848
3053.977553	5959.762167	1530.446289	1741.130615
3053.977553	5959.762167	1529.393555	1476.416504
3053.977553	5959.762167	1528.338867	1479.601440
3053.977553	5959.762167	1527.285156	1696.159668
3053.977553	5959.762167	1526.231445	1765.476440
3053.977553	5959.762167	1525.176758	1776.022095
3053.977553	5959.762167	1524.122070	1818.499268
3053.977553	5959.762167	1523.067383	1786.399536
3053.977553	5959.762167	1522.012695	1793.036499
3053.977553	5959.762167	1520.957031	1759.099854
3053.977553	5959.762167	1519.901367	1992.594360
3053.977553	5959.762167	1518.845703	1753.040527
3053.977553	5959.762167	1517.790039	1597.548950
3053.977553	5959.762167	1516.734375	1367.656006
3053.977553	5959.762167	1515.677734	1432.202515
3053.977553	5959.762167	1514.621094	1254.889160
3053.977553	5959.762167	1513.564453	1668.186035
3053.977553	5959.762167	1512.507813	1452.900513
3053.977553	5959.762167	1511.450195	1355.476074
3053.977553	5959.762167	1510.393555	1167.916138
3053.977553	5959.762167	1509.335938	1520.772339
3053.977553	5959.762167	1508.278320	1455.706909
3053.977553	5959.762167	1507.219727	1271.154175
3053.977553	5959.762167	1506.162109	1050.781616
3053.977553	5959.762167	1505.103516	848.777649
3053.977553	5959.762167	1504.044922	753.201782
3053.977553	5959.762167	1502.986328	989.718872
3053.977553	5959.762167	1501.926758	578.653076
3053.977553	5959.762167	1500.868164	576.403870
3053.977553	5959.762167	1499.808594	520.237793
3053.977553	5959.762167	1498.749023	164.351898
3053.977553	5959.762167	1497.688477	207.977310
3053.977553	5959.762167	1496.628906	-102.132835
3053.977553	5959.762167	1495.568359	275.619751
3053.977553	5959.762167	1494.507813	297.382385
3053.977553	5959.762167	1493.447266	112.081444
3053.977553	5959.762167	1492.386719	69.020302
3053.977553	5959.762167	1491.325195	3.689063
3053.977553	5959.762167	1490.263672	125.534782
3053.977553	5959.762167	1489.202148	-108.150963
3053.977553	5959.762167	1488.140625	250.517105
3053.977553	5959.762167	1487.079102	51.150818
3053.977553	5959.762167	1486.016602	-93.895393
3053.977553	5959.762167	1484.954102	-110.406197
3053.977553	5959.762167	1483.891602	215.220398
3053.977553	5959.762167	1482.829102	-41.458572
3053.977553	5959.762167	1481.765625	248.550858
3053.977553	5959.762167	1480.702148	-63.712795
3053.977553	5959.762167	1479.638672	190.741043
3053.977553	5959.762167	1478.575195	-98.397873
3053.977553	5959.762167	1477.511719	120.525063
3053.977553	5959.762167	1476.447266	7.278296
3053.977553	5959.762167	1475.382813	13.238897
3053.977553	5959.762167	1474.318359	-67.899551
3053.977553	5959.762167	1473.253906	59.828003
3053.977553	5959.762167	1472.189453	-162.324371
3053.977553	5959.762167	1471.124023	13.035917
3053.977553	5959.762167	1470.058594	-2.107955
3053.977553	5959.762167	1468.993164	59.240219
3053.977553	5959.762167	1467.927734	-107.747597
3053.977553	5959.762167	1466.861328	173.857193
3053.977553	5959.762167	1465.794922	291.634369
3053.977553	5959.762167	1464.728516	176.986328
3053.977553	5959.762167	1463.662109	73.916946
3053.977553	5959.762167	1462.594727	387.461151
3053.977553	5959.762167	1461.528320	110.642990
3053.977553	5959.762167	1460.460938	-174.742874
3053.977553	5959.762167	1459.393555	139.557602
3053.977553	5959.762167	1458.326172	559.743469
3053.977553	5959.762167	1457.257813	463.946503
3053.977553	5959.762167	1456.189453	658.521484
3053.977553	5959.762167	1455.121094	628.415405
3053.977553	5959.762167	1454.052734	842.145752
3053.977553	5959.762167	1452.984375	644.956421
3053.977553	5959.762167	1451.915039	785.267273
3053.977553	5959.762167	1450.845703	537.179810
3053.977553	5959.762167	1449.776367	1153.816895
3053.977553	5959.762167	1448.707031	958.351929
3053.977553	5959.762167	1447.636719	1017.127563
3053.977553	5959.762167	1446.567383	1091.555420
3053.977553	5959.762167	1445.497070	1063.827271
3053.977553	5959.762167	1444.425781	1301.224487
3053.977553	5959.762167	1443.355469	1419.725586
3053.977553	5959.762167	1442.285156	1717.230225
3053.977553	5959.762167	1441.213867	1638.441650
3053.977553	5959.762167	1440.142578	1782.732422
3053.977553	5959.762167	1439.070313	1811.733765
3053.977553	5959.762167	1437.999023	1670.251953
3053.977553	5959.762167	1436.926758	1669.290771
3053.977553	5959.762167	1435.854492	1510.211670
3053.977553	5959.762167	1434.782227	1573.045532
3053.977553	5959.762167	1433.709961	1509.258545
3053.977553	5959.762167	1432.636719	1635.492920
3053.977553	5959.762167	1431.563477	1005.017822
3053.977553	5959.762167	1430.490234	1246.681885
3053.977553	5959.762167	1429.416992	1293.767822
3053.977553	5959.762167	1428.343750	1044.556030
3053.977553	5959.762167	1427.269531	976.695923
3053.977553	5959.762167	1426.195313	937.423828
3053.977553	5959.762167	1425.121094	867.305359
3053.977553	5959.762167	1424.046875	860.943298
3053.977553	5959.762167	1422.971680	1071.235840
3053.977553	5959.762167	1421.896484	870.961304
3053.977553	5959.762167	1420.821289	1266.417603
3053.977553	5959.762167	1419.746094	1063.730957
3053.977553	5959.762167	1418.669922	1388.366577
3053.977553	5959.762167	1417.594727	1608.149170
3053.977553	5959.762167	1416.518555	1660.327026
3053.977553	5959.762167	1415.442383	2116.807617
3053.977553	5959.762167	1414.365234	2112.874023
3053.977553	5959.762167	1413.289063	2100.131836
3053.977553	5959.762167	1412.211914	2363.655518
3053.977553	5959.762167	1411.134766	2491.894287
3053.977553	5959.762167	1410.057617	2744.386719
3053.977553	5959.762167	1408.979492	2723.890869
3053.977553	5959.762167	1407.902344	2617.908691
3053.977553	5959.762167	1406.824219	3221.194336
3053.977553	5959.762167	1405.746094	3442.155273
3053.977553	5959.762167	1404.666992	3576.093506
3053.977553	5959.762167	1403.588867	3936.234131
3053.977553	5959.762167	1402.509766	4091.646973
3053.977553	5959.762167	1401.430664	4488.852051
3053.977553	5959.762167	1400.351563	4564.984863
3053.977553	5959.762167	1399.271484	4779.061523
3053.977553	5959.762167	1398.192383	4272.917480
3053.977553	5959.762167	1397.112305	4124.195801
3053.977553	5959.762167	1396.031250	4324.957520
3053.977553	5959.762167	1394.951172	4314.477539
3053.977553	5959.762167	1393.871094	4168.561035
3053.977553	5959.762167	1392.790039	4252.105469
3053.977553	5959.762167	1391.708984	4205.890625
3053.977553	5959.762167	1390.626953	3881.611572
3053.977553	5959.762167	1389.545898	4356.485840
3053.977553	5959.762167	1388.463867	4368.719238
3053.977553	5959.762167	1387.381836	5084.826660
3053.977553	5959.762167	1386.299805	5473.616211
3053.977553	5959.762167	1385.217773	6101.378418
3053.977553	5959.762167	1384.134766	6311.375000
3053.977553	5959.762167	1383.051758	6361.239746
3053.977553	5959.762167	1381.968750	6418.660156
3053.977553	5959.762167	1380.885742	6206.694824
3053.977553	5959.762167	1379.802734	5641.166504
3053.977553	5959.762167	1378.718750	5550.549316
3053.977553	5959.762167	1377.634766	5322.745117
3053.977553	5959.762167	1376.550781	5180.811523
3053.977553	5959.762167	1375.465820	4984.729004
3053.977553	5959.762167	1374.381836	4484.621094
3053.977553	5959.762167	1373.296875	4293.100098
3053.977553	5959.762167	1372.211914	4072.545166
3053.977553	5959.762167	1371.126953	3949.599121
3053.977553	5959.762167	1370.041016	4389.897949
3053.977553	5959.762167	1368.955078	4272.888672
3053.977553	5959.762167	1367.869141	4456.481934
3053.977553	5959.762167	1366.783203	4449.809082
3053.977553	5959.762167	1365.697266	4723.559570
3053.977553	5959.762167	1364.610352	4712.261230
3053.977553	5959.762167	1363.523438	4502.154785
3053.977553	5959.762167	1362.436523	4352.597656
3053.977553	5959.762167	1361.349609	4015.959961
3053.977553	5959.762167	1360.261719	4196.474609
3053.977553	5959.762167	1359.174805	4537.001953
3053.977553	5959.762167	1358.086914	4683.770508
3053.977553	5959.762167	1356.998047	4692.284668
3053.977553	5959.762167	1355.910156	5047.606934
3053.977553	5959.762167	1354.821289	5269.824219
3053.977553	5959.762167	1353.732422	5495.716797
3053.977553	5959.762167	1352.643555	5616.017578
3053.977553	5959.762167	1351.554688	5371.692871
3053.977553	5959.762167	1350.464844	4864.723633
3053.977553	5959.762167	1349.375000	4437.016602
3053.977553	5959.762167	1348.285156	3887.491943
3053.977553	5959.762167	1347.195313	3431.796143
3053.977553	5959.762167	1346.105469	3347.695313
3053.977553	5959.762167	1345.014648	3192.156494
3053.977553	5959.762167	1343.923828	2837.623291
3053.977553	5959.762167	1342.833008	2924.675781
3053.977553	5959.762167	1341.741211	2611.574463
3053.977553	5959.762167	1340.650391	2688.849609
3053.977553	5959.762167	1339.558594	2341.610352
3053.977553	5959.762167	1338.466797	2220.859619
3053.977553	5959.762167	1337.374023	1983.683228
3053.977553	5959.762167	1336.282227	2095.014160
3053.977553	5959.762167	1335.189453	1922.532715
3053.977553	5959.762167	1334.096680	1790.847412
3053.977553	5959.762167	1333.003906	1968.059692
3053.977553	5959.762167	1331.910156	2367.142334
3053.977553	5959.762167	1330.817383	2594.634521
3053.977553	5959.762167	1329.723633	2492.325684
3053.977553	5959.762167	1328.629883	2658.588623
3053.977553	5959.762167	1327.535156	2949.642578
3053.977553	5959.762167	1326.441406	3316.817383
3053.977553	5959.762167	1325.346680	3537.975098
3053.977553	5959.762167	1324.251953	3370.529053
3053.977553	5959.762167	1323.156250	3219.683838
3053.977553	5959.762167	1322.061523	3181.791016
3053.977553	5959.762167	1320.965820	2854.430664
3053.977553	5959.762167	1319.870117	2390.652832
3053.977553	5959.762167	1318.774414	2321.240479
3053.977553	5959.762167	1317.678711	2202.967285
3053.977553	5959.762167	1316.582031	2169.996826
3053.977553	5959.762167	1315.485352	2433.919678
3053.977553	5959.762167	1314.388672	2569.899902
3053.977553	5959.762167	1313.291016	3017.313965
3053.977553	5959.762167	1312.194336	3307.084717
3053.977553	5959.762167	1311.096680	3296.612061
3053.977553	5959.762167	1309.999023	3455.472168
3053.977553	5959.762167	1308.901367	3862.046143
3053.977553	5959.762167	1307.802734	4090.060791
3053.977553	5959.762167	1306.705078	3647.941406
3053.977553	5959.762167	1305.606445	3452.983643
3053.977553	5959.762167	1304.506836	3210.775146
3053.977553	5959.762167	1303.408203	3098.337158
3053.977553	5959.762167	1302.308594	2455.061035
3053.977553	5959.762167	1301.208984	2403.163330
3053.977553	5959.762167	1300.109375	2012.438477
3053.977553	5959.762167	1299.009766	1985.523804
3053.977553	5959.762167	1297.909180	1829.339600
3053.977553	5959.762167	1296.808594	1969.481201
3053.977553	5959.762167	1295.708008	1786.010986
3053.977553	5959.762167	1294.607422	1524.456421
3053.977553	5959.762167	1293.506836	1383.239258
3053.977553	5959.762167	1292.405273	1124.987671
3053.977553	5959.762167	1291.303711	1275.423340
3053.977553	5959.762167	1290.202148	1309.155762
3053.977553	5959.762167	1289.099609	1243.283569
3053.977553	5959.762167	1287.998047	1173.554688
3053.977553	5959.762167	1286.895508	927.078979
3053.977553	5959.762167	1285.792969	1182.761475
3053.977553	5959.762167	1284.689453	944.156372
3053.977553	5959.762167	1283.586914	1164.178955
3053.977553	5959.762167	1282.483398	1497.093750
3053.977553	5959.762167	1281.379883	1510.885864
3053.977553	5959.762167	1280.276367	1652.869873
3053.977553	5959.762167	1279.171875	2010.031494
3053.977553	5959.762167	1278.067383	2156.064941
3053.977553	5959.762167	1276.962891	2316.145752
3053.977553	5959.762167	1275.858398	2381.233154
3053.977553	5959.762167	1274.753906	2026.598877
3053.977553	5959.762167	1273.648438	1739.099854
3053.977553	5959.762167	1272.542969	1663.695801
3053.977553	5959.762167	1271.437500	1387.964600
3053.977553	5959.762167	1270.331055	1335.037354
3053.977553	5959.762167	1269.225586	962.135010
3053.977553	5959.762167	1268.119141	987.714600
3053.977553	5959.762167	1267.012695	1014.852417
3053.977553	5959.762167	1265.906250	736.531067
3053.977553	5959.762167	1264.798828	839.291687
3053.977553	5959.762167	1263.691406	857.958679
3053.977553	5959.762167	1262.583984	451.827148
3053.977553	5959.762167	1261.476563	509.746826
3053.977553	5959.762167	1260.368164	774.215942
3053.977553	5959.762167	1259.260742	871.723022
3053.977553	5959.762167	1258.152344	808.065002
3053.977553	5959.762167	1257.043945	824.203064
3053.977553	5959.762167	1255.934570	993.506592
3053.977553	5959.762167	1254.825195	779.508972
3053.977553	5959.762167	1253.716797	947.882324
3053.977553	5959.762167	1252.606445	898.404114
3053.977553	5959.762167	1251.497070	747.746521
3053.977553	5959.762167	1250.387695	693.200806
3053.977553	5959.762167	1249.277344	778.741821
3053.977553	5959.762167	1248.166992	721.158875
3053.977553	5959.762167	1247.055664	880.622070
3053.977553	5959.762167	1245.945313	528.967773
3053.977553	5959.762167	1244.833984	559.379700
3053.977553	5959.762167	1243.722656	408.623871
3053.977553	5959.762167	1242.611328	395.347046
3053.977553	5959.762167	1241.499023	572.055298
3053.977553	5959.762167	1240.387695	418.465942
3053.977553	5959.762167	1239.275391	549.932617
3053.977553	5959.762167	1238.162109	396.000519
3053.977553	5959.762167	1237.049805	347.707428
3053.977553	5959.762167	1235.936523	438.264313
3053.977553	5959.762167	1234.823242	332.806458
3053.977553	5959.762167	1233.709961	277.283478
3053.977553	5959.762167	1232.596680	292.826660
3053.977553	5959.762167	1231.482422	176.801270
3053.977553	5959.762167	1230.369141	-19.264223
3053.977553	5959.762167	1229.253906	84.498619
3053.977553	5959.762167	1228.139648	15.491755
3053.977553	5959.762167	1227.025391	-26.259338
3053.977553	5959.762167	1225.910156	192.143753
3053.977553	5959.762167	1224.794922	-55.221897
3053.977553	5959.762167	1223.679688	55.571957
3053.977553	5959.762167	1222.563477	14.163872
3053.977553	5959.762167	1221.447266	208.644760
3053.977553	5959.762167	1220.331055	339.208496
3053.977553	5959.762167	1219.214844	316.425964
3053.977553	5959.762167	1218.098633	243.950043
3053.977553	5959.762167	1216.981445	332.139862
3053.977553	5959.762167	1215.864258	481.881500
3053.977553	5959.762167	1214.747070	595.062256
3053.977553	5959.762167	1213.629883	872.258972
3053.977553	5959.762167	1212.511719	905.473206
3053.977553	5959.762167	1211.393555	660.610718
3053.977553	5959.762167	1210.275391	663.322693
3053.977553	5959.762167	1209.157227	526.945557
3053.977553	5959.762167	1208.038086	607.252380
3053.977553	5959.762167	1206.918945	367.213562
3053.977553	5959.762167	1205.799805	281.035034
3053.977553	5959.762167	1204.680664	311.961548
3053.977553	5959.762167	1203.560547	140.176025
3053.977553	5959.762167	1202.441406	167.941849
3053.977553	5959.762167	1201.321289	358.895447
3053.977553	5959.762167	1200.200195	191.445602
3053.977553	5959.762167	1199.080078	168.518280
3053.977553	5959.762167	1197.958984	302.036621
3053.977553	5959.762167	1196.837891	-6.660883
3053.977553	5959.762167	1195.716797	100.922653
3053.977553	5959.762167	1194.594727	167.924759
3053.977553	5959.762167	1193.473633	169.574860
3053.977553	5959.762167	1192.351563	212.481079
3053.977553	5959.762167	1191.229492	376.599426
3053.977553	5959.762167	1190.106445	454.827026
3053.977553	5959.762167	1188.984375	467.598938
3053.977553	5959.762167	1187.861328	411.421234
3053.977553	5959.762167	1186.738281	293.836212
3053.977553	5959.762167	1185.614258	287.186035
3053.977553	5959.762167	1184.491211	153.131088
3053.977553	5959.762167	1183.367188	307.294037
3053.977553	5959.762167	1182.243164	202.219559
3053.977553	5959.762167	1181.119141	165.102005
3053.977553	5959.762167	1179.994141	227.058609
3053.977553	5959.762167	1178.869141	205.991684
3053.977553	5959.762167	1177.744141	305.550751
3053.977553	5959.762167	1176.619141	454.516205
3053.977553	5959.762167	1175.493164	472.739380
3053.977553	5959.762167	1174.368164	499.419342
3053.977553	5959.762167	1173.242188	362.480194
3053.977553	5959.762167	1172.115234	461.708069
3053.977553	5959.762167	1170.989258	327.779053
3053.977553	5959.762167	1169.862305	163.269241
3053.977553	5959.762167	1168.735352	127.730247
3053.977553	5959.762167	1167.608398	-96.440216
3053.977553	5959.762167	1166.481445	70.085258
3053.977553	5959.762167	1165.353516	-108.907074
3053.977553	5959.762167	1164.225586	-119.019470
3053.977553	5959.762167	1163.097656	-85.860008
3053.977553	5959.762167	1161.968750	23.240139
3053.977553	5959.762167	1160.840820	-18.763800
3053.977553	5959.762167	1159.711914	77.472313
3053.977553	5959.762167	1158.583008	-69.221626
3053.977553	5959.762167	1157.453125	-304.653625
3053.977553	5959.762167	1156.324219	-257.548340
3053.977553	5959.762167	1155.194336	-99.356232
3053.977553	5959.762167	1154.064453	-138.160065
3053.977553	5959.762167	1152.933594	-177.281845
3053.977553	5959.762167	1151.803711	-216.860443
3053.977553	5959.762167	1150.672852	-249.327499
3053.977553	5959.762167	1149.541992	-142.352219
3053.977553	5959.762167	1148.411133	-377.624512
3053.977553	5959.762167	1147.279297	-283.616211
3053.977553	5959.762167	1146.147461	-137.750061
3053.977553	5959.762167	1145.015625	-171.808746
3053.977553	5959.762167	1143.883789	-206.161774
3053.977553	5959.762167	1142.750977	-149.823257
3053.977553	5959.762167	1141.619141	-68.296432
3053.977553	5959.762167	1140.486328	0.007944
3053.977553	5959.762167	1139.352539	144.266998
3053.977553	5959.762167	1138.219727	-223.533585
3053.977553	5959.762167	1137.085938	-182.877350
3053.977553	5959.762167	1135.952148	27.135199
3053.977553	5959.762167	1134.818359	150.737213
3053.977553	5959.762167	1133.683594	300.694153
3053.977553	5959.762167	1132.549805	537.682312
3053.977553	5959.762167	1131.415039	912.673157
3053.977553	5959.762167	1130.279297	1152.673096
3053.977553	5959.762167	1129.144531	1246.736938
3053.977553	5959.762167	1128.008789	1272.801514
3053.977553	5959.762167	1126.873047	1278.856079
3053.977553	5959.762167	1125.737305	933.748291
3053.977553	5959.762167	1124.601563	1093.403687
3053.977553	5959.762167	1123.464844	1061.826172
3053.977553	5959.762167	1122.328125	939.203064
3053.977553	5959.762167	1121.191406	927.680542
3053.977553	5959.762167	1120.054688	921.895325
3053.977553	5959.762167	1118.916992	976.575684
3053.977553	5959.762167	1117.779297	944.850464
3053.977553	5959.762167	1116.641602	904.303772
3053.977553	5959.762167	1115.503906	725.429626
3053.977553	5959.762167	1114.365234	719.323181
3053.977553	5959.762167	1113.226563	530.581543
3053.977553	5959.762167	1112.087891	527.433350
3053.977553	5959.762167	1110.949219	338.650085
3053.977553	5959.762167	1109.809570	319.372437
3053.977553	5959.762167	1108.669922	421.707733
3053.977553	5959.762167	1107.530273	527.646362
3053.977553	5959.762167	1106.390625	581.462830
3053.977553	5959.762167	1105.250000	540.635376
3053.977553	5959.762167	1104.109375	623.068665
3053.977553	5959.762167	1102.968750	716.467957
3053.977553	5959.762167	1101.828125	735.267029
3053.977553	5959.762167	1100.686523	784.277771
3053.977553	5959.762167	1099.544922	1070.382813
3053.977553	5959.762167	1098.403320	893.439819
3053.977553	5959.762167	1097.261719	794.107239
3053.977553	5959.762167	1096.120117	886.837524
3053.977553	5959.762167	1094.977539	980.760376
3053.977553	5959.762167	1093.834961	778.993469
3053.977553	5959.762167	1092.691406	785.714172
3053.977553	5959.762167	1091.548828	599.021667
3053.977553	5959.762167	1090.405273	515.051636
3053.977553	5959.762167	1089.261719	456.383179
3053.977553	5959.762167	1088.118164	478.817352
3053.977553	5959.762167	1086.973633	577.724548
3053.977553	5959.762167	1085.829102	525.149048
3053.977553	5959.762167	1084.684570	321.383148
3053.977553	5959.762167	1083.540039	307.964417
3053.977553	5959.762167	1082.395508	336.198914
3053.977553	5959.762167	1081.250000	544.775940
3053.977553	5959.762167	1080.104492	450.907227
3053.977553	5959.762167	1078.958984	452.174316
3053.977553	5959.762167	1077.812500	614.822876
3053.977553	5959.762167	1076.666016	599.721191
3053.977553	5959.762167	1075.519531	432.120850
3053.977553	5959.762167	1074.373047	406.212677
3053.977553	5959.762167	1073.226563	385.432739
3053.977553	5959.762167	1072.079102	631.586914
3053.977553	5959.762167	1070.931641	387.416046
3053.977553	5959.762167	1069.784180	642.536011
3053.977553	5959.762167	1068.635742	603.495422
3053.977553	5959.762167	1067.487305	725.080566
3053.977553	5959.762167	1066.338867	722.547913
3053.977553	5959.762167	1065.190430	589.287598
3053.977553	5959.762167	1064.041992	925.906677
3053.977553	5959.762167	1062.892578	684.392944
3053.977553	5959.762167	1061.743164	825.488159
3053.977553	5959.762167	1060.593750	682.713501
3053.977553	5959.762167	1059.443359	581.354370
3053.977553	5959.762167	1058.292969	535.136169
3053.977553	5959.762167	1057.142578	367.447296
3053.977553	5959.762167	1055.992188	441.337250
3053.977553	5959.762167	1054.841797	267.577209
3053.977553	5959.762167	1053.690430	317.918976
3053.977553	5959.762167	1052.539063	385.623657
3053.977553	5959.762167	1051.387695	93.325729
3053.977553	5959.762167	1050.235352	387.684021
3053.977553	5959.762167	1049.083984	132.391769
3053.977553	5959.762167	1047.931641	-60.436359
3053.977553	5959.762167	1046.778320	196.305603
3053.977553	5959.762167	1045.625977	262.835815
3053.977553	5959.762167	1044.472656	165.124954
3053.977553	5959.762167	1043.319336	174.597946
3053.977553	5959.762167	1042.166016	219.509460
3053.977553	5959.762167	1041.012695	98.567314
3053.977553	5959.762167	1039.858398	152.989227
3053.977553	5959.762167	1038.704102	199.679977
3053.977553	5959.762167	1037.549805	37.688198
3053.977553	5959.762167	1036.394531	15.415998
3053.977553	5959.762167	1035.239258	58.076012
3053.977553	5959.762167	1034.083984	115.813591
3053.977553	5959.762167	1032.928711	291.704742
3053.977553	5959.762167	1031.773438	218.995438
3053.977553	5959.762167	1030.617188	-20.046408
3053.977553	5959.762167	1029.460938	311.919250
3053.977553	5959.762167	1028.304688	241.651031
3053.977553	5959.762167	1027.147461	177.250717
3053.977553	5959.762167	1025.991211	37.139343
3053.977553	5959.762167	1024.833984	205.044891
3053.977553	5959.762167	1023.675781	200.702393
3053.977553	5959.762167	1022.518555	176.237427
3053.977553	5959.762167	1021.360352	-43.776711
3053.977553	5959.762167	1020.202148	125.367767
3053.977553	5959.762167	1019.043945	135.403198
3053.977553	5959.762167	1017.884766	-27.686365
3053.977553	5959.762167	1016.726563	246.107178
3053.977553	5959.762167	1015.567383	358.747101
3053.977553	5959.762167	1014.407227	77.345451
3053.977553	5959.762167	1013.248047	227.018127
3053.977553	5959.762167	1012.087891	137.340332
3053.977553	5959.762167	1010.927734	298.008728
3053.977553	5959.762167	1009.767578	217.346436
3053.977553	5959.762167	1008.606445	283.331238
3053.977553	5959.762167	1007.446289	440.670471
3053.977553	5959.762167	1006.285156	340.644806
3053.977553	5959.762167	1005.123047	52.080181
3053.977553	5959.762167	1003.961914	194.891342
3053.977553	5959.762167	1002.799805	313.707245
3053.977553	5959.762167	1001.637695	390.143982
3053.977553	5959.762167	1000.475586	410.279602
3053.977553	5959.762167	999.312500	369.914673
3053.977553	5959.762167	998.149414	385.154633
3053.977553	5959.762167	996.986328	396.663513
3053.977553	5959.762167	995.823242	-48.272579
3053.977553	5959.762167	994.659180	79.822449
3053.977553	5959.762167	993.496094	-66.952110
3053.977553	5959.762167	992.332031	107.442917
3053.977553	5959.762167	991.166992	62.547382
3053.977553	5959.762167	990.002930	-52.904381
3053.977553	5959.762167	988.837891	-0.292431
3053.977553	5959.762167	987.672852	117.332916
3053.977553	5959.762167	986.506836	99.565628
3053.977553	5959.762167	985.341797	-82.495338
3053.977553	5959.762167	984.175781	44.503971
3053.977553	5959.762167	983.009766	67.305405
3053.977553	5959.762167	981.843750	-58.858677
3053.977553	5959.762167	980.676758	9.872066
3053.977553	5959.762167	979.509766	-1.061174
3053.977553	5959.762167	978.342773	240.188217
3053.977553	5959.762167	977.175781	77.278351
3053.977553	5959.762167	976.007813	89.239334
3053.977553	5959.762167	974.839844	274.783020
3053.977553	5959.762167	973.671875	556.690613
3053.977553	5959.762167	972.503906	486.440430
3053.977553	5959.762167	971.334961	260.541046
3053.977553	5959.762167	970.166016	389.055939
3053.977553	5959.762167	968.997070	185.931320
3053.977553	5959.762167	967.828125	-18.380768
3053.977553	5959.762167	966.658203	165.115295
3053.977553	5959.762167	965.488281	203.602310
3053.977553	5959.762167	964.318359	-58.573158
3053.977553	5959.762167	963.148438	237.238174
3053.977553	5959.762167	961.977539	45.302299
3053.977553	5959.762167	960.806641	339.013062
3053.977553	5959.762167	959.635742	415.126190
3053.977553	5959.762167	958.463867	539.503235
3053.977553	5959.762167	957.292969	237.699921
3053.977553	5959.762167	956.121094	226.749039
3053.977553	5959.762167	954.948242	158.789047
3053.977553	5959.762167	953.776367	413.858124
3053.977553	5959.762167	952.603516	139.166748
3053.977553	5959.762167	951.430664	38.196777
3053.977553	5959.762167	950.257813	252.603317
3053.977553	5959.762167	949.084961	232.624435
3053.977553	5959.762167	947.911133	280.859741
3053.977553	5959.762167	946.737305	455.925018
3053.977553	5959.762167	945.563477	214.720398
3053.977553	5959.762167	944.388672	356.473358
3053.977553	5959.762167	943.213867	642.461792
3053.977553	5959.762167	942.039063	476.239166
3053.977553	5959.762167	940.864258	588.010315
3053.977553	5959.762167	939.688477	553.463501
3053.977553	5959.762167	938.513672	563.962646
3053.977553	5959.762167	937.337891	578.523071
3053.977553	5959.762167	936.161133	176.967819
3053.977553	5959.762167	934.985352	215.351166
3053.977553	5959.762167	933.808594	531.271484
3053.977553	5959.762167	932.631836	651.861206
3053.977553	5959.762167	931.454102	746.544861
3053.977553	5959.762167	930.277344	634.255676
3053.977553	5959.762167	929.099609	655.975708
3053.977553	5959.762167	927.921875	616.541504
3053.977553	5959.762167	926.743164	767.446838
3053.977553	5959.762167	925.565430	638.651367
3053.977553	5959.762167	924.386719	540.444641
3053.977553	5959.762167	923.208008	500.978668
3053.977553	5959.762167	922.028320	409.861298
3053.977553	5959.762167	920.849609	250.644119
3053.977553	5959.762167	919.669922	256.401672
3053.977553	5959.762167	919.474609	324.888855
3053.977553	5959.762167	918.309570	294.777557
3053.977553	5959.762167	917.143555	281.105194
3053.977553	5959.762167	915.977539	304.977844
3053.977553	5959.762167	914.810547	26.191782
3053.977553	5959.762167	913.644531	303.422546
3053.977553	5959.762167	912.477539	109.164421
3053.977553	5959.762167	911.310547	233.856522
3053.977553	5959.762167	910.143555	-28.297611
3053.977553	5959.762167	908.975586	58.868301
3053.977553	5959.762167	907.807617	183.488632
3053.977553	5959.762167	906.639648	277.597961
3053.977553	5959.762167	905.471680	-101.474213
3053.977553	5959.762167	904.303711	46.511749
3053.977553	5959.762167	903.134766	-74.812141
3053.977553	5959.762167	901.965820	-46.273460
3053.977553	5959.762167	900.796875	64.165245
3053.977553	5959.762167	899.626953	-45.387497
3053.977553	5959.762167	898.457031	-68.337418
3053.977553	5959.762167	897.287109	119.226921
3053.977553	5959.762167	896.117188	161.729645
3053.977553	5959.762167	894.947266	-17.893412
3053.977553	5959.762167	893.776367	206.952545
3053.977553	5959.762167	892.605469	338.224976
3053.977553	5959.762167	891.434570	25.499369
3053.977553	5959.762167	890.262695	173.115570
3053.977553	5959.762167	889.091797	320.668915
3053.977553	5959.762167	887.919922	393.444397
3053.977553	5959.762167	886.748047	309.769501
3053.977553	5959.762167	885.575195	219.133530
3053.977553	5959.762167	884.403320	177.540924
3053.977553	5959.762167	883.230469	61.307831
3053.977553	5959.762167	882.057617	-201.836884
3053.977553	5959.762167	880.883789	57.560825
3053.977553	5959.762167	879.710938	-191.479034
3053.977553	5959.762167	878.537109	-20.773140
3053.977553	5959.762167	877.362305	-78.551880
3053.977553	5959.762167	876.188477	96.728165
3053.977553	5959.762167	875.013672	-107.826881
3053.977553	5959.762167	873.839844	-302.982239
3053.977553	5959.762167	872.664063	-134.731567
3053.977553	5959.762167	871.489258	170.829010
3053.977553	5959.762167	870.313477	-154.611435
3053.977553	5959.762167	869.138672	-58.641403
3053.977553	5959.762167	867.962891	104.780708
3053.977553	5959.762167	866.786133	-111.083412
3053.977553	5959.762167	865.610352	-70.992271
3053.977553	5959.762167	864.433594	17.927746
3053.977553	5959.762167	863.256836	44.035130
3053.977553	5959.762167	862.079102	-125.129364
3053.977553	5959.762167	860.902344	-101.321381
3053.977553	5959.762167	859.724609	-86.809929
3053.977553	5959.762167	858.546875	-148.968018
3053.977553	5959.762167	857.368164	-143.733475
3053.977553	5959.762167	856.190430	-66.514351
3053.977553	5959.762167	855.011719	-103.087502
3053.977553	5959.762167	853.833008	111.058746
3053.977553	5959.762167	852.654297	-41.573860
3053.977553	5959.762167	851.474609	-17.790384
3053.977553	5959.762167	850.294922	-242.242279
3053.977553	5959.762167	849.115234	-294.964966
3053.977553	5959.762167	847.935547	-46.205738
3053.977553	5959.762167	846.754883	84.216568
3053.977553	5959.762167	845.575195	-109.936302
3053.977553	5959.762167	844.393555	-44.439533
3053.977553	5959.762167	843.212891	-18.365242
3053.977553	5959.762167	842.032227	-6.201225
3053.977553	5959.762167	840.850586	-28.780029
3053.977553	5959.762167	839.668945	115.371780
3053.977553	5959.762167	838.486328	90.463615
3053.977553	5959.762167	837.304688	111.851868
3053.977553	5959.762167	836.122070	-65.784515
3053.977553	5959.762167	834.939453	-44.374493
3053.977553	5959.762167	833.756836	-50.735878
3053.977553	5959.762167	832.573242	144.115067
3053.977553	5959.762167	831.389648	193.208344
3053.977553	5959.762167	830.206055	87.387238
3053.977553	5959.762167	829.022461	117.971565
3053.977553	5959.762167	827.838867	-105.653412
3053.977553	5959.762167	826.654297	52.019379
3053.977553	5959.762167	825.469727	154.182983
3053.977553	5959.762167	824.284180	-228.671173
3053.977553	5959.762167	823.099609	-61.857628
3053.977553	5959.762167	821.914063	-29.005358
3053.977553	5959.762167	820.728516	-130.039505
3053.977553	5959.762167	819.542969	-164.123734
3053.977553	5959.762167	818.356445	-89.769653
3053.977553	5959.762167	817.169922	-163.076263
3053.977553	5959.762167	815.983398	-185.631104
3053.977553	5959.762167	814.796875	-5.296118
3053.977553	5959.762167	813.609375	-9.454120
3053.977553	5959.762167	812.422852	-133.469391
3053.977553	5959.762167	811.235352	-204.446762
3053.977553	5959.762167	810.046875	-35.822521
3053.977553	5959.762167	808.859375	-286.472595
3053.977553	5959.762167	807.670898	-295.243195
3053.977553	5959.762167	806.482422	-281.004761
3053.977553	5959.762167	805.293945	-4.387888
3053.977553	5959.762167	804.104492	92.599388
3053.977553	5959.762167	802.915039	0.859082
3053.977553	5959.762167	801.725586	79.363091
3053.977553	5959.762167	800.536133	31.319630
3053.977553	5959.762167	799.345703	-23.619265
3053.977553	5959.762167	798.155273	-124.535942
3053.977553	5959.762167	796.964844	13.603959
3053.977553	5959.762167	795.774414	-85.028496
3053.977553	5959.762167	794.583008	101.248886
3053.977553	5959.762167	793.392578	-89.292084
3053.977553	5959.762167	792.200195	186.425995
3053.977553	5959.762167	791.008789	69.369957
3053.977553	5959.762167	789.816406	106.143105
3053.977553	5959.762167	788.625000	397.625793
3053.977553	5959.762167	787.432617	119.889046
3053.977553	5959.762167	786.239258	-139.405045
3053.977553	5959.762167	785.046875	48.641598
3053.977553	5959.762167	783.853516	282.446442
3053.977553	5959.762167	782.660156	252.454697
3053.977553	5959.762167	781.465820	103.246582
3053.977553	5959.762167	780.272461	192.406891
3053.977553	5959.762167	779.078125	4.248357
3053.977553	5959.762167	777.883789	198.700607
3053.977553	5959.762167	776.688477	152.548798
3053.977553	5959.762167	775.494141	92.633827
3053.977553	5959.762167	774.298828	-22.238705
3053.977553	5959.762167	773.103516	84.920502
3053.977553	5959.762167	771.907227	294.977509
3053.977553	5959.762167	770.711914	83.911148
3053.977553	5959.762167	769.515625	396.730804
3053.977553	5959.762167	768.318359	169.639511
3053.977553	5959.762167	767.122070	82.071373
3053.977553	5959.762167	765.924805	79.080467
3053.977553	5959.762167	764.727539	126.326241
3053.977553	5959.762167	763.530273	127.799881
3053.977553	5959.762167	762.333008	339.409576
3053.977553	5959.762167	761.134766	361.296417
3053.977553	5959.762167	759.936523	511.009583
3053.977553	5959.762167	758.738281	532.744385
3053.977553	5959.762167	757.540039	538.436340
3053.977553	5959.762167	756.340820	557.767334
3053.977553	5959.762167	755.141602	764.140259
3053.977553	5959.762167	753.942383	582.543396
3053.977553	5959.762167	752.742188	521.851807
3053.977553	5959.762167	751.541992	575.143372
3053.977553	5959.762167	750.341797	375.282257
3053.977553	5959.762167	749.141602	396.546783
3053.977553	5959.762167	747.941406	433.691803
3053.977553	5959.762167	746.740234	270.254242
3053.977553	5959.762167	745.539063	143.266296
3053.977553	5959.762167	744.337891	225.797256
3053.977553	5959.762167	743.135742	219.423950
3053.977553	5959.762167	741.933594	354.131866
3053.977553	5959.762167	740.731445	35.769588
3053.977553	5959.762167	739.529297	79.293152
3053.977553	5959.762167	738.326172	152.306473
3053.977553	5959.762167	737.124023	277.531250
3053.977553	5959.762167	735.919922	216.150208
3053.977553	5959.762167	734.716797	282.045990
3053.977553	5959.762167	733.513672	268.273621
3053.977553	5959.762167	732.309570	358.979706
3053.977553	5959.762167	731.105469	374.582947
3053.977553	5959.762167	729.900391	335.579376
3053.977553	5959.762167	728.696289	276.066589
3053.977553	5959.762167	727.491211	336.856079
3053.977553	5959.762167	726.286133	222.716370
3053.977553	5959.762167	725.080078	471.730225
3053.977553	5959.762167	723.874023	396.024719
3053.977553	5959.762167	722.668945	544.891296
3053.977553	5959.762167	721.461914	657.316101
3053.977553	5959.762167	720.255859	790.017151
3053.977553	5959.762167	719.048828	605.117554
3053.977553	5959.762167	717.841797	603.838379
3053.977553	5959.762167	716.634766	437.007996
3053.977553	5959.762167	715.427734	492.235718
3053.977553	5959.762167	714.219727	526.958252
3053.977553	5959.762167	713.011719	362.235992
3053.977553	5959.762167	711.803711	276.753601
3053.977553	5959.762167	710.594727	87.056946
3053.977553	5959.762167	709.385742	304.819946
3053.977553	5959.762167	708.176758	456.757568
3053.977553	5959.762167	706.967773	318.895325
3053.977553	5959.762167	705.758789	337.091797
3053.977553	5959.762167	704.548828	477.321136
3053.977553	5959.762167	703.338867	493.014587
3053.977553	5959.762167	702.127930	341.292725
3053.977553	5959.762167	700.917969	334.199036
3053.977553	5959.762167	699.707031	473.902161
3053.977553	5959.762167	698.496094	498.207733
3053.977553	5959.762167	697.285156	325.864960
3053.977553	5959.762167	696.073242	648.105408
3053.977553	5959.762167	694.861328	414.622650
3053.977553	5959.762167	693.649414	309.811493
3053.977553	5959.762167	692.436523	320.047791
3053.977553	5959.762167	691.224609	463.312073
3053.977553	5959.762167	690.011719	425.913330
3053.977553	5959.762167	688.798828	379.396210
3053.977553	5959.762167	687.584961	400.442932
3053.977553	5959.762167	686.372070	222.951767
3053.977553	5959.762167	685.158203	146.863892
3053.977553	5959.762167	683.943359	476.374695
3053.977553	5959.762167	682.729492	296.385071
3053.977553	5959.762167	681.514648	269.547516
3053.977553	5959.762167	680.299805	312.428986
3053.977553	5959.762167	679.084961	204.299484
3053.977553	5959.762167	677.869141	219.925552
3053.977553	5959.762167	676.653320	309.708435
3053.977553	5959.762167	675.437500	383.582245
3053.977553	5959.762167	674.221680	311.057281
3053.977553	5959.762167	673.004883	353.167419
3053.977553	5959.762167	671.789063	284.938354
3053.977553	5959.762167	670.571289	351.528839
3053.977553	5959.762167	669.354492	352.778442
3053.977553	5959.762167	668.136719	356.151337
3053.977553	5959.762167	666.919922	388.617493
3053.977553	5959.762167	665.701172	425.436096
3053.977553	5959.762167	664.483398	691.233093
3053.977553	5959.762167	663.264648	516.629333
3053.977553	5959.762167	662.045898	375.656158
3053.977553	5959.762167	660.827148	248.087936
3053.977553	5959.762167	659.608398	374.056244
3053.977553	5959.762167	658.388672	466.188812
3053.977553	5959.762167	657.168945	638.919006
3053.977553	5959.762167	655.949219	416.703705
3053.977553	5959.762167	654.728516	382.818848
3053.977553	5959.762167	653.507813	371.242096
3053.977553	5959.762167	652.287109	473.861145
3053.977553	5959.762167	651.066406	421.683746
3053.977553	5959.762167	649.844727	544.160400
3053.977553	5959.762167	648.623047	366.294586
3053.977553	5959.762167	647.401367	367.545380
3053.977553	5959.762167	646.179688	606.015442
3053.977553	5959.762167	644.957031	519.654907
3053.977553	5959.762167	643.734375	565.256836
3053.977553	5959.762167	642.511719	525.683777
3053.977553	5959.762167	641.289063	501.663391
3053.977553	5959.762167	640.065430	370.161224
3053.977553	5959.762167	638.841797	439.852692
3053.977553	5959.762167	637.618164	243.333817
3053.977553	5959.762167	636.393555	475.948730
3053.977553	5959.762167	635.168945	741.863525
3053.977553	5959.762167	633.944336	334.999390
3053.977553	5959.762167	632.719727	555.907593
3053.977553	5959.762167	631.494141	307.577515
3053.977553	5959.762167	630.269531	418.738586
3053.977553	5959.762167	629.042969	505.163574
3053.977553	5959.762167	627.817383	339.219391
3053.977553	5959.762167	626.590820	170.987549
3053.977553	5959.762167	625.365234	228.047958
3053.977553	5959.762167	624.137695	28.437078
3053.977553	5959.762167	622.911133	22.815960
3053.977553	5959.762167	621.683594	130.783112
3053.977553	5959.762167	620.456055	129.357635
3053.977553	5959.762167	619.228516	78.783401
3053.977553	5959.762167	618.000977	228.652954
3053.977553	5959.762167	616.772461	115.462753
3053.977553	5959.762167	615.543945	195.977509
3053.977553	5959.762167	614.314453	144.955276
3053.977553	5959.762167	613.085938	98.299355
3053.977553	5959.762167	611.856445	91.609009
3053.977553	5959.762167	610.626953	82.582985
3053.977553	5959.762167	609.397461	-86.744545
3053.977553	5959.762167	608.166992	153.178146
3053.977553	5959.762167	606.936523	130.462265
3053.977553	5959.762167	605.706055	143.222153
3053.977553	5959.762167	604.474609	-84.224037
3053.977553	5959.762167	603.244141	-102.754616
3053.977553	5959.762167	602.012695	-63.617123
3053.977553	5959.762167	600.780273	66.477440
3053.977553	5959.762167	599.548828	-63.451237
3053.977553	5959.762167	598.316406	57.498341
3053.977553	5959.762167	597.083984	-12.640829
3053.977553	5959.762167	595.851563	1.498734
3053.977553	5959.762167	594.618164	4.430133
3053.977553	5959.762167	593.384766	115.980629
3053.977553	5959.762167	592.151367	-109.792755
3053.977553	5959.762167	590.917969	-11.764624
3053.977553	5959.762167	589.683594	-144.483566
3053.977553	5959.762167	588.449219	161.701324
3053.977553	5959.762167	587.214844	2.221205
3053.977553	5959.762167	585.979492	-192.744125
3053.977553	5959.762167	584.745117	-15.509822
3053.977553	5959.762167	583.509766	161.553726
3053.977553	5959.762167	582.273438	-108.883179
3053.977553	5959.762167	581.038086	-155.662537
3053.977553	5959.762167	579.801758	-69.699013
3053.977553	5959.762167	578.565430	100.244965
3053.977553	5959.762167	577.329102	-187.976379
3053.977553	5959.762167	576.091797	30.421923
3053.977553	5959.762167	574.854492	-255.611343
3053.977553	5959.762167	573.617188	-63.976784
3053.977553	5959.762167	572.378906	-42.731308
3053.977553	5959.762167	571.141602	-48.081055
3053.977553	5959.762167	569.903320	-53.505852
3053.977553	5959.762167	568.664063	159.718628
3053.977553	5959.762167	567.425781	143.074112
3053.977553	5959.762167	566.186523	135.197723
3053.977553	5959.762167	564.947266	138.302505
3053.977553	5959.762167	563.708008	401.822968
3053.977553	5959.762167	562.467773	369.431488
3053.977553	5959.762167	561.227539	273.008331
3053.977553	5959.762167	559.987305	644.247742
3053.977553	5959.762167	558.747070	468.300262
3053.977553	5959.762167	557.505859	504.055847
3053.977553	5959.762167	556.264648	561.793396
3053.977553	5959.762167	555.023438	399.046234
3053.977553	5959.762167	553.781250	531.605652
3053.977553	5959.762167	552.539063	494.419739
3053.977553	5959.762167	551.296875	573.953308
3053.977553	5959.762167	550.054688	380.335480
3053.977553	5959.762167	548.811523	721.786194
3053.977553	5959.762167	547.569336	664.629456
3053.977553	5959.762167	546.325195	290.526031
3053.977553	5959.762167	545.082031	374.237274
3053.977553	5959.762167	543.837891	537.070251
3053.977553	5959.762167	542.593750	165.348206
3053.977553	5959.762167	541.349609	512.818359
3053.977553	5959.762167	540.105469	257.733765
3053.977553	5959.762167	538.860352	196.153259
3053.977553	5959.762167	537.615234	209.298584
3053.977553	5959.762167	536.369141	301.506897
3053.977553	5959.762167	535.124023	121.293785
3053.977553	5959.762167	533.877930	90.473030
3053.977553	5959.762167	532.631836	237.503693
3053.977553	5959.762167	531.384766	283.475800
3053.977553	5959.762167	530.138672	145.076859
3053.977553	5959.762167	528.891602	193.235825
3053.977553	5959.762167	527.643555	-50.409485
3053.977553	5959.762167	526.396484	-76.802460
3053.977553	5959.762167	525.148438	-100.997574
3053.977553	5959.762167	523.900391	159.828430
3053.977553	5959.762167	522.652344	-52.897640
3053.977553	5959.762167	521.403320	-158.154160
3053.977553	5959.762167	520.154297	-171.334732
3053.977553	5959.762167	518.905273	-7.068303
3053.977553	5959.762167	517.656250	8.222274
3053.977553	5959.762167	516.406250	-70.636711
3053.977553	5959.762167	515.156250	-46.556610
3053.977553	5959.762167	513.906250	235.787659
3053.977553	5959.762167	512.655273	32.259502
3053.977553	5959.762167	511.404297	-53.023296
3053.977553	5959.762167	510.153320	-149.180069
3053.977553	5959.762167	508.902344	-129.371216
3053.977553	5959.762167	507.650391	65.348648
3053.977553	5959.762167	506.398438	-52.550365
3053.977553	5959.762167	505.146484	-21.764912
3053.977553	5959.762167	503.893555	-52.142597
3053.977553	5959.762167	502.641602	-303.084137
3053.977553	5959.762167	501.388672	-208.833237
3053.977553	5959.762167	500.134766	-385.338593
3053.977553	5959.762167	498.881836	-256.104767
3053.977553	5959.762167	497.627930	-340.777771
3053.977553	5959.762167	496.374023	-185.350067
3053.977553	5959.762167	495.119141	-51.768997
3053.977553	5959.762167	493.865234	-46.875599
3053.977553	5959.762167	492.610352	-161.879288
3053.977553	5959.762167	491.355469	13.171389
3053.977553	5959.762167	490.099609	55.226479
3053.977553	5959.762167	488.843750	354.457916
3053.977553	5959.762167	487.587891	241.831360
3053.977553	5959.762167	486.332031	199.007614
3053.977553	5959.762167	485.075195	284.734467
3053.977553	5959.762167	483.818359	488.052521
3053.977553	5959.762167	482.561523	42.633118
3053.977553	5959.762167	481.304688	132.848694
3053.977553	5959.762167	480.046875	410.199768
3053.977553	5959.762167	478.789063	526.500793
3053.977553	5959.762167	477.531250	218.684494
3053.977553	5959.762167	476.272461	243.746338
3053.977553	5959.762167	475.013672	512.343140
3053.977553	5959.762167	473.754883	322.254913
3053.977553	5959.762167	472.496094	403.938354
3053.977553	5959.762167	471.236328	292.267639
3053.977553	5959.762167	469.976563	172.007263
3053.977553	5959.762167	468.716797	310.282562
3053.977553	5959.762167	467.456055	229.247665
3053.977553	5959.762167	466.196289	341.501862
3053.977553	5959.762167	464.935547	301.828705
3053.977553	5959.762167	463.673828	242.684143
3053.977553	5959.762167	462.413086	374.522217
3053.977553	5959.762167	461.151367	70.393906
3053.977553	5959.762167	459.889648	310.713745
3053.977553	5959.762167	458.626953	301.647888
3053.977553	5959.762167	457.364258	227.602646
3053.977553	5959.762167	456.101563	383.328857
3053.977553	5959.762167	454.838867	326.702179
3053.977553	5959.762167	453.575195	103.337448
3053.977553	5959.762167	452.312500	42.527767
3053.977553	5959.762167	451.047852	432.104767
3053.977553	5959.762167	449.784180	146.169525
3053.977553	5959.762167	448.519531	76.790543
3053.977553	5959.762167	447.254883	221.670349
3053.977553	5959.762167	445.990234	80.950928
3053.977553	5959.762167	444.725586	282.024048
3053.977553	5959.762167	443.459961	61.356720
3053.977553	5959.762167	442.194336	193.170166
3053.977553	5959.762167	440.927734	244.946625
3053.977553	5959.762167	439.662109	238.356750
3053.977553	5959.762167	438.395508	20.026167
3053.977553	5959.762167	437.127930	-116.153687
3053.977553	5959.762167	435.861328	-116.238388
3053.977553	5959.762167	434.593750	-27.836468
3053.977553	5959.762167	433.326172	41.067566
3053.977553	5959.762167	432.058594	10.629826
3053.977553	5959.762167	430.790039	-110.468285
3053.977553	5959.762167	429.521484	31.611248
3053.977553	5959.762167	428.252930	67.891930
3053.977553	5959.762167	426.984375	119.185081
3053.977553	5959.762167	425.714844	312.657166
3053.977553	5959.762167	424.445313	161.114990
3053.977553	5959.762167	423.174805	136.677429
3053.977553	5959.762167	421.905273	359.916656
3053.977553	5959.762167	420.634766	419.248596
3053.977553	5959.762167	419.364258	422.450714
3053.977553	5959.762167	418.092773	350.165802
3053.977553	5959.762167	416.822266	262.720245
3053.977553	5959.762167	415.550781	444.167725
3053.977553	5959.762167	414.278320	476.915710
3053.977553	5959.762167	413.006836	444.961243
3053.977553	5959.762167	411.734375	348.318085
3053.977553	5959.762167	410.461914	404.194733
3053.977553	5959.762167	409.188477	29.898628
3053.977553	5959.762167	407.916016	293.890259
3053.977553	5959.762167	406.642578	271.749207
3053.977553	5959.762167	405.368164	393.311005
3053.977553	5959.762167	404.094727	278.318207
3053.977553	5959.762167	402.820313	272.621582
3053.977553	5959.762167	401.545898	86.310867
3053.977553	5959.762167	400.270508	333.364197
3053.977553	5959.762167	398.996094	281.724365
3053.977553	5959.762167	397.720703	304.869659
3053.977553	5959.762167	396.444336	-0.535458
3053.977553	5959.762167	395.168945	202.118881
3053.977553	5959.762167	393.892578	16.220245
3053.977553	5959.762167	392.616211	138.702545
3053.977553	5959.762167	391.339844	153.568985
3053.977553	5959.762167	390.062500	101.571304
3053.977553	5959.762167	388.785156	92.001205
3053.977553	5959.762167	387.507813	274.737396
3053.977553	5959.762167	386.229492	116.430481
3053.977553	5959.762167	384.951172	26.201664
3053.977553	5959.762167	383.672852	-43.103104
3053.977553	5959.762167	382.394531	265.847931
3053.977553	5959.762167	381.115234	146.194794
3053.977553	5959.762167	379.835938	94.456528
3053.977553	5959.762167	378.556641	151.198624
3053.977553	5959.762167	377.277344	406.124634
3053.977553	5959.762167	375.997070	313.976929
3053.977553	5959.762167	374.716797	417.805328
3053.977553	5959.762167	373.435547	510.180908
3053.977553	5959.762167	372.155273	292.053101
3053.977553	5959.762167	370.874023	318.854675
3053.977553	5959.762167	369.591797	201.775131
3053.977553	5959.762167	368.310547	248.333710
3053.977553	5959.762167	367.028320	257.726349
3053.977553	5959.762167	365.746094	93.398720
3053.977553	5959.762167	364.463867	525.600037
3053.977553	5959.762167	363.180664	408.488892
3053.977553	5959.762167	361.897461	303.260895
3053.977553	5959.762167	360.614258	325.004974
3053.977553	5959.762167	359.330078	471.449585
3053.977553	5959.762167	358.045898	625.291321
3053.977553	5959.762167	356.761719	697.006531
3053.977553	5959.762167	355.477539	731.348206
3053.977553	5959.762167	354.192383	860.316895
3053.977553	5959.762167	352.907227	393.968628
3053.977553	5959.762167	351.622070	350.208496
3053.977553	5959.762167	350.336914	360.524628
3053.977553	5959.762167	349.050781	39.670376
3053.977553	5959.762167	347.764648	-42.006687
3053.977553	5959.762167	346.477539	96.116028
3053.977553	5959.762167	345.191406	-186.136063
3053.977553	5959.762167	343.904297	-48.838390
3053.977553	5959.762167	342.616211	-74.706436
3053.977553	5959.762167	341.329102	-163.723267
3053.977553	5959.762167	340.041016	17.592642
3053.977553	5959.762167	338.752930	-108.708565
3053.977553	5959.762167	337.463867	154.047623
3053.977553	5959.762167	336.175781	-179.523880
3053.977553	5959.762167	334.886719	-73.269760
3053.977553	5959.762167	333.596680	98.946678
3053.977553	5959.762167	332.307617	-197.574738
3053.977553	5959.762167	331.017578	-211.715408
3053.977553	5959.762167	329.727539	119.963905
3053.977553	5959.762167	328.436523	33.771175
3053.977553	5959.762167	327.146484	-101.093346
3053.977553	5959.762167	325.855469	-157.591782
3053.977553	5959.762167	324.563477	31.564810
3053.977553	5959.762167	323.272461	-48.539822
3053.977553	5959.762167	321.980469	171.865067
3053.977553	5959.762167	320.688477	-21.070747
3053.977553	5959.762167	319.395508	43.946918
3053.977553	5959.762167	318.103516	-230.101669
3053.977553	5959.762167	316.810547	-115.193382
3053.977553	5959.762167	315.516602	-314.106689
3053.977553	5959.762167	314.223633	32.271786
3053.977553	5959.762167	312.929688	-38.899933
3053.977553	5959.762167	311.635742	-153.094101
3053.977553	5959.762167	310.340820	-120.176003
3053.977553	5959.762167	309.045898	36.512630
3053.977553	5959.762167	307.750977	61.141041
3053.977553	5959.762167	306.456055	300.181915
3053.977553	5959.762167	305.160156	345.694885
3053.977553	5959.762167	303.865234	400.623535
3053.977553	5959.762167	302.568359	152.150742
3053.977553	5959.762167	301.272461	430.187927
3053.977553	5959.762167	299.975586	693.888184
3053.977553	5959.762167	298.678711	616.253967
