#X		#Y		#Wave		#Intensity
12476.707872	3952.219167	1999.980469	-121.251930
12476.707872	3952.219167	1999.016602	-56.380066
12476.707872	3952.219167	1998.052734	-120.052002
12476.707872	3952.219167	1997.087891	59.050282
12476.707872	3952.219167	1996.123047	109.143684
12476.707872	3952.219167	1995.158203	79.845825
12476.707872	3952.219167	1994.193359	18.262562
12476.707872	3952.219167	1993.228516	273.569061
12476.707872	3952.219167	1992.262695	-48.182907
12476.707872	3952.219167	1991.297852	164.773148
12476.707872	3952.219167	1990.332031	125.117401
12476.707872	3952.219167	1989.366211	199.213699
12476.707872	3952.219167	1988.399414	28.269575
12476.707872	3952.219167	1987.433594	161.550171
12476.707872	3952.219167	1986.466797	-130.671417
12476.707872	3952.219167	1985.500977	29.625103
12476.707872	3952.219167	1984.534180	41.453632
12476.707872	3952.219167	1983.567383	28.484999
12476.707872	3952.219167	1982.599609	99.467072
12476.707872	3952.219167	1981.632813	76.461662
12476.707872	3952.219167	1980.665039	154.677246
12476.707872	3952.219167	1979.697266	-98.168304
12476.707872	3952.219167	1978.729492	-158.372940
12476.707872	3952.219167	1977.761719	-75.422188
12476.707872	3952.219167	1976.792969	-7.377356
12476.707872	3952.219167	1975.825195	50.708736
12476.707872	3952.219167	1974.856445	93.906860
12476.707872	3952.219167	1973.887695	30.942917
12476.707872	3952.219167	1972.918945	155.412277
12476.707872	3952.219167	1971.949219	40.556892
12476.707872	3952.219167	1970.980469	162.402481
12476.707872	3952.219167	1970.010742	170.745651
12476.707872	3952.219167	1969.041016	213.541916
12476.707872	3952.219167	1968.071289	162.627701
12476.707872	3952.219167	1967.101563	183.136261
12476.707872	3952.219167	1966.130859	262.711426
12476.707872	3952.219167	1965.161133	221.527710
12476.707872	3952.219167	1964.190430	10.396598
12476.707872	3952.219167	1963.219727	220.317627
12476.707872	3952.219167	1962.249023	14.104581
12476.707872	3952.219167	1961.277344	268.162598
12476.707872	3952.219167	1960.306641	239.107864
12476.707872	3952.219167	1959.334961	227.245453
12476.707872	3952.219167	1958.363281	11.188208
12476.707872	3952.219167	1957.391602	228.017334
12476.707872	3952.219167	1956.419922	142.289566
12476.707872	3952.219167	1955.447266	267.980927
12476.707872	3952.219167	1954.474609	219.077332
12476.707872	3952.219167	1953.501953	192.278046
12476.707872	3952.219167	1952.529297	251.454102
12476.707872	3952.219167	1951.556641	158.268539
12476.707872	3952.219167	1950.583984	-133.857819
12476.707872	3952.219167	1949.610352	251.860229
12476.707872	3952.219167	1948.636719	180.736755
12476.707872	3952.219167	1947.663086	-18.036041
12476.707872	3952.219167	1946.689453	9.035758
12476.707872	3952.219167	1945.715820	301.088623
12476.707872	3952.219167	1944.741211	-111.119812
12476.707872	3952.219167	1943.767578	40.980259
12476.707872	3952.219167	1942.792969	-89.038116
12476.707872	3952.219167	1941.818359	224.784576
12476.707872	3952.219167	1940.842773	124.151062
12476.707872	3952.219167	1939.868164	60.303093
12476.707872	3952.219167	1938.892578	155.747009
12476.707872	3952.219167	1937.916992	165.377853
12476.707872	3952.219167	1936.941406	121.089645
12476.707872	3952.219167	1935.965820	64.551750
12476.707872	3952.219167	1934.990234	-138.913147
12476.707872	3952.219167	1934.013672	259.973480
12476.707872	3952.219167	1933.037109	5.100791
12476.707872	3952.219167	1932.060547	24.418303
12476.707872	3952.219167	1931.083984	-71.297318
12476.707872	3952.219167	1930.107422	-61.794838
12476.707872	3952.219167	1929.129883	128.694321
12476.707872	3952.219167	1928.153320	160.131714
12476.707872	3952.219167	1927.175781	-60.315918
12476.707872	3952.219167	1926.198242	-36.227322
12476.707872	3952.219167	1925.219727	85.603409
12476.707872	3952.219167	1924.242188	-59.001781
12476.707872	3952.219167	1923.263672	231.345261
12476.707872	3952.219167	1922.285156	47.643909
12476.707872	3952.219167	1921.306641	20.310192
12476.707872	3952.219167	1920.328125	0.296257
12476.707872	3952.219167	1919.349609	-73.440887
12476.707872	3952.219167	1918.370117	-86.144859
12476.707872	3952.219167	1917.391602	1.208486
12476.707872	3952.219167	1916.412109	0.662183
12476.707872	3952.219167	1915.431641	187.953369
12476.707872	3952.219167	1914.452148	-17.559826
12476.707872	3952.219167	1913.472656	-37.665104
12476.707872	3952.219167	1912.492188	15.365369
12476.707872	3952.219167	1911.511719	-48.660557
12476.707872	3952.219167	1910.531250	-54.181599
12476.707872	3952.219167	1909.550781	23.136942
12476.707872	3952.219167	1908.569336	-45.787811
12476.707872	3952.219167	1907.588867	-27.002926
12476.707872	3952.219167	1906.607422	213.391510
12476.707872	3952.219167	1905.625977	156.587097
12476.707872	3952.219167	1904.644531	-2.474138
12476.707872	3952.219167	1903.662109	86.793663
12476.707872	3952.219167	1902.680664	71.356209
12476.707872	3952.219167	1901.698242	77.799644
12476.707872	3952.219167	1900.715820	35.560684
12476.707872	3952.219167	1899.733398	34.665215
12476.707872	3952.219167	1898.750000	162.639343
12476.707872	3952.219167	1897.767578	61.982075
12476.707872	3952.219167	1896.784180	-87.287155
12476.707872	3952.219167	1895.800781	30.841623
12476.707872	3952.219167	1894.817383	7.951813
12476.707872	3952.219167	1893.833984	458.836792
12476.707872	3952.219167	1892.850586	90.869942
12476.707872	3952.219167	1891.866211	-201.698288
12476.707872	3952.219167	1890.881836	-86.224113
12476.707872	3952.219167	1889.897461	60.741005
12476.707872	3952.219167	1888.913086	15.854614
12476.707872	3952.219167	1887.927734	-126.128166
12476.707872	3952.219167	1886.943359	-6.020473
12476.707872	3952.219167	1885.958008	177.085052
12476.707872	3952.219167	1884.972656	129.656479
12476.707872	3952.219167	1883.987305	-75.424141
12476.707872	3952.219167	1883.001953	88.095360
12476.707872	3952.219167	1882.015625	166.665146
12476.707872	3952.219167	1881.029297	-101.434151
12476.707872	3952.219167	1880.042969	180.630646
12476.707872	3952.219167	1879.056641	159.691696
12476.707872	3952.219167	1878.070313	-101.099457
12476.707872	3952.219167	1877.083984	110.455551
12476.707872	3952.219167	1876.096680	-14.705128
12476.707872	3952.219167	1875.109375	167.616241
12476.707872	3952.219167	1874.122070	107.765465
12476.707872	3952.219167	1873.134766	125.340279
12476.707872	3952.219167	1872.146484	167.057922
12476.707872	3952.219167	1871.159180	73.240921
12476.707872	3952.219167	1870.170898	37.460327
12476.707872	3952.219167	1869.182617	-49.138676
12476.707872	3952.219167	1868.194336	-84.975983
12476.707872	3952.219167	1867.205078	106.387070
12476.707872	3952.219167	1866.216797	92.189369
12476.707872	3952.219167	1865.227539	119.022026
12476.707872	3952.219167	1864.238281	-95.814346
12476.707872	3952.219167	1863.249023	-112.540482
12476.707872	3952.219167	1862.259766	39.747913
12476.707872	3952.219167	1861.269531	-187.191528
12476.707872	3952.219167	1860.279297	-13.332445
12476.707872	3952.219167	1859.290039	-23.040844
12476.707872	3952.219167	1858.298828	17.868032
12476.707872	3952.219167	1857.308594	-8.854163
12476.707872	3952.219167	1856.318359	-105.586647
12476.707872	3952.219167	1855.327148	125.682732
12476.707872	3952.219167	1854.335938	36.067539
12476.707872	3952.219167	1853.344727	-36.699890
12476.707872	3952.219167	1852.353516	-56.470234
12476.707872	3952.219167	1851.362305	-76.298264
12476.707872	3952.219167	1850.370117	185.748734
12476.707872	3952.219167	1849.377930	141.649841
12476.707872	3952.219167	1848.385742	-61.483746
12476.707872	3952.219167	1847.393555	-26.181412
12476.707872	3952.219167	1846.401367	-96.912025
12476.707872	3952.219167	1845.408203	70.645454
12476.707872	3952.219167	1844.415039	55.133480
12476.707872	3952.219167	1843.421875	44.365417
12476.707872	3952.219167	1842.428711	38.338211
12476.707872	3952.219167	1841.435547	171.765610
12476.707872	3952.219167	1840.441406	-2.809076
12476.707872	3952.219167	1839.448242	108.775116
12476.707872	3952.219167	1838.454102	39.908585
12476.707872	3952.219167	1837.459961	177.717682
12476.707872	3952.219167	1836.464844	53.414360
12476.707872	3952.219167	1835.470703	-133.395493
12476.707872	3952.219167	1834.475586	-111.209763
12476.707872	3952.219167	1833.480469	6.963411
12476.707872	3952.219167	1832.485352	-93.540154
12476.707872	3952.219167	1831.490234	-16.410038
12476.707872	3952.219167	1830.495117	-59.432495
12476.707872	3952.219167	1829.499023	238.297226
12476.707872	3952.219167	1828.502930	-76.123123
12476.707872	3952.219167	1827.506836	-23.420208
12476.707872	3952.219167	1826.510742	26.770105
12476.707872	3952.219167	1825.513672	36.065109
12476.707872	3952.219167	1824.517578	59.655575
12476.707872	3952.219167	1823.520508	119.094467
12476.707872	3952.219167	1822.523438	-42.118526
12476.707872	3952.219167	1821.526367	-2.053825
12476.707872	3952.219167	1820.529297	-2.841408
12476.707872	3952.219167	1819.531250	13.030980
12476.707872	3952.219167	1818.533203	126.999931
12476.707872	3952.219167	1817.535156	94.738213
12476.707872	3952.219167	1816.537109	-2.265971
12476.707872	3952.219167	1815.539063	92.172852
12476.707872	3952.219167	1814.540039	-148.623962
12476.707872	3952.219167	1813.541992	113.099998
12476.707872	3952.219167	1812.542969	-60.837784
12476.707872	3952.219167	1811.543945	40.269547
12476.707872	3952.219167	1810.543945	33.593529
12476.707872	3952.219167	1809.544922	160.722504
12476.707872	3952.219167	1808.544922	72.512177
12476.707872	3952.219167	1807.544922	-15.779351
12476.707872	3952.219167	1806.544922	115.709229
12476.707872	3952.219167	1805.544922	82.163460
12476.707872	3952.219167	1804.544922	29.400719
12476.707872	3952.219167	1803.543945	174.771530
12476.707872	3952.219167	1802.542969	-81.223267
12476.707872	3952.219167	1801.541992	142.660507
12476.707872	3952.219167	1800.541016	15.428743
12476.707872	3952.219167	1799.539063	-54.609489
12476.707872	3952.219167	1798.538086	147.294891
12476.707872	3952.219167	1797.536133	172.437607
12476.707872	3952.219167	1796.534180	140.196228
12476.707872	3952.219167	1795.532227	43.447811
12476.707872	3952.219167	1794.529297	-67.710083
12476.707872	3952.219167	1793.527344	14.155490
12476.707872	3952.219167	1792.524414	215.024658
12476.707872	3952.219167	1791.521484	-70.460693
12476.707872	3952.219167	1790.518555	-15.256476
12476.707872	3952.219167	1789.514648	44.545849
12476.707872	3952.219167	1788.511719	-29.173199
12476.707872	3952.219167	1787.507813	158.926636
12476.707872	3952.219167	1786.503906	120.642235
12476.707872	3952.219167	1785.500000	1.301908
12476.707872	3952.219167	1784.496094	146.038681
12476.707872	3952.219167	1783.491211	64.520149
12476.707872	3952.219167	1782.486328	111.359177
12476.707872	3952.219167	1781.481445	-132.144196
12476.707872	3952.219167	1780.476563	166.511292
12476.707872	3952.219167	1779.471680	67.842476
12476.707872	3952.219167	1778.465820	21.353300
12476.707872	3952.219167	1777.460938	148.253448
12476.707872	3952.219167	1776.455078	72.961487
12476.707872	3952.219167	1775.449219	-30.956543
12476.707872	3952.219167	1774.442383	24.156099
12476.707872	3952.219167	1773.436523	-134.631348
12476.707872	3952.219167	1772.429688	-148.675781
12476.707872	3952.219167	1771.422852	-8.550195
12476.707872	3952.219167	1770.416016	245.305359
12476.707872	3952.219167	1769.409180	-110.983696
12476.707872	3952.219167	1768.402344	173.339890
12476.707872	3952.219167	1767.394531	20.896832
12476.707872	3952.219167	1766.386719	1.180315
12476.707872	3952.219167	1765.378906	85.657600
12476.707872	3952.219167	1764.371094	-3.124922
12476.707872	3952.219167	1763.362305	123.666824
12476.707872	3952.219167	1762.354492	-17.537273
12476.707872	3952.219167	1761.345703	-113.836258
12476.707872	3952.219167	1760.336914	-84.692078
12476.707872	3952.219167	1759.328125	76.928062
12476.707872	3952.219167	1758.318359	39.387878
12476.707872	3952.219167	1757.308594	32.484699
12476.707872	3952.219167	1756.299805	-21.902498
12476.707872	3952.219167	1755.290039	4.028921
12476.707872	3952.219167	1754.279297	-67.245255
12476.707872	3952.219167	1753.269531	-15.606826
12476.707872	3952.219167	1752.258789	106.800690
12476.707872	3952.219167	1751.249023	221.924225
12476.707872	3952.219167	1750.238281	-95.891006
12476.707872	3952.219167	1749.226563	-101.698441
12476.707872	3952.219167	1748.215820	79.084557
12476.707872	3952.219167	1747.204102	-158.671280
12476.707872	3952.219167	1746.193359	-32.613163
12476.707872	3952.219167	1745.181641	-3.637514
12476.707872	3952.219167	1744.168945	-24.451975
12476.707872	3952.219167	1743.157227	44.332355
12476.707872	3952.219167	1742.144531	207.347488
12476.707872	3952.219167	1741.132813	25.520086
12476.707872	3952.219167	1740.120117	-102.136566
12476.707872	3952.219167	1739.106445	81.543022
12476.707872	3952.219167	1738.093750	55.042118
12476.707872	3952.219167	1737.080078	-73.056519
12476.707872	3952.219167	1736.067383	32.218307
12476.707872	3952.219167	1735.053711	-27.776779
12476.707872	3952.219167	1734.040039	44.100170
12476.707872	3952.219167	1733.025391	207.686157
12476.707872	3952.219167	1732.011719	114.209503
12476.707872	3952.219167	1730.997070	-144.335617
12476.707872	3952.219167	1729.982422	-33.122009
12476.707872	3952.219167	1728.967773	183.866058
12476.707872	3952.219167	1727.952148	113.317482
12476.707872	3952.219167	1726.937500	-157.457748
12476.707872	3952.219167	1725.921875	-49.355553
12476.707872	3952.219167	1724.906250	16.181612
12476.707872	3952.219167	1723.890625	-24.349955
12476.707872	3952.219167	1722.875000	-13.276203
12476.707872	3952.219167	1721.858398	72.872231
12476.707872	3952.219167	1720.841797	-200.957794
12476.707872	3952.219167	1719.825195	115.271133
12476.707872	3952.219167	1718.808594	-10.699485
12476.707872	3952.219167	1717.791992	-96.832222
12476.707872	3952.219167	1716.774414	-11.587065
12476.707872	3952.219167	1715.756836	205.022751
12476.707872	3952.219167	1714.739258	66.715370
12476.707872	3952.219167	1713.721680	200.709961
12476.707872	3952.219167	1712.704102	-85.787041
12476.707872	3952.219167	1711.685547	-27.278221
12476.707872	3952.219167	1710.667969	146.072906
12476.707872	3952.219167	1709.649414	-6.998245
12476.707872	3952.219167	1708.630859	121.363457
12476.707872	3952.219167	1707.611328	218.998627
12476.707872	3952.219167	1706.592773	234.377823
12476.707872	3952.219167	1705.573242	3.368189
12476.707872	3952.219167	1704.553711	234.120422
12476.707872	3952.219167	1703.534180	101.324577
12476.707872	3952.219167	1702.513672	207.428070
12476.707872	3952.219167	1701.494141	306.328735
12476.707872	3952.219167	1700.473633	217.609238
12476.707872	3952.219167	1699.453125	187.319504
12476.707872	3952.219167	1698.432617	290.358612
12476.707872	3952.219167	1697.412109	149.721466
12476.707872	3952.219167	1696.390625	226.646729
12476.707872	3952.219167	1695.369141	226.159592
12476.707872	3952.219167	1694.347656	255.937576
12476.707872	3952.219167	1693.326172	147.528305
12476.707872	3952.219167	1692.304688	237.817352
12476.707872	3952.219167	1691.282227	278.787994
12476.707872	3952.219167	1690.260742	233.111740
12476.707872	3952.219167	1689.238281	262.080414
12476.707872	3952.219167	1688.214844	190.366318
12476.707872	3952.219167	1687.192383	46.120411
12476.707872	3952.219167	1686.168945	196.122971
12476.707872	3952.219167	1685.146484	345.946411
12476.707872	3952.219167	1684.123047	392.786499
12476.707872	3952.219167	1683.099609	103.241570
12476.707872	3952.219167	1682.075195	301.533112
12476.707872	3952.219167	1681.051758	473.959198
12476.707872	3952.219167	1680.027344	550.474548
12476.707872	3952.219167	1679.002930	416.841949
12476.707872	3952.219167	1677.978516	329.773529
12476.707872	3952.219167	1676.953125	333.528290
12476.707872	3952.219167	1675.928711	388.468170
12476.707872	3952.219167	1674.903320	734.632568
12476.707872	3952.219167	1673.877930	693.609436
12476.707872	3952.219167	1672.852539	1083.588257
12476.707872	3952.219167	1671.826172	883.780823
12476.707872	3952.219167	1670.800781	711.898926
12476.707872	3952.219167	1669.774414	845.027832
12476.707872	3952.219167	1668.748047	903.459106
12476.707872	3952.219167	1667.721680	1154.974365
12476.707872	3952.219167	1666.694336	1026.821777
12476.707872	3952.219167	1665.667969	1028.944946
12476.707872	3952.219167	1664.640625	1086.756226
12476.707872	3952.219167	1663.613281	1149.072388
12476.707872	3952.219167	1662.585938	1525.236328
12476.707872	3952.219167	1661.557617	1284.861206
12476.707872	3952.219167	1660.530273	1521.110596
12476.707872	3952.219167	1659.501953	1696.680908
12476.707872	3952.219167	1658.473633	1779.101318
12476.707872	3952.219167	1657.444336	1840.430054
12476.707872	3952.219167	1656.416016	1808.719971
12476.707872	3952.219167	1655.386719	1674.677612
12476.707872	3952.219167	1654.358398	1856.435303
12476.707872	3952.219167	1653.328125	2232.986328
12476.707872	3952.219167	1652.298828	2326.102051
12476.707872	3952.219167	1651.269531	2442.280029
12476.707872	3952.219167	1650.239258	2108.097168
12476.707872	3952.219167	1649.208984	2525.635498
12476.707872	3952.219167	1648.178711	2560.172119
12476.707872	3952.219167	1647.148438	2717.505371
12476.707872	3952.219167	1646.117188	2610.315430
12476.707872	3952.219167	1645.086914	2945.881104
12476.707872	3952.219167	1644.055664	3079.540039
12476.707872	3952.219167	1643.024414	3196.827881
12476.707872	3952.219167	1641.992188	3552.584961
12476.707872	3952.219167	1640.960938	3539.822998
12476.707872	3952.219167	1639.928711	3830.339844
12476.707872	3952.219167	1638.896484	4095.181396
12476.707872	3952.219167	1637.864258	3827.353516
12476.707872	3952.219167	1636.832031	3971.552734
12476.707872	3952.219167	1635.798828	3796.215088
12476.707872	3952.219167	1634.766602	4324.278809
12476.707872	3952.219167	1633.733398	4539.724609
12476.707872	3952.219167	1632.699219	4588.447266
12476.707872	3952.219167	1631.666016	4699.537109
12476.707872	3952.219167	1630.632813	4865.993164
12476.707872	3952.219167	1629.598633	4819.616699
12476.707872	3952.219167	1628.564453	4768.561035
12476.707872	3952.219167	1627.530273	5107.948730
12476.707872	3952.219167	1626.495117	5574.159668
12476.707872	3952.219167	1625.460938	5813.800293
12476.707872	3952.219167	1624.425781	6011.680176
12476.707872	3952.219167	1623.390625	5796.135742
12476.707872	3952.219167	1622.355469	6196.949707
12476.707872	3952.219167	1621.319336	6343.641113
12476.707872	3952.219167	1620.284180	6684.075684
12476.707872	3952.219167	1619.248047	6615.940918
12476.707872	3952.219167	1618.211914	6935.283203
12476.707872	3952.219167	1617.174805	6903.879395
12476.707872	3952.219167	1616.138672	7236.767578
12476.707872	3952.219167	1615.101563	7235.181641
12476.707872	3952.219167	1614.065430	7346.514648
12476.707872	3952.219167	1613.027344	7563.692383
12476.707872	3952.219167	1611.990234	8008.855957
12476.707872	3952.219167	1610.953125	8133.625488
12476.707872	3952.219167	1609.915039	8285.906250
12476.707872	3952.219167	1608.876953	8504.864258
12476.707872	3952.219167	1607.838867	8380.685547
12476.707872	3952.219167	1606.800781	8583.352539
12476.707872	3952.219167	1605.761719	8396.971680
12476.707872	3952.219167	1604.723633	8300.394531
12476.707872	3952.219167	1603.684570	8127.882324
12476.707872	3952.219167	1602.644531	8304.953125
12476.707872	3952.219167	1601.605469	8293.413086
12476.707872	3952.219167	1600.566406	8217.480469
12476.707872	3952.219167	1599.526367	8038.091797
12476.707872	3952.219167	1598.486328	7739.253906
12476.707872	3952.219167	1597.446289	8053.977539
12476.707872	3952.219167	1596.405273	8085.979492
12476.707872	3952.219167	1595.365234	8237.417969
12476.707872	3952.219167	1594.324219	7936.385742
12476.707872	3952.219167	1593.283203	7837.496582
12476.707872	3952.219167	1592.242188	7832.748047
12476.707872	3952.219167	1591.200195	7726.987305
12476.707872	3952.219167	1590.159180	7474.452637
12476.707872	3952.219167	1589.117188	7579.849609
12476.707872	3952.219167	1588.075195	7781.536133
12476.707872	3952.219167	1587.032227	7513.025391
12476.707872	3952.219167	1585.990234	7826.997559
12476.707872	3952.219167	1584.947266	7423.354980
12476.707872	3952.219167	1583.904297	7725.747070
12476.707872	3952.219167	1582.861328	7842.436035
12476.707872	3952.219167	1581.818359	7718.551270
12476.707872	3952.219167	1580.775391	7622.214844
12476.707872	3952.219167	1579.731445	8013.671875
12476.707872	3952.219167	1578.687500	7486.890625
12476.707872	3952.219167	1577.643555	7338.036621
12476.707872	3952.219167	1576.598633	7408.946777
12476.707872	3952.219167	1575.554688	7527.938965
12476.707872	3952.219167	1574.509766	7656.032227
12476.707872	3952.219167	1573.464844	7267.179688
12476.707872	3952.219167	1572.419922	7656.040527
12476.707872	3952.219167	1571.374023	7523.454102
12476.707872	3952.219167	1570.329102	7402.421387
12476.707872	3952.219167	1569.283203	7427.715820
12476.707872	3952.219167	1568.237305	7053.157227
12476.707872	3952.219167	1567.191406	7003.206055
12476.707872	3952.219167	1566.144531	7193.127441
12476.707872	3952.219167	1565.098633	7168.385254
12476.707872	3952.219167	1564.051758	6992.979004
12476.707872	3952.219167	1563.004883	6909.006836
12476.707872	3952.219167	1561.957031	6950.623535
12476.707872	3952.219167	1560.910156	6962.648926
12476.707872	3952.219167	1559.862305	6741.988770
12476.707872	3952.219167	1558.814453	6829.416504
12476.707872	3952.219167	1557.766602	6825.652344
12476.707872	3952.219167	1556.718750	6689.708984
12476.707872	3952.219167	1555.669922	6585.771973
12476.707872	3952.219167	1554.621094	6527.535156
12476.707872	3952.219167	1553.573242	6373.716797
12476.707872	3952.219167	1552.523438	6411.352051
12476.707872	3952.219167	1551.474609	6465.029297
12476.707872	3952.219167	1550.424805	5972.150391
12476.707872	3952.219167	1549.375000	6005.531738
12476.707872	3952.219167	1548.325195	5957.030273
12476.707872	3952.219167	1547.275391	5824.421875
12476.707872	3952.219167	1546.225586	5719.261719
12476.707872	3952.219167	1545.174805	5623.305176
12476.707872	3952.219167	1544.124023	5411.471191
12476.707872	3952.219167	1543.073242	5311.255859
12476.707872	3952.219167	1542.022461	5090.665039
12476.707872	3952.219167	1540.970703	5018.004395
12476.707872	3952.219167	1539.919922	4981.873047
12476.707872	3952.219167	1538.868164	4741.304688
12476.707872	3952.219167	1537.815430	4678.132324
12476.707872	3952.219167	1536.763672	4971.765137
12476.707872	3952.219167	1535.710938	4347.817871
12476.707872	3952.219167	1534.659180	4232.898438
12476.707872	3952.219167	1533.606445	4485.895508
12476.707872	3952.219167	1532.552734	4441.535645
12476.707872	3952.219167	1531.500000	4329.265137
12476.707872	3952.219167	1530.446289	4226.207031
12476.707872	3952.219167	1529.393555	4288.942871
12476.707872	3952.219167	1528.338867	4596.670410
12476.707872	3952.219167	1527.285156	4153.868164
12476.707872	3952.219167	1526.231445	4010.633301
12476.707872	3952.219167	1525.176758	3996.762451
12476.707872	3952.219167	1524.122070	3876.520020
12476.707872	3952.219167	1523.067383	4128.052734
12476.707872	3952.219167	1522.012695	3983.192139
12476.707872	3952.219167	1520.957031	3938.159912
12476.707872	3952.219167	1519.901367	4047.272217
12476.707872	3952.219167	1518.845703	4258.369141
12476.707872	3952.219167	1517.790039	4075.673340
12476.707872	3952.219167	1516.734375	3888.674805
12476.707872	3952.219167	1515.677734	3835.375244
12476.707872	3952.219167	1514.621094	3703.073975
12476.707872	3952.219167	1513.564453	3774.541260
12476.707872	3952.219167	1512.507813	3264.985352
12476.707872	3952.219167	1511.450195	3424.979004
12476.707872	3952.219167	1510.393555	3381.662842
12476.707872	3952.219167	1509.335938	3175.787109
12476.707872	3952.219167	1508.278320	3175.777344
12476.707872	3952.219167	1507.219727	3022.296143
12476.707872	3952.219167	1506.162109	3088.159180
12476.707872	3952.219167	1505.103516	2871.873535
12476.707872	3952.219167	1504.044922	2845.496826
12476.707872	3952.219167	1502.986328	2699.675781
12476.707872	3952.219167	1501.926758	2407.372559
12476.707872	3952.219167	1500.868164	2422.262207
12476.707872	3952.219167	1499.808594	2723.806396
12476.707872	3952.219167	1498.749023	2017.218628
12476.707872	3952.219167	1497.688477	2249.168701
12476.707872	3952.219167	1496.628906	2086.687744
12476.707872	3952.219167	1495.568359	1615.623535
12476.707872	3952.219167	1494.507813	1825.555908
12476.707872	3952.219167	1493.447266	1492.568726
12476.707872	3952.219167	1492.386719	1599.206543
12476.707872	3952.219167	1491.325195	1588.857300
12476.707872	3952.219167	1490.263672	1439.095947
12476.707872	3952.219167	1489.202148	1219.803223
12476.707872	3952.219167	1488.140625	1327.199341
12476.707872	3952.219167	1487.079102	1369.491211
12476.707872	3952.219167	1486.016602	1031.686646
12476.707872	3952.219167	1484.954102	1198.152710
12476.707872	3952.219167	1483.891602	1148.840088
12476.707872	3952.219167	1482.829102	1464.062866
12476.707872	3952.219167	1481.765625	1253.255737
12476.707872	3952.219167	1480.702148	1024.778687
12476.707872	3952.219167	1479.638672	1012.377563
12476.707872	3952.219167	1478.575195	1146.227539
12476.707872	3952.219167	1477.511719	1084.812866
12476.707872	3952.219167	1476.447266	1048.385132
12476.707872	3952.219167	1475.382813	1146.848511
12476.707872	3952.219167	1474.318359	1321.833252
12476.707872	3952.219167	1473.253906	1245.633911
12476.707872	3952.219167	1472.189453	983.496094
12476.707872	3952.219167	1471.124023	1125.397217
12476.707872	3952.219167	1470.058594	1287.617065
12476.707872	3952.219167	1468.993164	1230.256714
12476.707872	3952.219167	1467.927734	1247.065552
12476.707872	3952.219167	1466.861328	1336.055176
12476.707872	3952.219167	1465.794922	1324.047241
12476.707872	3952.219167	1464.728516	1285.533447
12476.707872	3952.219167	1463.662109	1690.276733
12476.707872	3952.219167	1462.594727	1620.287598
12476.707872	3952.219167	1461.528320	1462.311157
12476.707872	3952.219167	1460.460938	1292.724365
12476.707872	3952.219167	1459.393555	1083.486328
12476.707872	3952.219167	1458.326172	1126.934204
12476.707872	3952.219167	1457.257813	1014.136108
12476.707872	3952.219167	1456.189453	797.911621
12476.707872	3952.219167	1455.121094	911.297058
12476.707872	3952.219167	1454.052734	1138.324829
12476.707872	3952.219167	1452.984375	1076.285278
12476.707872	3952.219167	1451.915039	989.659607
12476.707872	3952.219167	1450.845703	1034.598145
12476.707872	3952.219167	1449.776367	1001.236877
12476.707872	3952.219167	1448.707031	1034.170410
12476.707872	3952.219167	1447.636719	1289.736816
12476.707872	3952.219167	1446.567383	1093.558594
12476.707872	3952.219167	1445.497070	769.429749
12476.707872	3952.219167	1444.425781	1009.670349
12476.707872	3952.219167	1443.355469	839.263000
12476.707872	3952.219167	1442.285156	807.684448
12476.707872	3952.219167	1441.213867	772.664612
12476.707872	3952.219167	1440.142578	842.932983
12476.707872	3952.219167	1439.070313	865.954346
12476.707872	3952.219167	1437.999023	1131.149902
12476.707872	3952.219167	1436.926758	1028.149536
12476.707872	3952.219167	1435.854492	875.556641
12476.707872	3952.219167	1434.782227	952.956116
12476.707872	3952.219167	1433.709961	736.956116
12476.707872	3952.219167	1432.636719	842.231812
12476.707872	3952.219167	1431.563477	1004.291809
12476.707872	3952.219167	1430.490234	591.781311
12476.707872	3952.219167	1429.416992	722.679626
12476.707872	3952.219167	1428.343750	690.331177
12476.707872	3952.219167	1427.269531	649.193604
12476.707872	3952.219167	1426.195313	714.318909
12476.707872	3952.219167	1425.121094	656.676514
12476.707872	3952.219167	1424.046875	779.370667
12476.707872	3952.219167	1422.971680	544.732788
12476.707872	3952.219167	1421.896484	572.868713
12476.707872	3952.219167	1420.821289	292.624542
12476.707872	3952.219167	1419.746094	338.483337
12476.707872	3952.219167	1418.669922	205.265930
12476.707872	3952.219167	1417.594727	282.974976
12476.707872	3952.219167	1416.518555	302.488220
12476.707872	3952.219167	1415.442383	439.688904
12476.707872	3952.219167	1414.365234	48.648865
12476.707872	3952.219167	1413.289063	-241.494766
12476.707872	3952.219167	1412.211914	121.882004
12476.707872	3952.219167	1411.134766	62.213951
12476.707872	3952.219167	1410.057617	226.763138
12476.707872	3952.219167	1408.979492	58.462063
12476.707872	3952.219167	1407.902344	260.712555
12476.707872	3952.219167	1406.824219	399.742828
12476.707872	3952.219167	1405.746094	476.431458
12476.707872	3952.219167	1404.666992	515.467834
12476.707872	3952.219167	1403.588867	550.005432
12476.707872	3952.219167	1402.509766	609.128052
12476.707872	3952.219167	1401.430664	474.810822
12476.707872	3952.219167	1400.351563	579.911194
12476.707872	3952.219167	1399.271484	910.813293
12476.707872	3952.219167	1398.192383	1106.337524
12476.707872	3952.219167	1397.112305	716.629089
12476.707872	3952.219167	1396.031250	946.628174
12476.707872	3952.219167	1394.951172	1252.087158
12476.707872	3952.219167	1393.871094	1143.638672
12476.707872	3952.219167	1392.790039	943.355591
12476.707872	3952.219167	1391.708984	1020.833435
12476.707872	3952.219167	1390.626953	1005.510986
12476.707872	3952.219167	1389.545898	1498.739258
12476.707872	3952.219167	1388.463867	1262.657837
12476.707872	3952.219167	1387.381836	1493.517090
12476.707872	3952.219167	1386.299805	1581.076782
12476.707872	3952.219167	1385.217773	1756.621948
12476.707872	3952.219167	1384.134766	1547.282227
12476.707872	3952.219167	1383.051758	1594.670166
12476.707872	3952.219167	1381.968750	1443.625366
12476.707872	3952.219167	1380.885742	1431.684814
12476.707872	3952.219167	1379.802734	1664.162720
12476.707872	3952.219167	1378.718750	1655.894897
12476.707872	3952.219167	1377.634766	1720.029785
12476.707872	3952.219167	1376.550781	1641.475098
12476.707872	3952.219167	1375.465820	1685.169312
12476.707872	3952.219167	1374.381836	1728.445679
12476.707872	3952.219167	1373.296875	1746.263672
12476.707872	3952.219167	1372.211914	2037.689941
12476.707872	3952.219167	1371.126953	2182.163574
12476.707872	3952.219167	1370.041016	2069.274170
12476.707872	3952.219167	1368.955078	2245.172119
12476.707872	3952.219167	1367.869141	2313.643555
12476.707872	3952.219167	1366.783203	2541.412598
12476.707872	3952.219167	1365.697266	2515.539307
12476.707872	3952.219167	1364.610352	2273.404053
12476.707872	3952.219167	1363.523438	2346.424561
12476.707872	3952.219167	1362.436523	2339.033936
12476.707872	3952.219167	1361.349609	2592.608154
12476.707872	3952.219167	1360.261719	2441.015137
12476.707872	3952.219167	1359.174805	2226.330322
12476.707872	3952.219167	1358.086914	2177.407227
12476.707872	3952.219167	1356.998047	2054.026611
12476.707872	3952.219167	1355.910156	2312.926758
12476.707872	3952.219167	1354.821289	2274.394043
12476.707872	3952.219167	1353.732422	2268.240234
12476.707872	3952.219167	1352.643555	2190.421387
12476.707872	3952.219167	1351.554688	2084.387939
12476.707872	3952.219167	1350.464844	2164.976563
12476.707872	3952.219167	1349.375000	2523.706787
12476.707872	3952.219167	1348.285156	2222.261230
12476.707872	3952.219167	1347.195313	2585.086182
12476.707872	3952.219167	1346.105469	2383.723877
12476.707872	3952.219167	1345.014648	2375.646484
12476.707872	3952.219167	1343.923828	2191.251465
12476.707872	3952.219167	1342.833008	2201.303223
12476.707872	3952.219167	1341.741211	2171.864990
12476.707872	3952.219167	1340.650391	2211.697998
12476.707872	3952.219167	1339.558594	1718.547119
12476.707872	3952.219167	1338.466797	1838.331421
12476.707872	3952.219167	1337.374023	1794.253784
12476.707872	3952.219167	1336.282227	1460.337036
12476.707872	3952.219167	1335.189453	1259.478271
12476.707872	3952.219167	1334.096680	1360.925537
12476.707872	3952.219167	1333.003906	1623.388672
12476.707872	3952.219167	1331.910156	1514.227783
12476.707872	3952.219167	1330.817383	1597.810791
12476.707872	3952.219167	1329.723633	1575.365479
12476.707872	3952.219167	1328.629883	1386.781006
12476.707872	3952.219167	1327.535156	1138.537476
12476.707872	3952.219167	1326.441406	1114.106689
12476.707872	3952.219167	1325.346680	1534.278320
12476.707872	3952.219167	1324.251953	1223.948486
12476.707872	3952.219167	1323.156250	1084.262451
12476.707872	3952.219167	1322.061523	1254.281372
12476.707872	3952.219167	1320.965820	1197.820557
12476.707872	3952.219167	1319.870117	1414.570068
12476.707872	3952.219167	1318.774414	1315.389526
12476.707872	3952.219167	1317.678711	1432.553101
12476.707872	3952.219167	1316.582031	1254.917969
12476.707872	3952.219167	1315.485352	1537.251221
12476.707872	3952.219167	1314.388672	1436.363770
12476.707872	3952.219167	1313.291016	1206.016113
12476.707872	3952.219167	1312.194336	1277.673218
12476.707872	3952.219167	1311.096680	1362.230591
12476.707872	3952.219167	1309.999023	1464.223633
12476.707872	3952.219167	1308.901367	1233.183838
12476.707872	3952.219167	1307.802734	1268.886230
12476.707872	3952.219167	1306.705078	1027.531982
12476.707872	3952.219167	1305.606445	976.776489
12476.707872	3952.219167	1304.506836	1005.667419
12476.707872	3952.219167	1303.408203	1114.496460
12476.707872	3952.219167	1302.308594	1281.035278
12476.707872	3952.219167	1301.208984	1109.424927
12476.707872	3952.219167	1300.109375	985.974060
12476.707872	3952.219167	1299.009766	1023.038452
12476.707872	3952.219167	1297.909180	1137.302979
12476.707872	3952.219167	1296.808594	1038.562012
12476.707872	3952.219167	1295.708008	1018.360474
12476.707872	3952.219167	1294.607422	1016.270813
12476.707872	3952.219167	1293.506836	1037.271729
12476.707872	3952.219167	1292.405273	949.439575
12476.707872	3952.219167	1291.303711	1065.944580
12476.707872	3952.219167	1290.202148	884.191162
12476.707872	3952.219167	1289.099609	890.912476
12476.707872	3952.219167	1287.998047	936.515381
12476.707872	3952.219167	1286.895508	1093.562256
12476.707872	3952.219167	1285.792969	968.003357
12476.707872	3952.219167	1284.689453	955.949768
12476.707872	3952.219167	1283.586914	943.089844
12476.707872	3952.219167	1282.483398	1284.442505
12476.707872	3952.219167	1281.379883	1233.507935
12476.707872	3952.219167	1280.276367	1362.366455
12476.707872	3952.219167	1279.171875	1279.119751
12476.707872	3952.219167	1278.067383	1096.250122
12476.707872	3952.219167	1276.962891	853.921509
12476.707872	3952.219167	1275.858398	1159.635742
12476.707872	3952.219167	1274.753906	1152.287109
12476.707872	3952.219167	1273.648438	1128.201294
12476.707872	3952.219167	1272.542969	1040.197144
12476.707872	3952.219167	1271.437500	880.028625
12476.707872	3952.219167	1270.331055	986.222656
12476.707872	3952.219167	1269.225586	1181.640747
12476.707872	3952.219167	1268.119141	1240.712402
12476.707872	3952.219167	1267.012695	1226.328125
12476.707872	3952.219167	1265.906250	911.036377
12476.707872	3952.219167	1264.798828	1202.826050
12476.707872	3952.219167	1263.691406	1121.487549
12476.707872	3952.219167	1262.583984	1011.366089
12476.707872	3952.219167	1261.476563	1165.379517
12476.707872	3952.219167	1260.368164	938.050415
12476.707872	3952.219167	1259.260742	982.082947
12476.707872	3952.219167	1258.152344	866.881897
12476.707872	3952.219167	1257.043945	740.355896
12476.707872	3952.219167	1255.934570	788.596252
12476.707872	3952.219167	1254.825195	797.993652
12476.707872	3952.219167	1253.716797	593.940125
12476.707872	3952.219167	1252.606445	476.640991
12476.707872	3952.219167	1251.497070	399.915619
12476.707872	3952.219167	1250.387695	363.793182
12476.707872	3952.219167	1249.277344	212.205612
12476.707872	3952.219167	1248.166992	297.243866
12476.707872	3952.219167	1247.055664	273.935913
12476.707872	3952.219167	1245.945313	249.107635
12476.707872	3952.219167	1244.833984	46.020439
12476.707872	3952.219167	1243.722656	-12.399291
12476.707872	3952.219167	1242.611328	127.752319
12476.707872	3952.219167	1241.499023	102.964653
12476.707872	3952.219167	1240.387695	31.015596
12476.707872	3952.219167	1239.275391	-0.611655
12476.707872	3952.219167	1238.162109	-242.760971
12476.707872	3952.219167	1237.049805	68.022591
12476.707872	3952.219167	1235.936523	119.373245
12476.707872	3952.219167	1234.823242	-60.213280
12476.707872	3952.219167	1233.709961	-182.674942
12476.707872	3952.219167	1232.596680	-52.988770
12476.707872	3952.219167	1231.482422	-55.137177
12476.707872	3952.219167	1230.369141	-49.230877
12476.707872	3952.219167	1229.253906	-28.471764
12476.707872	3952.219167	1228.139648	-90.865944
12476.707872	3952.219167	1227.025391	-123.895752
12476.707872	3952.219167	1225.910156	-24.861551
12476.707872	3952.219167	1224.794922	-133.530197
12476.707872	3952.219167	1223.679688	54.605614
12476.707872	3952.219167	1222.563477	140.226227
12476.707872	3952.219167	1221.447266	97.433640
12476.707872	3952.219167	1220.331055	143.588684
12476.707872	3952.219167	1219.214844	189.308060
12476.707872	3952.219167	1218.098633	154.819733
12476.707872	3952.219167	1216.981445	83.081741
12476.707872	3952.219167	1215.864258	125.400810
12476.707872	3952.219167	1214.747070	270.391632
12476.707872	3952.219167	1213.629883	246.147476
12476.707872	3952.219167	1212.511719	268.366791
12476.707872	3952.219167	1211.393555	307.442017
12476.707872	3952.219167	1210.275391	450.183105
12476.707872	3952.219167	1209.157227	368.675568
12476.707872	3952.219167	1208.038086	331.192261
12476.707872	3952.219167	1206.918945	645.137085
12476.707872	3952.219167	1205.799805	466.454803
12476.707872	3952.219167	1204.680664	398.994537
12476.707872	3952.219167	1203.560547	599.593811
12476.707872	3952.219167	1202.441406	415.456970
12476.707872	3952.219167	1201.321289	651.972473
12476.707872	3952.219167	1200.200195	628.104736
12476.707872	3952.219167	1199.080078	472.587189
12476.707872	3952.219167	1197.958984	557.574097
12476.707872	3952.219167	1196.837891	501.236664
12476.707872	3952.219167	1195.716797	513.088013
12476.707872	3952.219167	1194.594727	653.223694
12476.707872	3952.219167	1193.473633	703.595703
12476.707872	3952.219167	1192.351563	559.088989
12476.707872	3952.219167	1191.229492	580.538635
12476.707872	3952.219167	1190.106445	801.372375
12476.707872	3952.219167	1188.984375	796.372009
12476.707872	3952.219167	1187.861328	777.311462
12476.707872	3952.219167	1186.738281	652.248352
12476.707872	3952.219167	1185.614258	589.866333
12476.707872	3952.219167	1184.491211	692.947144
12476.707872	3952.219167	1183.367188	525.417053
12476.707872	3952.219167	1182.243164	723.718506
12476.707872	3952.219167	1181.119141	495.952698
12476.707872	3952.219167	1179.994141	490.633209
12476.707872	3952.219167	1178.869141	665.296265
12476.707872	3952.219167	1177.744141	593.545044
12476.707872	3952.219167	1176.619141	607.623108
12476.707872	3952.219167	1175.493164	573.960266
12476.707872	3952.219167	1174.368164	667.371582
12476.707872	3952.219167	1173.242188	582.023560
12476.707872	3952.219167	1172.115234	666.984070
12476.707872	3952.219167	1170.989258	637.312500
12476.707872	3952.219167	1169.862305	742.630310
12476.707872	3952.219167	1168.735352	862.548096
12476.707872	3952.219167	1167.608398	812.469727
12476.707872	3952.219167	1166.481445	892.451538
12476.707872	3952.219167	1165.353516	813.034424
12476.707872	3952.219167	1164.225586	956.344666
12476.707872	3952.219167	1163.097656	872.172974
12476.707872	3952.219167	1161.968750	809.018127
12476.707872	3952.219167	1160.840820	964.221436
12476.707872	3952.219167	1159.711914	935.120605
12476.707872	3952.219167	1158.583008	902.566772
12476.707872	3952.219167	1157.453125	854.318420
12476.707872	3952.219167	1156.324219	663.925171
12476.707872	3952.219167	1155.194336	750.505676
12476.707872	3952.219167	1154.064453	921.435791
12476.707872	3952.219167	1152.933594	607.992249
12476.707872	3952.219167	1151.803711	563.326782
12476.707872	3952.219167	1150.672852	589.735352
12476.707872	3952.219167	1149.541992	486.043304
12476.707872	3952.219167	1148.411133	516.289490
12476.707872	3952.219167	1147.279297	623.662537
12476.707872	3952.219167	1146.147461	485.520203
12476.707872	3952.219167	1145.015625	528.183594
12476.707872	3952.219167	1143.883789	429.796112
12476.707872	3952.219167	1142.750977	401.733734
12476.707872	3952.219167	1141.619141	525.712830
12476.707872	3952.219167	1140.486328	474.208038
12476.707872	3952.219167	1139.352539	360.471039
12476.707872	3952.219167	1138.219727	560.033081
12476.707872	3952.219167	1137.085938	471.291290
12476.707872	3952.219167	1135.952148	476.163666
12476.707872	3952.219167	1134.818359	324.566223
12476.707872	3952.219167	1133.683594	498.571625
12476.707872	3952.219167	1132.549805	442.325317
12476.707872	3952.219167	1131.415039	480.162170
12476.707872	3952.219167	1130.279297	504.203003
12476.707872	3952.219167	1129.144531	569.427795
12476.707872	3952.219167	1128.008789	639.453186
12476.707872	3952.219167	1126.873047	439.536804
12476.707872	3952.219167	1125.737305	415.770477
12476.707872	3952.219167	1124.601563	435.888702
12476.707872	3952.219167	1123.464844	351.240875
12476.707872	3952.219167	1122.328125	290.893616
12476.707872	3952.219167	1121.191406	210.891052
12476.707872	3952.219167	1120.054688	210.584885
12476.707872	3952.219167	1118.916992	247.111237
12476.707872	3952.219167	1117.779297	90.645660
12476.707872	3952.219167	1116.641602	86.792831
12476.707872	3952.219167	1115.503906	89.177986
12476.707872	3952.219167	1114.365234	37.755238
12476.707872	3952.219167	1113.226563	-162.756424
12476.707872	3952.219167	1112.087891	-161.013931
12476.707872	3952.219167	1110.949219	-76.727966
12476.707872	3952.219167	1109.809570	18.070850
12476.707872	3952.219167	1108.669922	-4.297393
12476.707872	3952.219167	1107.530273	-31.654617
12476.707872	3952.219167	1106.390625	145.063004
12476.707872	3952.219167	1105.250000	3.702362
12476.707872	3952.219167	1104.109375	37.477638
12476.707872	3952.219167	1102.968750	23.806244
12476.707872	3952.219167	1101.828125	222.089981
12476.707872	3952.219167	1100.686523	163.802231
12476.707872	3952.219167	1099.544922	257.030823
12476.707872	3952.219167	1098.403320	189.166855
12476.707872	3952.219167	1097.261719	285.343658
12476.707872	3952.219167	1096.120117	365.576385
12476.707872	3952.219167	1094.977539	304.738281
12476.707872	3952.219167	1093.834961	267.339783
12476.707872	3952.219167	1092.691406	283.480408
12476.707872	3952.219167	1091.548828	197.861176
12476.707872	3952.219167	1090.405273	230.381622
12476.707872	3952.219167	1089.261719	321.616302
12476.707872	3952.219167	1088.118164	246.594177
12476.707872	3952.219167	1086.973633	229.649567
12476.707872	3952.219167	1085.829102	295.848694
12476.707872	3952.219167	1084.684570	83.132668
12476.707872	3952.219167	1083.540039	105.716133
12476.707872	3952.219167	1082.395508	147.703354
12476.707872	3952.219167	1081.250000	118.543251
12476.707872	3952.219167	1080.104492	88.861435
12476.707872	3952.219167	1078.958984	159.997604
12476.707872	3952.219167	1077.812500	205.030167
12476.707872	3952.219167	1076.666016	102.939743
12476.707872	3952.219167	1075.519531	179.077789
12476.707872	3952.219167	1074.373047	72.607353
12476.707872	3952.219167	1073.226563	149.051804
12476.707872	3952.219167	1072.079102	212.562119
12476.707872	3952.219167	1070.931641	202.024094
12476.707872	3952.219167	1069.784180	116.446541
12476.707872	3952.219167	1068.635742	116.160675
12476.707872	3952.219167	1067.487305	107.287201
12476.707872	3952.219167	1066.338867	118.957054
12476.707872	3952.219167	1065.190430	63.348080
12476.707872	3952.219167	1064.041992	-21.556213
12476.707872	3952.219167	1062.892578	73.954605
12476.707872	3952.219167	1061.743164	81.150558
12476.707872	3952.219167	1060.593750	113.475212
12476.707872	3952.219167	1059.443359	-22.630985
12476.707872	3952.219167	1058.292969	38.479511
12476.707872	3952.219167	1057.142578	81.271797
12476.707872	3952.219167	1055.992188	39.516659
12476.707872	3952.219167	1054.841797	-14.322720
12476.707872	3952.219167	1053.690430	-82.342728
12476.707872	3952.219167	1052.539063	91.580696
12476.707872	3952.219167	1051.387695	-136.832352
12476.707872	3952.219167	1050.235352	-338.208984
12476.707872	3952.219167	1049.083984	-172.314514
12476.707872	3952.219167	1047.931641	-197.535446
12476.707872	3952.219167	1046.778320	-58.261517
12476.707872	3952.219167	1045.625977	-118.061630
12476.707872	3952.219167	1044.472656	-134.430695
12476.707872	3952.219167	1043.319336	-184.116180
12476.707872	3952.219167	1042.166016	-3.606817
12476.707872	3952.219167	1041.012695	-104.330742
12476.707872	3952.219167	1039.858398	13.817003
12476.707872	3952.219167	1038.704102	-50.662228
12476.707872	3952.219167	1037.549805	-54.691643
12476.707872	3952.219167	1036.394531	-26.587622
12476.707872	3952.219167	1035.239258	-67.773041
12476.707872	3952.219167	1034.083984	107.918816
12476.707872	3952.219167	1032.928711	137.860733
12476.707872	3952.219167	1031.773438	101.156952
12476.707872	3952.219167	1030.617188	161.953232
12476.707872	3952.219167	1029.460938	110.137238
12476.707872	3952.219167	1028.304688	261.932434
12476.707872	3952.219167	1027.147461	230.594467
12476.707872	3952.219167	1025.991211	293.024536
12476.707872	3952.219167	1024.833984	318.139191
12476.707872	3952.219167	1023.675781	448.683960
12476.707872	3952.219167	1022.518555	370.423431
12476.707872	3952.219167	1021.360352	590.525146
12476.707872	3952.219167	1020.202148	272.513123
12476.707872	3952.219167	1019.043945	306.554352
12476.707872	3952.219167	1017.884766	376.852478
12476.707872	3952.219167	1016.726563	229.100739
12476.707872	3952.219167	1015.567383	544.471863
12476.707872	3952.219167	1014.407227	366.861847
12476.707872	3952.219167	1013.248047	449.757141
12476.707872	3952.219167	1012.087891	656.085266
12476.707872	3952.219167	1010.927734	547.615967
12476.707872	3952.219167	1009.767578	505.959778
12476.707872	3952.219167	1008.606445	430.864014
12476.707872	3952.219167	1007.446289	360.446808
12476.707872	3952.219167	1006.285156	447.064697
12476.707872	3952.219167	1005.123047	369.849304
12476.707872	3952.219167	1003.961914	406.781158
12476.707872	3952.219167	1002.799805	453.812561
12476.707872	3952.219167	1001.637695	465.570282
12476.707872	3952.219167	1000.475586	527.666016
12476.707872	3952.219167	999.312500	433.158264
12476.707872	3952.219167	998.149414	472.349274
12476.707872	3952.219167	996.986328	594.500183
12476.707872	3952.219167	995.823242	340.591797
12476.707872	3952.219167	994.659180	474.237823
12476.707872	3952.219167	993.496094	399.455322
12476.707872	3952.219167	992.332031	334.363556
12476.707872	3952.219167	991.166992	407.290649
12476.707872	3952.219167	990.002930	424.145325
12476.707872	3952.219167	988.837891	383.500061
12476.707872	3952.219167	987.672852	407.510254
12476.707872	3952.219167	986.506836	315.809021
12476.707872	3952.219167	985.341797	304.514587
12476.707872	3952.219167	984.175781	558.839661
12476.707872	3952.219167	983.009766	724.680725
12476.707872	3952.219167	981.843750	817.964172
12476.707872	3952.219167	980.676758	744.609436
12476.707872	3952.219167	979.509766	810.652283
12476.707872	3952.219167	978.342773	1057.482910
12476.707872	3952.219167	977.175781	897.422546
12476.707872	3952.219167	976.007813	807.123291
12476.707872	3952.219167	974.839844	1199.456665
12476.707872	3952.219167	973.671875	1305.091187
12476.707872	3952.219167	972.503906	1108.223267
12476.707872	3952.219167	971.334961	1217.137085
12476.707872	3952.219167	970.166016	1266.934448
12476.707872	3952.219167	968.997070	1066.737305
12476.707872	3952.219167	967.828125	1068.656738
12476.707872	3952.219167	966.658203	1029.087036
12476.707872	3952.219167	965.488281	959.656006
12476.707872	3952.219167	964.318359	1087.459229
12476.707872	3952.219167	963.148438	1012.087341
12476.707872	3952.219167	961.977539	995.003540
12476.707872	3952.219167	960.806641	964.978821
12476.707872	3952.219167	959.635742	833.767944
12476.707872	3952.219167	958.463867	968.790649
12476.707872	3952.219167	957.292969	894.960388
12476.707872	3952.219167	956.121094	839.796082
12476.707872	3952.219167	954.948242	820.321716
12476.707872	3952.219167	953.776367	850.989868
12476.707872	3952.219167	952.603516	909.367371
12476.707872	3952.219167	951.430664	851.947205
12476.707872	3952.219167	950.257813	808.102600
12476.707872	3952.219167	949.084961	991.949829
12476.707872	3952.219167	947.911133	834.996277
12476.707872	3952.219167	946.737305	812.233521
12476.707872	3952.219167	945.563477	593.073975
12476.707872	3952.219167	944.388672	547.004028
12476.707872	3952.219167	943.213867	620.362488
12476.707872	3952.219167	942.039063	610.845886
12476.707872	3952.219167	940.864258	569.775757
12476.707872	3952.219167	939.688477	644.608582
12476.707872	3952.219167	938.513672	817.304993
12476.707872	3952.219167	937.337891	816.343018
12476.707872	3952.219167	936.161133	773.170959
12476.707872	3952.219167	934.985352	928.685486
12476.707872	3952.219167	933.808594	895.227478
12476.707872	3952.219167	932.631836	865.698608
12476.707872	3952.219167	931.454102	831.939392
12476.707872	3952.219167	930.277344	981.013855
12476.707872	3952.219167	929.099609	832.408203
12476.707872	3952.219167	927.921875	958.745361
12476.707872	3952.219167	926.743164	925.767822
12476.707872	3952.219167	925.565430	998.731995
12476.707872	3952.219167	924.386719	994.789063
12476.707872	3952.219167	923.208008	781.417236
12476.707872	3952.219167	922.028320	831.640442
12476.707872	3952.219167	920.849609	880.312073
12476.707872	3952.219167	919.669922	885.134033
12476.707872	3952.219167	919.474609	820.852478
12476.707872	3952.219167	918.309570	736.708740
12476.707872	3952.219167	917.143555	677.552490
12476.707872	3952.219167	915.977539	696.324463
12476.707872	3952.219167	914.810547	787.407410
12476.707872	3952.219167	913.644531	620.598450
12476.707872	3952.219167	912.477539	625.036499
12476.707872	3952.219167	911.310547	526.293762
12476.707872	3952.219167	910.143555	548.580627
12476.707872	3952.219167	908.975586	491.390564
12476.707872	3952.219167	907.807617	544.031433
12476.707872	3952.219167	906.639648	702.266357
12476.707872	3952.219167	905.471680	673.904358
12476.707872	3952.219167	904.303711	840.138184
12476.707872	3952.219167	903.134766	771.186462
12476.707872	3952.219167	901.965820	809.185791
12476.707872	3952.219167	900.796875	571.839600
12476.707872	3952.219167	899.626953	576.270630
12476.707872	3952.219167	898.457031	484.713318
12476.707872	3952.219167	897.287109	294.449371
12476.707872	3952.219167	896.117188	549.952881
12476.707872	3952.219167	894.947266	465.047485
12476.707872	3952.219167	893.776367	531.382751
12476.707872	3952.219167	892.605469	615.620361
12476.707872	3952.219167	891.434570	565.107483
12476.707872	3952.219167	890.262695	543.640808
12476.707872	3952.219167	889.091797	422.201477
12476.707872	3952.219167	887.919922	413.037567
12476.707872	3952.219167	886.748047	373.266388
12476.707872	3952.219167	885.575195	422.127625
12476.707872	3952.219167	884.403320	293.459656
12476.707872	3952.219167	883.230469	502.851563
12476.707872	3952.219167	882.057617	361.548035
12476.707872	3952.219167	880.883789	427.971954
12476.707872	3952.219167	879.710938	546.894043
12476.707872	3952.219167	878.537109	510.599945
12476.707872	3952.219167	877.362305	396.705170
12476.707872	3952.219167	876.188477	508.353882
12476.707872	3952.219167	875.013672	492.561829
12476.707872	3952.219167	873.839844	350.793823
12476.707872	3952.219167	872.664063	608.720520
12476.707872	3952.219167	871.489258	466.806946
12476.707872	3952.219167	870.313477	580.640381
12476.707872	3952.219167	869.138672	770.365906
12476.707872	3952.219167	867.962891	661.415405
12476.707872	3952.219167	866.786133	696.124939
12476.707872	3952.219167	865.610352	660.283569
12476.707872	3952.219167	864.433594	513.883240
12476.707872	3952.219167	863.256836	762.394348
12476.707872	3952.219167	862.079102	698.709351
12476.707872	3952.219167	860.902344	731.596313
12476.707872	3952.219167	859.724609	542.208679
12476.707872	3952.219167	858.546875	477.000549
12476.707872	3952.219167	857.368164	422.781067
12476.707872	3952.219167	856.190430	354.721130
12476.707872	3952.219167	855.011719	336.257874
12476.707872	3952.219167	853.833008	476.272339
12476.707872	3952.219167	852.654297	573.433838
12476.707872	3952.219167	851.474609	540.950623
12476.707872	3952.219167	850.294922	363.749756
12476.707872	3952.219167	849.115234	466.186066
12476.707872	3952.219167	847.935547	246.253052
12476.707872	3952.219167	846.754883	227.376480
12476.707872	3952.219167	845.575195	380.526947
12476.707872	3952.219167	844.393555	404.176331
12476.707872	3952.219167	843.212891	371.339691
12476.707872	3952.219167	842.032227	436.140930
12476.707872	3952.219167	840.850586	246.389328
12476.707872	3952.219167	839.668945	124.047546
12476.707872	3952.219167	838.486328	247.814392
12476.707872	3952.219167	837.304688	82.802650
12476.707872	3952.219167	836.122070	203.674332
12476.707872	3952.219167	834.939453	24.896111
12476.707872	3952.219167	833.756836	100.295326
12476.707872	3952.219167	832.573242	104.191658
12476.707872	3952.219167	831.389648	119.025482
12476.707872	3952.219167	830.206055	26.716908
12476.707872	3952.219167	829.022461	114.222130
12476.707872	3952.219167	827.838867	-33.029984
12476.707872	3952.219167	826.654297	-32.079380
12476.707872	3952.219167	825.469727	75.832817
12476.707872	3952.219167	824.284180	32.788647
12476.707872	3952.219167	823.099609	-98.034874
12476.707872	3952.219167	821.914063	-163.038284
12476.707872	3952.219167	820.728516	-170.483139
12476.707872	3952.219167	819.542969	-157.404526
12476.707872	3952.219167	818.356445	-47.089764
12476.707872	3952.219167	817.169922	-130.002502
12476.707872	3952.219167	815.983398	4.846509
12476.707872	3952.219167	814.796875	145.084244
12476.707872	3952.219167	813.609375	286.599976
12476.707872	3952.219167	812.422852	219.985168
12476.707872	3952.219167	811.235352	236.839661
12476.707872	3952.219167	810.046875	428.779510
12476.707872	3952.219167	808.859375	249.922638
12476.707872	3952.219167	807.670898	325.481018
12476.707872	3952.219167	806.482422	279.292816
12476.707872	3952.219167	805.293945	246.769058
12476.707872	3952.219167	804.104492	206.031174
12476.707872	3952.219167	802.915039	330.627319
12476.707872	3952.219167	801.725586	41.199921
12476.707872	3952.219167	800.536133	97.440178
12476.707872	3952.219167	799.345703	55.309238
12476.707872	3952.219167	798.155273	148.342575
12476.707872	3952.219167	796.964844	-18.040119
12476.707872	3952.219167	795.774414	32.623783
12476.707872	3952.219167	794.583008	16.386131
12476.707872	3952.219167	793.392578	-2.588076
12476.707872	3952.219167	792.200195	155.732162
12476.707872	3952.219167	791.008789	-73.297081
12476.707872	3952.219167	789.816406	42.675091
12476.707872	3952.219167	788.625000	-96.304459
12476.707872	3952.219167	787.432617	8.693210
12476.707872	3952.219167	786.239258	-17.168255
12476.707872	3952.219167	785.046875	-86.621284
12476.707872	3952.219167	783.853516	-93.410866
12476.707872	3952.219167	782.660156	-127.443985
12476.707872	3952.219167	781.465820	-146.503082
12476.707872	3952.219167	780.272461	-184.616470
12476.707872	3952.219167	779.078125	-81.205093
12476.707872	3952.219167	777.883789	-90.770676
12476.707872	3952.219167	776.688477	-37.773491
12476.707872	3952.219167	775.494141	41.033489
12476.707872	3952.219167	774.298828	107.559311
12476.707872	3952.219167	773.103516	114.235779
12476.707872	3952.219167	771.907227	81.483376
12476.707872	3952.219167	770.711914	128.910446
12476.707872	3952.219167	769.515625	126.041130
12476.707872	3952.219167	768.318359	56.608162
12476.707872	3952.219167	767.122070	158.304810
12476.707872	3952.219167	765.924805	30.498896
12476.707872	3952.219167	764.727539	39.837944
12476.707872	3952.219167	763.530273	-34.975662
12476.707872	3952.219167	762.333008	-33.780579
12476.707872	3952.219167	761.134766	134.262421
12476.707872	3952.219167	759.936523	-16.496080
12476.707872	3952.219167	758.738281	33.489002
12476.707872	3952.219167	757.540039	-34.498016
12476.707872	3952.219167	756.340820	115.758957
12476.707872	3952.219167	755.141602	28.795986
12476.707872	3952.219167	753.942383	94.964722
12476.707872	3952.219167	752.742188	-17.707291
12476.707872	3952.219167	751.541992	-89.709412
12476.707872	3952.219167	750.341797	31.938839
12476.707872	3952.219167	749.141602	42.524582
12476.707872	3952.219167	747.941406	28.739210
12476.707872	3952.219167	746.740234	124.557434
12476.707872	3952.219167	745.539063	87.747612
12476.707872	3952.219167	744.337891	7.664166
12476.707872	3952.219167	743.135742	42.553230
12476.707872	3952.219167	741.933594	26.044449
12476.707872	3952.219167	740.731445	-31.015629
12476.707872	3952.219167	739.529297	113.313286
12476.707872	3952.219167	738.326172	-104.548935
12476.707872	3952.219167	737.124023	64.038895
12476.707872	3952.219167	735.919922	-71.348862
12476.707872	3952.219167	734.716797	-72.998901
12476.707872	3952.219167	733.513672	42.800575
12476.707872	3952.219167	732.309570	-14.230861
12476.707872	3952.219167	731.105469	-190.001785
12476.707872	3952.219167	729.900391	-197.057327
12476.707872	3952.219167	728.696289	-148.809097
12476.707872	3952.219167	727.491211	-168.023849
12476.707872	3952.219167	726.286133	-94.202003
12476.707872	3952.219167	725.080078	-93.219833
12476.707872	3952.219167	723.874023	-24.857080
12476.707872	3952.219167	722.668945	148.577209
12476.707872	3952.219167	721.461914	22.833784
12476.707872	3952.219167	720.255859	81.669861
12476.707872	3952.219167	719.048828	108.147598
12476.707872	3952.219167	717.841797	185.765518
12476.707872	3952.219167	716.634766	213.531937
12476.707872	3952.219167	715.427734	233.199295
12476.707872	3952.219167	714.219727	129.051300
12476.707872	3952.219167	713.011719	62.600079
12476.707872	3952.219167	711.803711	48.618568
12476.707872	3952.219167	710.594727	11.764393
12476.707872	3952.219167	709.385742	-151.465927
12476.707872	3952.219167	708.176758	72.471954
12476.707872	3952.219167	706.967773	-2.039736
12476.707872	3952.219167	705.758789	77.975945
12476.707872	3952.219167	704.548828	211.668701
12476.707872	3952.219167	703.338867	122.345566
12476.707872	3952.219167	702.127930	149.856384
12476.707872	3952.219167	700.917969	243.119659
12476.707872	3952.219167	699.707031	220.893295
12476.707872	3952.219167	698.496094	240.253845
12476.707872	3952.219167	697.285156	260.926239
12476.707872	3952.219167	696.073242	112.556061
12476.707872	3952.219167	694.861328	43.347836
12476.707872	3952.219167	693.649414	211.460022
12476.707872	3952.219167	692.436523	325.854553
12476.707872	3952.219167	691.224609	421.416870
12476.707872	3952.219167	690.011719	357.457275
12476.707872	3952.219167	688.798828	470.331665
12476.707872	3952.219167	687.584961	656.791870
12476.707872	3952.219167	686.372070	687.814392
12476.707872	3952.219167	685.158203	701.387878
12476.707872	3952.219167	683.943359	598.471497
12476.707872	3952.219167	682.729492	633.408020
12476.707872	3952.219167	681.514648	711.109802
12476.707872	3952.219167	680.299805	676.381165
12476.707872	3952.219167	679.084961	608.199768
12476.707872	3952.219167	677.869141	614.886597
12476.707872	3952.219167	676.653320	883.552490
12476.707872	3952.219167	675.437500	735.068787
12476.707872	3952.219167	674.221680	867.224670
12476.707872	3952.219167	673.004883	955.196289
12476.707872	3952.219167	671.789063	1056.452881
12476.707872	3952.219167	670.571289	1165.632202
12476.707872	3952.219167	669.354492	1143.884766
12476.707872	3952.219167	668.136719	973.933960
12476.707872	3952.219167	666.919922	985.516541
12476.707872	3952.219167	665.701172	1051.749512
12476.707872	3952.219167	664.483398	1020.531921
12476.707872	3952.219167	663.264648	794.554382
12476.707872	3952.219167	662.045898	816.647034
12476.707872	3952.219167	660.827148	673.370422
12476.707872	3952.219167	659.608398	1032.604614
12476.707872	3952.219167	658.388672	890.575317
12476.707872	3952.219167	657.168945	761.879150
12476.707872	3952.219167	655.949219	697.125610
12476.707872	3952.219167	654.728516	704.258057
12476.707872	3952.219167	653.507813	690.031494
12476.707872	3952.219167	652.287109	659.783997
12476.707872	3952.219167	651.066406	537.661133
12476.707872	3952.219167	649.844727	657.705627
12476.707872	3952.219167	648.623047	640.618103
12476.707872	3952.219167	647.401367	682.003174
12476.707872	3952.219167	646.179688	784.482971
12476.707872	3952.219167	644.957031	792.461487
12476.707872	3952.219167	643.734375	745.879700
12476.707872	3952.219167	642.511719	662.045288
12476.707872	3952.219167	641.289063	830.631409
12476.707872	3952.219167	640.065430	653.699829
12476.707872	3952.219167	638.841797	709.198792
12476.707872	3952.219167	637.618164	699.546265
12476.707872	3952.219167	636.393555	746.912598
12476.707872	3952.219167	635.168945	804.810364
12476.707872	3952.219167	633.944336	763.095337
12476.707872	3952.219167	632.719727	628.460938
12476.707872	3952.219167	631.494141	821.435791
12476.707872	3952.219167	630.269531	730.471313
12476.707872	3952.219167	629.042969	961.648499
12476.707872	3952.219167	627.817383	878.502075
12476.707872	3952.219167	626.590820	966.277039
12476.707872	3952.219167	625.365234	985.046509
12476.707872	3952.219167	624.137695	989.153442
12476.707872	3952.219167	622.911133	1052.790649
12476.707872	3952.219167	621.683594	1193.122559
12476.707872	3952.219167	620.456055	1114.879517
12476.707872	3952.219167	619.228516	1286.755127
12476.707872	3952.219167	618.000977	1474.362061
12476.707872	3952.219167	616.772461	1886.723511
12476.707872	3952.219167	615.543945	2239.308350
12476.707872	3952.219167	614.314453	2536.115967
12476.707872	3952.219167	613.085938	2847.267578
12476.707872	3952.219167	611.856445	2871.345947
12476.707872	3952.219167	610.626953	3053.930420
12476.707872	3952.219167	609.397461	2557.177979
12476.707872	3952.219167	608.166992	2192.657227
12476.707872	3952.219167	606.936523	1966.893921
12476.707872	3952.219167	605.706055	1516.655518
12476.707872	3952.219167	604.474609	1330.569092
12476.707872	3952.219167	603.244141	1263.279419
12476.707872	3952.219167	602.012695	1129.946533
12476.707872	3952.219167	600.780273	1249.902954
12476.707872	3952.219167	599.548828	1349.944214
12476.707872	3952.219167	598.316406	1323.244873
12476.707872	3952.219167	597.083984	1545.677002
12476.707872	3952.219167	595.851563	1663.787476
12476.707872	3952.219167	594.618164	1833.156128
12476.707872	3952.219167	593.384766	1986.556030
12476.707872	3952.219167	592.151367	1830.206665
12476.707872	3952.219167	590.917969	1838.483032
12476.707872	3952.219167	589.683594	1774.234497
12476.707872	3952.219167	588.449219	1436.076050
12476.707872	3952.219167	587.214844	1292.789063
12476.707872	3952.219167	585.979492	1231.063477
12476.707872	3952.219167	584.745117	1281.122681
12476.707872	3952.219167	583.509766	1081.127930
12476.707872	3952.219167	582.273438	878.494202
12476.707872	3952.219167	581.038086	849.435486
12476.707872	3952.219167	579.801758	670.427307
12476.707872	3952.219167	578.565430	752.963440
12476.707872	3952.219167	577.329102	747.336182
12476.707872	3952.219167	576.091797	610.238098
12476.707872	3952.219167	574.854492	592.641907
12476.707872	3952.219167	573.617188	468.595673
12476.707872	3952.219167	572.378906	558.519592
12476.707872	3952.219167	571.141602	324.098541
12476.707872	3952.219167	569.903320	302.290771
12476.707872	3952.219167	568.664063	462.781982
12476.707872	3952.219167	567.425781	430.289825
12476.707872	3952.219167	566.186523	426.573914
12476.707872	3952.219167	564.947266	530.298096
12476.707872	3952.219167	563.708008	445.114258
12476.707872	3952.219167	562.467773	433.274292
12476.707872	3952.219167	561.227539	393.838776
12476.707872	3952.219167	559.987305	554.788757
12476.707872	3952.219167	558.747070	405.152283
12476.707872	3952.219167	557.505859	402.163513
12476.707872	3952.219167	556.264648	399.096313
12476.707872	3952.219167	555.023438	241.485580
12476.707872	3952.219167	553.781250	363.925812
12476.707872	3952.219167	552.539063	208.842514
12476.707872	3952.219167	551.296875	274.830200
12476.707872	3952.219167	550.054688	219.078232
12476.707872	3952.219167	548.811523	270.491547
12476.707872	3952.219167	547.569336	245.990387
12476.707872	3952.219167	546.325195	163.897141
12476.707872	3952.219167	545.082031	275.178406
12476.707872	3952.219167	543.837891	317.086487
12476.707872	3952.219167	542.593750	396.786743
12476.707872	3952.219167	541.349609	300.079102
12476.707872	3952.219167	540.105469	469.699951
12476.707872	3952.219167	538.860352	418.560974
12476.707872	3952.219167	537.615234	598.379578
12476.707872	3952.219167	536.369141	590.152405
12476.707872	3952.219167	535.124023	755.377014
12476.707872	3952.219167	533.877930	1037.842407
12476.707872	3952.219167	532.631836	1347.507324
12476.707872	3952.219167	531.384766	1759.962280
12476.707872	3952.219167	530.138672	2127.873047
12476.707872	3952.219167	528.891602	2332.664307
12476.707872	3952.219167	527.643555	2168.588135
12476.707872	3952.219167	526.396484	1887.302979
12476.707872	3952.219167	525.148438	1453.703857
12476.707872	3952.219167	523.900391	917.376099
12476.707872	3952.219167	522.652344	538.739136
12476.707872	3952.219167	521.403320	342.410461
12476.707872	3952.219167	520.154297	-4.821244
12476.707872	3952.219167	518.905273	121.580658
12476.707872	3952.219167	517.656250	-33.054195
12476.707872	3952.219167	516.406250	74.994118
12476.707872	3952.219167	515.156250	-158.967896
12476.707872	3952.219167	513.906250	42.561306
12476.707872	3952.219167	512.655273	-41.939602
12476.707872	3952.219167	511.404297	17.772524
12476.707872	3952.219167	510.153320	17.669970
12476.707872	3952.219167	508.902344	85.062912
12476.707872	3952.219167	507.650391	-61.853230
12476.707872	3952.219167	506.398438	-56.858620
12476.707872	3952.219167	505.146484	-12.961417
12476.707872	3952.219167	503.893555	-98.879341
12476.707872	3952.219167	502.641602	-23.913380
12476.707872	3952.219167	501.388672	117.131256
12476.707872	3952.219167	500.134766	118.033470
12476.707872	3952.219167	498.881836	-36.651211
12476.707872	3952.219167	497.627930	43.306099
12476.707872	3952.219167	496.374023	-51.735966
12476.707872	3952.219167	495.119141	-71.620239
12476.707872	3952.219167	493.865234	-94.092888
12476.707872	3952.219167	492.610352	-68.664421
12476.707872	3952.219167	491.355469	-67.860985
12476.707872	3952.219167	490.099609	-179.701263
12476.707872	3952.219167	488.843750	-217.733871
12476.707872	3952.219167	487.587891	-4.734721
12476.707872	3952.219167	486.332031	99.496872
12476.707872	3952.219167	485.075195	120.891327
12476.707872	3952.219167	483.818359	314.253448
12476.707872	3952.219167	482.561523	286.456635
12476.707872	3952.219167	481.304688	455.135986
12476.707872	3952.219167	480.046875	490.628082
12476.707872	3952.219167	478.789063	922.744324
12476.707872	3952.219167	477.531250	968.455750
12476.707872	3952.219167	476.272461	1080.001953
12476.707872	3952.219167	475.013672	946.185669
12476.707872	3952.219167	473.754883	790.486267
12476.707872	3952.219167	472.496094	668.415588
12476.707872	3952.219167	471.236328	370.911316
12476.707872	3952.219167	469.976563	317.358856
12476.707872	3952.219167	468.716797	348.963013
12476.707872	3952.219167	467.456055	318.656586
12476.707872	3952.219167	466.196289	332.216766
12476.707872	3952.219167	464.935547	463.062897
12476.707872	3952.219167	463.673828	345.143738
12476.707872	3952.219167	462.413086	321.348450
12476.707872	3952.219167	461.151367	443.118683
12476.707872	3952.219167	459.889648	320.164185
12476.707872	3952.219167	458.626953	345.330292
12476.707872	3952.219167	457.364258	326.730774
12476.707872	3952.219167	456.101563	309.438782
12476.707872	3952.219167	454.838867	154.488281
12476.707872	3952.219167	453.575195	108.951782
12476.707872	3952.219167	452.312500	68.600182
12476.707872	3952.219167	451.047852	14.112377
12476.707872	3952.219167	449.784180	22.661705
12476.707872	3952.219167	448.519531	128.888168
12476.707872	3952.219167	447.254883	84.729630
12476.707872	3952.219167	445.990234	4.622468
12476.707872	3952.219167	444.725586	-52.323269
12476.707872	3952.219167	443.459961	30.726582
12476.707872	3952.219167	442.194336	-73.709709
12476.707872	3952.219167	440.927734	-214.051239
12476.707872	3952.219167	439.662109	-60.434063
12476.707872	3952.219167	438.395508	-98.075806
12476.707872	3952.219167	437.127930	72.097382
12476.707872	3952.219167	435.861328	12.625607
12476.707872	3952.219167	434.593750	-59.663422
12476.707872	3952.219167	433.326172	28.311661
12476.707872	3952.219167	432.058594	76.497910
12476.707872	3952.219167	430.790039	186.141632
12476.707872	3952.219167	429.521484	144.539352
12476.707872	3952.219167	428.252930	54.253651
12476.707872	3952.219167	426.984375	138.134964
12476.707872	3952.219167	425.714844	160.478348
12476.707872	3952.219167	424.445313	208.372391
12476.707872	3952.219167	423.174805	478.866425
12476.707872	3952.219167	421.905273	448.525665
12476.707872	3952.219167	420.634766	263.347534
12476.707872	3952.219167	419.364258	263.631592
12476.707872	3952.219167	418.092773	114.235428
12476.707872	3952.219167	416.822266	150.203812
12476.707872	3952.219167	415.550781	104.266083
12476.707872	3952.219167	414.278320	94.029381
12476.707872	3952.219167	413.006836	22.389425
12476.707872	3952.219167	411.734375	-79.986389
12476.707872	3952.219167	410.461914	-113.473343
12476.707872	3952.219167	409.188477	-70.473503
12476.707872	3952.219167	407.916016	5.576987
12476.707872	3952.219167	406.642578	-48.721062
12476.707872	3952.219167	405.368164	126.503433
12476.707872	3952.219167	404.094727	60.417255
12476.707872	3952.219167	402.820313	57.947491
12476.707872	3952.219167	401.545898	19.598577
12476.707872	3952.219167	400.270508	44.802692
12476.707872	3952.219167	398.996094	213.824554
12476.707872	3952.219167	397.720703	111.139206
12476.707872	3952.219167	396.444336	265.594971
12476.707872	3952.219167	395.168945	106.436554
12476.707872	3952.219167	393.892578	134.267426
12476.707872	3952.219167	392.616211	152.908096
12476.707872	3952.219167	391.339844	-89.671547
12476.707872	3952.219167	390.062500	-27.043756
12476.707872	3952.219167	388.785156	53.054352
12476.707872	3952.219167	387.507813	111.164261
12476.707872	3952.219167	386.229492	124.378311
12476.707872	3952.219167	384.951172	73.649750
12476.707872	3952.219167	383.672852	40.357174
12476.707872	3952.219167	382.394531	28.282898
12476.707872	3952.219167	381.115234	161.898468
12476.707872	3952.219167	379.835938	24.433092
12476.707872	3952.219167	378.556641	-14.368966
12476.707872	3952.219167	377.277344	-106.969185
12476.707872	3952.219167	375.997070	-66.750687
12476.707872	3952.219167	374.716797	51.613995
12476.707872	3952.219167	373.435547	119.869354
12476.707872	3952.219167	372.155273	9.919657
12476.707872	3952.219167	370.874023	-32.106697
12476.707872	3952.219167	369.591797	60.929546
12476.707872	3952.219167	368.310547	-22.940985
12476.707872	3952.219167	367.028320	-46.633121
12476.707872	3952.219167	365.746094	32.894024
12476.707872	3952.219167	364.463867	-17.588341
12476.707872	3952.219167	363.180664	-158.777710
12476.707872	3952.219167	361.897461	-333.635193
12476.707872	3952.219167	360.614258	27.620556
12476.707872	3952.219167	359.330078	-141.325851
12476.707872	3952.219167	358.045898	-103.530205
12476.707872	3952.219167	356.761719	-172.976669
12476.707872	3952.219167	355.477539	145.023453
12476.707872	3952.219167	354.192383	-6.131194
12476.707872	3952.219167	352.907227	-9.046391
12476.707872	3952.219167	351.622070	-177.398758
12476.707872	3952.219167	350.336914	7.119420
12476.707872	3952.219167	349.050781	-96.499107
12476.707872	3952.219167	347.764648	-53.454971
12476.707872	3952.219167	346.477539	185.343994
12476.707872	3952.219167	345.191406	103.265350
12476.707872	3952.219167	343.904297	240.808762
12476.707872	3952.219167	342.616211	206.456696
12476.707872	3952.219167	341.329102	308.285278
12476.707872	3952.219167	340.041016	467.854645
12476.707872	3952.219167	338.752930	492.099274
12476.707872	3952.219167	337.463867	257.416626
12476.707872	3952.219167	336.175781	394.480530
12476.707872	3952.219167	334.886719	159.109146
12476.707872	3952.219167	333.596680	107.328995
12476.707872	3952.219167	332.307617	-14.241137
12476.707872	3952.219167	331.017578	288.164886
12476.707872	3952.219167	329.727539	7.841954
12476.707872	3952.219167	328.436523	99.621384
12476.707872	3952.219167	327.146484	-61.192722
12476.707872	3952.219167	325.855469	93.106247
12476.707872	3952.219167	324.563477	102.892082
12476.707872	3952.219167	323.272461	308.013794
12476.707872	3952.219167	321.980469	31.394926
12476.707872	3952.219167	320.688477	-146.883667
12476.707872	3952.219167	319.395508	81.040176
12476.707872	3952.219167	318.103516	101.475136
12476.707872	3952.219167	316.810547	84.029701
12476.707872	3952.219167	315.516602	7.282768
12476.707872	3952.219167	314.223633	-36.966137
12476.707872	3952.219167	312.929688	141.960983
12476.707872	3952.219167	311.635742	91.831390
12476.707872	3952.219167	310.340820	116.458641
12476.707872	3952.219167	309.045898	-20.199198
12476.707872	3952.219167	307.750977	52.075085
12476.707872	3952.219167	306.456055	109.725281
12476.707872	3952.219167	305.160156	-133.413605
12476.707872	3952.219167	303.865234	-50.022663
12476.707872	3952.219167	302.568359	-10.557145
12476.707872	3952.219167	301.272461	-111.346779
12476.707872	3952.219167	299.975586	86.060730
12476.707872	3952.219167	298.678711	-142.779556
