#X		#Y		#Wave		#Intensity
13261.724734	3882.334333	1999.980469	-68.533440
13261.724734	3882.334333	1999.016602	33.933289
13261.724734	3882.334333	1998.052734	-64.871750
13261.724734	3882.334333	1997.087891	42.126896
13261.724734	3882.334333	1996.123047	107.045937
13261.724734	3882.334333	1995.158203	50.635036
13261.724734	3882.334333	1994.193359	-129.518143
13261.724734	3882.334333	1993.228516	99.054497
13261.724734	3882.334333	1992.262695	117.163788
13261.724734	3882.334333	1991.297852	-0.812772
13261.724734	3882.334333	1990.332031	22.386192
13261.724734	3882.334333	1989.366211	35.738476
13261.724734	3882.334333	1988.399414	68.933868
13261.724734	3882.334333	1987.433594	65.069382
13261.724734	3882.334333	1986.466797	43.945972
13261.724734	3882.334333	1985.500977	30.298498
13261.724734	3882.334333	1984.534180	19.174614
13261.724734	3882.334333	1983.567383	10.571212
13261.724734	3882.334333	1982.599609	4.484209
13261.724734	3882.334333	1981.632813	-38.621426
13261.724734	3882.334333	1980.665039	81.367996
13261.724734	3882.334333	1979.697266	55.626678
13261.724734	3882.334333	1978.729492	0.296118
13261.724734	3882.334333	1977.761719	-30.292442
13261.724734	3882.334333	1976.792969	47.773502
13261.724734	3882.334333	1975.825195	-150.580460
13261.724734	3882.334333	1974.856445	-20.647367
13261.724734	3882.334333	1973.887695	30.314274
13261.724734	3882.334333	1972.918945	24.546871
13261.724734	3882.334333	1971.949219	102.653259
13261.724734	3882.334333	1970.980469	106.778519
13261.724734	3882.334333	1970.010742	-64.115250
13261.724734	3882.334333	1969.041016	-74.715134
13261.724734	3882.334333	1968.071289	50.243988
13261.724734	3882.334333	1967.101563	44.583183
13261.724734	3882.334333	1966.130859	26.619545
13261.724734	3882.334333	1965.161133	33.303417
13261.724734	3882.334333	1964.190430	-24.031548
13261.724734	3882.334333	1963.219727	-22.246824
13261.724734	3882.334333	1962.249023	58.316284
13261.724734	3882.334333	1961.277344	131.471939
13261.724734	3882.334333	1960.306641	113.559052
13261.724734	3882.334333	1959.334961	7.087811
13261.724734	3882.334333	1958.363281	23.648321
13261.724734	3882.334333	1957.391602	3.314514
13261.724734	3882.334333	1956.419922	39.543171
13261.724734	3882.334333	1955.447266	56.090591
13261.724734	3882.334333	1954.474609	75.089005
13261.724734	3882.334333	1953.501953	57.215500
13261.724734	3882.334333	1952.529297	-26.994385
13261.724734	3882.334333	1951.556641	1.826706
13261.724734	3882.334333	1950.583984	45.369396
13261.724734	3882.334333	1949.610352	-28.981911
13261.724734	3882.334333	1948.636719	-56.662167
13261.724734	3882.334333	1947.663086	-13.150583
13261.724734	3882.334333	1946.689453	62.243347
13261.724734	3882.334333	1945.715820	-88.152649
13261.724734	3882.334333	1944.741211	-98.657906
13261.724734	3882.334333	1943.767578	-11.050823
13261.724734	3882.334333	1942.792969	34.821819
13261.724734	3882.334333	1941.818359	56.146633
13261.724734	3882.334333	1940.842773	57.840427
13261.724734	3882.334333	1939.868164	-31.168722
13261.724734	3882.334333	1938.892578	-34.383591
13261.724734	3882.334333	1937.916992	-8.207022
13261.724734	3882.334333	1936.941406	81.640594
13261.724734	3882.334333	1935.965820	73.470390
13261.724734	3882.334333	1934.990234	-44.907459
13261.724734	3882.334333	1934.013672	-84.907150
13261.724734	3882.334333	1933.037109	12.177282
13261.724734	3882.334333	1932.060547	-3.371768
13261.724734	3882.334333	1931.083984	10.434172
13261.724734	3882.334333	1930.107422	-5.138577
13261.724734	3882.334333	1929.129883	18.416468
13261.724734	3882.334333	1928.153320	24.828234
13261.724734	3882.334333	1927.175781	-66.585838
13261.724734	3882.334333	1926.198242	35.151417
13261.724734	3882.334333	1925.219727	-80.705711
13261.724734	3882.334333	1924.242188	94.278191
13261.724734	3882.334333	1923.263672	51.721264
13261.724734	3882.334333	1922.285156	1.834454
13261.724734	3882.334333	1921.306641	13.010674
13261.724734	3882.334333	1920.328125	-73.513885
13261.724734	3882.334333	1919.349609	1.117842
13261.724734	3882.334333	1918.370117	-4.851617
13261.724734	3882.334333	1917.391602	84.348679
13261.724734	3882.334333	1916.412109	-148.604446
13261.724734	3882.334333	1915.431641	64.978355
13261.724734	3882.334333	1914.452148	17.463831
13261.724734	3882.334333	1913.472656	11.409240
13261.724734	3882.334333	1912.492188	22.406683
13261.724734	3882.334333	1911.511719	9.003087
13261.724734	3882.334333	1910.531250	90.646660
13261.724734	3882.334333	1909.550781	16.275112
13261.724734	3882.334333	1908.569336	22.317913
13261.724734	3882.334333	1907.588867	91.679001
13261.724734	3882.334333	1906.607422	87.927025
13261.724734	3882.334333	1905.625977	28.149605
13261.724734	3882.334333	1904.644531	0.027398
13261.724734	3882.334333	1903.662109	-45.142754
13261.724734	3882.334333	1902.680664	111.691971
13261.724734	3882.334333	1901.698242	-11.385267
13261.724734	3882.334333	1900.715820	65.062126
13261.724734	3882.334333	1899.733398	-36.104736
13261.724734	3882.334333	1898.750000	28.122097
13261.724734	3882.334333	1897.767578	14.498772
13261.724734	3882.334333	1896.784180	-18.586775
13261.724734	3882.334333	1895.800781	1.795563
13261.724734	3882.334333	1894.817383	19.722000
13261.724734	3882.334333	1893.833984	83.788528
13261.724734	3882.334333	1892.850586	-56.244057
13261.724734	3882.334333	1891.866211	-23.798326
13261.724734	3882.334333	1890.881836	20.759047
13261.724734	3882.334333	1889.897461	-9.982527
13261.724734	3882.334333	1888.913086	46.657425
13261.724734	3882.334333	1887.927734	1.324389
13261.724734	3882.334333	1886.943359	57.905518
13261.724734	3882.334333	1885.958008	51.369209
13261.724734	3882.334333	1884.972656	-6.120349
13261.724734	3882.334333	1883.987305	35.826065
13261.724734	3882.334333	1883.001953	41.368416
13261.724734	3882.334333	1882.015625	27.496330
13261.724734	3882.334333	1881.029297	-27.592730
13261.724734	3882.334333	1880.042969	96.649147
13261.724734	3882.334333	1879.056641	-72.342690
13261.724734	3882.334333	1878.070313	-59.605537
13261.724734	3882.334333	1877.083984	-3.294623
13261.724734	3882.334333	1876.096680	14.232166
13261.724734	3882.334333	1875.109375	31.735128
13261.724734	3882.334333	1874.122070	-54.872116
13261.724734	3882.334333	1873.134766	15.846998
13261.724734	3882.334333	1872.146484	-32.045082
13261.724734	3882.334333	1871.159180	38.609333
13261.724734	3882.334333	1870.170898	97.124519
13261.724734	3882.334333	1869.182617	39.519901
13261.724734	3882.334333	1868.194336	-80.945457
13261.724734	3882.334333	1867.205078	-15.240458
13261.724734	3882.334333	1866.216797	-19.668444
13261.724734	3882.334333	1865.227539	113.629616
13261.724734	3882.334333	1864.238281	-105.888084
13261.724734	3882.334333	1863.249023	24.926682
13261.724734	3882.334333	1862.259766	1.103947
13261.724734	3882.334333	1861.269531	-13.069194
13261.724734	3882.334333	1860.279297	1.717322
13261.724734	3882.334333	1859.290039	79.242126
13261.724734	3882.334333	1858.298828	72.249901
13261.724734	3882.334333	1857.308594	12.160753
13261.724734	3882.334333	1856.318359	65.463142
13261.724734	3882.334333	1855.327148	118.726753
13261.724734	3882.334333	1854.335938	80.314209
13261.724734	3882.334333	1853.344727	32.254799
13261.724734	3882.334333	1852.353516	-54.374119
13261.724734	3882.334333	1851.362305	56.648621
13261.724734	3882.334333	1850.370117	15.796910
13261.724734	3882.334333	1849.377930	-39.512615
13261.724734	3882.334333	1848.385742	13.579381
13261.724734	3882.334333	1847.393555	-63.418842
13261.724734	3882.334333	1846.401367	-12.785170
13261.724734	3882.334333	1845.408203	6.513023
13261.724734	3882.334333	1844.415039	81.148293
13261.724734	3882.334333	1843.421875	-3.096212
13261.724734	3882.334333	1842.428711	54.634659
13261.724734	3882.334333	1841.435547	18.504662
13261.724734	3882.334333	1840.441406	16.041912
13261.724734	3882.334333	1839.448242	-46.555191
13261.724734	3882.334333	1838.454102	90.409042
13261.724734	3882.334333	1837.459961	107.110924
13261.724734	3882.334333	1836.464844	34.860233
13261.724734	3882.334333	1835.470703	104.394531
13261.724734	3882.334333	1834.475586	48.952099
13261.724734	3882.334333	1833.480469	7.924618
13261.724734	3882.334333	1832.485352	38.941372
13261.724734	3882.334333	1831.490234	-21.315622
13261.724734	3882.334333	1830.495117	40.866161
13261.724734	3882.334333	1829.499023	-17.008345
13261.724734	3882.334333	1828.502930	-26.884542
13261.724734	3882.334333	1827.506836	-12.783319
13261.724734	3882.334333	1826.510742	75.658470
13261.724734	3882.334333	1825.513672	48.920528
13261.724734	3882.334333	1824.517578	-47.366413
13261.724734	3882.334333	1823.520508	28.982738
13261.724734	3882.334333	1822.523438	-48.129925
13261.724734	3882.334333	1821.526367	44.926300
13261.724734	3882.334333	1820.529297	101.984261
13261.724734	3882.334333	1819.531250	12.859199
13261.724734	3882.334333	1818.533203	12.371484
13261.724734	3882.334333	1817.535156	81.312447
13261.724734	3882.334333	1816.537109	-15.004868
13261.724734	3882.334333	1815.539063	44.296810
13261.724734	3882.334333	1814.540039	127.486710
13261.724734	3882.334333	1813.541992	74.224274
13261.724734	3882.334333	1812.542969	152.548111
13261.724734	3882.334333	1811.543945	68.156891
13261.724734	3882.334333	1810.543945	187.062897
13261.724734	3882.334333	1809.544922	16.569036
13261.724734	3882.334333	1808.544922	-24.785767
13261.724734	3882.334333	1807.544922	50.976013
13261.724734	3882.334333	1806.544922	-2.365561
13261.724734	3882.334333	1805.544922	99.599686
13261.724734	3882.334333	1804.544922	58.166218
13261.724734	3882.334333	1803.543945	21.498739
13261.724734	3882.334333	1802.542969	6.312904
13261.724734	3882.334333	1801.541992	19.759117
13261.724734	3882.334333	1800.541016	71.369370
13261.724734	3882.334333	1799.539063	137.252609
13261.724734	3882.334333	1798.538086	47.983170
13261.724734	3882.334333	1797.536133	8.820415
13261.724734	3882.334333	1796.534180	136.619522
13261.724734	3882.334333	1795.532227	99.787460
13261.724734	3882.334333	1794.529297	12.867364
13261.724734	3882.334333	1793.527344	28.467022
13261.724734	3882.334333	1792.524414	63.098938
13261.724734	3882.334333	1791.521484	85.775139
13261.724734	3882.334333	1790.518555	72.676033
13261.724734	3882.334333	1789.514648	7.143429
13261.724734	3882.334333	1788.511719	-79.825233
13261.724734	3882.334333	1787.507813	-40.585148
13261.724734	3882.334333	1786.503906	84.320412
13261.724734	3882.334333	1785.500000	52.045712
13261.724734	3882.334333	1784.496094	-20.704199
13261.724734	3882.334333	1783.491211	-17.316668
13261.724734	3882.334333	1782.486328	-28.234537
13261.724734	3882.334333	1781.481445	39.313889
13261.724734	3882.334333	1780.476563	73.512665
13261.724734	3882.334333	1779.471680	-20.725412
13261.724734	3882.334333	1778.465820	70.459724
13261.724734	3882.334333	1777.460938	-85.600182
13261.724734	3882.334333	1776.455078	-39.650341
13261.724734	3882.334333	1775.449219	6.250143
13261.724734	3882.334333	1774.442383	-4.912092
13261.724734	3882.334333	1773.436523	-11.349244
13261.724734	3882.334333	1772.429688	-46.314590
13261.724734	3882.334333	1771.422852	18.410231
13261.724734	3882.334333	1770.416016	-2.372824
13261.724734	3882.334333	1769.409180	21.908226
13261.724734	3882.334333	1768.402344	86.481361
13261.724734	3882.334333	1767.394531	-3.203610
13261.724734	3882.334333	1766.386719	-14.620325
13261.724734	3882.334333	1765.378906	-16.582544
13261.724734	3882.334333	1764.371094	52.547382
13261.724734	3882.334333	1763.362305	102.647842
13261.724734	3882.334333	1762.354492	-44.011726
13261.724734	3882.334333	1761.345703	10.754650
13261.724734	3882.334333	1760.336914	-5.608981
13261.724734	3882.334333	1759.328125	-38.583862
13261.724734	3882.334333	1758.318359	4.194790
13261.724734	3882.334333	1757.308594	-21.745132
13261.724734	3882.334333	1756.299805	39.880505
13261.724734	3882.334333	1755.290039	-97.373596
13261.724734	3882.334333	1754.279297	51.714340
13261.724734	3882.334333	1753.269531	-116.324127
13261.724734	3882.334333	1752.258789	1.881157
13261.724734	3882.334333	1751.249023	-28.990881
13261.724734	3882.334333	1750.238281	72.521568
13261.724734	3882.334333	1749.226563	-17.543297
13261.724734	3882.334333	1748.215820	-17.790520
13261.724734	3882.334333	1747.204102	40.998337
13261.724734	3882.334333	1746.193359	-23.136591
13261.724734	3882.334333	1745.181641	23.737097
13261.724734	3882.334333	1744.168945	30.394657
13261.724734	3882.334333	1743.157227	60.626701
13261.724734	3882.334333	1742.144531	22.332209
13261.724734	3882.334333	1741.132813	-32.509335
13261.724734	3882.334333	1740.120117	9.385913
13261.724734	3882.334333	1739.106445	-78.561768
13261.724734	3882.334333	1738.093750	-98.098480
13261.724734	3882.334333	1737.080078	-42.196949
13261.724734	3882.334333	1736.067383	-50.029144
13261.724734	3882.334333	1735.053711	-53.191734
13261.724734	3882.334333	1734.040039	40.254959
13261.724734	3882.334333	1733.025391	20.484144
13261.724734	3882.334333	1732.011719	47.810287
13261.724734	3882.334333	1730.997070	91.568039
13261.724734	3882.334333	1729.982422	15.129379
13261.724734	3882.334333	1728.967773	-35.419479
13261.724734	3882.334333	1727.952148	5.832268
13261.724734	3882.334333	1726.937500	-65.975769
13261.724734	3882.334333	1725.921875	109.338303
13261.724734	3882.334333	1724.906250	126.865944
13261.724734	3882.334333	1723.890625	125.517113
13261.724734	3882.334333	1722.875000	81.777924
13261.724734	3882.334333	1721.858398	89.746216
13261.724734	3882.334333	1720.841797	45.930378
13261.724734	3882.334333	1719.825195	79.668587
13261.724734	3882.334333	1718.808594	42.827377
13261.724734	3882.334333	1717.791992	-34.001156
13261.724734	3882.334333	1716.774414	110.019630
13261.724734	3882.334333	1715.756836	-6.832596
13261.724734	3882.334333	1714.739258	80.658562
13261.724734	3882.334333	1713.721680	97.615738
13261.724734	3882.334333	1712.704102	-7.574750
13261.724734	3882.334333	1711.685547	56.237995
13261.724734	3882.334333	1710.667969	51.918442
13261.724734	3882.334333	1709.649414	54.584892
13261.724734	3882.334333	1708.630859	134.622055
13261.724734	3882.334333	1707.611328	55.066902
13261.724734	3882.334333	1706.592773	193.603363
13261.724734	3882.334333	1705.573242	135.069382
13261.724734	3882.334333	1704.553711	144.492432
13261.724734	3882.334333	1703.534180	118.702980
13261.724734	3882.334333	1702.513672	181.916504
13261.724734	3882.334333	1701.494141	102.139183
13261.724734	3882.334333	1700.473633	45.760296
13261.724734	3882.334333	1699.453125	157.981171
13261.724734	3882.334333	1698.432617	227.957962
13261.724734	3882.334333	1697.412109	372.774109
13261.724734	3882.334333	1696.390625	224.885529
13261.724734	3882.334333	1695.369141	121.467422
13261.724734	3882.334333	1694.347656	158.426437
13261.724734	3882.334333	1693.326172	216.373627
13261.724734	3882.334333	1692.304688	295.296722
13261.724734	3882.334333	1691.282227	226.806763
13261.724734	3882.334333	1690.260742	275.198608
13261.724734	3882.334333	1689.238281	262.736053
13261.724734	3882.334333	1688.214844	259.567627
13261.724734	3882.334333	1687.192383	277.384491
13261.724734	3882.334333	1686.168945	218.039795
13261.724734	3882.334333	1685.146484	308.161926
13261.724734	3882.334333	1684.123047	302.441498
13261.724734	3882.334333	1683.099609	170.587234
13261.724734	3882.334333	1682.075195	381.884857
13261.724734	3882.334333	1681.051758	275.634338
13261.724734	3882.334333	1680.027344	325.711914
13261.724734	3882.334333	1679.002930	322.055817
13261.724734	3882.334333	1677.978516	262.365814
13261.724734	3882.334333	1676.953125	407.870972
13261.724734	3882.334333	1675.928711	387.721161
13261.724734	3882.334333	1674.903320	388.500916
13261.724734	3882.334333	1673.877930	384.565704
13261.724734	3882.334333	1672.852539	347.954254
13261.724734	3882.334333	1671.826172	446.432983
13261.724734	3882.334333	1670.800781	386.423737
13261.724734	3882.334333	1669.774414	263.493561
13261.724734	3882.334333	1668.748047	410.674469
13261.724734	3882.334333	1667.721680	634.574951
13261.724734	3882.334333	1666.694336	471.932587
13261.724734	3882.334333	1665.667969	416.361969
13261.724734	3882.334333	1664.640625	498.032776
13261.724734	3882.334333	1663.613281	426.082306
13261.724734	3882.334333	1662.585938	428.535583
13261.724734	3882.334333	1661.557617	551.851563
13261.724734	3882.334333	1660.530273	507.676727
13261.724734	3882.334333	1659.501953	498.327240
13261.724734	3882.334333	1658.473633	479.633545
13261.724734	3882.334333	1657.444336	577.070557
13261.724734	3882.334333	1656.416016	695.334839
13261.724734	3882.334333	1655.386719	764.716980
13261.724734	3882.334333	1654.358398	687.724854
13261.724734	3882.334333	1653.328125	870.742371
13261.724734	3882.334333	1652.298828	930.613037
13261.724734	3882.334333	1651.269531	762.956665
13261.724734	3882.334333	1650.239258	894.651367
13261.724734	3882.334333	1649.208984	882.401978
13261.724734	3882.334333	1648.178711	935.056335
13261.724734	3882.334333	1647.148438	848.491760
13261.724734	3882.334333	1646.117188	905.662720
13261.724734	3882.334333	1645.086914	1018.408936
13261.724734	3882.334333	1644.055664	1052.249023
13261.724734	3882.334333	1643.024414	979.428345
13261.724734	3882.334333	1641.992188	1084.981201
13261.724734	3882.334333	1640.960938	988.921570
13261.724734	3882.334333	1639.928711	1054.963623
13261.724734	3882.334333	1638.896484	1185.768311
13261.724734	3882.334333	1637.864258	1216.924683
13261.724734	3882.334333	1636.832031	1261.910400
13261.724734	3882.334333	1635.798828	1316.079712
13261.724734	3882.334333	1634.766602	1384.073364
13261.724734	3882.334333	1633.733398	1408.032471
13261.724734	3882.334333	1632.699219	1492.062012
13261.724734	3882.334333	1631.666016	1481.213135
13261.724734	3882.334333	1630.632813	1622.913818
13261.724734	3882.334333	1629.598633	1806.112549
13261.724734	3882.334333	1628.564453	1845.909790
13261.724734	3882.334333	1627.530273	1966.518677
13261.724734	3882.334333	1626.495117	2234.879150
13261.724734	3882.334333	1625.460938	2362.208008
13261.724734	3882.334333	1624.425781	2500.981445
13261.724734	3882.334333	1623.390625	2533.451904
13261.724734	3882.334333	1622.355469	2759.771973
13261.724734	3882.334333	1621.319336	2965.181152
13261.724734	3882.334333	1620.284180	2958.189697
13261.724734	3882.334333	1619.248047	3216.459473
13261.724734	3882.334333	1618.211914	3384.631592
13261.724734	3882.334333	1617.174805	3384.340332
13261.724734	3882.334333	1616.138672	3446.272461
13261.724734	3882.334333	1615.101563	3600.340820
13261.724734	3882.334333	1614.065430	3957.142090
13261.724734	3882.334333	1613.027344	4150.137695
13261.724734	3882.334333	1611.990234	4283.128418
13261.724734	3882.334333	1610.953125	4482.830566
13261.724734	3882.334333	1609.915039	4668.589355
13261.724734	3882.334333	1608.876953	4775.952637
13261.724734	3882.334333	1607.838867	4936.187012
13261.724734	3882.334333	1606.800781	5317.279785
13261.724734	3882.334333	1605.761719	5237.939941
13261.724734	3882.334333	1604.723633	5407.087402
13261.724734	3882.334333	1603.684570	5378.298828
13261.724734	3882.334333	1602.644531	5354.077148
13261.724734	3882.334333	1601.605469	5256.260742
13261.724734	3882.334333	1600.566406	5471.108887
13261.724734	3882.334333	1599.526367	5529.532227
13261.724734	3882.334333	1598.486328	5516.661133
13261.724734	3882.334333	1597.446289	5457.811523
13261.724734	3882.334333	1596.405273	5472.454102
13261.724734	3882.334333	1595.365234	5882.106445
13261.724734	3882.334333	1594.324219	5931.045410
13261.724734	3882.334333	1593.283203	5532.251953
13261.724734	3882.334333	1592.242188	5712.020020
13261.724734	3882.334333	1591.200195	5735.625000
13261.724734	3882.334333	1590.159180	5841.804199
13261.724734	3882.334333	1589.117188	5718.504395
13261.724734	3882.334333	1588.075195	5521.832031
13261.724734	3882.334333	1587.032227	5579.738770
13261.724734	3882.334333	1585.990234	5529.853027
13261.724734	3882.334333	1584.947266	5518.919922
13261.724734	3882.334333	1583.904297	5251.289551
13261.724734	3882.334333	1582.861328	5235.787598
13261.724734	3882.334333	1581.818359	5300.450684
13261.724734	3882.334333	1580.775391	5188.704102
13261.724734	3882.334333	1579.731445	5134.219727
13261.724734	3882.334333	1578.687500	5033.946777
13261.724734	3882.334333	1577.643555	5137.422363
13261.724734	3882.334333	1576.598633	4842.605469
13261.724734	3882.334333	1575.554688	4831.632324
13261.724734	3882.334333	1574.509766	4596.436523
13261.724734	3882.334333	1573.464844	4683.826660
13261.724734	3882.334333	1572.419922	4711.708008
13261.724734	3882.334333	1571.374023	4504.054199
13261.724734	3882.334333	1570.329102	4518.214844
13261.724734	3882.334333	1569.283203	4351.791992
13261.724734	3882.334333	1568.237305	4496.188965
13261.724734	3882.334333	1567.191406	4357.225586
13261.724734	3882.334333	1566.144531	4234.284180
13261.724734	3882.334333	1565.098633	4433.395508
13261.724734	3882.334333	1564.051758	4429.196289
13261.724734	3882.334333	1563.004883	4614.464355
13261.724734	3882.334333	1561.957031	4457.284668
13261.724734	3882.334333	1560.910156	4375.473633
13261.724734	3882.334333	1559.862305	4492.166016
13261.724734	3882.334333	1558.814453	4661.269043
13261.724734	3882.334333	1557.766602	4675.221680
13261.724734	3882.334333	1556.718750	4609.360352
13261.724734	3882.334333	1555.669922	4520.712402
13261.724734	3882.334333	1554.621094	4614.436035
13261.724734	3882.334333	1553.573242	4897.269531
13261.724734	3882.334333	1552.523438	4863.281250
13261.724734	3882.334333	1551.474609	4715.421875
13261.724734	3882.334333	1550.424805	4843.180176
13261.724734	3882.334333	1549.375000	4923.072266
13261.724734	3882.334333	1548.325195	4570.392578
13261.724734	3882.334333	1547.275391	4582.028809
13261.724734	3882.334333	1546.225586	4152.189453
13261.724734	3882.334333	1545.174805	4122.946289
13261.724734	3882.334333	1544.124023	4030.027832
13261.724734	3882.334333	1543.073242	3898.488770
13261.724734	3882.334333	1542.022461	3726.077881
13261.724734	3882.334333	1540.970703	3440.062744
13261.724734	3882.334333	1539.919922	3588.313721
13261.724734	3882.334333	1538.868164	3236.553223
13261.724734	3882.334333	1537.815430	3187.114502
13261.724734	3882.334333	1536.763672	2912.828125
13261.724734	3882.334333	1535.710938	3067.900635
13261.724734	3882.334333	1534.659180	3157.083740
13261.724734	3882.334333	1533.606445	3289.369873
13261.724734	3882.334333	1532.552734	3094.753662
13261.724734	3882.334333	1531.500000	3376.807617
13261.724734	3882.334333	1530.446289	3574.806152
13261.724734	3882.334333	1529.393555	3489.194336
13261.724734	3882.334333	1528.338867	3682.580566
13261.724734	3882.334333	1527.285156	3798.821045
13261.724734	3882.334333	1526.231445	3892.364502
13261.724734	3882.334333	1525.176758	4090.147217
13261.724734	3882.334333	1524.122070	4158.697754
13261.724734	3882.334333	1523.067383	4322.406738
13261.724734	3882.334333	1522.012695	4311.641602
13261.724734	3882.334333	1520.957031	4661.012695
13261.724734	3882.334333	1519.901367	4847.229004
13261.724734	3882.334333	1518.845703	4813.791016
13261.724734	3882.334333	1517.790039	4954.684570
13261.724734	3882.334333	1516.734375	5111.391602
13261.724734	3882.334333	1515.677734	4976.171387
13261.724734	3882.334333	1514.621094	5270.853027
13261.724734	3882.334333	1513.564453	4864.302734
13261.724734	3882.334333	1512.507813	4792.618164
13261.724734	3882.334333	1511.450195	4639.592285
13261.724734	3882.334333	1510.393555	4805.387695
13261.724734	3882.334333	1509.335938	4668.303711
13261.724734	3882.334333	1508.278320	4167.527832
13261.724734	3882.334333	1507.219727	4093.938721
13261.724734	3882.334333	1506.162109	4065.596680
13261.724734	3882.334333	1505.103516	3694.050049
13261.724734	3882.334333	1504.044922	3543.946289
13261.724734	3882.334333	1502.986328	3369.109131
13261.724734	3882.334333	1501.926758	3386.202148
13261.724734	3882.334333	1500.868164	3193.494141
13261.724734	3882.334333	1499.808594	3048.269775
13261.724734	3882.334333	1498.749023	3072.304688
13261.724734	3882.334333	1497.688477	3010.672607
13261.724734	3882.334333	1496.628906	2764.241943
13261.724734	3882.334333	1495.568359	2943.977051
13261.724734	3882.334333	1494.507813	2727.036621
13261.724734	3882.334333	1493.447266	2404.324707
13261.724734	3882.334333	1492.386719	2408.444336
13261.724734	3882.334333	1491.325195	2399.087158
13261.724734	3882.334333	1490.263672	2389.781982
13261.724734	3882.334333	1489.202148	2182.402588
13261.724734	3882.334333	1488.140625	2173.244629
13261.724734	3882.334333	1487.079102	1986.347046
13261.724734	3882.334333	1486.016602	2132.584229
13261.724734	3882.334333	1484.954102	2002.107300
13261.724734	3882.334333	1483.891602	1900.975952
13261.724734	3882.334333	1482.829102	2135.010498
13261.724734	3882.334333	1481.765625	2078.975342
13261.724734	3882.334333	1480.702148	2198.363525
13261.724734	3882.334333	1479.638672	2084.042480
13261.724734	3882.334333	1478.575195	1929.399536
13261.724734	3882.334333	1477.511719	1752.424683
13261.724734	3882.334333	1476.447266	1562.125000
13261.724734	3882.334333	1475.382813	1672.818359
13261.724734	3882.334333	1474.318359	1514.159668
13261.724734	3882.334333	1473.253906	1483.559692
13261.724734	3882.334333	1472.189453	1338.612549
13261.724734	3882.334333	1471.124023	1297.116455
13261.724734	3882.334333	1470.058594	1141.120605
13261.724734	3882.334333	1468.993164	1131.262573
13261.724734	3882.334333	1467.927734	1168.465088
13261.724734	3882.334333	1466.861328	1185.633911
13261.724734	3882.334333	1465.794922	1427.007935
13261.724734	3882.334333	1464.728516	1385.830444
13261.724734	3882.334333	1463.662109	1161.706665
13261.724734	3882.334333	1462.594727	1241.880249
13261.724734	3882.334333	1461.528320	1340.002930
13261.724734	3882.334333	1460.460938	1478.072388
13261.724734	3882.334333	1459.393555	1594.592773
13261.724734	3882.334333	1458.326172	1685.637695
13261.724734	3882.334333	1457.257813	1571.205200
13261.724734	3882.334333	1456.189453	1631.590942
13261.724734	3882.334333	1455.121094	1721.030518
13261.724734	3882.334333	1454.052734	1750.537598
13261.724734	3882.334333	1452.984375	1755.293701
13261.724734	3882.334333	1451.915039	1633.539185
13261.724734	3882.334333	1450.845703	1772.408081
13261.724734	3882.334333	1449.776367	1788.541260
13261.724734	3882.334333	1448.707031	1911.281616
13261.724734	3882.334333	1447.636719	1757.729370
13261.724734	3882.334333	1446.567383	1607.821899
13261.724734	3882.334333	1445.497070	1514.705078
13261.724734	3882.334333	1444.425781	1499.117798
13261.724734	3882.334333	1443.355469	1437.355835
13261.724734	3882.334333	1442.285156	1190.878784
13261.724734	3882.334333	1441.213867	1335.771606
13261.724734	3882.334333	1440.142578	1372.781250
13261.724734	3882.334333	1439.070313	1179.294556
13261.724734	3882.334333	1437.999023	1273.489624
13261.724734	3882.334333	1436.926758	1321.221802
13261.724734	3882.334333	1435.854492	1465.583130
13261.724734	3882.334333	1434.782227	1401.163574
13261.724734	3882.334333	1433.709961	1476.510498
13261.724734	3882.334333	1432.636719	1415.106323
13261.724734	3882.334333	1431.563477	1352.529053
13261.724734	3882.334333	1430.490234	1493.167725
13261.724734	3882.334333	1429.416992	1618.648071
13261.724734	3882.334333	1428.343750	1519.838623
13261.724734	3882.334333	1427.269531	1438.299438
13261.724734	3882.334333	1426.195313	1383.335083
13261.724734	3882.334333	1425.121094	1334.210571
13261.724734	3882.334333	1424.046875	1171.571899
13261.724734	3882.334333	1422.971680	1233.489746
13261.724734	3882.334333	1421.896484	1182.861328
13261.724734	3882.334333	1420.821289	1280.690674
13261.724734	3882.334333	1419.746094	1177.695923
13261.724734	3882.334333	1418.669922	1175.335327
13261.724734	3882.334333	1417.594727	1164.613892
13261.724734	3882.334333	1416.518555	999.391785
13261.724734	3882.334333	1415.442383	1164.860718
13261.724734	3882.334333	1414.365234	1207.357178
13261.724734	3882.334333	1413.289063	1063.693970
13261.724734	3882.334333	1412.211914	894.905518
13261.724734	3882.334333	1411.134766	836.872375
13261.724734	3882.334333	1410.057617	821.015930
13261.724734	3882.334333	1408.979492	823.347717
13261.724734	3882.334333	1407.902344	726.631958
13261.724734	3882.334333	1406.824219	756.871521
13261.724734	3882.334333	1405.746094	787.259583
13261.724734	3882.334333	1404.666992	870.718811
13261.724734	3882.334333	1403.588867	884.192688
13261.724734	3882.334333	1402.509766	972.383545
13261.724734	3882.334333	1401.430664	1056.557007
13261.724734	3882.334333	1400.351563	1208.687012
13261.724734	3882.334333	1399.271484	1167.166138
13261.724734	3882.334333	1398.192383	946.659363
13261.724734	3882.334333	1397.112305	1235.437134
13261.724734	3882.334333	1396.031250	1225.300415
13261.724734	3882.334333	1394.951172	1333.716919
13261.724734	3882.334333	1393.871094	1266.794434
13261.724734	3882.334333	1392.790039	1254.633301
13261.724734	3882.334333	1391.708984	1441.696289
13261.724734	3882.334333	1390.626953	1343.129883
13261.724734	3882.334333	1389.545898	1407.970703
13261.724734	3882.334333	1388.463867	1330.295898
13261.724734	3882.334333	1387.381836	1457.889404
13261.724734	3882.334333	1386.299805	1349.304932
13261.724734	3882.334333	1385.217773	1469.638428
13261.724734	3882.334333	1384.134766	1431.711548
13261.724734	3882.334333	1383.051758	1578.821045
13261.724734	3882.334333	1381.968750	1418.189941
13261.724734	3882.334333	1380.885742	1393.622070
13261.724734	3882.334333	1379.802734	1601.012329
13261.724734	3882.334333	1378.718750	1441.445435
13261.724734	3882.334333	1377.634766	1463.699707
13261.724734	3882.334333	1376.550781	1562.305542
13261.724734	3882.334333	1375.465820	1481.855591
13261.724734	3882.334333	1374.381836	1606.836304
13261.724734	3882.334333	1373.296875	1449.144897
13261.724734	3882.334333	1372.211914	1467.226929
13261.724734	3882.334333	1371.126953	1201.493652
13261.724734	3882.334333	1370.041016	1362.028809
13261.724734	3882.334333	1368.955078	1203.631592
13261.724734	3882.334333	1367.869141	1153.502441
13261.724734	3882.334333	1366.783203	965.152893
13261.724734	3882.334333	1365.697266	1006.037231
13261.724734	3882.334333	1364.610352	1071.739014
13261.724734	3882.334333	1363.523438	1101.337891
13261.724734	3882.334333	1362.436523	1074.026245
13261.724734	3882.334333	1361.349609	1007.559326
13261.724734	3882.334333	1360.261719	1134.756592
13261.724734	3882.334333	1359.174805	912.442993
13261.724734	3882.334333	1358.086914	1079.250122
13261.724734	3882.334333	1356.998047	1031.678833
13261.724734	3882.334333	1355.910156	1067.192627
13261.724734	3882.334333	1354.821289	1196.057251
13261.724734	3882.334333	1353.732422	1115.298828
13261.724734	3882.334333	1352.643555	1163.856689
13261.724734	3882.334333	1351.554688	1202.096680
13261.724734	3882.334333	1350.464844	1269.489136
13261.724734	3882.334333	1349.375000	1310.099854
13261.724734	3882.334333	1348.285156	1273.181152
13261.724734	3882.334333	1347.195313	1350.626099
13261.724734	3882.334333	1346.105469	1263.107056
13261.724734	3882.334333	1345.014648	1433.982056
13261.724734	3882.334333	1343.923828	1419.723999
13261.724734	3882.334333	1342.833008	1474.567261
13261.724734	3882.334333	1341.741211	1446.414673
13261.724734	3882.334333	1340.650391	1520.958740
13261.724734	3882.334333	1339.558594	1537.595093
13261.724734	3882.334333	1338.466797	1485.699585
13261.724734	3882.334333	1337.374023	1496.343994
13261.724734	3882.334333	1336.282227	1501.869995
13261.724734	3882.334333	1335.189453	1440.711426
13261.724734	3882.334333	1334.096680	1356.357910
13261.724734	3882.334333	1333.003906	1342.864014
13261.724734	3882.334333	1331.910156	1327.110840
13261.724734	3882.334333	1330.817383	1193.851318
13261.724734	3882.334333	1329.723633	1293.573853
13261.724734	3882.334333	1328.629883	1207.250366
13261.724734	3882.334333	1327.535156	1074.819946
13261.724734	3882.334333	1326.441406	1040.980469
13261.724734	3882.334333	1325.346680	997.153564
13261.724734	3882.334333	1324.251953	917.807800
13261.724734	3882.334333	1323.156250	1043.861816
13261.724734	3882.334333	1322.061523	924.802612
13261.724734	3882.334333	1320.965820	804.270508
13261.724734	3882.334333	1319.870117	913.979858
13261.724734	3882.334333	1318.774414	1074.405884
13261.724734	3882.334333	1317.678711	1042.385986
13261.724734	3882.334333	1316.582031	1033.016602
13261.724734	3882.334333	1315.485352	1091.106323
13261.724734	3882.334333	1314.388672	1149.580566
13261.724734	3882.334333	1313.291016	1026.294189
13261.724734	3882.334333	1312.194336	1123.197632
13261.724734	3882.334333	1311.096680	968.306519
13261.724734	3882.334333	1309.999023	1073.052368
13261.724734	3882.334333	1308.901367	1176.184448
13261.724734	3882.334333	1307.802734	951.456848
13261.724734	3882.334333	1306.705078	1102.104736
13261.724734	3882.334333	1305.606445	1033.784546
13261.724734	3882.334333	1304.506836	1071.503052
13261.724734	3882.334333	1303.408203	1083.060059
13261.724734	3882.334333	1302.308594	1275.692383
13261.724734	3882.334333	1301.208984	980.603821
13261.724734	3882.334333	1300.109375	1175.910400
13261.724734	3882.334333	1299.009766	1228.205444
13261.724734	3882.334333	1297.909180	1070.213501
13261.724734	3882.334333	1296.808594	1016.769836
13261.724734	3882.334333	1295.708008	803.361816
13261.724734	3882.334333	1294.607422	748.626831
13261.724734	3882.334333	1293.506836	677.730347
13261.724734	3882.334333	1292.405273	649.326538
13261.724734	3882.334333	1291.303711	554.615601
13261.724734	3882.334333	1290.202148	508.919037
13261.724734	3882.334333	1289.099609	480.080322
13261.724734	3882.334333	1287.998047	302.780304
13261.724734	3882.334333	1286.895508	263.974091
13261.724734	3882.334333	1285.792969	181.152405
13261.724734	3882.334333	1284.689453	143.703354
13261.724734	3882.334333	1283.586914	-2.749038
13261.724734	3882.334333	1282.483398	144.024918
13261.724734	3882.334333	1281.379883	0.622958
13261.724734	3882.334333	1280.276367	19.839262
13261.724734	3882.334333	1279.171875	4.746888
13261.724734	3882.334333	1278.067383	151.936478
13261.724734	3882.334333	1276.962891	-63.242634
13261.724734	3882.334333	1275.858398	-18.467968
13261.724734	3882.334333	1274.753906	38.415951
13261.724734	3882.334333	1273.648438	-25.901764
13261.724734	3882.334333	1272.542969	-74.478836
13261.724734	3882.334333	1271.437500	35.885593
13261.724734	3882.334333	1270.331055	-78.867706
13261.724734	3882.334333	1269.225586	28.777298
13261.724734	3882.334333	1268.119141	-68.478653
13261.724734	3882.334333	1267.012695	59.159840
13261.724734	3882.334333	1265.906250	-12.353948
13261.724734	3882.334333	1264.798828	58.513340
13261.724734	3882.334333	1263.691406	59.562729
13261.724734	3882.334333	1262.583984	173.381760
13261.724734	3882.334333	1261.476563	216.626297
13261.724734	3882.334333	1260.368164	187.219101
13261.724734	3882.334333	1259.260742	77.099251
13261.724734	3882.334333	1258.152344	137.338257
13261.724734	3882.334333	1257.043945	133.633682
13261.724734	3882.334333	1255.934570	176.323532
13261.724734	3882.334333	1254.825195	192.686813
13261.724734	3882.334333	1253.716797	181.181915
13261.724734	3882.334333	1252.606445	157.888000
13261.724734	3882.334333	1251.497070	29.820776
13261.724734	3882.334333	1250.387695	134.507797
13261.724734	3882.334333	1249.277344	82.847946
13261.724734	3882.334333	1248.166992	106.099777
13261.724734	3882.334333	1247.055664	179.957687
13261.724734	3882.334333	1245.945313	111.664902
13261.724734	3882.334333	1244.833984	231.243988
13261.724734	3882.334333	1243.722656	140.700348
13261.724734	3882.334333	1242.611328	183.851379
13261.724734	3882.334333	1241.499023	229.535721
13261.724734	3882.334333	1240.387695	200.930176
13261.724734	3882.334333	1239.275391	235.472336
13261.724734	3882.334333	1238.162109	387.866943
13261.724734	3882.334333	1237.049805	370.839783
13261.724734	3882.334333	1235.936523	505.117767
13261.724734	3882.334333	1234.823242	525.641907
13261.724734	3882.334333	1233.709961	630.059631
13261.724734	3882.334333	1232.596680	623.369995
13261.724734	3882.334333	1231.482422	616.710754
13261.724734	3882.334333	1230.369141	635.279419
13261.724734	3882.334333	1229.253906	793.916382
13261.724734	3882.334333	1228.139648	794.309021
13261.724734	3882.334333	1227.025391	818.460876
13261.724734	3882.334333	1225.910156	827.503601
13261.724734	3882.334333	1224.794922	827.738708
13261.724734	3882.334333	1223.679688	972.507385
13261.724734	3882.334333	1222.563477	1012.144592
13261.724734	3882.334333	1221.447266	939.652222
13261.724734	3882.334333	1220.331055	962.413635
13261.724734	3882.334333	1219.214844	955.410095
13261.724734	3882.334333	1218.098633	859.289978
13261.724734	3882.334333	1216.981445	897.434814
13261.724734	3882.334333	1215.864258	787.094421
13261.724734	3882.334333	1214.747070	795.850281
13261.724734	3882.334333	1213.629883	916.496155
13261.724734	3882.334333	1212.511719	881.488953
13261.724734	3882.334333	1211.393555	990.677368
13261.724734	3882.334333	1210.275391	923.911438
13261.724734	3882.334333	1209.157227	853.166260
13261.724734	3882.334333	1208.038086	911.864380
13261.724734	3882.334333	1206.918945	814.893188
13261.724734	3882.334333	1205.799805	724.123169
13261.724734	3882.334333	1204.680664	587.590820
13261.724734	3882.334333	1203.560547	547.108521
13261.724734	3882.334333	1202.441406	435.288635
13261.724734	3882.334333	1201.321289	380.177856
13261.724734	3882.334333	1200.200195	324.548615
13261.724734	3882.334333	1199.080078	281.605896
13261.724734	3882.334333	1197.958984	410.938477
13261.724734	3882.334333	1196.837891	252.540451
13261.724734	3882.334333	1195.716797	167.270081
13261.724734	3882.334333	1194.594727	211.063400
13261.724734	3882.334333	1193.473633	263.388916
13261.724734	3882.334333	1192.351563	249.917130
13261.724734	3882.334333	1191.229492	249.740128
13261.724734	3882.334333	1190.106445	125.963440
13261.724734	3882.334333	1188.984375	134.356232
13261.724734	3882.334333	1187.861328	80.088615
13261.724734	3882.334333	1186.738281	152.548538
13261.724734	3882.334333	1185.614258	182.754150
13261.724734	3882.334333	1184.491211	226.737259
13261.724734	3882.334333	1183.367188	245.176331
13261.724734	3882.334333	1182.243164	227.677551
13261.724734	3882.334333	1181.119141	246.806259
13261.724734	3882.334333	1179.994141	198.180710
13261.724734	3882.334333	1178.869141	331.514526
13261.724734	3882.334333	1177.744141	391.246094
13261.724734	3882.334333	1176.619141	321.192688
13261.724734	3882.334333	1175.493164	338.942810
13261.724734	3882.334333	1174.368164	393.289948
13261.724734	3882.334333	1173.242188	452.596191
13261.724734	3882.334333	1172.115234	451.016754
13261.724734	3882.334333	1170.989258	584.100037
13261.724734	3882.334333	1169.862305	569.234497
13261.724734	3882.334333	1168.735352	711.813416
13261.724734	3882.334333	1167.608398	840.298157
13261.724734	3882.334333	1166.481445	932.801453
13261.724734	3882.334333	1165.353516	972.772644
13261.724734	3882.334333	1164.225586	955.261230
13261.724734	3882.334333	1163.097656	889.804810
13261.724734	3882.334333	1161.968750	927.227661
13261.724734	3882.334333	1160.840820	792.577820
13261.724734	3882.334333	1159.711914	646.026367
13261.724734	3882.334333	1158.583008	405.951538
13261.724734	3882.334333	1157.453125	392.945129
13261.724734	3882.334333	1156.324219	433.448029
13261.724734	3882.334333	1155.194336	359.599274
13261.724734	3882.334333	1154.064453	275.377411
13261.724734	3882.334333	1152.933594	200.177811
13261.724734	3882.334333	1151.803711	203.275040
13261.724734	3882.334333	1150.672852	223.736267
13261.724734	3882.334333	1149.541992	130.624557
13261.724734	3882.334333	1148.411133	146.878860
13261.724734	3882.334333	1147.279297	207.649353
13261.724734	3882.334333	1146.147461	278.324890
13261.724734	3882.334333	1145.015625	229.939148
13261.724734	3882.334333	1143.883789	298.183563
13261.724734	3882.334333	1142.750977	403.166718
13261.724734	3882.334333	1141.619141	492.488861
13261.724734	3882.334333	1140.486328	567.577515
13261.724734	3882.334333	1139.352539	631.758423
13261.724734	3882.334333	1138.219727	660.967407
13261.724734	3882.334333	1137.085938	713.684082
13261.724734	3882.334333	1135.952148	796.944580
13261.724734	3882.334333	1134.818359	763.922852
13261.724734	3882.334333	1133.683594	773.688599
13261.724734	3882.334333	1132.549805	837.697205
13261.724734	3882.334333	1131.415039	770.246338
13261.724734	3882.334333	1130.279297	736.088806
13261.724734	3882.334333	1129.144531	447.444946
13261.724734	3882.334333	1128.008789	454.848480
13261.724734	3882.334333	1126.873047	444.671844
13261.724734	3882.334333	1125.737305	281.588409
13261.724734	3882.334333	1124.601563	207.463577
13261.724734	3882.334333	1123.464844	178.235977
13261.724734	3882.334333	1122.328125	87.591148
13261.724734	3882.334333	1121.191406	116.260178
13261.724734	3882.334333	1120.054688	6.054738
13261.724734	3882.334333	1118.916992	51.218494
13261.724734	3882.334333	1117.779297	18.316584
13261.724734	3882.334333	1116.641602	27.800825
13261.724734	3882.334333	1115.503906	31.321779
13261.724734	3882.334333	1114.365234	7.990149
13261.724734	3882.334333	1113.226563	79.852234
13261.724734	3882.334333	1112.087891	-19.731903
13261.724734	3882.334333	1110.949219	-17.241076
13261.724734	3882.334333	1109.809570	-58.866505
13261.724734	3882.334333	1108.669922	-50.254284
13261.724734	3882.334333	1107.530273	-45.440090
13261.724734	3882.334333	1106.390625	-8.977146
13261.724734	3882.334333	1105.250000	36.404808
13261.724734	3882.334333	1104.109375	99.941994
13261.724734	3882.334333	1102.968750	234.522858
13261.724734	3882.334333	1101.828125	181.000198
13261.724734	3882.334333	1100.686523	231.027145
13261.724734	3882.334333	1099.544922	259.677094
13261.724734	3882.334333	1098.403320	167.310669
13261.724734	3882.334333	1097.261719	219.154282
13261.724734	3882.334333	1096.120117	306.586609
13261.724734	3882.334333	1094.977539	282.252289
13261.724734	3882.334333	1093.834961	203.482834
13261.724734	3882.334333	1092.691406	197.679062
13261.724734	3882.334333	1091.548828	178.218491
13261.724734	3882.334333	1090.405273	232.716385
13261.724734	3882.334333	1089.261719	197.519669
13261.724734	3882.334333	1088.118164	261.612610
13261.724734	3882.334333	1086.973633	308.885040
13261.724734	3882.334333	1085.829102	180.736359
13261.724734	3882.334333	1084.684570	255.285110
13261.724734	3882.334333	1083.540039	306.167480
13261.724734	3882.334333	1082.395508	258.522034
13261.724734	3882.334333	1081.250000	351.816498
13261.724734	3882.334333	1080.104492	300.120056
13261.724734	3882.334333	1078.958984	220.662369
13261.724734	3882.334333	1077.812500	279.209106
13261.724734	3882.334333	1076.666016	190.985397
13261.724734	3882.334333	1075.519531	259.673126
13261.724734	3882.334333	1074.373047	216.739380
13261.724734	3882.334333	1073.226563	178.738800
13261.724734	3882.334333	1072.079102	263.226318
13261.724734	3882.334333	1070.931641	235.840057
13261.724734	3882.334333	1069.784180	248.851807
13261.724734	3882.334333	1068.635742	269.277435
13261.724734	3882.334333	1067.487305	310.357178
13261.724734	3882.334333	1066.338867	238.098877
13261.724734	3882.334333	1065.190430	250.867874
13261.724734	3882.334333	1064.041992	228.448700
13261.724734	3882.334333	1062.892578	254.238754
13261.724734	3882.334333	1061.743164	289.682526
13261.724734	3882.334333	1060.593750	281.253723
13261.724734	3882.334333	1059.443359	205.574997
13261.724734	3882.334333	1058.292969	195.238220
13261.724734	3882.334333	1057.142578	260.543610
13261.724734	3882.334333	1055.992188	241.543106
13261.724734	3882.334333	1054.841797	239.714905
13261.724734	3882.334333	1053.690430	257.072418
13261.724734	3882.334333	1052.539063	191.187439
13261.724734	3882.334333	1051.387695	238.921051
13261.724734	3882.334333	1050.235352	297.135803
13261.724734	3882.334333	1049.083984	239.355957
13261.724734	3882.334333	1047.931641	239.041733
13261.724734	3882.334333	1046.778320	201.984421
13261.724734	3882.334333	1045.625977	307.462402
13261.724734	3882.334333	1044.472656	240.707001
13261.724734	3882.334333	1043.319336	204.483795
13261.724734	3882.334333	1042.166016	233.153458
13261.724734	3882.334333	1041.012695	170.174072
13261.724734	3882.334333	1039.858398	319.762848
13261.724734	3882.334333	1038.704102	288.759705
13261.724734	3882.334333	1037.549805	260.580780
13261.724734	3882.334333	1036.394531	281.670380
13261.724734	3882.334333	1035.239258	266.441742
13261.724734	3882.334333	1034.083984	273.650085
13261.724734	3882.334333	1032.928711	184.322174
13261.724734	3882.334333	1031.773438	252.376160
13261.724734	3882.334333	1030.617188	220.112228
13261.724734	3882.334333	1029.460938	82.022614
13261.724734	3882.334333	1028.304688	38.903664
13261.724734	3882.334333	1027.147461	163.957458
13261.724734	3882.334333	1025.991211	147.685669
13261.724734	3882.334333	1024.833984	106.465332
13261.724734	3882.334333	1023.675781	62.901932
13261.724734	3882.334333	1022.518555	-26.265322
13261.724734	3882.334333	1021.360352	-19.715223
13261.724734	3882.334333	1020.202148	-12.056376
13261.724734	3882.334333	1019.043945	-17.606853
13261.724734	3882.334333	1017.884766	-15.509090
13261.724734	3882.334333	1016.726563	13.191058
13261.724734	3882.334333	1015.567383	54.584595
13261.724734	3882.334333	1014.407227	-14.797872
13261.724734	3882.334333	1013.248047	-42.074936
13261.724734	3882.334333	1012.087891	11.827129
13261.724734	3882.334333	1010.927734	123.006477
13261.724734	3882.334333	1009.767578	121.657326
13261.724734	3882.334333	1008.606445	154.281738
13261.724734	3882.334333	1007.446289	110.390350
13261.724734	3882.334333	1006.285156	74.845726
13261.724734	3882.334333	1005.123047	115.714455
13261.724734	3882.334333	1003.961914	130.339951
13261.724734	3882.334333	1002.799805	192.396118
13261.724734	3882.334333	1001.637695	198.702515
13261.724734	3882.334333	1000.475586	238.479813
13261.724734	3882.334333	999.312500	249.524475
13261.724734	3882.334333	998.149414	295.753967
13261.724734	3882.334333	996.986328	327.822327
13261.724734	3882.334333	995.823242	290.973755
13261.724734	3882.334333	994.659180	394.264679
13261.724734	3882.334333	993.496094	351.625885
13261.724734	3882.334333	992.332031	351.297638
13261.724734	3882.334333	991.166992	387.699493
13261.724734	3882.334333	990.002930	371.427216
13261.724734	3882.334333	988.837891	404.042236
13261.724734	3882.334333	987.672852	337.813873
13261.724734	3882.334333	986.506836	322.003693
13261.724734	3882.334333	985.341797	319.187836
13261.724734	3882.334333	984.175781	417.727997
13261.724734	3882.334333	983.009766	379.396484
13261.724734	3882.334333	981.843750	346.507416
13261.724734	3882.334333	980.676758	419.511444
13261.724734	3882.334333	979.509766	576.767883
13261.724734	3882.334333	978.342773	699.052734
13261.724734	3882.334333	977.175781	832.281006
13261.724734	3882.334333	976.007813	828.788879
13261.724734	3882.334333	974.839844	863.375366
13261.724734	3882.334333	973.671875	967.251892
13261.724734	3882.334333	972.503906	1012.366638
13261.724734	3882.334333	971.334961	971.951294
13261.724734	3882.334333	970.166016	915.482056
13261.724734	3882.334333	968.997070	996.102844
13261.724734	3882.334333	967.828125	969.415771
13261.724734	3882.334333	966.658203	909.459900
13261.724734	3882.334333	965.488281	816.583801
13261.724734	3882.334333	964.318359	792.330872
13261.724734	3882.334333	963.148438	805.742126
13261.724734	3882.334333	961.977539	669.961792
13261.724734	3882.334333	960.806641	695.067810
13261.724734	3882.334333	959.635742	794.381775
13261.724734	3882.334333	958.463867	852.121399
13261.724734	3882.334333	957.292969	758.165100
13261.724734	3882.334333	956.121094	850.315674
13261.724734	3882.334333	954.948242	824.010681
13261.724734	3882.334333	953.776367	799.903992
13261.724734	3882.334333	952.603516	765.332520
13261.724734	3882.334333	951.430664	557.635132
13261.724734	3882.334333	950.257813	646.374207
13261.724734	3882.334333	949.084961	809.412964
13261.724734	3882.334333	947.911133	880.823730
13261.724734	3882.334333	946.737305	1003.765259
13261.724734	3882.334333	945.563477	1148.510132
13261.724734	3882.334333	944.388672	1439.166260
13261.724734	3882.334333	943.213867	1593.628784
13261.724734	3882.334333	942.039063	1664.472290
13261.724734	3882.334333	940.864258	1695.272461
13261.724734	3882.334333	939.688477	1727.453857
13261.724734	3882.334333	938.513672	1628.147949
13261.724734	3882.334333	937.337891	1435.972656
13261.724734	3882.334333	936.161133	1282.268677
13261.724734	3882.334333	934.985352	1110.805542
13261.724734	3882.334333	933.808594	900.989502
13261.724734	3882.334333	932.631836	684.914734
13261.724734	3882.334333	931.454102	572.736450
13261.724734	3882.334333	930.277344	471.806305
13261.724734	3882.334333	929.099609	490.758118
13261.724734	3882.334333	927.921875	392.960358
13261.724734	3882.334333	926.743164	445.403961
13261.724734	3882.334333	925.565430	532.930664
13261.724734	3882.334333	924.386719	466.964325
13261.724734	3882.334333	923.208008	389.774872
13261.724734	3882.334333	922.028320	464.319489
13261.724734	3882.334333	920.849609	505.242004
13261.724734	3882.334333	919.669922	503.752991
13261.724734	3882.334333	919.474609	724.698364
13261.724734	3882.334333	918.309570	709.565186
13261.724734	3882.334333	917.143555	844.437073
13261.724734	3882.334333	915.977539	1017.504456
13261.724734	3882.334333	914.810547	915.992554
13261.724734	3882.334333	913.644531	1093.656860
13261.724734	3882.334333	912.477539	944.217285
13261.724734	3882.334333	911.310547	896.847961
13261.724734	3882.334333	910.143555	733.059448
13261.724734	3882.334333	908.975586	582.039307
13261.724734	3882.334333	907.807617	585.623535
13261.724734	3882.334333	906.639648	466.466736
13261.724734	3882.334333	905.471680	611.762329
13261.724734	3882.334333	904.303711	613.605286
13261.724734	3882.334333	903.134766	644.063599
13261.724734	3882.334333	901.965820	707.899292
13261.724734	3882.334333	900.796875	672.974548
13261.724734	3882.334333	899.626953	738.280640
13261.724734	3882.334333	898.457031	693.729736
13261.724734	3882.334333	897.287109	548.934509
13261.724734	3882.334333	896.117188	599.786377
13261.724734	3882.334333	894.947266	427.955505
13261.724734	3882.334333	893.776367	365.851471
13261.724734	3882.334333	892.605469	349.829834
13261.724734	3882.334333	891.434570	344.900909
13261.724734	3882.334333	890.262695	284.324524
13261.724734	3882.334333	889.091797	312.696350
13261.724734	3882.334333	887.919922	348.959778
13261.724734	3882.334333	886.748047	389.936859
13261.724734	3882.334333	885.575195	237.178329
13261.724734	3882.334333	884.403320	173.335999
13261.724734	3882.334333	883.230469	247.546143
13261.724734	3882.334333	882.057617	142.409485
13261.724734	3882.334333	880.883789	145.147797
13261.724734	3882.334333	879.710938	143.099136
13261.724734	3882.334333	878.537109	144.190338
13261.724734	3882.334333	877.362305	129.396469
13261.724734	3882.334333	876.188477	125.677803
13261.724734	3882.334333	875.013672	91.822128
13261.724734	3882.334333	873.839844	57.955814
13261.724734	3882.334333	872.664063	117.528053
13261.724734	3882.334333	871.489258	50.359234
13261.724734	3882.334333	870.313477	8.524308
13261.724734	3882.334333	869.138672	85.411781
13261.724734	3882.334333	867.962891	49.870438
13261.724734	3882.334333	866.786133	-12.581933
13261.724734	3882.334333	865.610352	97.415436
13261.724734	3882.334333	864.433594	175.709747
13261.724734	3882.334333	863.256836	220.741913
13261.724734	3882.334333	862.079102	224.625412
13261.724734	3882.334333	860.902344	256.944763
13261.724734	3882.334333	859.724609	191.243073
13261.724734	3882.334333	858.546875	184.014755
13261.724734	3882.334333	857.368164	96.201126
13261.724734	3882.334333	856.190430	95.280090
13261.724734	3882.334333	855.011719	53.283909
13261.724734	3882.334333	853.833008	-7.655520
13261.724734	3882.334333	852.654297	11.918792
13261.724734	3882.334333	851.474609	-12.719650
13261.724734	3882.334333	850.294922	47.842556
13261.724734	3882.334333	849.115234	38.957165
13261.724734	3882.334333	847.935547	-21.983055
13261.724734	3882.334333	846.754883	-84.488586
13261.724734	3882.334333	845.575195	-27.158545
13261.724734	3882.334333	844.393555	30.132708
13261.724734	3882.334333	843.212891	73.211784
13261.724734	3882.334333	842.032227	9.126024
13261.724734	3882.334333	840.850586	80.527496
13261.724734	3882.334333	839.668945	-16.623514
13261.724734	3882.334333	838.486328	94.102623
13261.724734	3882.334333	837.304688	50.502102
13261.724734	3882.334333	836.122070	-38.732738
13261.724734	3882.334333	834.939453	-41.385998
13261.724734	3882.334333	833.756836	-53.481968
13261.724734	3882.334333	832.573242	-84.454361
13261.724734	3882.334333	831.389648	-79.245964
13261.724734	3882.334333	830.206055	-64.607430
13261.724734	3882.334333	829.022461	-45.260353
13261.724734	3882.334333	827.838867	-32.209045
13261.724734	3882.334333	826.654297	-30.165564
13261.724734	3882.334333	825.469727	11.152839
13261.724734	3882.334333	824.284180	0.618812
13261.724734	3882.334333	823.099609	186.391510
13261.724734	3882.334333	821.914063	113.026466
13261.724734	3882.334333	820.728516	133.878418
13261.724734	3882.334333	819.542969	104.503281
13261.724734	3882.334333	818.356445	93.969742
13261.724734	3882.334333	817.169922	33.244061
13261.724734	3882.334333	815.983398	30.579897
13261.724734	3882.334333	814.796875	56.148136
13261.724734	3882.334333	813.609375	87.979347
13261.724734	3882.334333	812.422852	141.750610
13261.724734	3882.334333	811.235352	124.981316
13261.724734	3882.334333	810.046875	98.822083
13261.724734	3882.334333	808.859375	215.234818
13261.724734	3882.334333	807.670898	245.464767
13261.724734	3882.334333	806.482422	166.080124
13261.724734	3882.334333	805.293945	136.833984
13261.724734	3882.334333	804.104492	170.213913
13261.724734	3882.334333	802.915039	140.993881
13261.724734	3882.334333	801.725586	243.218185
13261.724734	3882.334333	800.536133	270.327148
13261.724734	3882.334333	799.345703	314.635254
13261.724734	3882.334333	798.155273	340.172699
13261.724734	3882.334333	796.964844	334.445221
13261.724734	3882.334333	795.774414	411.566895
13261.724734	3882.334333	794.583008	394.908844
13261.724734	3882.334333	793.392578	328.279053
13261.724734	3882.334333	792.200195	397.574768
13261.724734	3882.334333	791.008789	526.199097
13261.724734	3882.334333	789.816406	603.257385
13261.724734	3882.334333	788.625000	669.372070
13261.724734	3882.334333	787.432617	799.457520
13261.724734	3882.334333	786.239258	695.447205
13261.724734	3882.334333	785.046875	677.298218
13261.724734	3882.334333	783.853516	744.951843
13261.724734	3882.334333	782.660156	609.871887
13261.724734	3882.334333	781.465820	470.182800
13261.724734	3882.334333	780.272461	453.708862
13261.724734	3882.334333	779.078125	516.733215
13261.724734	3882.334333	777.883789	606.233154
13261.724734	3882.334333	776.688477	839.023193
13261.724734	3882.334333	775.494141	771.148132
13261.724734	3882.334333	774.298828	807.641602
13261.724734	3882.334333	773.103516	601.275818
13261.724734	3882.334333	771.907227	345.201660
13261.724734	3882.334333	770.711914	237.086090
13261.724734	3882.334333	769.515625	281.499451
13261.724734	3882.334333	768.318359	105.027077
13261.724734	3882.334333	767.122070	193.026398
13261.724734	3882.334333	765.924805	215.698959
13261.724734	3882.334333	764.727539	183.969818
13261.724734	3882.334333	763.530273	147.607544
13261.724734	3882.334333	762.333008	227.817719
13261.724734	3882.334333	761.134766	272.276489
13261.724734	3882.334333	759.936523	276.348999
13261.724734	3882.334333	758.738281	350.316956
13261.724734	3882.334333	757.540039	332.668121
13261.724734	3882.334333	756.340820	367.816956
13261.724734	3882.334333	755.141602	477.460724
13261.724734	3882.334333	753.942383	435.016663
13261.724734	3882.334333	752.742188	367.783203
13261.724734	3882.334333	751.541992	342.470032
13261.724734	3882.334333	750.341797	284.619537
13261.724734	3882.334333	749.141602	277.969910
13261.724734	3882.334333	747.941406	246.538589
13261.724734	3882.334333	746.740234	312.763245
13261.724734	3882.334333	745.539063	189.954727
13261.724734	3882.334333	744.337891	88.899284
13261.724734	3882.334333	743.135742	63.785538
13261.724734	3882.334333	741.933594	116.116684
13261.724734	3882.334333	740.731445	78.653290
13261.724734	3882.334333	739.529297	16.456177
13261.724734	3882.334333	738.326172	-7.016963
13261.724734	3882.334333	737.124023	19.042738
13261.724734	3882.334333	735.919922	72.943573
13261.724734	3882.334333	734.716797	102.094551
13261.724734	3882.334333	733.513672	168.353729
13261.724734	3882.334333	732.309570	273.241516
13261.724734	3882.334333	731.105469	450.736023
13261.724734	3882.334333	729.900391	391.758575
13261.724734	3882.334333	728.696289	457.951752
13261.724734	3882.334333	727.491211	366.587677
13261.724734	3882.334333	726.286133	323.143097
13261.724734	3882.334333	725.080078	302.884369
13261.724734	3882.334333	723.874023	293.450745
13261.724734	3882.334333	722.668945	135.884659
13261.724734	3882.334333	721.461914	52.450459
13261.724734	3882.334333	720.255859	27.680906
13261.724734	3882.334333	719.048828	-3.238969
13261.724734	3882.334333	717.841797	-4.840096
13261.724734	3882.334333	716.634766	5.901801
13261.724734	3882.334333	715.427734	-80.452637
13261.724734	3882.334333	714.219727	-46.569969
13261.724734	3882.334333	713.011719	-78.940430
13261.724734	3882.334333	711.803711	19.636490
13261.724734	3882.334333	710.594727	48.878254
13261.724734	3882.334333	709.385742	7.289954
13261.724734	3882.334333	708.176758	85.793755
13261.724734	3882.334333	706.967773	122.717331
13261.724734	3882.334333	705.758789	128.857117
13261.724734	3882.334333	704.548828	-14.224733
13261.724734	3882.334333	703.338867	-32.660141
13261.724734	3882.334333	702.127930	65.782005
13261.724734	3882.334333	700.917969	75.018661
13261.724734	3882.334333	699.707031	110.383125
13261.724734	3882.334333	698.496094	199.521744
13261.724734	3882.334333	697.285156	99.643715
13261.724734	3882.334333	696.073242	110.407646
13261.724734	3882.334333	694.861328	107.345825
13261.724734	3882.334333	693.649414	79.718468
13261.724734	3882.334333	692.436523	39.819912
13261.724734	3882.334333	691.224609	1.474489
13261.724734	3882.334333	690.011719	27.591177
13261.724734	3882.334333	688.798828	92.049896
13261.724734	3882.334333	687.584961	35.303143
13261.724734	3882.334333	686.372070	-38.289349
13261.724734	3882.334333	685.158203	-45.927757
13261.724734	3882.334333	683.943359	-35.173920
13261.724734	3882.334333	682.729492	24.615095
13261.724734	3882.334333	681.514648	96.630203
13261.724734	3882.334333	680.299805	4.694171
13261.724734	3882.334333	679.084961	56.761269
13261.724734	3882.334333	677.869141	130.235870
13261.724734	3882.334333	676.653320	209.795944
13261.724734	3882.334333	675.437500	240.334991
13261.724734	3882.334333	674.221680	136.186157
13261.724734	3882.334333	673.004883	107.039444
13261.724734	3882.334333	671.789063	165.088348
13261.724734	3882.334333	670.571289	120.633194
13261.724734	3882.334333	669.354492	198.509476
13261.724734	3882.334333	668.136719	251.881149
13261.724734	3882.334333	666.919922	111.116814
13261.724734	3882.334333	665.701172	89.583832
13261.724734	3882.334333	664.483398	194.850235
13261.724734	3882.334333	663.264648	109.131409
13261.724734	3882.334333	662.045898	63.138622
13261.724734	3882.334333	660.827148	153.032440
13261.724734	3882.334333	659.608398	-37.991425
13261.724734	3882.334333	658.388672	64.061844
13261.724734	3882.334333	657.168945	80.611092
13261.724734	3882.334333	655.949219	223.750473
13261.724734	3882.334333	654.728516	69.406181
13261.724734	3882.334333	653.507813	143.832779
13261.724734	3882.334333	652.287109	196.866623
13261.724734	3882.334333	651.066406	214.802109
13261.724734	3882.334333	649.844727	127.562439
13261.724734	3882.334333	648.623047	160.698395
13261.724734	3882.334333	647.401367	196.846176
13261.724734	3882.334333	646.179688	115.694466
13261.724734	3882.334333	644.957031	208.126617
13261.724734	3882.334333	643.734375	174.149811
13261.724734	3882.334333	642.511719	330.405884
13261.724734	3882.334333	641.289063	238.550079
13261.724734	3882.334333	640.065430	371.857574
13261.724734	3882.334333	638.841797	439.682587
13261.724734	3882.334333	637.618164	369.075378
13261.724734	3882.334333	636.393555	391.210022
13261.724734	3882.334333	635.168945	443.709351
13261.724734	3882.334333	633.944336	389.782379
13261.724734	3882.334333	632.719727	351.044891
13261.724734	3882.334333	631.494141	400.398407
13261.724734	3882.334333	630.269531	376.807098
13261.724734	3882.334333	629.042969	505.031586
13261.724734	3882.334333	627.817383	479.850464
13261.724734	3882.334333	626.590820	512.323547
13261.724734	3882.334333	625.365234	538.685242
13261.724734	3882.334333	624.137695	492.180786
13261.724734	3882.334333	622.911133	738.406494
13261.724734	3882.334333	621.683594	773.706665
13261.724734	3882.334333	620.456055	757.412537
13261.724734	3882.334333	619.228516	730.483276
13261.724734	3882.334333	618.000977	659.584106
13261.724734	3882.334333	616.772461	682.621277
13261.724734	3882.334333	615.543945	735.913025
13261.724734	3882.334333	614.314453	880.018921
13261.724734	3882.334333	613.085938	989.206665
13261.724734	3882.334333	611.856445	1012.020508
13261.724734	3882.334333	610.626953	1154.362305
13261.724734	3882.334333	609.397461	1231.541382
13261.724734	3882.334333	608.166992	1292.008545
13261.724734	3882.334333	606.936523	1355.440918
13261.724734	3882.334333	605.706055	1219.191528
13261.724734	3882.334333	604.474609	990.733826
13261.724734	3882.334333	603.244141	918.039307
13261.724734	3882.334333	602.012695	774.307129
13261.724734	3882.334333	600.780273	778.674866
13261.724734	3882.334333	599.548828	755.816711
13261.724734	3882.334333	598.316406	788.813232
13261.724734	3882.334333	597.083984	779.480164
13261.724734	3882.334333	595.851563	842.581299
13261.724734	3882.334333	594.618164	854.298584
13261.724734	3882.334333	593.384766	651.689209
13261.724734	3882.334333	592.151367	624.144409
13261.724734	3882.334333	590.917969	563.391235
13261.724734	3882.334333	589.683594	531.279663
13261.724734	3882.334333	588.449219	380.032166
13261.724734	3882.334333	587.214844	311.724518
13261.724734	3882.334333	585.979492	247.929337
13261.724734	3882.334333	584.745117	259.470581
13261.724734	3882.334333	583.509766	213.722809
13261.724734	3882.334333	582.273438	2.277985
13261.724734	3882.334333	581.038086	110.132645
13261.724734	3882.334333	579.801758	23.691063
13261.724734	3882.334333	578.565430	20.039331
13261.724734	3882.334333	577.329102	-82.966782
13261.724734	3882.334333	576.091797	-35.508610
13261.724734	3882.334333	574.854492	-76.853912
13261.724734	3882.334333	573.617188	-46.025764
13261.724734	3882.334333	572.378906	-94.936699
13261.724734	3882.334333	571.141602	-140.848618
13261.724734	3882.334333	569.903320	-74.053497
13261.724734	3882.334333	568.664063	-2.813414
13261.724734	3882.334333	567.425781	24.802572
13261.724734	3882.334333	566.186523	50.871304
13261.724734	3882.334333	564.947266	63.384186
13261.724734	3882.334333	563.708008	27.819796
13261.724734	3882.334333	562.467773	158.853745
13261.724734	3882.334333	561.227539	22.676310
13261.724734	3882.334333	559.987305	20.065451
13261.724734	3882.334333	558.747070	125.434906
13261.724734	3882.334333	557.505859	181.237640
13261.724734	3882.334333	556.264648	175.514221
13261.724734	3882.334333	555.023438	216.241913
13261.724734	3882.334333	553.781250	165.498215
13261.724734	3882.334333	552.539063	123.744232
13261.724734	3882.334333	551.296875	56.516865
13261.724734	3882.334333	550.054688	-43.654739
13261.724734	3882.334333	548.811523	64.345535
13261.724734	3882.334333	547.569336	57.000378
13261.724734	3882.334333	546.325195	64.600815
13261.724734	3882.334333	545.082031	6.335144
13261.724734	3882.334333	543.837891	-19.009041
13261.724734	3882.334333	542.593750	55.867531
13261.724734	3882.334333	541.349609	-59.243153
13261.724734	3882.334333	540.105469	-12.829345
13261.724734	3882.334333	538.860352	-36.715263
13261.724734	3882.334333	537.615234	9.644591
13261.724734	3882.334333	536.369141	2.174571
13261.724734	3882.334333	535.124023	70.894905
13261.724734	3882.334333	533.877930	33.522892
13261.724734	3882.334333	532.631836	72.319481
13261.724734	3882.334333	531.384766	76.749619
13261.724734	3882.334333	530.138672	197.607086
13261.724734	3882.334333	528.891602	222.892441
13261.724734	3882.334333	527.643555	264.572205
13261.724734	3882.334333	526.396484	292.810364
13261.724734	3882.334333	525.148438	401.568939
13261.724734	3882.334333	523.900391	475.986481
13261.724734	3882.334333	522.652344	469.871399
13261.724734	3882.334333	521.403320	501.019806
13261.724734	3882.334333	520.154297	670.742676
13261.724734	3882.334333	518.905273	597.557007
13261.724734	3882.334333	517.656250	694.213989
13261.724734	3882.334333	516.406250	845.933350
13261.724734	3882.334333	515.156250	918.688171
13261.724734	3882.334333	513.906250	957.186279
13261.724734	3882.334333	512.655273	907.870972
13261.724734	3882.334333	511.404297	991.014709
13261.724734	3882.334333	510.153320	1093.477295
13261.724734	3882.334333	508.902344	1185.501343
13261.724734	3882.334333	507.650391	1338.465210
13261.724734	3882.334333	506.398438	1269.875854
13261.724734	3882.334333	505.146484	1125.535278
13261.724734	3882.334333	503.893555	1131.360718
13261.724734	3882.334333	502.641602	1220.408936
13261.724734	3882.334333	501.388672	1236.658691
13261.724734	3882.334333	500.134766	1340.541382
13261.724734	3882.334333	498.881836	1248.430542
13261.724734	3882.334333	497.627930	1122.243896
13261.724734	3882.334333	496.374023	889.289978
13261.724734	3882.334333	495.119141	755.877625
13261.724734	3882.334333	493.865234	744.202087
13261.724734	3882.334333	492.610352	711.799927
13261.724734	3882.334333	491.355469	864.798401
13261.724734	3882.334333	490.099609	787.982910
13261.724734	3882.334333	488.843750	850.563599
13261.724734	3882.334333	487.587891	799.057373
13261.724734	3882.334333	486.332031	815.765930
13261.724734	3882.334333	485.075195	727.343567
13261.724734	3882.334333	483.818359	893.716309
13261.724734	3882.334333	482.561523	898.683472
13261.724734	3882.334333	481.304688	770.475769
13261.724734	3882.334333	480.046875	701.566345
13261.724734	3882.334333	478.789063	640.136047
13261.724734	3882.334333	477.531250	490.027405
13261.724734	3882.334333	476.272461	490.888397
13261.724734	3882.334333	475.013672	400.128143
13261.724734	3882.334333	473.754883	340.508026
13261.724734	3882.334333	472.496094	366.694641
13261.724734	3882.334333	471.236328	388.492828
13261.724734	3882.334333	469.976563	382.270813
13261.724734	3882.334333	468.716797	500.183838
13261.724734	3882.334333	467.456055	430.559723
13261.724734	3882.334333	466.196289	583.969238
13261.724734	3882.334333	464.935547	495.293152
13261.724734	3882.334333	463.673828	549.867249
13261.724734	3882.334333	462.413086	532.187256
13261.724734	3882.334333	461.151367	744.699890
13261.724734	3882.334333	459.889648	725.639709
13261.724734	3882.334333	458.626953	1014.823303
13261.724734	3882.334333	457.364258	857.271179
13261.724734	3882.334333	456.101563	916.513000
13261.724734	3882.334333	454.838867	928.644287
13261.724734	3882.334333	453.575195	837.710022
13261.724734	3882.334333	452.312500	788.126831
13261.724734	3882.334333	451.047852	637.021301
13261.724734	3882.334333	449.784180	578.804993
13261.724734	3882.334333	448.519531	489.769165
13261.724734	3882.334333	447.254883	486.195465
13261.724734	3882.334333	445.990234	445.908813
13261.724734	3882.334333	444.725586	251.252518
13261.724734	3882.334333	443.459961	192.048630
13261.724734	3882.334333	442.194336	265.270477
13261.724734	3882.334333	440.927734	210.631104
13261.724734	3882.334333	439.662109	310.403900
13261.724734	3882.334333	438.395508	327.909943
13261.724734	3882.334333	437.127930	576.117554
13261.724734	3882.334333	435.861328	630.403442
13261.724734	3882.334333	434.593750	603.960632
13261.724734	3882.334333	433.326172	858.002991
13261.724734	3882.334333	432.058594	869.803772
13261.724734	3882.334333	430.790039	872.849243
13261.724734	3882.334333	429.521484	927.298828
13261.724734	3882.334333	428.252930	970.042664
13261.724734	3882.334333	426.984375	874.962646
13261.724734	3882.334333	425.714844	944.188110
13261.724734	3882.334333	424.445313	940.133179
13261.724734	3882.334333	423.174805	1066.559570
13261.724734	3882.334333	421.905273	809.069031
13261.724734	3882.334333	420.634766	765.609375
13261.724734	3882.334333	419.364258	798.363464
13261.724734	3882.334333	418.092773	629.054688
13261.724734	3882.334333	416.822266	644.311157
13261.724734	3882.334333	415.550781	524.922363
13261.724734	3882.334333	414.278320	383.651337
13261.724734	3882.334333	413.006836	491.174988
13261.724734	3882.334333	411.734375	420.205719
13261.724734	3882.334333	410.461914	483.813660
13261.724734	3882.334333	409.188477	506.452820
13261.724734	3882.334333	407.916016	583.161926
13261.724734	3882.334333	406.642578	623.287659
13261.724734	3882.334333	405.368164	676.527100
13261.724734	3882.334333	404.094727	713.650208
13261.724734	3882.334333	402.820313	711.290833
13261.724734	3882.334333	401.545898	762.921997
13261.724734	3882.334333	400.270508	737.110413
13261.724734	3882.334333	398.996094	844.079163
13261.724734	3882.334333	397.720703	926.132446
13261.724734	3882.334333	396.444336	1110.205444
13261.724734	3882.334333	395.168945	1167.223633
13261.724734	3882.334333	393.892578	1262.045776
13261.724734	3882.334333	392.616211	1417.967529
13261.724734	3882.334333	391.339844	1703.448730
13261.724734	3882.334333	390.062500	1652.043213
13261.724734	3882.334333	388.785156	1773.922241
13261.724734	3882.334333	387.507813	1862.109009
13261.724734	3882.334333	386.229492	1721.455688
13261.724734	3882.334333	384.951172	1678.263428
13261.724734	3882.334333	383.672852	1601.437622
13261.724734	3882.334333	382.394531	1426.949585
13261.724734	3882.334333	381.115234	1261.071289
13261.724734	3882.334333	379.835938	1092.148071
13261.724734	3882.334333	378.556641	1056.891479
13261.724734	3882.334333	377.277344	906.534607
13261.724734	3882.334333	375.997070	805.421875
13261.724734	3882.334333	374.716797	837.815674
13261.724734	3882.334333	373.435547	739.120300
13261.724734	3882.334333	372.155273	689.573975
13261.724734	3882.334333	370.874023	694.931763
13261.724734	3882.334333	369.591797	769.662476
13261.724734	3882.334333	368.310547	650.905273
13261.724734	3882.334333	367.028320	594.250671
13261.724734	3882.334333	365.746094	363.075470
13261.724734	3882.334333	364.463867	404.387909
13261.724734	3882.334333	363.180664	303.083954
13261.724734	3882.334333	361.897461	289.852539
13261.724734	3882.334333	360.614258	281.960815
13261.724734	3882.334333	359.330078	234.434158
13261.724734	3882.334333	358.045898	189.316055
13261.724734	3882.334333	356.761719	200.199402
13261.724734	3882.334333	355.477539	46.804855
13261.724734	3882.334333	354.192383	176.790695
13261.724734	3882.334333	352.907227	248.184586
13261.724734	3882.334333	351.622070	252.311584
13261.724734	3882.334333	350.336914	281.831909
13261.724734	3882.334333	349.050781	397.475159
13261.724734	3882.334333	347.764648	413.960358
13261.724734	3882.334333	346.477539	393.515869
13261.724734	3882.334333	345.191406	284.093079
13261.724734	3882.334333	343.904297	319.941711
13261.724734	3882.334333	342.616211	233.487961
13261.724734	3882.334333	341.329102	211.254211
13261.724734	3882.334333	340.041016	143.315918
13261.724734	3882.334333	338.752930	21.014917
13261.724734	3882.334333	337.463867	136.101807
13261.724734	3882.334333	336.175781	102.848564
13261.724734	3882.334333	334.886719	33.896584
13261.724734	3882.334333	333.596680	36.042770
13261.724734	3882.334333	332.307617	-9.097675
13261.724734	3882.334333	331.017578	-45.301777
13261.724734	3882.334333	329.727539	-112.988342
13261.724734	3882.334333	328.436523	-44.906746
13261.724734	3882.334333	327.146484	52.156548
13261.724734	3882.334333	325.855469	98.807144
13261.724734	3882.334333	324.563477	246.360107
13261.724734	3882.334333	323.272461	199.363312
13261.724734	3882.334333	321.980469	172.495880
13261.724734	3882.334333	320.688477	234.855774
13261.724734	3882.334333	319.395508	297.026550
13261.724734	3882.334333	318.103516	207.850021
13261.724734	3882.334333	316.810547	309.879150
13261.724734	3882.334333	315.516602	266.196564
13261.724734	3882.334333	314.223633	263.942383
13261.724734	3882.334333	312.929688	262.690308
13261.724734	3882.334333	311.635742	353.015167
13261.724734	3882.334333	310.340820	155.186035
13261.724734	3882.334333	309.045898	241.478973
13261.724734	3882.334333	307.750977	187.686996
13261.724734	3882.334333	306.456055	-29.150217
13261.724734	3882.334333	305.160156	63.579983
13261.724734	3882.334333	303.865234	191.383850
13261.724734	3882.334333	302.568359	-81.048454
13261.724734	3882.334333	301.272461	37.625156
13261.724734	3882.334333	299.975586	-8.470960
13261.724734	3882.334333	298.678711	43.345413
