#X		#Y		#Wave		#Intensity
-13831.973564	17581.705333	2000.043945	41.695004
-13831.973564	17581.705333	1999.080078	164.732574
-13831.973564	17581.705333	1998.116211	-53.227974
-13831.973564	17581.705333	1997.151367	-179.664581
-13831.973564	17581.705333	1996.186523	25.703516
-13831.973564	17581.705333	1995.222656	79.628716
-13831.973564	17581.705333	1994.256836	-64.829292
-13831.973564	17581.705333	1993.291992	-63.372868
-13831.973564	17581.705333	1992.327148	158.208405
-13831.973564	17581.705333	1991.361328	377.020386
-13831.973564	17581.705333	1990.395508	637.612244
-13831.973564	17581.705333	1989.429688	398.052704
-13831.973564	17581.705333	1988.463867	-311.685272
-13831.973564	17581.705333	1987.497070	-78.917000
-13831.973564	17581.705333	1986.531250	-261.917847
-13831.973564	17581.705333	1985.564453	254.735596
-13831.973564	17581.705333	1984.597656	120.829414
-13831.973564	17581.705333	1983.630859	-18.142498
-13831.973564	17581.705333	1982.664063	-8.955914
-13831.973564	17581.705333	1981.696289	81.609230
-13831.973564	17581.705333	1980.728516	278.206512
-13831.973564	17581.705333	1979.761719	128.788818
-13831.973564	17581.705333	1978.792969	-23.177275
-13831.973564	17581.705333	1977.825195	-259.183411
-13831.973564	17581.705333	1976.857422	-105.213486
-13831.973564	17581.705333	1975.888672	-47.681728
-13831.973564	17581.705333	1974.919922	283.604797
-13831.973564	17581.705333	1973.951172	52.133144
-13831.973564	17581.705333	1972.982422	133.896042
-13831.973564	17581.705333	1972.013672	173.589294
-13831.973564	17581.705333	1971.043945	264.942139
-13831.973564	17581.705333	1970.075195	289.584961
-13831.973564	17581.705333	1969.105469	254.963837
-13831.973564	17581.705333	1968.135742	242.435989
-13831.973564	17581.705333	1967.165039	-26.424438
-13831.973564	17581.705333	1966.195313	286.095490
-13831.973564	17581.705333	1965.224609	81.184807
-13831.973564	17581.705333	1964.253906	297.362915
-13831.973564	17581.705333	1963.283203	-60.290440
-13831.973564	17581.705333	1962.312500	204.907959
-13831.973564	17581.705333	1961.341797	275.500580
-13831.973564	17581.705333	1960.370117	225.425674
-13831.973564	17581.705333	1959.399414	111.328339
-13831.973564	17581.705333	1958.427734	130.044388
-13831.973564	17581.705333	1957.455078	286.420471
-13831.973564	17581.705333	1956.483398	243.504196
-13831.973564	17581.705333	1955.511719	77.627831
-13831.973564	17581.705333	1954.539063	22.373297
-13831.973564	17581.705333	1953.566406	180.894684
-13831.973564	17581.705333	1952.593750	49.374416
-13831.973564	17581.705333	1951.621094	43.147160
-13831.973564	17581.705333	1950.647461	321.798279
-13831.973564	17581.705333	1949.674805	421.035767
-13831.973564	17581.705333	1948.701172	154.371338
-13831.973564	17581.705333	1947.727539	278.082001
-13831.973564	17581.705333	1946.753906	117.011818
-13831.973564	17581.705333	1945.780273	277.428680
-13831.973564	17581.705333	1944.805664	-254.102203
-13831.973564	17581.705333	1943.831055	249.690170
-13831.973564	17581.705333	1942.856445	113.165276
-13831.973564	17581.705333	1941.881836	339.573120
-13831.973564	17581.705333	1940.907227	590.392151
-13831.973564	17581.705333	1939.932617	81.245323
-13831.973564	17581.705333	1938.957031	-28.261627
-13831.973564	17581.705333	1937.981445	403.755341
-13831.973564	17581.705333	1937.005859	-51.217690
-13831.973564	17581.705333	1936.030273	238.557159
-13831.973564	17581.705333	1935.054688	53.136147
-13831.973564	17581.705333	1934.078125	144.448868
-13831.973564	17581.705333	1933.101563	194.105743
-13831.973564	17581.705333	1932.125000	224.156952
-13831.973564	17581.705333	1931.148438	293.344055
-13831.973564	17581.705333	1930.171875	433.453522
-13831.973564	17581.705333	1929.194336	8.459513
-13831.973564	17581.705333	1928.217773	-206.055466
-13831.973564	17581.705333	1927.240234	234.830338
-13831.973564	17581.705333	1926.262695	76.588333
-13831.973564	17581.705333	1925.284180	84.624184
-13831.973564	17581.705333	1924.306641	77.992813
-13831.973564	17581.705333	1923.328125	-143.645935
-13831.973564	17581.705333	1922.350586	-345.659119
-13831.973564	17581.705333	1921.372070	-81.074463
-13831.973564	17581.705333	1920.392578	-231.719299
-13831.973564	17581.705333	1919.414063	198.785233
-13831.973564	17581.705333	1918.434570	140.919113
-13831.973564	17581.705333	1917.456055	-212.237747
-13831.973564	17581.705333	1916.476563	-206.543289
-13831.973564	17581.705333	1915.497070	-5.659478
-13831.973564	17581.705333	1914.516602	34.168552
-13831.973564	17581.705333	1913.537109	215.442337
-13831.973564	17581.705333	1912.556641	96.743301
-13831.973564	17581.705333	1911.576172	275.524506
-13831.973564	17581.705333	1910.595703	69.132027
-13831.973564	17581.705333	1909.615234	-202.968994
-13831.973564	17581.705333	1908.633789	-323.887115
-13831.973564	17581.705333	1907.653320	49.777260
-13831.973564	17581.705333	1906.671875	-122.263664
-13831.973564	17581.705333	1905.690430	258.558105
-13831.973564	17581.705333	1904.708984	-122.819763
-13831.973564	17581.705333	1903.727539	-65.871796
-13831.973564	17581.705333	1902.745117	127.367523
-13831.973564	17581.705333	1901.762695	176.979706
-13831.973564	17581.705333	1900.780273	-9.408311
-13831.973564	17581.705333	1899.797852	-30.304348
-13831.973564	17581.705333	1898.815430	-70.634247
-13831.973564	17581.705333	1897.832031	56.844761
-13831.973564	17581.705333	1896.849609	-75.843361
-13831.973564	17581.705333	1895.866211	316.556488
-13831.973564	17581.705333	1894.882813	473.092285
-13831.973564	17581.705333	1893.898438	116.913033
-13831.973564	17581.705333	1892.915039	273.454529
-13831.973564	17581.705333	1891.930664	157.925049
-13831.973564	17581.705333	1890.947266	127.439987
-13831.973564	17581.705333	1889.962891	-213.792404
-13831.973564	17581.705333	1888.977539	-278.149384
-13831.973564	17581.705333	1887.993164	-56.089863
-13831.973564	17581.705333	1887.007813	129.504517
-13831.973564	17581.705333	1886.023438	-29.471716
-13831.973564	17581.705333	1885.038086	134.238464
-13831.973564	17581.705333	1884.051758	-131.359497
-13831.973564	17581.705333	1883.066406	376.638550
-13831.973564	17581.705333	1882.081055	-128.895935
-13831.973564	17581.705333	1881.094727	5.664296
-13831.973564	17581.705333	1880.108398	-75.500443
-13831.973564	17581.705333	1879.122070	15.398364
-13831.973564	17581.705333	1878.135742	96.580864
-13831.973564	17581.705333	1877.148438	-233.997574
-13831.973564	17581.705333	1876.162109	53.045490
-13831.973564	17581.705333	1875.174805	373.885010
-13831.973564	17581.705333	1874.187500	-145.357452
-13831.973564	17581.705333	1873.199219	90.703110
-13831.973564	17581.705333	1872.211914	183.909958
-13831.973564	17581.705333	1871.223633	-10.808063
-13831.973564	17581.705333	1870.236328	-84.513969
-13831.973564	17581.705333	1869.248047	-223.484024
-13831.973564	17581.705333	1868.258789	-127.855652
-13831.973564	17581.705333	1867.270508	-97.543495
-13831.973564	17581.705333	1866.282227	-59.992695
-13831.973564	17581.705333	1865.292969	74.210945
-13831.973564	17581.705333	1864.303711	-13.922522
-13831.973564	17581.705333	1863.314453	318.297546
-13831.973564	17581.705333	1862.324219	162.521622
-13831.973564	17581.705333	1861.334961	-97.039963
-13831.973564	17581.705333	1860.344727	53.924290
-13831.973564	17581.705333	1859.354492	226.551361
-13831.973564	17581.705333	1858.364258	-23.239658
-13831.973564	17581.705333	1857.374023	463.001587
-13831.973564	17581.705333	1856.383789	54.016407
-13831.973564	17581.705333	1855.392578	127.588013
-13831.973564	17581.705333	1854.401367	328.933441
-13831.973564	17581.705333	1853.410156	-299.237213
-13831.973564	17581.705333	1852.418945	256.456024
-13831.973564	17581.705333	1851.426758	272.042358
-13831.973564	17581.705333	1850.435547	162.294708
-13831.973564	17581.705333	1849.443359	74.260643
-13831.973564	17581.705333	1848.451172	164.499008
-13831.973564	17581.705333	1847.458984	269.137848
-13831.973564	17581.705333	1846.466797	188.305130
-13831.973564	17581.705333	1845.473633	271.197906
-13831.973564	17581.705333	1844.480469	29.088024
-13831.973564	17581.705333	1843.487305	400.730408
-13831.973564	17581.705333	1842.494141	40.741333
-13831.973564	17581.705333	1841.500977	36.907005
-13831.973564	17581.705333	1840.506836	45.082531
-13831.973564	17581.705333	1839.513672	77.271721
-13831.973564	17581.705333	1838.519531	1.232545
-13831.973564	17581.705333	1837.525391	-69.995445
-13831.973564	17581.705333	1836.530273	267.360718
-13831.973564	17581.705333	1835.536133	-49.052383
-13831.973564	17581.705333	1834.541016	485.122620
-13831.973564	17581.705333	1833.545898	332.073822
-13831.973564	17581.705333	1832.550781	-101.939919
-13831.973564	17581.705333	1831.555664	-67.595322
-13831.973564	17581.705333	1830.560547	65.134033
-13831.973564	17581.705333	1829.564453	-63.848217
-13831.973564	17581.705333	1828.568359	171.956696
-13831.973564	17581.705333	1827.572266	86.120140
-13831.973564	17581.705333	1826.576172	350.520111
-13831.973564	17581.705333	1825.580078	559.618591
-13831.973564	17581.705333	1824.583008	80.375664
-13831.973564	17581.705333	1823.585938	-84.647202
-13831.973564	17581.705333	1822.588867	26.015911
-13831.973564	17581.705333	1821.591797	-107.860512
-13831.973564	17581.705333	1820.594727	441.185547
-13831.973564	17581.705333	1819.596680	189.805374
-13831.973564	17581.705333	1818.599609	175.607742
-13831.973564	17581.705333	1817.601563	-420.574585
-13831.973564	17581.705333	1816.603516	44.136570
-13831.973564	17581.705333	1815.604492	173.476349
-13831.973564	17581.705333	1814.606445	82.516785
-13831.973564	17581.705333	1813.607422	-123.321815
-13831.973564	17581.705333	1812.608398	89.571358
-13831.973564	17581.705333	1811.609375	63.119293
-13831.973564	17581.705333	1810.610352	268.616089
-13831.973564	17581.705333	1809.610352	-73.601837
-13831.973564	17581.705333	1808.611328	380.378052
-13831.973564	17581.705333	1807.611328	109.869980
-13831.973564	17581.705333	1806.611328	83.174599
-13831.973564	17581.705333	1805.610352	639.454346
-13831.973564	17581.705333	1804.610352	220.766632
-13831.973564	17581.705333	1803.609375	43.421501
-13831.973564	17581.705333	1802.608398	33.249084
-13831.973564	17581.705333	1801.607422	-82.032639
-13831.973564	17581.705333	1800.606445	225.194717
-13831.973564	17581.705333	1799.605469	255.387436
-13831.973564	17581.705333	1798.603516	304.600189
-13831.973564	17581.705333	1797.601563	105.608749
-13831.973564	17581.705333	1796.599609	111.767868
-13831.973564	17581.705333	1795.597656	-96.778633
-13831.973564	17581.705333	1794.595703	493.478333
-13831.973564	17581.705333	1793.592773	125.081398
-13831.973564	17581.705333	1792.589844	95.222755
-13831.973564	17581.705333	1791.587891	70.071373
-13831.973564	17581.705333	1790.583984	-7.552285
-13831.973564	17581.705333	1789.581055	260.201874
-13831.973564	17581.705333	1788.577148	118.128502
-13831.973564	17581.705333	1787.574219	304.654480
-13831.973564	17581.705333	1786.570313	200.578079
-13831.973564	17581.705333	1785.566406	-29.689241
-13831.973564	17581.705333	1784.561523	47.072407
-13831.973564	17581.705333	1783.557617	166.561996
-13831.973564	17581.705333	1782.552734	188.393723
-13831.973564	17581.705333	1781.547852	-172.807770
-13831.973564	17581.705333	1780.542969	-381.746185
-13831.973564	17581.705333	1779.538086	-302.980621
-13831.973564	17581.705333	1778.532227	98.983864
-13831.973564	17581.705333	1777.527344	227.388138
-13831.973564	17581.705333	1776.521484	381.808533
-13831.973564	17581.705333	1775.515625	82.301819
-13831.973564	17581.705333	1774.508789	91.638069
-13831.973564	17581.705333	1773.502930	293.261963
-13831.973564	17581.705333	1772.496094	121.934776
-13831.973564	17581.705333	1771.489258	354.182404
-13831.973564	17581.705333	1770.482422	-0.019017
-13831.973564	17581.705333	1769.475586	391.007813
-13831.973564	17581.705333	1768.467773	-186.264236
-13831.973564	17581.705333	1767.460938	194.999115
-13831.973564	17581.705333	1766.453125	123.019279
-13831.973564	17581.705333	1765.445313	198.010178
-13831.973564	17581.705333	1764.437500	76.102303
-13831.973564	17581.705333	1763.428711	-133.546280
-13831.973564	17581.705333	1762.420898	78.663254
-13831.973564	17581.705333	1761.412109	-45.771049
-13831.973564	17581.705333	1760.403320	-115.750076
-13831.973564	17581.705333	1759.393555	-93.408997
-13831.973564	17581.705333	1758.384766	258.019653
-13831.973564	17581.705333	1757.375000	90.689621
-13831.973564	17581.705333	1756.366211	-185.557083
-13831.973564	17581.705333	1755.356445	376.083374
-13831.973564	17581.705333	1754.345703	106.815598
-13831.973564	17581.705333	1753.335938	29.206766
-13831.973564	17581.705333	1752.325195	-57.922169
-13831.973564	17581.705333	1751.315430	67.752182
-13831.973564	17581.705333	1750.304688	98.706703
-13831.973564	17581.705333	1749.292969	-73.756248
-13831.973564	17581.705333	1748.282227	-165.873306
-13831.973564	17581.705333	1747.270508	-177.691452
-13831.973564	17581.705333	1746.259766	8.883113
-13831.973564	17581.705333	1745.248047	93.715210
-13831.973564	17581.705333	1744.235352	-48.314625
-13831.973564	17581.705333	1743.223633	-178.571030
-13831.973564	17581.705333	1742.211914	-91.652969
-13831.973564	17581.705333	1741.199219	-120.523018
-13831.973564	17581.705333	1740.186523	62.935478
-13831.973564	17581.705333	1739.173828	-20.402494
-13831.973564	17581.705333	1738.160156	-16.509466
-13831.973564	17581.705333	1737.147461	367.055695
-13831.973564	17581.705333	1736.133789	-117.470543
-13831.973564	17581.705333	1735.120117	-160.982727
-13831.973564	17581.705333	1734.106445	-166.848007
-13831.973564	17581.705333	1733.091797	-69.097847
-13831.973564	17581.705333	1732.078125	-115.216011
-13831.973564	17581.705333	1731.063477	107.183647
-13831.973564	17581.705333	1730.048828	89.136696
-13831.973564	17581.705333	1729.034180	323.010468
-13831.973564	17581.705333	1728.019531	-102.608955
-13831.973564	17581.705333	1727.003906	-276.251495
-13831.973564	17581.705333	1725.988281	-89.785500
-13831.973564	17581.705333	1724.972656	30.629074
-13831.973564	17581.705333	1723.957031	-2.029051
-13831.973564	17581.705333	1722.941406	-126.507706
-13831.973564	17581.705333	1721.924805	61.785889
-13831.973564	17581.705333	1720.909180	383.963684
-13831.973564	17581.705333	1719.892578	158.119141
-13831.973564	17581.705333	1718.875977	-81.826332
-13831.973564	17581.705333	1717.858398	-310.020447
-13831.973564	17581.705333	1716.841797	-171.651352
-13831.973564	17581.705333	1715.824219	142.776184
-13831.973564	17581.705333	1714.806641	-64.448868
-13831.973564	17581.705333	1713.789063	268.451172
-13831.973564	17581.705333	1712.770508	91.630997
-13831.973564	17581.705333	1711.752930	189.454086
-13831.973564	17581.705333	1710.734375	-41.436577
-13831.973564	17581.705333	1709.715820	316.674194
-13831.973564	17581.705333	1708.697266	228.796570
-13831.973564	17581.705333	1707.678711	-304.815125
-13831.973564	17581.705333	1706.659180	317.897736
-13831.973564	17581.705333	1705.640625	609.678528
-13831.973564	17581.705333	1704.621094	408.944824
-13831.973564	17581.705333	1703.600586	297.270996
-13831.973564	17581.705333	1702.581055	185.563110
-13831.973564	17581.705333	1701.561523	139.420685
-13831.973564	17581.705333	1700.541016	182.228134
-13831.973564	17581.705333	1699.520508	63.332409
-13831.973564	17581.705333	1698.500000	120.028961
-13831.973564	17581.705333	1697.478516	125.110229
-13831.973564	17581.705333	1696.458008	104.369881
-13831.973564	17581.705333	1695.436523	348.005493
-13831.973564	17581.705333	1694.415039	130.520645
-13831.973564	17581.705333	1693.393555	-122.048859
-13831.973564	17581.705333	1692.372070	142.311249
-13831.973564	17581.705333	1691.349609	-42.505394
-13831.973564	17581.705333	1690.327148	336.143860
-13831.973564	17581.705333	1689.304688	249.390503
-13831.973564	17581.705333	1688.282227	244.395355
-13831.973564	17581.705333	1687.259766	251.014542
-13831.973564	17581.705333	1686.236328	96.348511
-13831.973564	17581.705333	1685.213867	313.069489
-13831.973564	17581.705333	1684.190430	333.457672
-13831.973564	17581.705333	1683.166016	559.234314
-13831.973564	17581.705333	1682.142578	257.273193
-13831.973564	17581.705333	1681.119141	459.502869
-13831.973564	17581.705333	1680.094727	579.904236
-13831.973564	17581.705333	1679.070313	597.534851
-13831.973564	17581.705333	1678.045898	465.801727
-13831.973564	17581.705333	1677.020508	413.339996
-13831.973564	17581.705333	1675.996094	782.889587
-13831.973564	17581.705333	1674.970703	755.899475
-13831.973564	17581.705333	1673.945313	575.019470
-13831.973564	17581.705333	1672.919922	401.135071
-13831.973564	17581.705333	1671.893555	565.094116
-13831.973564	17581.705333	1670.868164	433.086304
-13831.973564	17581.705333	1669.841797	799.480103
-13831.973564	17581.705333	1668.815430	972.398315
-13831.973564	17581.705333	1667.789063	646.958862
-13831.973564	17581.705333	1666.761719	524.093384
-13831.973564	17581.705333	1665.735352	466.386658
-13831.973564	17581.705333	1664.708008	578.497803
-13831.973564	17581.705333	1663.680664	727.729431
-13831.973564	17581.705333	1662.653320	627.973083
-13831.973564	17581.705333	1661.625000	753.767578
-13831.973564	17581.705333	1660.597656	781.813477
-13831.973564	17581.705333	1659.569336	630.794861
-13831.973564	17581.705333	1658.541016	626.206055
-13831.973564	17581.705333	1657.512695	763.311646
-13831.973564	17581.705333	1656.483398	674.951111
-13831.973564	17581.705333	1655.455078	623.749268
-13831.973564	17581.705333	1654.425781	1020.719910
-13831.973564	17581.705333	1653.396484	1020.449402
-13831.973564	17581.705333	1652.366211	1236.017212
-13831.973564	17581.705333	1651.336914	1045.294800
-13831.973564	17581.705333	1650.306641	1258.365845
-13831.973564	17581.705333	1649.276367	953.934082
-13831.973564	17581.705333	1648.246094	851.383484
-13831.973564	17581.705333	1647.215820	1214.988403
-13831.973564	17581.705333	1646.185547	1448.562622
-13831.973564	17581.705333	1645.154297	1116.337524
-13831.973564	17581.705333	1644.123047	1270.950806
-13831.973564	17581.705333	1643.091797	1583.048218
-13831.973564	17581.705333	1642.060547	1482.572021
-13831.973564	17581.705333	1641.028320	1326.496094
-13831.973564	17581.705333	1639.997070	1334.895752
-13831.973564	17581.705333	1638.964844	1479.869629
-13831.973564	17581.705333	1637.931641	1960.442383
-13831.973564	17581.705333	1636.899414	1660.759521
-13831.973564	17581.705333	1635.867188	1708.294922
-13831.973564	17581.705333	1634.833984	1681.737061
-13831.973564	17581.705333	1633.800781	1479.345093
-13831.973564	17581.705333	1632.767578	1431.971436
-13831.973564	17581.705333	1631.734375	1766.140991
-13831.973564	17581.705333	1630.700195	1975.307495
-13831.973564	17581.705333	1629.666016	1768.285156
-13831.973564	17581.705333	1628.631836	1547.457642
-13831.973564	17581.705333	1627.597656	1617.837891
-13831.973564	17581.705333	1626.563477	1817.540527
-13831.973564	17581.705333	1625.528320	1670.679565
-13831.973564	17581.705333	1624.493164	1775.568970
-13831.973564	17581.705333	1623.458008	2097.436523
-13831.973564	17581.705333	1622.422852	1814.361572
-13831.973564	17581.705333	1621.387695	1992.974121
-13831.973564	17581.705333	1620.351563	2065.349365
-13831.973564	17581.705333	1619.315430	1789.324585
-13831.973564	17581.705333	1618.279297	1649.483154
-13831.973564	17581.705333	1617.243164	1562.728638
-13831.973564	17581.705333	1616.207031	1531.339600
-13831.973564	17581.705333	1615.169922	1543.746582
-13831.973564	17581.705333	1614.132813	1899.560425
-13831.973564	17581.705333	1613.095703	1932.622314
-13831.973564	17581.705333	1612.058594	2285.913818
-13831.973564	17581.705333	1611.020508	1904.252319
-13831.973564	17581.705333	1609.983398	1700.077271
-13831.973564	17581.705333	1608.945313	2094.643066
-13831.973564	17581.705333	1607.907227	1918.131104
-13831.973564	17581.705333	1606.868164	2231.944336
-13831.973564	17581.705333	1605.830078	2297.112305
-13831.973564	17581.705333	1604.791016	2109.166748
-13831.973564	17581.705333	1603.751953	2176.636719
-13831.973564	17581.705333	1602.712891	2276.288818
-13831.973564	17581.705333	1601.673828	2336.823730
-13831.973564	17581.705333	1600.633789	2337.558594
-13831.973564	17581.705333	1599.594727	2432.558105
-13831.973564	17581.705333	1598.554688	2460.881348
-13831.973564	17581.705333	1597.513672	2571.912354
-13831.973564	17581.705333	1596.473633	2025.930298
-13831.973564	17581.705333	1595.433594	2022.209595
-13831.973564	17581.705333	1594.392578	2328.497559
-13831.973564	17581.705333	1593.351563	2331.639160
-13831.973564	17581.705333	1592.310547	2304.956299
-13831.973564	17581.705333	1591.268555	2461.895020
-13831.973564	17581.705333	1590.227539	2453.601807
-13831.973564	17581.705333	1589.185547	2179.218018
-13831.973564	17581.705333	1588.143555	2026.526245
-13831.973564	17581.705333	1587.100586	1912.903076
-13831.973564	17581.705333	1586.058594	2150.138428
-13831.973564	17581.705333	1585.015625	2171.835693
-13831.973564	17581.705333	1583.972656	2207.304199
-13831.973564	17581.705333	1582.929688	2167.178223
-13831.973564	17581.705333	1581.886719	2324.119141
-13831.973564	17581.705333	1580.843750	2057.296143
-13831.973564	17581.705333	1579.799805	2241.742188
-13831.973564	17581.705333	1578.755859	2064.403320
-13831.973564	17581.705333	1577.711914	2072.589600
-13831.973564	17581.705333	1576.666992	2158.619385
-13831.973564	17581.705333	1575.623047	2066.183838
-13831.973564	17581.705333	1574.578125	2090.496338
-13831.973564	17581.705333	1573.533203	2039.362671
-13831.973564	17581.705333	1572.488281	2130.080566
-13831.973564	17581.705333	1571.443359	2056.186523
-13831.973564	17581.705333	1570.397461	2293.252930
-13831.973564	17581.705333	1569.351563	2134.881836
-13831.973564	17581.705333	1568.305664	1994.902710
-13831.973564	17581.705333	1567.259766	1925.855591
-13831.973564	17581.705333	1566.213867	1799.781006
-13831.973564	17581.705333	1565.166992	1641.833374
-13831.973564	17581.705333	1564.120117	1863.028687
-13831.973564	17581.705333	1563.073242	1741.766602
-13831.973564	17581.705333	1562.026367	1721.036621
-13831.973564	17581.705333	1560.978516	1839.563965
-13831.973564	17581.705333	1559.930664	1679.766357
-13831.973564	17581.705333	1558.883789	1588.530640
-13831.973564	17581.705333	1557.834961	1600.006470
-13831.973564	17581.705333	1556.787109	1536.300415
-13831.973564	17581.705333	1555.739258	1750.813477
-13831.973564	17581.705333	1554.690430	1561.872559
-13831.973564	17581.705333	1553.641602	1685.270386
-13831.973564	17581.705333	1552.592773	1783.625244
-13831.973564	17581.705333	1551.542969	1979.959839
-13831.973564	17581.705333	1550.494141	1716.244263
-13831.973564	17581.705333	1549.444336	1338.850586
-13831.973564	17581.705333	1548.394531	1806.285889
-13831.973564	17581.705333	1547.344727	1731.895264
-13831.973564	17581.705333	1546.293945	1739.525635
-13831.973564	17581.705333	1545.244141	1371.830078
-13831.973564	17581.705333	1544.193359	1941.556519
-13831.973564	17581.705333	1543.142578	2008.512329
-13831.973564	17581.705333	1542.090820	1795.830078
-13831.973564	17581.705333	1541.040039	1869.775391
-13831.973564	17581.705333	1539.988281	1580.089111
-13831.973564	17581.705333	1538.936523	2163.253906
-13831.973564	17581.705333	1537.884766	1896.517212
-13831.973564	17581.705333	1536.833008	2032.051758
-13831.973564	17581.705333	1535.780273	1949.580566
-13831.973564	17581.705333	1534.727539	2119.285400
-13831.973564	17581.705333	1533.674805	1796.358765
-13831.973564	17581.705333	1532.622070	2104.668945
-13831.973564	17581.705333	1531.569336	2453.798828
-13831.973564	17581.705333	1530.515625	1843.116333
-13831.973564	17581.705333	1529.461914	1818.041138
-13831.973564	17581.705333	1528.408203	1833.898438
-13831.973564	17581.705333	1527.354492	1747.802490
-13831.973564	17581.705333	1526.299805	1657.305176
-13831.973564	17581.705333	1525.246094	1789.079590
-13831.973564	17581.705333	1524.191406	1451.782837
-13831.973564	17581.705333	1523.136719	1712.896484
-13831.973564	17581.705333	1522.081055	1407.664063
-13831.973564	17581.705333	1521.026367	1220.437500
-13831.973564	17581.705333	1519.970703	1166.988159
-13831.973564	17581.705333	1518.915039	839.718933
-13831.973564	17581.705333	1517.859375	1132.908203
-13831.973564	17581.705333	1516.802734	1265.401367
-13831.973564	17581.705333	1515.747070	938.631531
-13831.973564	17581.705333	1514.690430	969.527161
-13831.973564	17581.705333	1513.633789	1032.189819
-13831.973564	17581.705333	1512.577148	653.979858
-13831.973564	17581.705333	1511.519531	997.251160
-13831.973564	17581.705333	1510.461914	1003.694763
-13831.973564	17581.705333	1509.405273	1213.653809
-13831.973564	17581.705333	1508.346680	790.965942
-13831.973564	17581.705333	1507.289063	610.291260
-13831.973564	17581.705333	1506.231445	1008.018982
-13831.973564	17581.705333	1505.172852	730.503662
-13831.973564	17581.705333	1504.114258	780.591858
-13831.973564	17581.705333	1503.055664	1063.280518
-13831.973564	17581.705333	1501.996094	565.108093
-13831.973564	17581.705333	1500.937500	954.027588
-13831.973564	17581.705333	1499.877930	1040.611328
-13831.973564	17581.705333	1498.818359	622.052795
-13831.973564	17581.705333	1497.757813	1247.879272
-13831.973564	17581.705333	1496.698242	856.753845
-13831.973564	17581.705333	1495.637695	928.011230
-13831.973564	17581.705333	1494.577148	1184.172729
-13831.973564	17581.705333	1493.516602	1417.832764
-13831.973564	17581.705333	1492.456055	1464.539185
-13831.973564	17581.705333	1491.394531	1214.046143
-13831.973564	17581.705333	1490.333008	869.202515
-13831.973564	17581.705333	1489.271484	1409.462280
-13831.973564	17581.705333	1488.209961	1425.146240
-13831.973564	17581.705333	1487.148438	1296.919434
-13831.973564	17581.705333	1486.085938	1225.134155
-13831.973564	17581.705333	1485.023438	1241.248169
-13831.973564	17581.705333	1483.960938	1183.265869
-13831.973564	17581.705333	1482.898438	1752.856079
-13831.973564	17581.705333	1481.834961	1553.426392
-13831.973564	17581.705333	1480.772461	1241.827515
-13831.973564	17581.705333	1479.708984	869.819580
-13831.973564	17581.705333	1478.644531	1684.446533
-13831.973564	17581.705333	1477.581055	1171.292725
-13831.973564	17581.705333	1476.517578	1437.832397
-13831.973564	17581.705333	1475.453125	1349.583252
-13831.973564	17581.705333	1474.388672	1277.212646
-13831.973564	17581.705333	1473.323242	1593.281372
-13831.973564	17581.705333	1472.258789	1431.458496
-13831.973564	17581.705333	1471.193359	1532.392700
-13831.973564	17581.705333	1470.127930	1276.774170
-13831.973564	17581.705333	1469.062500	1606.560303
-13831.973564	17581.705333	1467.997070	1340.384521
-13831.973564	17581.705333	1466.930664	1683.714844
-13831.973564	17581.705333	1465.865234	1618.975952
-13831.973564	17581.705333	1464.798828	1606.275757
-13831.973564	17581.705333	1463.731445	1110.817871
-13831.973564	17581.705333	1462.665039	1230.171021
-13831.973564	17581.705333	1461.597656	1529.088135
-13831.973564	17581.705333	1460.530273	1305.703125
-13831.973564	17581.705333	1459.462891	1337.617920
-13831.973564	17581.705333	1458.395508	1272.067383
-13831.973564	17581.705333	1457.327148	1461.590942
-13831.973564	17581.705333	1456.259766	992.603027
-13831.973564	17581.705333	1455.191406	1535.897217
-13831.973564	17581.705333	1454.123047	1395.649536
-13831.973564	17581.705333	1453.053711	1707.368896
-13831.973564	17581.705333	1451.985352	1417.503418
-13831.973564	17581.705333	1450.916016	1095.820679
-13831.973564	17581.705333	1449.846680	1471.058594
-13831.973564	17581.705333	1448.776367	984.468445
-13831.973564	17581.705333	1447.707031	1431.021118
-13831.973564	17581.705333	1446.636719	1456.687988
-13831.973564	17581.705333	1445.566406	1402.706421
-13831.973564	17581.705333	1444.496094	1334.213379
-13831.973564	17581.705333	1443.425781	1522.427856
-13831.973564	17581.705333	1442.354492	1361.754395
-13831.973564	17581.705333	1441.283203	1134.753906
-13831.973564	17581.705333	1440.211914	1117.321045
-13831.973564	17581.705333	1439.140625	992.827271
-13831.973564	17581.705333	1438.069336	918.721802
-13831.973564	17581.705333	1436.997070	883.441162
-13831.973564	17581.705333	1435.924805	494.248566
-13831.973564	17581.705333	1434.852539	892.460632
-13831.973564	17581.705333	1433.780273	823.733704
-13831.973564	17581.705333	1432.707031	1161.368042
-13831.973564	17581.705333	1431.633789	402.813721
-13831.973564	17581.705333	1430.560547	619.367859
-13831.973564	17581.705333	1429.487305	697.002991
-13831.973564	17581.705333	1428.413086	418.949768
-13831.973564	17581.705333	1427.339844	358.278625
-13831.973564	17581.705333	1426.265625	385.684998
-13831.973564	17581.705333	1425.191406	117.458008
-13831.973564	17581.705333	1424.116211	220.004425
-13831.973564	17581.705333	1423.041992	280.120117
-13831.973564	17581.705333	1421.966797	102.443077
-13831.973564	17581.705333	1420.891602	187.773438
-13831.973564	17581.705333	1419.816406	440.040863
-13831.973564	17581.705333	1418.740234	607.730896
-13831.973564	17581.705333	1417.665039	422.395752
-13831.973564	17581.705333	1416.588867	597.721619
-13831.973564	17581.705333	1415.512695	-29.878769
-13831.973564	17581.705333	1414.435547	-196.870529
-13831.973564	17581.705333	1413.359375	-86.669479
-13831.973564	17581.705333	1412.282227	-103.152733
-13831.973564	17581.705333	1411.205078	255.859314
-13831.973564	17581.705333	1410.127930	204.573532
-13831.973564	17581.705333	1409.049805	135.843918
-13831.973564	17581.705333	1407.972656	-23.186382
-13831.973564	17581.705333	1406.894531	2.438979
-13831.973564	17581.705333	1405.816406	-0.683218
-13831.973564	17581.705333	1404.737305	136.348419
-13831.973564	17581.705333	1403.659180	8.500074
-13831.973564	17581.705333	1402.580078	-200.936829
-13831.973564	17581.705333	1401.500977	-59.512623
-13831.973564	17581.705333	1400.421875	63.672813
-13831.973564	17581.705333	1399.341797	-156.306610
-13831.973564	17581.705333	1398.262695	20.181797
-13831.973564	17581.705333	1397.182617	-137.403183
-13831.973564	17581.705333	1396.102539	-226.636093
-13831.973564	17581.705333	1395.021484	-215.608490
-13831.973564	17581.705333	1393.941406	-270.235779
-13831.973564	17581.705333	1392.860352	78.637268
-13831.973564	17581.705333	1391.779297	-130.476639
-13831.973564	17581.705333	1390.698242	-340.042725
-13831.973564	17581.705333	1389.616211	33.801224
-13831.973564	17581.705333	1388.535156	-179.642914
-13831.973564	17581.705333	1387.453125	46.894695
-13831.973564	17581.705333	1386.371094	-182.017334
-13831.973564	17581.705333	1385.288086	-166.904968
-13831.973564	17581.705333	1384.206055	155.372375
-13831.973564	17581.705333	1383.123047	-51.412457
-13831.973564	17581.705333	1382.040039	49.388630
-13831.973564	17581.705333	1380.957031	-0.070559
-13831.973564	17581.705333	1379.873047	109.532295
-13831.973564	17581.705333	1378.789063	145.651489
-13831.973564	17581.705333	1377.705078	96.929077
-13831.973564	17581.705333	1376.621094	138.839142
-13831.973564	17581.705333	1375.537109	278.728790
-13831.973564	17581.705333	1374.452148	396.809662
-13831.973564	17581.705333	1373.367188	329.435638
-13831.973564	17581.705333	1372.282227	95.385506
-13831.973564	17581.705333	1371.197266	230.557083
-13831.973564	17581.705333	1370.112305	307.602142
-13831.973564	17581.705333	1369.026367	296.949677
-13831.973564	17581.705333	1367.940430	290.757599
-13831.973564	17581.705333	1366.854492	566.660095
-13831.973564	17581.705333	1365.767578	537.291504
-13831.973564	17581.705333	1364.681641	549.168396
-13831.973564	17581.705333	1363.594727	679.175476
-13831.973564	17581.705333	1362.507813	523.007202
-13831.973564	17581.705333	1361.419922	502.792603
-13831.973564	17581.705333	1360.333008	578.601685
-13831.973564	17581.705333	1359.245117	921.632813
-13831.973564	17581.705333	1358.157227	691.583679
-13831.973564	17581.705333	1357.069336	336.975037
-13831.973564	17581.705333	1355.981445	497.698730
-13831.973564	17581.705333	1354.892578	792.009521
-13831.973564	17581.705333	1353.803711	617.786194
-13831.973564	17581.705333	1352.714844	925.936157
-13831.973564	17581.705333	1351.625000	668.191040
-13831.973564	17581.705333	1350.536133	789.786621
-13831.973564	17581.705333	1349.446289	782.601013
-13831.973564	17581.705333	1348.356445	746.834656
-13831.973564	17581.705333	1347.266602	662.717224
-13831.973564	17581.705333	1346.175781	750.922302
-13831.973564	17581.705333	1345.085938	642.127686
-13831.973564	17581.705333	1343.995117	497.482300
-13831.973564	17581.705333	1342.903320	871.844971
-13831.973564	17581.705333	1341.812500	311.414307
-13831.973564	17581.705333	1340.720703	260.343781
-13831.973564	17581.705333	1339.629883	771.290405
-13831.973564	17581.705333	1338.538086	664.562439
-13831.973564	17581.705333	1337.445313	485.704254
-13831.973564	17581.705333	1336.353516	322.897583
-13831.973564	17581.705333	1335.260742	570.412231
-13831.973564	17581.705333	1334.167969	767.226257
-13831.973564	17581.705333	1333.075195	614.950073
-13831.973564	17581.705333	1331.981445	454.442169
-13831.973564	17581.705333	1330.888672	469.969147
-13831.973564	17581.705333	1329.794922	337.428802
-13831.973564	17581.705333	1328.701172	563.302490
-13831.973564	17581.705333	1327.606445	684.849548
-13831.973564	17581.705333	1326.512695	477.718475
-13831.973564	17581.705333	1325.417969	466.563690
-13831.973564	17581.705333	1324.323242	307.405212
-13831.973564	17581.705333	1323.227539	247.301575
-13831.973564	17581.705333	1322.132813	544.617126
-13831.973564	17581.705333	1321.037109	427.804138
-13831.973564	17581.705333	1319.941406	616.147644
-13831.973564	17581.705333	1318.845703	410.095947
-13831.973564	17581.705333	1317.750000	688.794434
-13831.973564	17581.705333	1316.653320	714.005310
-13831.973564	17581.705333	1315.556641	440.773102
-13831.973564	17581.705333	1314.459961	635.762756
-13831.973564	17581.705333	1313.363281	489.604126
-13831.973564	17581.705333	1312.265625	618.538269
-13831.973564	17581.705333	1311.167969	5.216661
-13831.973564	17581.705333	1310.070313	305.060120
-13831.973564	17581.705333	1308.972656	137.954300
-13831.973564	17581.705333	1307.874023	174.421860
-13831.973564	17581.705333	1306.776367	280.244354
-13831.973564	17581.705333	1305.677734	196.233917
-13831.973564	17581.705333	1304.579102	-14.329615
-13831.973564	17581.705333	1303.479492	10.863856
-13831.973564	17581.705333	1302.380859	-34.461487
-13831.973564	17581.705333	1301.281250	168.278656
-13831.973564	17581.705333	1300.181641	-64.202667
-13831.973564	17581.705333	1299.081055	-4.442699
-13831.973564	17581.705333	1297.981445	175.076981
-13831.973564	17581.705333	1296.880859	410.392456
-13831.973564	17581.705333	1295.780273	107.058266
-13831.973564	17581.705333	1294.679688	149.340790
-13831.973564	17581.705333	1293.578125	170.931702
-13831.973564	17581.705333	1292.476563	4.219193
-13831.973564	17581.705333	1291.375000	-2.301786
-13831.973564	17581.705333	1290.273438	168.892975
-13831.973564	17581.705333	1289.171875	122.364807
-13831.973564	17581.705333	1288.069336	279.637726
-13831.973564	17581.705333	1286.966797	-16.824265
-13831.973564	17581.705333	1285.864258	43.077248
-13831.973564	17581.705333	1284.761719	185.464127
-13831.973564	17581.705333	1283.658203	123.247360
-13831.973564	17581.705333	1282.554688	49.400417
-13831.973564	17581.705333	1281.451172	275.771698
-13831.973564	17581.705333	1280.347656	189.287750
-13831.973564	17581.705333	1279.244141	136.613358
-13831.973564	17581.705333	1278.139648	-172.728836
-13831.973564	17581.705333	1277.035156	-22.978607
-13831.973564	17581.705333	1275.930664	116.505394
-13831.973564	17581.705333	1274.825195	-25.349724
-13831.973564	17581.705333	1273.720703	18.959562
-13831.973564	17581.705333	1272.615234	145.837540
-13831.973564	17581.705333	1271.508789	283.392517
-13831.973564	17581.705333	1270.403320	6.748809
-13831.973564	17581.705333	1269.297852	46.491772
-13831.973564	17581.705333	1268.191406	48.992188
-13831.973564	17581.705333	1267.084961	-143.763702
-13831.973564	17581.705333	1265.977539	30.735582
-13831.973564	17581.705333	1264.871094	-140.108856
-13831.973564	17581.705333	1263.763672	25.082682
-13831.973564	17581.705333	1262.656250	-97.721329
-13831.973564	17581.705333	1261.548828	-160.643234
-13831.973564	17581.705333	1260.440430	-78.854935
-13831.973564	17581.705333	1259.333008	-135.885483
-13831.973564	17581.705333	1258.224609	-54.268787
-13831.973564	17581.705333	1257.115234	-0.668063
-13831.973564	17581.705333	1256.006836	-154.999374
-13831.973564	17581.705333	1254.897461	87.496613
-13831.973564	17581.705333	1253.788086	-141.338989
-13831.973564	17581.705333	1252.678711	8.135168
-13831.973564	17581.705333	1251.569336	67.306480
-13831.973564	17581.705333	1250.458984	138.270981
-13831.973564	17581.705333	1249.349609	-291.520630
-13831.973564	17581.705333	1248.239258	-64.220726
-13831.973564	17581.705333	1247.127930	31.659794
-13831.973564	17581.705333	1246.017578	-56.805557
-13831.973564	17581.705333	1244.906250	120.332634
-13831.973564	17581.705333	1243.794922	93.932747
-13831.973564	17581.705333	1242.683594	-102.774048
-13831.973564	17581.705333	1241.571289	-111.543045
-13831.973564	17581.705333	1240.459961	-219.133026
-13831.973564	17581.705333	1239.347656	-180.772049
-13831.973564	17581.705333	1238.234375	-58.058945
-13831.973564	17581.705333	1237.122070	0.034464
-13831.973564	17581.705333	1236.008789	97.897453
-13831.973564	17581.705333	1234.896484	80.208519
-13831.973564	17581.705333	1233.782227	167.319916
-13831.973564	17581.705333	1232.668945	-23.802790
-13831.973564	17581.705333	1231.555664	-134.270233
-13831.973564	17581.705333	1230.441406	202.603912
-13831.973564	17581.705333	1229.327148	22.484379
-13831.973564	17581.705333	1228.211914	125.735252
-13831.973564	17581.705333	1227.097656	208.267242
-13831.973564	17581.705333	1225.982422	285.102722
-13831.973564	17581.705333	1224.867188	260.291138
-13831.973564	17581.705333	1223.751953	357.813721
-13831.973564	17581.705333	1222.635742	195.759171
-13831.973564	17581.705333	1221.520508	102.167038
-13831.973564	17581.705333	1220.404297	111.852776
-13831.973564	17581.705333	1219.287109	149.819077
-13831.973564	17581.705333	1218.170898	232.839798
-13831.973564	17581.705333	1217.053711	113.095695
-13831.973564	17581.705333	1215.936523	-90.904854
-13831.973564	17581.705333	1214.819336	58.584988
-13831.973564	17581.705333	1213.702148	84.296432
-13831.973564	17581.705333	1212.583984	39.203041
-13831.973564	17581.705333	1211.465820	-1.485610
-13831.973564	17581.705333	1210.347656	129.776154
-13831.973564	17581.705333	1209.229492	146.291809
-13831.973564	17581.705333	1208.110352	78.255646
-13831.973564	17581.705333	1206.992188	-27.904144
-13831.973564	17581.705333	1205.873047	123.196297
-13831.973564	17581.705333	1204.752930	149.362396
-13831.973564	17581.705333	1203.633789	43.606438
-13831.973564	17581.705333	1202.513672	192.853226
-13831.973564	17581.705333	1201.393555	174.451080
-13831.973564	17581.705333	1200.273438	99.068779
-13831.973564	17581.705333	1199.152344	66.537231
-13831.973564	17581.705333	1198.032227	37.132530
-13831.973564	17581.705333	1196.911133	-42.906178
-13831.973564	17581.705333	1195.790039	-68.990227
-13831.973564	17581.705333	1194.667969	-65.900085
-13831.973564	17581.705333	1193.545898	42.300594
-13831.973564	17581.705333	1192.424805	128.983810
-13831.973564	17581.705333	1191.301758	183.255646
-13831.973564	17581.705333	1190.179688	153.423782
-13831.973564	17581.705333	1189.056641	268.863861
-13831.973564	17581.705333	1187.933594	60.035770
-13831.973564	17581.705333	1186.810547	113.475555
-13831.973564	17581.705333	1185.687500	129.820770
-13831.973564	17581.705333	1184.563477	-169.435760
-13831.973564	17581.705333	1183.440430	-27.347427
-13831.973564	17581.705333	1182.316406	-317.240021
-13831.973564	17581.705333	1181.191406	-74.653763
-13831.973564	17581.705333	1180.067383	-165.249268
-13831.973564	17581.705333	1178.942383	55.243217
-13831.973564	17581.705333	1177.817383	-28.831343
-13831.973564	17581.705333	1176.692383	-236.770874
-13831.973564	17581.705333	1175.566406	-265.719482
-13831.973564	17581.705333	1174.440430	64.884712
-13831.973564	17581.705333	1173.314453	-113.685875
-13831.973564	17581.705333	1172.188477	-133.715485
-13831.973564	17581.705333	1171.062500	147.251923
-13831.973564	17581.705333	1169.935547	47.591579
-13831.973564	17581.705333	1168.808594	-167.607056
-13831.973564	17581.705333	1167.681641	-90.505119
-13831.973564	17581.705333	1166.553711	104.735413
-13831.973564	17581.705333	1165.426758	-297.234467
-13831.973564	17581.705333	1164.298828	-125.075584
-13831.973564	17581.705333	1163.170898	-235.709991
-13831.973564	17581.705333	1162.041992	-343.618134
-13831.973564	17581.705333	1160.914063	-105.357651
-13831.973564	17581.705333	1159.785156	-225.550613
-13831.973564	17581.705333	1158.656250	-263.218475
-13831.973564	17581.705333	1157.526367	-74.943443
-13831.973564	17581.705333	1156.397461	-356.698700
-13831.973564	17581.705333	1155.267578	-176.432907
-13831.973564	17581.705333	1154.137695	-59.214146
-13831.973564	17581.705333	1153.006836	-267.917725
-13831.973564	17581.705333	1151.876953	-104.963722
-13831.973564	17581.705333	1150.746094	-173.330429
-13831.973564	17581.705333	1149.615234	-234.050552
-13831.973564	17581.705333	1148.484375	-198.958923
-13831.973564	17581.705333	1147.352539	-409.884247
-13831.973564	17581.705333	1146.220703	-136.819962
-13831.973564	17581.705333	1145.088867	-57.329395
-13831.973564	17581.705333	1143.957031	-266.991516
-13831.973564	17581.705333	1142.825195	-34.270061
-13831.973564	17581.705333	1141.692383	13.988498
-13831.973564	17581.705333	1140.559570	-168.962875
-13831.973564	17581.705333	1139.426758	-90.125000
-13831.973564	17581.705333	1138.292969	-23.686308
-13831.973564	17581.705333	1137.159180	-120.323326
-13831.973564	17581.705333	1136.025391	110.232697
-13831.973564	17581.705333	1134.891602	58.209526
-13831.973564	17581.705333	1133.757813	25.114218
-13831.973564	17581.705333	1132.623047	69.740463
-13831.973564	17581.705333	1131.488281	-54.826187
-13831.973564	17581.705333	1130.353516	23.755346
-13831.973564	17581.705333	1129.217773	44.757095
-13831.973564	17581.705333	1128.083008	89.236298
-13831.973564	17581.705333	1126.947266	155.628311
-13831.973564	17581.705333	1125.811523	37.144077
-13831.973564	17581.705333	1124.674805	60.686249
-13831.973564	17581.705333	1123.539063	195.714981
-13831.973564	17581.705333	1122.402344	240.143661
-13831.973564	17581.705333	1121.265625	43.169830
-13831.973564	17581.705333	1120.127930	117.160767
-13831.973564	17581.705333	1118.990234	462.275146
-13831.973564	17581.705333	1117.853516	385.087891
-13831.973564	17581.705333	1116.714844	503.418518
-13831.973564	17581.705333	1115.577148	372.063538
-13831.973564	17581.705333	1114.439453	642.526794
-13831.973564	17581.705333	1113.300781	687.235718
-13831.973564	17581.705333	1112.162109	819.908081
-13831.973564	17581.705333	1111.022461	498.975067
-13831.973564	17581.705333	1109.883789	564.049072
-13831.973564	17581.705333	1108.744141	1012.539917
-13831.973564	17581.705333	1107.604492	813.210510
-13831.973564	17581.705333	1106.463867	842.446960
-13831.973564	17581.705333	1105.324219	504.803741
-13831.973564	17581.705333	1104.183594	703.707520
-13831.973564	17581.705333	1103.042969	219.640518
-13831.973564	17581.705333	1101.902344	379.430328
-13831.973564	17581.705333	1100.760742	408.423523
-13831.973564	17581.705333	1099.619141	546.082947
-13831.973564	17581.705333	1098.477539	229.154297
-13831.973564	17581.705333	1097.335938	537.115601
-13831.973564	17581.705333	1096.193359	266.022125
-13831.973564	17581.705333	1095.051758	395.220917
-13831.973564	17581.705333	1093.909180	494.701843
-13831.973564	17581.705333	1092.765625	151.391968
-13831.973564	17581.705333	1091.623047	370.039215
-13831.973564	17581.705333	1090.479492	380.492371
-13831.973564	17581.705333	1089.335938	226.613556
-13831.973564	17581.705333	1088.192383	391.859406
-13831.973564	17581.705333	1087.047852	401.741669
-13831.973564	17581.705333	1085.903320	130.179382
-13831.973564	17581.705333	1084.758789	363.609680
-13831.973564	17581.705333	1083.614258	294.979523
-13831.973564	17581.705333	1082.469727	71.614761
-13831.973564	17581.705333	1081.324219	295.315796
-13831.973564	17581.705333	1080.178711	247.857635
-13831.973564	17581.705333	1079.033203	192.665741
-13831.973564	17581.705333	1077.886719	26.878202
-13831.973564	17581.705333	1076.740234	455.711700
-13831.973564	17581.705333	1075.593750	213.023361
-13831.973564	17581.705333	1074.447266	183.082489
-13831.973564	17581.705333	1073.300781	428.013824
-13831.973564	17581.705333	1072.153320	435.916046
-13831.973564	17581.705333	1071.005859	352.371521
-13831.973564	17581.705333	1069.858398	455.807739
-13831.973564	17581.705333	1068.709961	242.998917
-13831.973564	17581.705333	1067.561523	196.685913
-13831.973564	17581.705333	1066.413086	692.374390
-13831.973564	17581.705333	1065.264648	289.990021
-13831.973564	17581.705333	1064.116211	201.138046
-13831.973564	17581.705333	1062.966797	416.012207
-13831.973564	17581.705333	1061.817383	224.660522
-13831.973564	17581.705333	1060.667969	356.252747
-13831.973564	17581.705333	1059.517578	226.964783
-13831.973564	17581.705333	1058.368164	179.452225
-13831.973564	17581.705333	1057.217773	356.717285
-13831.973564	17581.705333	1056.067383	385.417847
-13831.973564	17581.705333	1054.916016	562.506836
-13831.973564	17581.705333	1053.764648	547.482178
-13831.973564	17581.705333	1052.613281	456.316437
-13831.973564	17581.705333	1051.461914	578.238037
-13831.973564	17581.705333	1050.310547	350.073212
-13831.973564	17581.705333	1049.158203	264.170868
-13831.973564	17581.705333	1048.005859	768.605652
-13831.973564	17581.705333	1046.853516	403.553223
-13831.973564	17581.705333	1045.700195	462.042145
-13831.973564	17581.705333	1044.547852	372.988007
-13831.973564	17581.705333	1043.394531	529.508179
-13831.973564	17581.705333	1042.240234	253.782181
-13831.973564	17581.705333	1041.086914	268.702698
-13831.973564	17581.705333	1039.932617	296.287018
-13831.973564	17581.705333	1038.778320	256.272644
-13831.973564	17581.705333	1037.624023	516.565857
-13831.973564	17581.705333	1036.469727	467.518280
-13831.973564	17581.705333	1035.314453	770.616638
-13831.973564	17581.705333	1034.159180	814.430786
-13831.973564	17581.705333	1033.003906	660.497986
-13831.973564	17581.705333	1031.847656	444.558624
-13831.973564	17581.705333	1030.692383	540.464111
-13831.973564	17581.705333	1029.536133	608.720459
-13831.973564	17581.705333	1028.378906	390.546295
-13831.973564	17581.705333	1027.222656	627.342468
-13831.973564	17581.705333	1026.065430	629.217957
-13831.973564	17581.705333	1024.908203	516.886047
-13831.973564	17581.705333	1023.750977	351.936707
-13831.973564	17581.705333	1022.593750	434.008789
-13831.973564	17581.705333	1021.435547	252.265762
-13831.973564	17581.705333	1020.277344	349.870514
-13831.973564	17581.705333	1019.119141	297.313446
-13831.973564	17581.705333	1017.959961	523.986328
-13831.973564	17581.705333	1016.800781	-160.465317
-13831.973564	17581.705333	1015.641602	141.054489
-13831.973564	17581.705333	1014.482422	292.647522
-13831.973564	17581.705333	1013.323242	472.798340
-13831.973564	17581.705333	1012.163086	459.314362
-13831.973564	17581.705333	1011.002930	190.730286
-13831.973564	17581.705333	1009.842773	15.731899
-13831.973564	17581.705333	1008.681641	143.251343
-13831.973564	17581.705333	1007.520508	112.563866
-13831.973564	17581.705333	1006.359375	374.173645
-13831.973564	17581.705333	1005.198242	374.161011
-13831.973564	17581.705333	1004.037109	443.362244
-13831.973564	17581.705333	1002.875000	273.298859
-13831.973564	17581.705333	1001.712891	305.246582
-13831.973564	17581.705333	1000.550781	392.281891
-13831.973564	17581.705333	999.387695	308.139008
-13831.973564	17581.705333	998.224609	477.285370
-13831.973564	17581.705333	997.061523	187.955643
-13831.973564	17581.705333	995.898438	160.704865
-13831.973564	17581.705333	994.734375	543.130188
-13831.973564	17581.705333	993.571289	471.378052
-13831.973564	17581.705333	992.407227	313.751770
-13831.973564	17581.705333	991.242188	465.394012
-13831.973564	17581.705333	990.078125	619.797424
-13831.973564	17581.705333	988.913086	164.034439
-13831.973564	17581.705333	987.748047	147.770462
-13831.973564	17581.705333	986.583008	396.314484
-13831.973564	17581.705333	985.416992	344.429138
-13831.973564	17581.705333	984.250977	608.959839
-13831.973564	17581.705333	983.084961	494.990906
-13831.973564	17581.705333	981.918945	349.470093
-13831.973564	17581.705333	980.751953	-3.299352
-13831.973564	17581.705333	979.584961	-30.584909
-13831.973564	17581.705333	978.417969	109.441956
-13831.973564	17581.705333	977.250977	362.445740
-13831.973564	17581.705333	976.083008	6.172759
-13831.973564	17581.705333	974.915039	81.869568
-13831.973564	17581.705333	973.747070	-51.426292
-13831.973564	17581.705333	972.579102	62.158646
-13831.973564	17581.705333	971.410156	114.673180
-13831.973564	17581.705333	970.242188	97.743629
-13831.973564	17581.705333	969.072266	167.970352
-13831.973564	17581.705333	967.903320	36.728489
-13831.973564	17581.705333	966.733398	87.757401
-13831.973564	17581.705333	965.563477	-5.578532
-13831.973564	17581.705333	964.393555	172.191849
-13831.973564	17581.705333	963.223633	-4.229824
-13831.973564	17581.705333	962.052734	288.921478
-13831.973564	17581.705333	960.881836	-104.309898
-13831.973564	17581.705333	959.710938	61.473042
-13831.973564	17581.705333	958.540039	45.094975
-13831.973564	17581.705333	957.368164	31.224934
-13831.973564	17581.705333	956.196289	67.972054
-13831.973564	17581.705333	955.024414	-187.891678
-13831.973564	17581.705333	953.851563	-194.582230
-13831.973564	17581.705333	952.679688	106.847374
-13831.973564	17581.705333	951.506836	-146.256012
-13831.973564	17581.705333	950.333984	-167.232101
-13831.973564	17581.705333	949.160156	159.909927
-13831.973564	17581.705333	947.986328	194.877380
-13831.973564	17581.705333	946.812500	-252.401505
-13831.973564	17581.705333	945.638672	55.415585
-13831.973564	17581.705333	944.464844	-44.387638
-13831.973564	17581.705333	943.290039	227.886322
-13831.973564	17581.705333	942.115234	128.894363
-13831.973564	17581.705333	940.940430	65.189735
-13831.973564	17581.705333	939.764648	-132.006821
-13831.973564	17581.705333	938.588867	12.010637
-13831.973564	17581.705333	937.413086	39.309025
-13831.973564	17581.705333	936.237305	-57.363091
-13831.973564	17581.705333	935.060547	140.285080
-13831.973564	17581.705333	933.883789	338.102325
-13831.973564	17581.705333	932.707031	35.460262
-13831.973564	17581.705333	931.530273	253.968781
-13831.973564	17581.705333	930.352539	-102.577660
-13831.973564	17581.705333	929.175781	33.964001
-13831.973564	17581.705333	927.998047	-336.638245
-13831.973564	17581.705333	926.819336	-15.594978
-13831.973564	17581.705333	925.641602	62.295834
-13831.973564	17581.705333	924.462891	268.659241
-13831.973564	17581.705333	923.284180	299.692230
-13831.973564	17581.705333	922.104492	41.157608
-13831.973564	17581.705333	920.924805	-9.587348
-13831.973564	17581.705333	919.746094	0.344215
-13831.973564	17581.705333	919.551758	-159.104111
-13831.973564	17581.705333	918.386719	44.291321
-13831.973564	17581.705333	917.220703	140.232056
-13831.973564	17581.705333	916.054688	61.134228
-13831.973564	17581.705333	914.887695	-169.565964
-13831.973564	17581.705333	913.721680	-87.831276
-13831.973564	17581.705333	912.554688	-243.950043
-13831.973564	17581.705333	911.387695	-36.509781
-13831.973564	17581.705333	910.220703	-57.562756
-13831.973564	17581.705333	909.052734	-36.733601
-13831.973564	17581.705333	907.885742	-62.566536
-13831.973564	17581.705333	906.717773	-2.286006
-13831.973564	17581.705333	905.548828	276.758698
-13831.973564	17581.705333	904.380859	262.332275
-13831.973564	17581.705333	903.211914	203.639664
-13831.973564	17581.705333	902.042969	100.701126
-13831.973564	17581.705333	900.874023	-32.500401
-13831.973564	17581.705333	899.704102	215.728333
-13831.973564	17581.705333	898.535156	70.808823
-13831.973564	17581.705333	897.365234	60.736439
-13831.973564	17581.705333	896.194336	-239.929916
-13831.973564	17581.705333	895.024414	-140.832916
-13831.973564	17581.705333	893.853516	-55.770451
-13831.973564	17581.705333	892.682617	77.981308
-13831.973564	17581.705333	891.511719	-60.108433
-13831.973564	17581.705333	890.340820	10.779146
-13831.973564	17581.705333	889.168945	-36.811607
-13831.973564	17581.705333	887.997070	-49.623459
-13831.973564	17581.705333	886.825195	118.515907
-13831.973564	17581.705333	885.653320	147.323746
-13831.973564	17581.705333	884.480469	36.894955
-13831.973564	17581.705333	883.307617	-168.628265
-13831.973564	17581.705333	882.134766	189.311157
-13831.973564	17581.705333	880.961914	97.319115
-13831.973564	17581.705333	879.788086	28.494240
-13831.973564	17581.705333	878.614258	133.437866
-13831.973564	17581.705333	877.440430	194.265656
-13831.973564	17581.705333	876.266602	211.003403
-13831.973564	17581.705333	875.091797	-240.107895
-13831.973564	17581.705333	873.916992	59.086037
-13831.973564	17581.705333	872.742188	-188.205444
-13831.973564	17581.705333	871.567383	69.092293
-13831.973564	17581.705333	870.391602	-115.723305
-13831.973564	17581.705333	869.215820	-87.675568
-13831.973564	17581.705333	868.040039	-59.689888
-13831.973564	17581.705333	866.864258	167.107147
-13831.973564	17581.705333	865.687500	-114.877800
-13831.973564	17581.705333	864.510742	23.904343
-13831.973564	17581.705333	863.333984	23.914883
-13831.973564	17581.705333	862.157227	-56.994255
-13831.973564	17581.705333	860.979492	97.718140
-13831.973564	17581.705333	859.802734	-17.916065
-13831.973564	17581.705333	858.625000	7.314061
-13831.973564	17581.705333	857.446289	-202.997513
-13831.973564	17581.705333	856.268555	-150.137070
-13831.973564	17581.705333	855.089844	-152.727890
-13831.973564	17581.705333	853.911133	43.064587
-13831.973564	17581.705333	852.731445	-220.324203
-13831.973564	17581.705333	851.552734	37.577579
-13831.973564	17581.705333	850.373047	-223.488480
-13831.973564	17581.705333	849.193359	-69.521629
-13831.973564	17581.705333	848.013672	49.761608
-13831.973564	17581.705333	846.833008	42.210510
-13831.973564	17581.705333	845.652344	-96.709244
-13831.973564	17581.705333	844.471680	211.262390
-13831.973564	17581.705333	843.291016	233.485062
-13831.973564	17581.705333	842.110352	193.486374
-13831.973564	17581.705333	840.928711	125.838051
-13831.973564	17581.705333	839.747070	336.669983
-13831.973564	17581.705333	838.564453	128.567459
-13831.973564	17581.705333	837.382813	-166.922592
-13831.973564	17581.705333	836.200195	-218.510757
-13831.973564	17581.705333	835.017578	-178.133392
-13831.973564	17581.705333	833.834961	-6.757081
-13831.973564	17581.705333	832.651367	-246.970566
-13831.973564	17581.705333	831.467773	-121.698425
-13831.973564	17581.705333	830.284180	150.540039
-13831.973564	17581.705333	829.100586	20.586809
-13831.973564	17581.705333	827.916992	44.535835
-13831.973564	17581.705333	826.732422	-30.309265
-13831.973564	17581.705333	825.547852	-162.564316
-13831.973564	17581.705333	824.363281	-168.555298
-13831.973564	17581.705333	823.177734	-43.767792
-13831.973564	17581.705333	821.992188	-10.852679
-13831.973564	17581.705333	820.806641	-264.749268
-13831.973564	17581.705333	819.621094	54.808243
-13831.973564	17581.705333	818.434570	-20.212772
-13831.973564	17581.705333	817.249023	-5.838503
-13831.973564	17581.705333	816.062500	123.101982
-13831.973564	17581.705333	814.875000	-181.176453
-13831.973564	17581.705333	813.688477	176.784561
-13831.973564	17581.705333	812.500977	90.159637
-13831.973564	17581.705333	811.313477	102.009079
-13831.973564	17581.705333	810.125977	51.989227
-13831.973564	17581.705333	808.937500	297.274200
-13831.973564	17581.705333	807.749023	73.207581
-13831.973564	17581.705333	806.560547	123.793365
-13831.973564	17581.705333	805.372070	-24.726192
-13831.973564	17581.705333	804.182617	149.303329
-13831.973564	17581.705333	802.994141	204.295929
-13831.973564	17581.705333	801.803711	-5.998296
-13831.973564	17581.705333	800.614258	67.213638
-13831.973564	17581.705333	799.424805	-28.773294
-13831.973564	17581.705333	798.234375	-90.482605
-13831.973564	17581.705333	797.043945	-323.548981
-13831.973564	17581.705333	795.852539	67.004013
-13831.973564	17581.705333	794.662109	71.418892
-13831.973564	17581.705333	793.470703	315.525360
-13831.973564	17581.705333	792.279297	223.934937
-13831.973564	17581.705333	791.087891	168.858566
-13831.973564	17581.705333	789.895508	209.600586
-13831.973564	17581.705333	788.703125	88.315567
-13831.973564	17581.705333	787.510742	172.310135
-13831.973564	17581.705333	786.318359	-1.446957
-13831.973564	17581.705333	785.125000	-11.018739
-13831.973564	17581.705333	783.931641	-157.391144
-13831.973564	17581.705333	782.738281	-130.546616
-13831.973564	17581.705333	781.544922	83.075333
-13831.973564	17581.705333	780.350586	203.177170
-13831.973564	17581.705333	779.156250	15.726211
-13831.973564	17581.705333	777.961914	-139.810822
-13831.973564	17581.705333	776.767578	-22.139059
-13831.973564	17581.705333	775.572266	-13.804242
-13831.973564	17581.705333	774.376953	58.200104
-13831.973564	17581.705333	773.181641	-227.059692
-13831.973564	17581.705333	771.986328	67.791306
-13831.973564	17581.705333	770.790039	-185.595566
-13831.973564	17581.705333	769.593750	-20.557425
-13831.973564	17581.705333	768.397461	-42.033844
-13831.973564	17581.705333	767.201172	50.092270
-13831.973564	17581.705333	766.003906	148.958466
-13831.973564	17581.705333	764.806641	231.839020
-13831.973564	17581.705333	763.609375	255.587357
-13831.973564	17581.705333	762.412109	408.720917
-13831.973564	17581.705333	761.213867	228.004074
-13831.973564	17581.705333	760.015625	771.424072
-13831.973564	17581.705333	758.817383	674.588318
-13831.973564	17581.705333	757.618164	450.690582
-13831.973564	17581.705333	756.419922	226.840729
-13831.973564	17581.705333	755.220703	-83.143631
-13831.973564	17581.705333	754.021484	-55.175449
-13831.973564	17581.705333	752.821289	2.210515
-13831.973564	17581.705333	751.621094	349.654144
-13831.973564	17581.705333	750.420898	-139.295929
-13831.973564	17581.705333	749.220703	-82.061676
-13831.973564	17581.705333	748.020508	-120.035866
-13831.973564	17581.705333	746.819336	136.379379
-13831.973564	17581.705333	745.618164	21.302588
-13831.973564	17581.705333	744.416992	128.081268
-13831.973564	17581.705333	743.214844	200.820953
-13831.973564	17581.705333	742.012695	196.548523
-13831.973564	17581.705333	740.810547	85.900505
-13831.973564	17581.705333	739.608398	67.988068
-13831.973564	17581.705333	738.406250	83.959465
-13831.973564	17581.705333	737.203125	497.806793
-13831.973564	17581.705333	736.000000	149.652740
-13831.973564	17581.705333	734.795898	576.780396
-13831.973564	17581.705333	733.592773	526.919922
-13831.973564	17581.705333	732.388672	560.618042
-13831.973564	17581.705333	731.184570	605.548401
-13831.973564	17581.705333	729.979492	182.984100
-13831.973564	17581.705333	728.775391	453.641998
-13831.973564	17581.705333	727.570313	356.220795
-13831.973564	17581.705333	726.365234	274.589630
-13831.973564	17581.705333	725.160156	251.605682
-13831.973564	17581.705333	723.954102	363.926666
-13831.973564	17581.705333	722.748047	543.812439
-13831.973564	17581.705333	721.541992	662.690491
-13831.973564	17581.705333	720.334961	585.345398
-13831.973564	17581.705333	719.128906	309.641144
-13831.973564	17581.705333	717.921875	257.088257
-13831.973564	17581.705333	716.714844	463.591339
-13831.973564	17581.705333	715.506836	64.051941
-13831.973564	17581.705333	714.298828	-123.685829
-13831.973564	17581.705333	713.090820	-122.268639
-13831.973564	17581.705333	711.882813	-87.140007
-13831.973564	17581.705333	710.674805	-182.608704
-13831.973564	17581.705333	709.465820	-109.332008
-13831.973564	17581.705333	708.256836	-6.893300
-13831.973564	17581.705333	707.047852	16.728737
-13831.973564	17581.705333	705.837891	-29.416246
-13831.973564	17581.705333	704.627930	-14.895892
-13831.973564	17581.705333	703.417969	323.240814
-13831.973564	17581.705333	702.208008	346.564026
-13831.973564	17581.705333	700.998047	158.628281
-13831.973564	17581.705333	699.787109	112.234985
-13831.973564	17581.705333	698.576172	7.418293
-13831.973564	17581.705333	697.364258	-232.131805
-13831.973564	17581.705333	696.153320	-83.268425
-13831.973564	17581.705333	694.941406	168.722519
-13831.973564	17581.705333	693.729492	-187.558228
-13831.973564	17581.705333	692.516602	-303.690369
-13831.973564	17581.705333	691.304688	-143.938736
-13831.973564	17581.705333	690.091797	-112.134529
-13831.973564	17581.705333	688.878906	139.325165
-13831.973564	17581.705333	687.665039	14.036264
-13831.973564	17581.705333	686.451172	88.205276
-13831.973564	17581.705333	685.237305	-113.314377
-13831.973564	17581.705333	684.023438	-157.991547
-13831.973564	17581.705333	682.809570	21.267420
-13831.973564	17581.705333	681.594727	-95.187798
-13831.973564	17581.705333	680.379883	146.556564
-13831.973564	17581.705333	679.165039	182.217224
-13831.973564	17581.705333	677.949219	45.495300
-13831.973564	17581.705333	676.733398	204.103531
-13831.973564	17581.705333	675.517578	127.717659
-13831.973564	17581.705333	674.301758	111.689194
-13831.973564	17581.705333	673.084961	41.949562
-13831.973564	17581.705333	671.869141	-68.055641
-13831.973564	17581.705333	670.651367	87.891663
-13831.973564	17581.705333	669.434570	-109.336807
-13831.973564	17581.705333	668.216797	-384.733795
-13831.973564	17581.705333	667.000000	7.773592
-13831.973564	17581.705333	665.781250	132.082642
-13831.973564	17581.705333	664.563477	-56.285923
-13831.973564	17581.705333	663.344727	199.567398
-13831.973564	17581.705333	662.125977	136.123520
-13831.973564	17581.705333	660.907227	-90.228813
-13831.973564	17581.705333	659.688477	4.684260
-13831.973564	17581.705333	658.468750	-54.387905
-13831.973564	17581.705333	657.249023	64.891312
-13831.973564	17581.705333	656.029297	74.826675
-13831.973564	17581.705333	654.808594	8.917427
-13831.973564	17581.705333	653.587891	87.824570
-13831.973564	17581.705333	652.367188	46.335320
-13831.973564	17581.705333	651.146484	35.990795
-13831.973564	17581.705333	649.924805	-248.329025
-13831.973564	17581.705333	648.704102	-131.807602
-13831.973564	17581.705333	647.482422	122.621529
-13831.973564	17581.705333	646.259766	192.161499
-13831.973564	17581.705333	645.037109	355.071350
-13831.973564	17581.705333	643.815430	148.565323
-13831.973564	17581.705333	642.591797	220.110672
-13831.973564	17581.705333	641.369141	169.267868
-13831.973564	17581.705333	640.145508	158.407608
-13831.973564	17581.705333	638.921875	100.818451
-13831.973564	17581.705333	637.698242	-43.470066
-13831.973564	17581.705333	636.474609	198.843048
-13831.973564	17581.705333	635.250000	65.588570
-13831.973564	17581.705333	634.025391	223.270111
-13831.973564	17581.705333	632.800781	165.452408
-13831.973564	17581.705333	631.575195	63.204384
-13831.973564	17581.705333	630.349609	100.772026
-13831.973564	17581.705333	629.124023	246.999374
-13831.973564	17581.705333	627.898438	66.988289
-13831.973564	17581.705333	626.671875	-6.534199
-13831.973564	17581.705333	625.445313	121.721062
-13831.973564	17581.705333	624.218750	229.916504
-13831.973564	17581.705333	622.992188	258.212646
-13831.973564	17581.705333	621.764648	297.523865
-13831.973564	17581.705333	620.537109	321.256744
-13831.973564	17581.705333	619.309570	161.063950
-13831.973564	17581.705333	618.081055	78.402809
-13831.973564	17581.705333	616.852539	-81.775078
-13831.973564	17581.705333	615.624023	-122.387276
-13831.973564	17581.705333	614.395508	180.035370
-13831.973564	17581.705333	613.166992	112.729630
-13831.973564	17581.705333	611.937500	-116.105186
-13831.973564	17581.705333	610.708008	-81.671501
-13831.973564	17581.705333	609.477539	25.675264
-13831.973564	17581.705333	608.248047	199.262482
-13831.973564	17581.705333	607.017578	103.039047
-13831.973564	17581.705333	605.787109	-220.826233
-13831.973564	17581.705333	604.555664	-412.026733
-13831.973564	17581.705333	603.325195	-265.193787
-13831.973564	17581.705333	602.093750	-131.724442
-13831.973564	17581.705333	600.861328	-239.051895
-13831.973564	17581.705333	599.629883	-538.447815
-13831.973564	17581.705333	598.397461	-206.489166
-13831.973564	17581.705333	597.165039	125.282265
-13831.973564	17581.705333	595.932617	-132.213074
-13831.973564	17581.705333	594.699219	-288.176605
-13831.973564	17581.705333	593.465820	-148.597260
-13831.973564	17581.705333	592.232422	114.355583
-13831.973564	17581.705333	590.999023	-99.001106
-13831.973564	17581.705333	589.764648	-39.019218
-13831.973564	17581.705333	588.530273	219.210876
-13831.973564	17581.705333	587.295898	-177.007523
-13831.973564	17581.705333	586.061523	3.974608
-13831.973564	17581.705333	584.826172	-68.401749
-13831.973564	17581.705333	583.590820	-160.601822
-13831.973564	17581.705333	582.355469	2.535111
-13831.973564	17581.705333	581.119141	95.139427
-13831.973564	17581.705333	579.882813	161.267456
-13831.973564	17581.705333	578.646484	-16.841917
-13831.973564	17581.705333	577.410156	181.165421
-13831.973564	17581.705333	576.172852	548.359192
-13831.973564	17581.705333	574.935547	33.830994
-13831.973564	17581.705333	573.698242	86.538452
-13831.973564	17581.705333	572.460938	130.400146
-13831.973564	17581.705333	571.222656	433.442719
-13831.973564	17581.705333	569.984375	13.693428
-13831.973564	17581.705333	568.746094	294.609863
-13831.973564	17581.705333	567.506836	147.247940
-13831.973564	17581.705333	566.267578	223.812653
-13831.973564	17581.705333	565.028320	-9.119238
-13831.973564	17581.705333	563.789063	126.630585
-13831.973564	17581.705333	562.548828	167.961639
-13831.973564	17581.705333	561.309570	134.685959
-13831.973564	17581.705333	560.068359	195.674683
-13831.973564	17581.705333	558.828125	111.926910
-13831.973564	17581.705333	557.586914	115.856194
-13831.973564	17581.705333	556.345703	349.843475
-13831.973564	17581.705333	555.104492	84.195854
-13831.973564	17581.705333	553.863281	221.665833
-13831.973564	17581.705333	552.621094	383.137054
-13831.973564	17581.705333	551.378906	389.064697
-13831.973564	17581.705333	550.136719	204.529251
-13831.973564	17581.705333	548.893555	554.035400
-13831.973564	17581.705333	547.650391	686.757080
-13831.973564	17581.705333	546.407227	265.950531
-13831.973564	17581.705333	545.164063	243.348557
-13831.973564	17581.705333	543.919922	386.916626
-13831.973564	17581.705333	542.675781	630.963379
-13831.973564	17581.705333	541.431641	446.491058
-13831.973564	17581.705333	540.186523	233.666260
-13831.973564	17581.705333	538.941406	68.979195
-13831.973564	17581.705333	537.696289	7.000422
-13831.973564	17581.705333	536.451172	-50.601879
-13831.973564	17581.705333	535.205078	5.328907
-13831.973564	17581.705333	533.959961	115.792549
-13831.973564	17581.705333	532.712891	-24.794308
-13831.973564	17581.705333	531.466797	113.950722
-13831.973564	17581.705333	530.219727	95.547516
-13831.973564	17581.705333	528.972656	11.702956
-13831.973564	17581.705333	527.725586	17.276394
-13831.973564	17581.705333	526.478516	-1.152166
-13831.973564	17581.705333	525.230469	-163.449936
-13831.973564	17581.705333	523.982422	-40.230476
-13831.973564	17581.705333	522.734375	235.420090
-13831.973564	17581.705333	521.485352	-153.418365
-13831.973564	17581.705333	520.236328	-426.691528
-13831.973564	17581.705333	518.987305	-162.087265
-13831.973564	17581.705333	517.737305	-121.830566
-13831.973564	17581.705333	516.488281	131.669876
-13831.973564	17581.705333	515.238281	-132.816910
-13831.973564	17581.705333	513.988281	-7.818877
-13831.973564	17581.705333	512.737305	1.827367
-13831.973564	17581.705333	511.486328	-64.660110
-13831.973564	17581.705333	510.235352	-361.586761
-13831.973564	17581.705333	508.984375	-393.244446
-13831.973564	17581.705333	507.732422	107.479126
-13831.973564	17581.705333	506.480469	-22.088846
-13831.973564	17581.705333	505.228516	9.105291
-13831.973564	17581.705333	503.976563	296.511597
-13831.973564	17581.705333	502.723633	25.765333
-13831.973564	17581.705333	501.470703	-66.900208
-13831.973564	17581.705333	500.217773	14.062417
-13831.973564	17581.705333	498.963867	238.153427
-13831.973564	17581.705333	497.709961	195.287506
-13831.973564	17581.705333	496.456055	280.361450
-13831.973564	17581.705333	495.202148	189.721176
-13831.973564	17581.705333	493.947266	172.780472
-13831.973564	17581.705333	492.692383	290.186188
-13831.973564	17581.705333	491.437500	257.973358
-13831.973564	17581.705333	490.181641	500.865936
-13831.973564	17581.705333	488.926758	329.895782
-13831.973564	17581.705333	487.670898	494.604462
-13831.973564	17581.705333	486.414063	481.643646
-13831.973564	17581.705333	485.158203	384.211121
-13831.973564	17581.705333	483.901367	388.472839
-13831.973564	17581.705333	482.644531	416.469482
-13831.973564	17581.705333	481.386719	388.136749
-13831.973564	17581.705333	480.128906	340.280792
-13831.973564	17581.705333	478.871094	502.117096
-13831.973564	17581.705333	477.613281	611.921570
-13831.973564	17581.705333	476.355469	684.854797
-13831.973564	17581.705333	475.096680	653.941162
-13831.973564	17581.705333	473.837891	778.507996
-13831.973564	17581.705333	472.578125	667.481628
-13831.973564	17581.705333	471.319336	282.155273
-13831.973564	17581.705333	470.059570	920.277954
-13831.973564	17581.705333	468.799805	919.078735
-13831.973564	17581.705333	467.539063	788.278015
-13831.973564	17581.705333	466.278320	741.565796
-13831.973564	17581.705333	465.017578	949.300232
-13831.973564	17581.705333	463.756836	736.259338
-13831.973564	17581.705333	462.495117	633.142822
-13831.973564	17581.705333	461.233398	842.523071
-13831.973564	17581.705333	459.971680	616.292664
-13831.973564	17581.705333	458.709961	637.820679
-13831.973564	17581.705333	457.447266	486.826996
-13831.973564	17581.705333	456.184570	809.600342
-13831.973564	17581.705333	454.921875	630.309937
-13831.973564	17581.705333	453.658203	1161.403198
-13831.973564	17581.705333	452.394531	927.934021
-13831.973564	17581.705333	451.130859	978.449829
-13831.973564	17581.705333	449.867188	650.062317
-13831.973564	17581.705333	448.602539	612.008240
-13831.973564	17581.705333	447.337891	715.698730
-13831.973564	17581.705333	446.073242	681.510254
-13831.973564	17581.705333	444.807617	791.129517
-13831.973564	17581.705333	443.542969	952.051392
-13831.973564	17581.705333	442.276367	755.936340
-13831.973564	17581.705333	441.010742	548.910095
-13831.973564	17581.705333	439.744141	758.387939
-13831.973564	17581.705333	438.478516	943.880676
-13831.973564	17581.705333	437.210938	648.068665
-13831.973564	17581.705333	435.944336	948.817200
-13831.973564	17581.705333	434.676758	837.077698
-13831.973564	17581.705333	433.409180	830.195557
-13831.973564	17581.705333	432.141602	584.876160
-13831.973564	17581.705333	430.873047	669.579834
-13831.973564	17581.705333	429.604492	837.507324
-13831.973564	17581.705333	428.335938	1039.290527
-13831.973564	17581.705333	427.067383	906.254456
-13831.973564	17581.705333	425.797852	903.575867
-13831.973564	17581.705333	424.528320	656.261536
-13831.973564	17581.705333	423.258789	1119.719482
-13831.973564	17581.705333	421.988281	766.655457
-13831.973564	17581.705333	420.717773	884.290955
-13831.973564	17581.705333	419.447266	851.567871
-13831.973564	17581.705333	418.175781	1250.637085
-13831.973564	17581.705333	416.905273	767.557800
-13831.973564	17581.705333	415.633789	767.579468
-13831.973564	17581.705333	414.362305	1075.019043
-13831.973564	17581.705333	413.089844	868.602112
-13831.973564	17581.705333	411.817383	875.467712
-13831.973564	17581.705333	410.544922	1213.002075
-13831.973564	17581.705333	409.272461	774.141663
-13831.973564	17581.705333	407.999023	973.569336
-13831.973564	17581.705333	406.725586	905.281433
-13831.973564	17581.705333	405.452148	1037.074341
-13831.973564	17581.705333	404.177734	961.012756
-13831.973564	17581.705333	402.903320	1076.366333
-13831.973564	17581.705333	401.628906	759.873230
-13831.973564	17581.705333	400.354492	1057.203003
-13831.973564	17581.705333	399.079102	1168.026855
-13831.973564	17581.705333	397.803711	926.118835
-13831.973564	17581.705333	396.528320	888.167908
-13831.973564	17581.705333	395.251953	1141.388916
-13831.973564	17581.705333	393.976563	918.387573
-13831.973564	17581.705333	392.700195	1005.635498
-13831.973564	17581.705333	391.422852	838.385742
-13831.973564	17581.705333	390.145508	842.757935
-13831.973564	17581.705333	388.869141	1073.999146
-13831.973564	17581.705333	387.590820	940.033997
-13831.973564	17581.705333	386.313477	1062.639160
-13831.973564	17581.705333	385.035156	1064.920044
-13831.973564	17581.705333	383.756836	806.537781
-13831.973564	17581.705333	382.478516	493.950104
-13831.973564	17581.705333	381.199219	837.397278
-13831.973564	17581.705333	379.919922	652.218628
-13831.973564	17581.705333	378.640625	774.094299
-13831.973564	17581.705333	377.360352	671.466614
-13831.973564	17581.705333	376.080078	656.810120
-13831.973564	17581.705333	374.799805	950.951172
-13831.973564	17581.705333	373.519531	818.826782
-13831.973564	17581.705333	372.238281	757.493103
-13831.973564	17581.705333	370.957031	575.845520
-13831.973564	17581.705333	369.675781	791.789307
-13831.973564	17581.705333	368.394531	509.568726
-13831.973564	17581.705333	367.112305	457.087646
-13831.973564	17581.705333	365.830078	148.488525
-13831.973564	17581.705333	364.546875	359.965820
-13831.973564	17581.705333	363.264648	313.158478
-13831.973564	17581.705333	361.981445	442.620728
-13831.973564	17581.705333	360.698242	140.037369
-13831.973564	17581.705333	359.414063	145.021637
-13831.973564	17581.705333	358.129883	33.721962
-13831.973564	17581.705333	356.845703	-32.877361
-13831.973564	17581.705333	355.561523	385.539032
-13831.973564	17581.705333	354.276367	426.996460
-13831.973564	17581.705333	352.991211	394.383362
-13831.973564	17581.705333	351.706055	357.521851
-13831.973564	17581.705333	350.420898	227.512390
-13831.973564	17581.705333	349.134766	279.248474
-13831.973564	17581.705333	347.848633	402.659698
-13831.973564	17581.705333	346.561523	238.180771
-13831.973564	17581.705333	345.275391	20.686111
-13831.973564	17581.705333	343.988281	136.726929
-13831.973564	17581.705333	342.700195	269.110138
-13831.973564	17581.705333	341.413086	29.256948
-13831.973564	17581.705333	340.125000	257.688049
-13831.973564	17581.705333	338.836914	67.355179
-13831.973564	17581.705333	337.548828	-79.258026
-13831.973564	17581.705333	336.259766	11.828087
-13831.973564	17581.705333	334.970703	180.112534
-13831.973564	17581.705333	333.681641	-72.356499
-13831.973564	17581.705333	332.391602	-186.578766
-13831.973564	17581.705333	331.101563	44.005962
-13831.973564	17581.705333	329.811523	-0.675326
-13831.973564	17581.705333	328.521484	-27.560204
-13831.973564	17581.705333	327.230469	-24.190916
-13831.973564	17581.705333	325.939453	-85.374420
-13831.973564	17581.705333	324.648438	-0.519319
-13831.973564	17581.705333	323.356445	-85.777756
-13831.973564	17581.705333	322.064453	145.312195
-13831.973564	17581.705333	320.772461	117.827751
-13831.973564	17581.705333	319.480469	-43.981480
-13831.973564	17581.705333	318.187500	-115.113235
-13831.973564	17581.705333	316.894531	-19.876043
-13831.973564	17581.705333	315.601563	71.185944
-13831.973564	17581.705333	314.307617	-336.247650
-13831.973564	17581.705333	313.013672	-388.364136
-13831.973564	17581.705333	311.719727	-142.237915
-13831.973564	17581.705333	310.425781	-96.140404
-13831.973564	17581.705333	309.130859	10.308713
-13831.973564	17581.705333	307.835938	-198.845169
-13831.973564	17581.705333	306.541016	156.326431
-13831.973564	17581.705333	305.245117	-37.462646
-13831.973564	17581.705333	303.949219	170.988373
-13831.973564	17581.705333	302.653320	401.493134
-13831.973564	17581.705333	301.356445	288.709381
-13831.973564	17581.705333	300.060547	726.624573
-13831.973564	17581.705333	298.763672	496.035187
