#X		#Y		#Wave		#Intensity
3053.013511	5962.700167	1999.980469	-142.669861
3053.013511	5962.700167	1999.016602	-194.827820
3053.013511	5962.700167	1998.052734	-30.179476
3053.013511	5962.700167	1997.087891	-74.548523
3053.013511	5962.700167	1996.123047	-15.624532
3053.013511	5962.700167	1995.158203	62.332592
3053.013511	5962.700167	1994.193359	-41.282234
3053.013511	5962.700167	1993.228516	109.481117
3053.013511	5962.700167	1992.262695	-30.168922
3053.013511	5962.700167	1991.297852	129.065872
3053.013511	5962.700167	1990.332031	101.978340
3053.013511	5962.700167	1989.366211	-22.237951
3053.013511	5962.700167	1988.399414	100.384857
3053.013511	5962.700167	1987.433594	-131.358261
3053.013511	5962.700167	1986.466797	84.042450
3053.013511	5962.700167	1985.500977	-89.403587
3053.013511	5962.700167	1984.534180	372.028046
3053.013511	5962.700167	1983.567383	-86.708000
3053.013511	5962.700167	1982.599609	-135.545044
3053.013511	5962.700167	1981.632813	-29.199392
3053.013511	5962.700167	1980.665039	-81.458183
3053.013511	5962.700167	1979.697266	154.821381
3053.013511	5962.700167	1978.729492	341.186981
3053.013511	5962.700167	1977.761719	203.628235
3053.013511	5962.700167	1976.792969	189.141556
3053.013511	5962.700167	1975.825195	13.841996
3053.013511	5962.700167	1974.856445	267.591278
3053.013511	5962.700167	1973.887695	210.026901
3053.013511	5962.700167	1972.918945	152.133881
3053.013511	5962.700167	1971.949219	140.786896
3053.013511	5962.700167	1970.980469	173.503418
3053.013511	5962.700167	1970.010742	85.101906
3053.013511	5962.700167	1969.041016	218.270782
3053.013511	5962.700167	1968.071289	-124.516319
3053.013511	5962.700167	1967.101563	121.426819
3053.013511	5962.700167	1966.130859	113.283798
3053.013511	5962.700167	1965.161133	11.301220
3053.013511	5962.700167	1964.190430	47.022823
3053.013511	5962.700167	1963.219727	205.608597
3053.013511	5962.700167	1962.249023	329.457153
3053.013511	5962.700167	1961.277344	101.108879
3053.013511	5962.700167	1960.306641	-11.695618
3053.013511	5962.700167	1959.334961	86.938324
3053.013511	5962.700167	1958.363281	217.337387
3053.013511	5962.700167	1957.391602	111.427124
3053.013511	5962.700167	1956.419922	253.747055
3053.013511	5962.700167	1955.447266	29.559597
3053.013511	5962.700167	1954.474609	225.627609
3053.013511	5962.700167	1953.501953	114.304329
3053.013511	5962.700167	1952.529297	22.556982
3053.013511	5962.700167	1951.556641	-111.032204
3053.013511	5962.700167	1950.583984	-18.713297
3053.013511	5962.700167	1949.610352	346.048370
3053.013511	5962.700167	1948.636719	104.142914
3053.013511	5962.700167	1947.663086	191.181885
3053.013511	5962.700167	1946.689453	-16.406971
3053.013511	5962.700167	1945.715820	97.463997
3053.013511	5962.700167	1944.741211	-16.941565
3053.013511	5962.700167	1943.767578	-28.337122
3053.013511	5962.700167	1942.792969	-186.932739
3053.013511	5962.700167	1941.818359	-85.602936
3053.013511	5962.700167	1940.842773	194.607269
3053.013511	5962.700167	1939.868164	339.869751
3053.013511	5962.700167	1938.892578	124.797485
3053.013511	5962.700167	1937.916992	118.044632
3053.013511	5962.700167	1936.941406	125.971443
3053.013511	5962.700167	1935.965820	-98.804230
3053.013511	5962.700167	1934.990234	225.029617
3053.013511	5962.700167	1934.013672	181.473389
3053.013511	5962.700167	1933.037109	194.231216
3053.013511	5962.700167	1932.060547	89.505203
3053.013511	5962.700167	1931.083984	-169.339661
3053.013511	5962.700167	1930.107422	-14.615259
3053.013511	5962.700167	1929.129883	164.518799
3053.013511	5962.700167	1928.153320	-15.906265
3053.013511	5962.700167	1927.175781	-100.889061
3053.013511	5962.700167	1926.198242	-4.912205
3053.013511	5962.700167	1925.219727	34.828987
3053.013511	5962.700167	1924.242188	79.471428
3053.013511	5962.700167	1923.263672	53.262154
3053.013511	5962.700167	1922.285156	232.295975
3053.013511	5962.700167	1921.306641	79.120941
3053.013511	5962.700167	1920.328125	263.031006
3053.013511	5962.700167	1919.349609	195.429413
3053.013511	5962.700167	1918.370117	193.794876
3053.013511	5962.700167	1917.391602	40.884926
3053.013511	5962.700167	1916.412109	149.165863
3053.013511	5962.700167	1915.431641	-281.731934
3053.013511	5962.700167	1914.452148	-56.262550
3053.013511	5962.700167	1913.472656	-140.562012
3053.013511	5962.700167	1912.492188	-132.131577
3053.013511	5962.700167	1911.511719	-323.566711
3053.013511	5962.700167	1910.531250	-90.769066
3053.013511	5962.700167	1909.550781	59.131142
3053.013511	5962.700167	1908.569336	60.391212
3053.013511	5962.700167	1907.588867	-211.138687
3053.013511	5962.700167	1906.607422	-80.644852
3053.013511	5962.700167	1905.625977	-13.465872
3053.013511	5962.700167	1904.644531	87.823143
3053.013511	5962.700167	1903.662109	4.115955
3053.013511	5962.700167	1902.680664	44.616226
3053.013511	5962.700167	1901.698242	-38.954102
3053.013511	5962.700167	1900.715820	-17.830854
3053.013511	5962.700167	1899.733398	-147.478256
3053.013511	5962.700167	1898.750000	-145.705902
3053.013511	5962.700167	1897.767578	11.732918
3053.013511	5962.700167	1896.784180	-49.640015
3053.013511	5962.700167	1895.800781	78.643890
3053.013511	5962.700167	1894.817383	14.943245
3053.013511	5962.700167	1893.833984	38.778683
3053.013511	5962.700167	1892.850586	-202.139786
3053.013511	5962.700167	1891.866211	88.978653
3053.013511	5962.700167	1890.881836	-40.073822
3053.013511	5962.700167	1889.897461	78.606949
3053.013511	5962.700167	1888.913086	-103.720459
3053.013511	5962.700167	1887.927734	-164.593491
3053.013511	5962.700167	1886.943359	73.056000
3053.013511	5962.700167	1885.958008	123.842796
3053.013511	5962.700167	1884.972656	111.578011
3053.013511	5962.700167	1883.987305	104.200577
3053.013511	5962.700167	1883.001953	-87.420929
3053.013511	5962.700167	1882.015625	-72.882698
3053.013511	5962.700167	1881.029297	140.429764
3053.013511	5962.700167	1880.042969	-143.097565
3053.013511	5962.700167	1879.056641	4.779656
3053.013511	5962.700167	1878.070313	19.390707
3053.013511	5962.700167	1877.083984	63.079449
3053.013511	5962.700167	1876.096680	225.424377
3053.013511	5962.700167	1875.109375	87.511200
3053.013511	5962.700167	1874.122070	2.918053
3053.013511	5962.700167	1873.134766	-91.310196
3053.013511	5962.700167	1872.146484	136.327698
3053.013511	5962.700167	1871.159180	114.705948
3053.013511	5962.700167	1870.170898	-284.236420
3053.013511	5962.700167	1869.182617	-288.832947
3053.013511	5962.700167	1868.194336	-25.037909
3053.013511	5962.700167	1867.205078	-235.163712
3053.013511	5962.700167	1866.216797	64.774994
3053.013511	5962.700167	1865.227539	-41.383461
3053.013511	5962.700167	1864.238281	-96.770622
3053.013511	5962.700167	1863.249023	186.041885
3053.013511	5962.700167	1862.259766	-127.811516
3053.013511	5962.700167	1861.269531	-137.306488
3053.013511	5962.700167	1860.279297	-141.985748
3053.013511	5962.700167	1859.290039	12.632402
3053.013511	5962.700167	1858.298828	-211.730881
3053.013511	5962.700167	1857.308594	-88.571068
3053.013511	5962.700167	1856.318359	61.054058
3053.013511	5962.700167	1855.327148	-71.611626
3053.013511	5962.700167	1854.335938	181.590317
3053.013511	5962.700167	1853.344727	302.053925
3053.013511	5962.700167	1852.353516	87.356827
3053.013511	5962.700167	1851.362305	29.365690
3053.013511	5962.700167	1850.370117	103.889595
3053.013511	5962.700167	1849.377930	-64.995903
3053.013511	5962.700167	1848.385742	40.743809
3053.013511	5962.700167	1847.393555	360.742981
3053.013511	5962.700167	1846.401367	47.284248
3053.013511	5962.700167	1845.408203	138.346390
3053.013511	5962.700167	1844.415039	-23.420628
3053.013511	5962.700167	1843.421875	279.283417
3053.013511	5962.700167	1842.428711	74.123039
3053.013511	5962.700167	1841.435547	145.627975
3053.013511	5962.700167	1840.441406	361.351898
3053.013511	5962.700167	1839.448242	353.283508
3053.013511	5962.700167	1838.454102	128.759064
3053.013511	5962.700167	1837.459961	41.265911
3053.013511	5962.700167	1836.464844	78.704109
3053.013511	5962.700167	1835.470703	373.167419
3053.013511	5962.700167	1834.475586	218.170334
3053.013511	5962.700167	1833.480469	166.435776
3053.013511	5962.700167	1832.485352	-19.855049
3053.013511	5962.700167	1831.490234	-62.094219
3053.013511	5962.700167	1830.495117	-20.384708
3053.013511	5962.700167	1829.499023	162.827347
3053.013511	5962.700167	1828.502930	93.897217
3053.013511	5962.700167	1827.506836	276.824493
3053.013511	5962.700167	1826.510742	-190.513306
3053.013511	5962.700167	1825.513672	116.910049
3053.013511	5962.700167	1824.517578	265.850525
3053.013511	5962.700167	1823.520508	165.279755
3053.013511	5962.700167	1822.523438	345.095642
3053.013511	5962.700167	1821.526367	71.770576
3053.013511	5962.700167	1820.529297	292.042542
3053.013511	5962.700167	1819.531250	243.791672
3053.013511	5962.700167	1818.533203	159.512100
3053.013511	5962.700167	1817.535156	15.270985
3053.013511	5962.700167	1816.537109	7.439216
3053.013511	5962.700167	1815.539063	384.903320
3053.013511	5962.700167	1814.540039	101.498093
3053.013511	5962.700167	1813.541992	318.212616
3053.013511	5962.700167	1812.542969	-80.177109
3053.013511	5962.700167	1811.543945	198.412918
3053.013511	5962.700167	1810.543945	180.191025
3053.013511	5962.700167	1809.544922	202.493164
3053.013511	5962.700167	1808.544922	121.839531
3053.013511	5962.700167	1807.544922	165.366455
3053.013511	5962.700167	1806.544922	304.325928
3053.013511	5962.700167	1805.544922	89.458282
3053.013511	5962.700167	1804.544922	137.304611
3053.013511	5962.700167	1803.543945	251.854721
3053.013511	5962.700167	1802.542969	129.792648
3053.013511	5962.700167	1801.541992	260.704498
3053.013511	5962.700167	1800.541016	243.410828
3053.013511	5962.700167	1799.539063	321.424347
3053.013511	5962.700167	1798.538086	77.114761
3053.013511	5962.700167	1797.536133	133.335312
3053.013511	5962.700167	1796.534180	65.335564
3053.013511	5962.700167	1795.532227	-91.044273
3053.013511	5962.700167	1794.529297	-21.018629
3053.013511	5962.700167	1793.527344	156.096344
3053.013511	5962.700167	1792.524414	-88.915833
3053.013511	5962.700167	1791.521484	-79.017563
3053.013511	5962.700167	1790.518555	92.719414
3053.013511	5962.700167	1789.514648	-83.586006
3053.013511	5962.700167	1788.511719	13.902212
3053.013511	5962.700167	1787.507813	37.348919
3053.013511	5962.700167	1786.503906	-32.242458
3053.013511	5962.700167	1785.500000	57.494011
3053.013511	5962.700167	1784.496094	-62.417507
3053.013511	5962.700167	1783.491211	-8.774961
3053.013511	5962.700167	1782.486328	101.757927
3053.013511	5962.700167	1781.481445	24.158543
3053.013511	5962.700167	1780.476563	72.439484
3053.013511	5962.700167	1779.471680	158.556732
3053.013511	5962.700167	1778.465820	372.809265
3053.013511	5962.700167	1777.460938	232.666245
3053.013511	5962.700167	1776.455078	120.888649
3053.013511	5962.700167	1775.449219	161.015411
3053.013511	5962.700167	1774.442383	234.178940
3053.013511	5962.700167	1773.436523	48.260113
3053.013511	5962.700167	1772.429688	-223.276321
3053.013511	5962.700167	1771.422852	-5.853425
3053.013511	5962.700167	1770.416016	-23.694607
3053.013511	5962.700167	1769.409180	57.941639
3053.013511	5962.700167	1768.402344	11.224573
3053.013511	5962.700167	1767.394531	42.598034
3053.013511	5962.700167	1766.386719	64.268951
3053.013511	5962.700167	1765.378906	228.012177
3053.013511	5962.700167	1764.371094	-156.184540
3053.013511	5962.700167	1763.362305	163.569305
3053.013511	5962.700167	1762.354492	56.414989
3053.013511	5962.700167	1761.345703	216.840866
3053.013511	5962.700167	1760.336914	-77.862740
3053.013511	5962.700167	1759.328125	-95.528191
3053.013511	5962.700167	1758.318359	-49.464996
3053.013511	5962.700167	1757.308594	27.153000
3053.013511	5962.700167	1756.299805	-71.626541
3053.013511	5962.700167	1755.290039	-144.553665
3053.013511	5962.700167	1754.279297	61.556446
3053.013511	5962.700167	1753.269531	175.126205
3053.013511	5962.700167	1752.258789	18.765829
3053.013511	5962.700167	1751.249023	89.316551
3053.013511	5962.700167	1750.238281	180.897659
3053.013511	5962.700167	1749.226563	-106.040222
3053.013511	5962.700167	1748.215820	-125.965149
3053.013511	5962.700167	1747.204102	80.764565
3053.013511	5962.700167	1746.193359	154.906311
3053.013511	5962.700167	1745.181641	-42.869633
3053.013511	5962.700167	1744.168945	-47.120277
3053.013511	5962.700167	1743.157227	-32.670940
3053.013511	5962.700167	1742.144531	194.038223
3053.013511	5962.700167	1741.132813	-30.391472
3053.013511	5962.700167	1740.120117	-73.232925
3053.013511	5962.700167	1739.106445	-125.720680
3053.013511	5962.700167	1738.093750	-102.885002
3053.013511	5962.700167	1737.080078	-118.019341
3053.013511	5962.700167	1736.067383	-62.590622
3053.013511	5962.700167	1735.053711	56.257397
3053.013511	5962.700167	1734.040039	19.266275
3053.013511	5962.700167	1733.025391	-65.072716
3053.013511	5962.700167	1732.011719	15.390388
3053.013511	5962.700167	1730.997070	149.785843
3053.013511	5962.700167	1729.982422	-175.407562
3053.013511	5962.700167	1728.967773	-6.105119
3053.013511	5962.700167	1727.952148	-263.285065
3053.013511	5962.700167	1726.937500	152.761246
3053.013511	5962.700167	1725.921875	203.592041
3053.013511	5962.700167	1724.906250	-188.220978
3053.013511	5962.700167	1723.890625	-13.042147
3053.013511	5962.700167	1722.875000	72.481018
3053.013511	5962.700167	1721.858398	-9.238050
3053.013511	5962.700167	1720.841797	-208.699066
3053.013511	5962.700167	1719.825195	-1.543597
3053.013511	5962.700167	1718.808594	299.362244
3053.013511	5962.700167	1717.791992	38.269547
3053.013511	5962.700167	1716.774414	-65.508606
3053.013511	5962.700167	1715.756836	77.236153
3053.013511	5962.700167	1714.739258	24.780397
3053.013511	5962.700167	1713.721680	98.969086
3053.013511	5962.700167	1712.704102	22.672611
3053.013511	5962.700167	1711.685547	-232.210724
3053.013511	5962.700167	1710.667969	-15.411362
3053.013511	5962.700167	1709.649414	-221.284454
3053.013511	5962.700167	1708.630859	128.768463
3053.013511	5962.700167	1707.611328	-65.716171
3053.013511	5962.700167	1706.592773	-2.309172
3053.013511	5962.700167	1705.573242	32.732735
3053.013511	5962.700167	1704.553711	264.504883
3053.013511	5962.700167	1703.534180	-78.239304
3053.013511	5962.700167	1702.513672	185.895355
3053.013511	5962.700167	1701.494141	250.624954
3053.013511	5962.700167	1700.473633	59.798725
3053.013511	5962.700167	1699.453125	236.577362
3053.013511	5962.700167	1698.432617	-116.088257
3053.013511	5962.700167	1697.412109	-84.835159
3053.013511	5962.700167	1696.390625	234.123642
3053.013511	5962.700167	1695.369141	-69.718399
3053.013511	5962.700167	1694.347656	47.558430
3053.013511	5962.700167	1693.326172	124.860191
3053.013511	5962.700167	1692.304688	26.551941
3053.013511	5962.700167	1691.282227	187.668121
3053.013511	5962.700167	1690.260742	367.293610
3053.013511	5962.700167	1689.238281	394.727783
3053.013511	5962.700167	1688.214844	328.485779
3053.013511	5962.700167	1687.192383	318.223694
3053.013511	5962.700167	1686.168945	277.415985
3053.013511	5962.700167	1685.146484	311.250519
3053.013511	5962.700167	1684.123047	279.507904
3053.013511	5962.700167	1683.099609	310.673798
3053.013511	5962.700167	1682.075195	432.701599
3053.013511	5962.700167	1681.051758	535.897461
3053.013511	5962.700167	1680.027344	225.851654
3053.013511	5962.700167	1679.002930	534.054321
3053.013511	5962.700167	1677.978516	478.112976
3053.013511	5962.700167	1676.953125	310.089935
3053.013511	5962.700167	1675.928711	449.814148
3053.013511	5962.700167	1674.903320	398.165802
3053.013511	5962.700167	1673.877930	418.665009
3053.013511	5962.700167	1672.852539	408.735840
3053.013511	5962.700167	1671.826172	759.801453
3053.013511	5962.700167	1670.800781	456.051361
3053.013511	5962.700167	1669.774414	522.591309
3053.013511	5962.700167	1668.748047	430.643250
3053.013511	5962.700167	1667.721680	860.121521
3053.013511	5962.700167	1666.694336	584.003662
3053.013511	5962.700167	1665.667969	587.179321
3053.013511	5962.700167	1664.640625	643.735901
3053.013511	5962.700167	1663.613281	725.753357
3053.013511	5962.700167	1662.585938	682.038574
3053.013511	5962.700167	1661.557617	705.650818
3053.013511	5962.700167	1660.530273	754.758118
3053.013511	5962.700167	1659.501953	1145.429321
3053.013511	5962.700167	1658.473633	1359.225464
3053.013511	5962.700167	1657.444336	1089.498413
3053.013511	5962.700167	1656.416016	1249.610107
3053.013511	5962.700167	1655.386719	1086.679810
3053.013511	5962.700167	1654.358398	1088.642212
3053.013511	5962.700167	1653.328125	1246.027832
3053.013511	5962.700167	1652.298828	1291.875610
3053.013511	5962.700167	1651.269531	1667.203247
3053.013511	5962.700167	1650.239258	1585.141357
3053.013511	5962.700167	1649.208984	1656.163818
3053.013511	5962.700167	1648.178711	1982.245728
3053.013511	5962.700167	1647.148438	2196.815430
3053.013511	5962.700167	1646.117188	2049.488037
3053.013511	5962.700167	1645.086914	2083.011475
3053.013511	5962.700167	1644.055664	2188.283447
3053.013511	5962.700167	1643.024414	1996.836548
3053.013511	5962.700167	1641.992188	2229.371582
3053.013511	5962.700167	1640.960938	2102.744385
3053.013511	5962.700167	1639.928711	2237.795898
3053.013511	5962.700167	1638.896484	2525.575928
3053.013511	5962.700167	1637.864258	2419.630615
3053.013511	5962.700167	1636.832031	2387.753174
3053.013511	5962.700167	1635.798828	2601.126953
3053.013511	5962.700167	1634.766602	2488.168945
3053.013511	5962.700167	1633.733398	2699.054932
3053.013511	5962.700167	1632.699219	2919.049561
3053.013511	5962.700167	1631.666016	2734.286621
3053.013511	5962.700167	1630.632813	2940.292725
3053.013511	5962.700167	1629.598633	2646.876465
3053.013511	5962.700167	1628.564453	2929.009766
3053.013511	5962.700167	1627.530273	3113.969238
3053.013511	5962.700167	1626.495117	3206.402588
3053.013511	5962.700167	1625.460938	2931.572754
3053.013511	5962.700167	1624.425781	3204.104736
3053.013511	5962.700167	1623.390625	3377.246826
3053.013511	5962.700167	1622.355469	3411.812256
3053.013511	5962.700167	1621.319336	3395.556152
3053.013511	5962.700167	1620.284180	3139.358643
3053.013511	5962.700167	1619.248047	3134.700439
3053.013511	5962.700167	1618.211914	3452.972168
3053.013511	5962.700167	1617.174805	3111.540771
3053.013511	5962.700167	1616.138672	3482.742920
3053.013511	5962.700167	1615.101563	3572.543945
3053.013511	5962.700167	1614.065430	3802.948730
3053.013511	5962.700167	1613.027344	3537.788818
3053.013511	5962.700167	1611.990234	3768.118896
3053.013511	5962.700167	1610.953125	3795.682617
3053.013511	5962.700167	1609.915039	3926.866455
3053.013511	5962.700167	1608.876953	4184.667969
3053.013511	5962.700167	1607.838867	4456.213379
3053.013511	5962.700167	1606.800781	4163.784668
3053.013511	5962.700167	1605.761719	4432.968750
3053.013511	5962.700167	1604.723633	4584.782227
3053.013511	5962.700167	1603.684570	4600.828125
3053.013511	5962.700167	1602.644531	4635.284180
3053.013511	5962.700167	1601.605469	4869.851563
3053.013511	5962.700167	1600.566406	4681.371094
3053.013511	5962.700167	1599.526367	4564.240234
3053.013511	5962.700167	1598.486328	4444.914063
3053.013511	5962.700167	1597.446289	4364.750488
3053.013511	5962.700167	1596.405273	4452.343750
3053.013511	5962.700167	1595.365234	3929.071289
3053.013511	5962.700167	1594.324219	3787.217285
3053.013511	5962.700167	1593.283203	4008.229492
3053.013511	5962.700167	1592.242188	4086.913330
3053.013511	5962.700167	1591.200195	3906.284912
3053.013511	5962.700167	1590.159180	3971.343018
3053.013511	5962.700167	1589.117188	3871.254395
3053.013511	5962.700167	1588.075195	3732.296631
3053.013511	5962.700167	1587.032227	3770.020020
3053.013511	5962.700167	1585.990234	3807.843750
3053.013511	5962.700167	1584.947266	4010.756104
3053.013511	5962.700167	1583.904297	4037.213867
3053.013511	5962.700167	1582.861328	3937.731445
3053.013511	5962.700167	1581.818359	4033.109619
3053.013511	5962.700167	1580.775391	3665.884766
3053.013511	5962.700167	1579.731445	3637.794434
3053.013511	5962.700167	1578.687500	3687.664307
3053.013511	5962.700167	1577.643555	3989.420654
3053.013511	5962.700167	1576.598633	3963.866211
3053.013511	5962.700167	1575.554688	3721.084473
3053.013511	5962.700167	1574.509766	3688.956055
3053.013511	5962.700167	1573.464844	3627.223877
3053.013511	5962.700167	1572.419922	3565.634277
3053.013511	5962.700167	1571.374023	3488.158936
3053.013511	5962.700167	1570.329102	3717.184082
3053.013511	5962.700167	1569.283203	3678.814697
3053.013511	5962.700167	1568.237305	3738.847412
3053.013511	5962.700167	1567.191406	3408.319824
3053.013511	5962.700167	1566.144531	3372.686279
3053.013511	5962.700167	1565.098633	3175.085938
3053.013511	5962.700167	1564.051758	3347.563965
3053.013511	5962.700167	1563.004883	3326.074951
3053.013511	5962.700167	1561.957031	3142.665283
3053.013511	5962.700167	1560.910156	3153.463623
3053.013511	5962.700167	1559.862305	3214.570557
3053.013511	5962.700167	1558.814453	3328.266357
3053.013511	5962.700167	1557.766602	2983.676025
3053.013511	5962.700167	1556.718750	2942.633789
3053.013511	5962.700167	1555.669922	2924.534912
3053.013511	5962.700167	1554.621094	2933.953369
3053.013511	5962.700167	1553.573242	3107.625000
3053.013511	5962.700167	1552.523438	2670.751221
3053.013511	5962.700167	1551.474609	2626.035156
3053.013511	5962.700167	1550.424805	2647.527588
3053.013511	5962.700167	1549.375000	2496.128174
3053.013511	5962.700167	1548.325195	2720.590576
3053.013511	5962.700167	1547.275391	2635.590820
3053.013511	5962.700167	1546.225586	2475.704834
3053.013511	5962.700167	1545.174805	2527.630371
3053.013511	5962.700167	1544.124023	2495.549072
3053.013511	5962.700167	1543.073242	2320.382568
3053.013511	5962.700167	1542.022461	2402.416016
3053.013511	5962.700167	1540.970703	2468.666016
3053.013511	5962.700167	1539.919922	2253.253662
3053.013511	5962.700167	1538.868164	1892.655640
3053.013511	5962.700167	1537.815430	2102.655273
3053.013511	5962.700167	1536.763672	2151.505859
3053.013511	5962.700167	1535.710938	2055.157227
3053.013511	5962.700167	1534.659180	2022.646729
3053.013511	5962.700167	1533.606445	2312.702637
3053.013511	5962.700167	1532.552734	2216.958496
3053.013511	5962.700167	1531.500000	2679.742676
3053.013511	5962.700167	1530.446289	2929.248047
3053.013511	5962.700167	1529.393555	2573.200684
3053.013511	5962.700167	1528.338867	2743.644775
3053.013511	5962.700167	1527.285156	2417.653076
3053.013511	5962.700167	1526.231445	2207.626221
3053.013511	5962.700167	1525.176758	2639.349365
3053.013511	5962.700167	1524.122070	1822.421997
3053.013511	5962.700167	1523.067383	1830.781006
3053.013511	5962.700167	1522.012695	1948.092041
3053.013511	5962.700167	1520.957031	1755.269531
3053.013511	5962.700167	1519.901367	1211.757813
3053.013511	5962.700167	1518.845703	1166.763306
3053.013511	5962.700167	1517.790039	1287.252319
3053.013511	5962.700167	1516.734375	1032.245850
3053.013511	5962.700167	1515.677734	1209.717773
3053.013511	5962.700167	1514.621094	1020.872925
3053.013511	5962.700167	1513.564453	961.255676
3053.013511	5962.700167	1512.507813	981.039185
3053.013511	5962.700167	1511.450195	1168.338867
3053.013511	5962.700167	1510.393555	924.078064
3053.013511	5962.700167	1509.335938	1016.867676
3053.013511	5962.700167	1508.278320	770.934387
3053.013511	5962.700167	1507.219727	954.544861
3053.013511	5962.700167	1506.162109	564.651917
3053.013511	5962.700167	1505.103516	683.229370
3053.013511	5962.700167	1504.044922	497.209961
3053.013511	5962.700167	1502.986328	340.856506
3053.013511	5962.700167	1501.926758	706.122314
3053.013511	5962.700167	1500.868164	726.281921
3053.013511	5962.700167	1499.808594	548.143311
3053.013511	5962.700167	1498.749023	514.679016
3053.013511	5962.700167	1497.688477	341.653839
3053.013511	5962.700167	1496.628906	274.928131
3053.013511	5962.700167	1495.568359	107.034363
3053.013511	5962.700167	1494.507813	412.737061
3053.013511	5962.700167	1493.447266	162.021469
3053.013511	5962.700167	1492.386719	251.837601
3053.013511	5962.700167	1491.325195	62.570583
3053.013511	5962.700167	1490.263672	80.811981
3053.013511	5962.700167	1489.202148	121.822304
3053.013511	5962.700167	1488.140625	217.100327
3053.013511	5962.700167	1487.079102	-157.765350
3053.013511	5962.700167	1486.016602	-21.452946
3053.013511	5962.700167	1484.954102	128.565247
3053.013511	5962.700167	1483.891602	98.850388
3053.013511	5962.700167	1482.829102	42.428497
3053.013511	5962.700167	1481.765625	-49.686348
3053.013511	5962.700167	1480.702148	-49.328861
3053.013511	5962.700167	1479.638672	-14.992648
3053.013511	5962.700167	1478.575195	-191.585403
3053.013511	5962.700167	1477.511719	263.330841
3053.013511	5962.700167	1476.447266	-31.744274
3053.013511	5962.700167	1475.382813	53.091404
3053.013511	5962.700167	1474.318359	387.187897
3053.013511	5962.700167	1473.253906	315.328827
3053.013511	5962.700167	1472.189453	777.618042
3053.013511	5962.700167	1471.124023	58.056255
3053.013511	5962.700167	1470.058594	153.089249
3053.013511	5962.700167	1468.993164	420.963379
3053.013511	5962.700167	1467.927734	402.102753
3053.013511	5962.700167	1466.861328	531.327393
3053.013511	5962.700167	1465.794922	181.632675
3053.013511	5962.700167	1464.728516	313.989502
3053.013511	5962.700167	1463.662109	542.587463
3053.013511	5962.700167	1462.594727	569.790527
3053.013511	5962.700167	1461.528320	375.750427
3053.013511	5962.700167	1460.460938	730.054382
3053.013511	5962.700167	1459.393555	630.862183
3053.013511	5962.700167	1458.326172	755.124939
3053.013511	5962.700167	1457.257813	899.985229
3053.013511	5962.700167	1456.189453	774.465088
3053.013511	5962.700167	1455.121094	995.203247
3053.013511	5962.700167	1454.052734	1169.410522
3053.013511	5962.700167	1452.984375	829.352539
3053.013511	5962.700167	1451.915039	1189.559570
3053.013511	5962.700167	1450.845703	1262.903931
3053.013511	5962.700167	1449.776367	1274.842407
3053.013511	5962.700167	1448.707031	1402.646484
3053.013511	5962.700167	1447.636719	1551.968506
3053.013511	5962.700167	1446.567383	1563.180908
3053.013511	5962.700167	1445.497070	1582.423096
3053.013511	5962.700167	1444.425781	1543.394653
3053.013511	5962.700167	1443.355469	1680.843506
3053.013511	5962.700167	1442.285156	1805.530029
3053.013511	5962.700167	1441.213867	1451.812866
3053.013511	5962.700167	1440.142578	1688.688599
3053.013511	5962.700167	1439.070313	1936.151245
3053.013511	5962.700167	1437.999023	1735.551636
3053.013511	5962.700167	1436.926758	1785.585327
3053.013511	5962.700167	1435.854492	1681.296753
3053.013511	5962.700167	1434.782227	1549.519287
3053.013511	5962.700167	1433.709961	1501.408813
3053.013511	5962.700167	1432.636719	1887.292603
3053.013511	5962.700167	1431.563477	1748.993042
3053.013511	5962.700167	1430.490234	1494.332031
3053.013511	5962.700167	1429.416992	1448.451416
3053.013511	5962.700167	1428.343750	1545.206055
3053.013511	5962.700167	1427.269531	1273.250854
3053.013511	5962.700167	1426.195313	1009.697632
3053.013511	5962.700167	1425.121094	860.010681
3053.013511	5962.700167	1424.046875	914.423706
3053.013511	5962.700167	1422.971680	912.732910
3053.013511	5962.700167	1421.896484	227.420425
3053.013511	5962.700167	1420.821289	740.698303
3053.013511	5962.700167	1419.746094	459.798248
3053.013511	5962.700167	1418.669922	227.185425
3053.013511	5962.700167	1417.594727	853.997559
3053.013511	5962.700167	1416.518555	755.386780
3053.013511	5962.700167	1415.442383	652.995544
3053.013511	5962.700167	1414.365234	583.672852
3053.013511	5962.700167	1413.289063	834.835571
3053.013511	5962.700167	1412.211914	843.248962
3053.013511	5962.700167	1411.134766	784.398376
3053.013511	5962.700167	1410.057617	1171.913574
3053.013511	5962.700167	1408.979492	1057.802734
3053.013511	5962.700167	1407.902344	1124.839844
3053.013511	5962.700167	1406.824219	1337.782593
3053.013511	5962.700167	1405.746094	1289.749756
3053.013511	5962.700167	1404.666992	1294.853760
3053.013511	5962.700167	1403.588867	1410.270874
3053.013511	5962.700167	1402.509766	1431.850464
3053.013511	5962.700167	1401.430664	1546.288574
3053.013511	5962.700167	1400.351563	1709.880615
3053.013511	5962.700167	1399.271484	1581.338013
3053.013511	5962.700167	1398.192383	1557.328735
3053.013511	5962.700167	1397.112305	1664.114502
3053.013511	5962.700167	1396.031250	2013.571777
3053.013511	5962.700167	1394.951172	1586.175659
3053.013511	5962.700167	1393.871094	1494.801880
3053.013511	5962.700167	1392.790039	1802.549683
3053.013511	5962.700167	1391.708984	1495.124268
3053.013511	5962.700167	1390.626953	1425.822510
3053.013511	5962.700167	1389.545898	1719.056885
3053.013511	5962.700167	1388.463867	1533.818970
3053.013511	5962.700167	1387.381836	1614.373779
3053.013511	5962.700167	1386.299805	1701.219849
3053.013511	5962.700167	1385.217773	1598.393066
3053.013511	5962.700167	1384.134766	1697.513550
3053.013511	5962.700167	1383.051758	1672.454834
3053.013511	5962.700167	1381.968750	1593.129395
3053.013511	5962.700167	1380.885742	1826.282104
3053.013511	5962.700167	1379.802734	1934.081177
3053.013511	5962.700167	1378.718750	1962.794556
3053.013511	5962.700167	1377.634766	2105.356934
3053.013511	5962.700167	1376.550781	2114.100586
3053.013511	5962.700167	1375.465820	2213.385986
3053.013511	5962.700167	1374.381836	2345.728516
3053.013511	5962.700167	1373.296875	2123.438232
3053.013511	5962.700167	1372.211914	2297.897705
3053.013511	5962.700167	1371.126953	2143.228516
3053.013511	5962.700167	1370.041016	2312.624023
3053.013511	5962.700167	1368.955078	2330.250977
3053.013511	5962.700167	1367.869141	2157.956055
3053.013511	5962.700167	1366.783203	2239.510742
3053.013511	5962.700167	1365.697266	2125.145752
3053.013511	5962.700167	1364.610352	1894.742676
3053.013511	5962.700167	1363.523438	1647.626099
3053.013511	5962.700167	1362.436523	1630.931030
3053.013511	5962.700167	1361.349609	1468.587280
3053.013511	5962.700167	1360.261719	1566.748657
3053.013511	5962.700167	1359.174805	1366.333252
3053.013511	5962.700167	1358.086914	1429.329956
3053.013511	5962.700167	1356.998047	1361.513184
3053.013511	5962.700167	1355.910156	1190.463623
3053.013511	5962.700167	1354.821289	1297.603149
3053.013511	5962.700167	1353.732422	1120.459473
3053.013511	5962.700167	1352.643555	1226.607056
3053.013511	5962.700167	1351.554688	1188.815430
3053.013511	5962.700167	1350.464844	818.882629
3053.013511	5962.700167	1349.375000	1199.464355
3053.013511	5962.700167	1348.285156	1126.601807
3053.013511	5962.700167	1347.195313	1448.588135
3053.013511	5962.700167	1346.105469	1584.823730
3053.013511	5962.700167	1345.014648	1779.154175
3053.013511	5962.700167	1343.923828	1987.716797
3053.013511	5962.700167	1342.833008	2479.755859
3053.013511	5962.700167	1341.741211	2740.322266
3053.013511	5962.700167	1340.650391	2903.011719
3053.013511	5962.700167	1339.558594	3438.379639
3053.013511	5962.700167	1338.466797	3065.017334
3053.013511	5962.700167	1337.374023	3016.005859
3053.013511	5962.700167	1336.282227	2443.474609
3053.013511	5962.700167	1335.189453	2219.571777
3053.013511	5962.700167	1334.096680	1961.384644
3053.013511	5962.700167	1333.003906	1715.131836
3053.013511	5962.700167	1331.910156	1591.252319
3053.013511	5962.700167	1330.817383	1571.524658
3053.013511	5962.700167	1329.723633	1475.951782
3053.013511	5962.700167	1328.629883	1348.838745
3053.013511	5962.700167	1327.535156	1186.459351
3053.013511	5962.700167	1326.441406	1385.311279
3053.013511	5962.700167	1325.346680	1360.760132
3053.013511	5962.700167	1324.251953	1420.022583
3053.013511	5962.700167	1323.156250	1329.419434
3053.013511	5962.700167	1322.061523	1176.176147
3053.013511	5962.700167	1320.965820	1408.856567
3053.013511	5962.700167	1319.870117	1308.393555
3053.013511	5962.700167	1318.774414	981.152161
3053.013511	5962.700167	1317.678711	1150.456787
3053.013511	5962.700167	1316.582031	1182.491943
3053.013511	5962.700167	1315.485352	1095.475464
3053.013511	5962.700167	1314.388672	1013.659180
3053.013511	5962.700167	1313.291016	1177.790649
3053.013511	5962.700167	1312.194336	864.942871
3053.013511	5962.700167	1311.096680	1110.255737
3053.013511	5962.700167	1309.999023	969.239380
3053.013511	5962.700167	1308.901367	1043.991211
3053.013511	5962.700167	1307.802734	1178.450928
3053.013511	5962.700167	1306.705078	1177.401245
3053.013511	5962.700167	1305.606445	1288.410889
3053.013511	5962.700167	1304.506836	1238.941162
3053.013511	5962.700167	1303.408203	1319.312988
3053.013511	5962.700167	1302.308594	1038.982788
3053.013511	5962.700167	1301.208984	1392.287598
3053.013511	5962.700167	1300.109375	1217.659058
3053.013511	5962.700167	1299.009766	1317.993408
3053.013511	5962.700167	1297.909180	1290.967651
3053.013511	5962.700167	1296.808594	1358.338257
3053.013511	5962.700167	1295.708008	1292.628784
3053.013511	5962.700167	1294.607422	1388.247192
3053.013511	5962.700167	1293.506836	1333.316528
3053.013511	5962.700167	1292.405273	963.435791
3053.013511	5962.700167	1291.303711	999.874939
3053.013511	5962.700167	1290.202148	868.382019
3053.013511	5962.700167	1289.099609	852.024963
3053.013511	5962.700167	1287.998047	670.271118
3053.013511	5962.700167	1286.895508	711.703796
3053.013511	5962.700167	1285.792969	452.432648
3053.013511	5962.700167	1284.689453	471.711456
3053.013511	5962.700167	1283.586914	572.421021
3053.013511	5962.700167	1282.483398	611.947998
3053.013511	5962.700167	1281.379883	500.499390
3053.013511	5962.700167	1280.276367	482.471558
3053.013511	5962.700167	1279.171875	689.829590
3053.013511	5962.700167	1278.067383	387.723572
3053.013511	5962.700167	1276.962891	514.643677
3053.013511	5962.700167	1275.858398	411.433533
3053.013511	5962.700167	1274.753906	513.765015
3053.013511	5962.700167	1273.648438	407.429596
3053.013511	5962.700167	1272.542969	439.137665
3053.013511	5962.700167	1271.437500	379.273987
3053.013511	5962.700167	1270.331055	279.835236
3053.013511	5962.700167	1269.225586	465.644287
3053.013511	5962.700167	1268.119141	424.452484
3053.013511	5962.700167	1267.012695	267.743469
3053.013511	5962.700167	1265.906250	314.222321
3053.013511	5962.700167	1264.798828	454.040253
3053.013511	5962.700167	1263.691406	168.491364
3053.013511	5962.700167	1262.583984	35.671341
3053.013511	5962.700167	1261.476563	216.295029
3053.013511	5962.700167	1260.368164	-44.298721
3053.013511	5962.700167	1259.260742	191.185043
3053.013511	5962.700167	1258.152344	48.857712
3053.013511	5962.700167	1257.043945	66.005409
3053.013511	5962.700167	1255.934570	1.285484
3053.013511	5962.700167	1254.825195	-127.801109
3053.013511	5962.700167	1253.716797	26.730904
3053.013511	5962.700167	1252.606445	-161.540924
3053.013511	5962.700167	1251.497070	-233.545609
3053.013511	5962.700167	1250.387695	-381.725342
3053.013511	5962.700167	1249.277344	-49.373844
3053.013511	5962.700167	1248.166992	-92.300735
3053.013511	5962.700167	1247.055664	-41.696190
3053.013511	5962.700167	1245.945313	-163.544830
3053.013511	5962.700167	1244.833984	-286.607910
3053.013511	5962.700167	1243.722656	-75.290764
3053.013511	5962.700167	1242.611328	114.930161
3053.013511	5962.700167	1241.499023	-33.318844
3053.013511	5962.700167	1240.387695	-130.245026
3053.013511	5962.700167	1239.275391	-223.638885
3053.013511	5962.700167	1238.162109	278.950897
3053.013511	5962.700167	1237.049805	85.033897
3053.013511	5962.700167	1235.936523	16.442671
3053.013511	5962.700167	1234.823242	174.023926
3053.013511	5962.700167	1233.709961	10.328630
3053.013511	5962.700167	1232.596680	-146.236740
3053.013511	5962.700167	1231.482422	-29.401365
3053.013511	5962.700167	1230.369141	-76.450356
3053.013511	5962.700167	1229.253906	5.043488
3053.013511	5962.700167	1228.139648	81.532379
3053.013511	5962.700167	1227.025391	-48.917919
3053.013511	5962.700167	1225.910156	213.410629
3053.013511	5962.700167	1224.794922	-167.019806
3053.013511	5962.700167	1223.679688	-35.011646
3053.013511	5962.700167	1222.563477	93.774185
3053.013511	5962.700167	1221.447266	32.809738
3053.013511	5962.700167	1220.331055	-95.033546
3053.013511	5962.700167	1219.214844	-156.597122
3053.013511	5962.700167	1218.098633	58.121326
3053.013511	5962.700167	1216.981445	-6.652499
3053.013511	5962.700167	1215.864258	163.082962
3053.013511	5962.700167	1214.747070	4.996074
3053.013511	5962.700167	1213.629883	143.409531
3053.013511	5962.700167	1212.511719	207.714920
3053.013511	5962.700167	1211.393555	34.013611
3053.013511	5962.700167	1210.275391	13.876384
3053.013511	5962.700167	1209.157227	127.172836
3053.013511	5962.700167	1208.038086	1.522970
3053.013511	5962.700167	1206.918945	172.942429
3053.013511	5962.700167	1205.799805	47.013756
3053.013511	5962.700167	1204.680664	95.874191
3053.013511	5962.700167	1203.560547	131.834991
3053.013511	5962.700167	1202.441406	105.413872
3053.013511	5962.700167	1201.321289	9.211320
3053.013511	5962.700167	1200.200195	167.889847
3053.013511	5962.700167	1199.080078	56.625751
3053.013511	5962.700167	1197.958984	-4.787427
3053.013511	5962.700167	1196.837891	224.336456
3053.013511	5962.700167	1195.716797	64.925789
3053.013511	5962.700167	1194.594727	8.883268
3053.013511	5962.700167	1193.473633	184.567474
3053.013511	5962.700167	1192.351563	94.851532
3053.013511	5962.700167	1191.229492	41.015690
3053.013511	5962.700167	1190.106445	238.564041
3053.013511	5962.700167	1188.984375	-64.392326
3053.013511	5962.700167	1187.861328	126.677452
3053.013511	5962.700167	1186.738281	-43.455814
3053.013511	5962.700167	1185.614258	85.420738
3053.013511	5962.700167	1184.491211	214.172714
3053.013511	5962.700167	1183.367188	178.473038
3053.013511	5962.700167	1182.243164	127.352654
3053.013511	5962.700167	1181.119141	222.730347
3053.013511	5962.700167	1179.994141	119.500336
3053.013511	5962.700167	1178.869141	283.711365
3053.013511	5962.700167	1177.744141	-7.516547
3053.013511	5962.700167	1176.619141	-44.711803
3053.013511	5962.700167	1175.493164	177.931671
3053.013511	5962.700167	1174.368164	140.771179
3053.013511	5962.700167	1173.242188	59.007778
3053.013511	5962.700167	1172.115234	131.314041
3053.013511	5962.700167	1170.989258	149.278275
3053.013511	5962.700167	1169.862305	46.036636
3053.013511	5962.700167	1168.735352	216.535187
3053.013511	5962.700167	1167.608398	23.376532
3053.013511	5962.700167	1166.481445	336.444489
3053.013511	5962.700167	1165.353516	219.384415
3053.013511	5962.700167	1164.225586	161.390808
3053.013511	5962.700167	1163.097656	273.433502
3053.013511	5962.700167	1161.968750	223.708389
3053.013511	5962.700167	1160.840820	472.360138
3053.013511	5962.700167	1159.711914	384.750061
3053.013511	5962.700167	1158.583008	382.129822
3053.013511	5962.700167	1157.453125	71.821983
3053.013511	5962.700167	1156.324219	117.593079
3053.013511	5962.700167	1155.194336	-34.754826
3053.013511	5962.700167	1154.064453	168.018661
3053.013511	5962.700167	1152.933594	-156.795486
3053.013511	5962.700167	1151.803711	-70.980682
3053.013511	5962.700167	1150.672852	-85.411339
3053.013511	5962.700167	1149.541992	-168.088821
3053.013511	5962.700167	1148.411133	-183.879013
3053.013511	5962.700167	1147.279297	-6.813578
3053.013511	5962.700167	1146.147461	-349.942383
3053.013511	5962.700167	1145.015625	-143.203552
3053.013511	5962.700167	1143.883789	-147.269516
3053.013511	5962.700167	1142.750977	-3.275814
3053.013511	5962.700167	1141.619141	84.070229
3053.013511	5962.700167	1140.486328	34.027386
3053.013511	5962.700167	1139.352539	-51.840698
3053.013511	5962.700167	1138.219727	-29.416515
3053.013511	5962.700167	1137.085938	69.253487
3053.013511	5962.700167	1135.952148	-2.619758
3053.013511	5962.700167	1134.818359	196.791412
3053.013511	5962.700167	1133.683594	259.688721
3053.013511	5962.700167	1132.549805	342.622406
3053.013511	5962.700167	1131.415039	487.566559
3053.013511	5962.700167	1130.279297	796.692383
3053.013511	5962.700167	1129.144531	756.523438
3053.013511	5962.700167	1128.008789	918.365234
3053.013511	5962.700167	1126.873047	928.615295
3053.013511	5962.700167	1125.737305	853.310303
3053.013511	5962.700167	1124.601563	770.920776
3053.013511	5962.700167	1123.464844	668.987305
3053.013511	5962.700167	1122.328125	616.257568
3053.013511	5962.700167	1121.191406	771.543701
3053.013511	5962.700167	1120.054688	696.716614
3053.013511	5962.700167	1118.916992	683.570557
3053.013511	5962.700167	1117.779297	809.095764
3053.013511	5962.700167	1116.641602	472.124023
3053.013511	5962.700167	1115.503906	463.698151
3053.013511	5962.700167	1114.365234	510.350342
3053.013511	5962.700167	1113.226563	742.700256
3053.013511	5962.700167	1112.087891	269.919525
3053.013511	5962.700167	1110.949219	525.484680
3053.013511	5962.700167	1109.809570	550.661926
3053.013511	5962.700167	1108.669922	326.911133
3053.013511	5962.700167	1107.530273	442.583832
3053.013511	5962.700167	1106.390625	369.242462
3053.013511	5962.700167	1105.250000	82.842339
3053.013511	5962.700167	1104.109375	453.238373
3053.013511	5962.700167	1102.968750	545.116150
3053.013511	5962.700167	1101.828125	513.823303
3053.013511	5962.700167	1100.686523	369.480743
3053.013511	5962.700167	1099.544922	597.955688
3053.013511	5962.700167	1098.403320	455.873108
3053.013511	5962.700167	1097.261719	698.192139
3053.013511	5962.700167	1096.120117	932.822876
3053.013511	5962.700167	1094.977539	816.811768
3053.013511	5962.700167	1093.834961	695.549866
3053.013511	5962.700167	1092.691406	474.720093
3053.013511	5962.700167	1091.548828	669.882751
3053.013511	5962.700167	1090.405273	795.528381
3053.013511	5962.700167	1089.261719	383.202850
3053.013511	5962.700167	1088.118164	560.418091
3053.013511	5962.700167	1086.973633	385.733429
3053.013511	5962.700167	1085.829102	459.638550
3053.013511	5962.700167	1084.684570	448.393433
3053.013511	5962.700167	1083.540039	272.025604
3053.013511	5962.700167	1082.395508	232.314651
3053.013511	5962.700167	1081.250000	291.245178
3053.013511	5962.700167	1080.104492	438.030121
3053.013511	5962.700167	1078.958984	397.701019
3053.013511	5962.700167	1077.812500	385.287140
3053.013511	5962.700167	1076.666016	437.751801
3053.013511	5962.700167	1075.519531	576.487854
3053.013511	5962.700167	1074.373047	455.532806
3053.013511	5962.700167	1073.226563	597.259949
3053.013511	5962.700167	1072.079102	512.696228
3053.013511	5962.700167	1070.931641	689.809387
3053.013511	5962.700167	1069.784180	481.535339
3053.013511	5962.700167	1068.635742	598.840149
3053.013511	5962.700167	1067.487305	816.420471
3053.013511	5962.700167	1066.338867	635.571655
3053.013511	5962.700167	1065.190430	536.798035
3053.013511	5962.700167	1064.041992	661.426147
3053.013511	5962.700167	1062.892578	939.558350
3053.013511	5962.700167	1061.743164	942.210205
3053.013511	5962.700167	1060.593750	1099.239624
3053.013511	5962.700167	1059.443359	640.045471
3053.013511	5962.700167	1058.292969	973.241394
3053.013511	5962.700167	1057.142578	774.157898
3053.013511	5962.700167	1055.992188	490.920593
3053.013511	5962.700167	1054.841797	470.742798
3053.013511	5962.700167	1053.690430	459.952667
3053.013511	5962.700167	1052.539063	119.717094
3053.013511	5962.700167	1051.387695	161.015137
3053.013511	5962.700167	1050.235352	391.125854
3053.013511	5962.700167	1049.083984	356.588440
3053.013511	5962.700167	1047.931641	240.757202
3053.013511	5962.700167	1046.778320	333.907867
3053.013511	5962.700167	1045.625977	128.894669
3053.013511	5962.700167	1044.472656	138.905396
3053.013511	5962.700167	1043.319336	214.148758
3053.013511	5962.700167	1042.166016	-16.774998
3053.013511	5962.700167	1041.012695	-21.031256
3053.013511	5962.700167	1039.858398	157.040100
3053.013511	5962.700167	1038.704102	419.848419
3053.013511	5962.700167	1037.549805	111.544731
3053.013511	5962.700167	1036.394531	249.010590
3053.013511	5962.700167	1035.239258	244.995483
3053.013511	5962.700167	1034.083984	182.798904
3053.013511	5962.700167	1032.928711	13.114904
3053.013511	5962.700167	1031.773438	223.107254
3053.013511	5962.700167	1030.617188	232.728394
3053.013511	5962.700167	1029.460938	75.982193
3053.013511	5962.700167	1028.304688	209.521698
3053.013511	5962.700167	1027.147461	234.257111
3053.013511	5962.700167	1025.991211	453.218750
3053.013511	5962.700167	1024.833984	182.978149
3053.013511	5962.700167	1023.675781	188.293610
3053.013511	5962.700167	1022.518555	1.589541
3053.013511	5962.700167	1021.360352	198.016098
3053.013511	5962.700167	1020.202148	158.102295
3053.013511	5962.700167	1019.043945	243.353790
3053.013511	5962.700167	1017.884766	176.181122
3053.013511	5962.700167	1016.726563	17.533960
3053.013511	5962.700167	1015.567383	-28.685404
3053.013511	5962.700167	1014.407227	254.537247
3053.013511	5962.700167	1013.248047	-77.448540
3053.013511	5962.700167	1012.087891	55.235653
3053.013511	5962.700167	1010.927734	79.506248
3053.013511	5962.700167	1009.767578	121.637482
3053.013511	5962.700167	1008.606445	-102.043694
3053.013511	5962.700167	1007.446289	151.762283
3053.013511	5962.700167	1006.285156	109.328583
3053.013511	5962.700167	1005.123047	123.221207
3053.013511	5962.700167	1003.961914	205.213837
3053.013511	5962.700167	1002.799805	0.220776
3053.013511	5962.700167	1001.637695	347.883698
3053.013511	5962.700167	1000.475586	162.886078
3053.013511	5962.700167	999.312500	216.951706
3053.013511	5962.700167	998.149414	-53.216942
3053.013511	5962.700167	996.986328	-203.372955
3053.013511	5962.700167	995.823242	0.146585
3053.013511	5962.700167	994.659180	-115.944496
3053.013511	5962.700167	993.496094	24.648293
3053.013511	5962.700167	992.332031	-66.489128
3053.013511	5962.700167	991.166992	-160.230164
3053.013511	5962.700167	990.002930	-94.578720
3053.013511	5962.700167	988.837891	9.953046
3053.013511	5962.700167	987.672852	-97.367332
3053.013511	5962.700167	986.506836	-161.408524
3053.013511	5962.700167	985.341797	-175.688583
3053.013511	5962.700167	984.175781	-104.953552
3053.013511	5962.700167	983.009766	-156.781357
3053.013511	5962.700167	981.843750	-39.702427
3053.013511	5962.700167	980.676758	-326.188263
3053.013511	5962.700167	979.509766	93.983162
3053.013511	5962.700167	978.342773	23.399618
3053.013511	5962.700167	977.175781	54.630276
3053.013511	5962.700167	976.007813	-33.159904
3053.013511	5962.700167	974.839844	204.262115
3053.013511	5962.700167	973.671875	120.047539
3053.013511	5962.700167	972.503906	-110.538162
3053.013511	5962.700167	971.334961	-194.459183
3053.013511	5962.700167	970.166016	-46.481270
3053.013511	5962.700167	968.997070	-238.660263
3053.013511	5962.700167	967.828125	-140.584244
3053.013511	5962.700167	966.658203	-198.601379
3053.013511	5962.700167	965.488281	-52.235043
3053.013511	5962.700167	964.318359	11.321211
3053.013511	5962.700167	963.148438	74.993958
3053.013511	5962.700167	961.977539	259.844940
3053.013511	5962.700167	960.806641	132.861740
3053.013511	5962.700167	959.635742	65.027550
3053.013511	5962.700167	958.463867	-10.260098
3053.013511	5962.700167	957.292969	134.014587
3053.013511	5962.700167	956.121094	116.348953
3053.013511	5962.700167	954.948242	84.862793
3053.013511	5962.700167	953.776367	242.318222
3053.013511	5962.700167	952.603516	332.552185
3053.013511	5962.700167	951.430664	408.016449
3053.013511	5962.700167	950.257813	313.932465
3053.013511	5962.700167	949.084961	421.882019
3053.013511	5962.700167	947.911133	554.529785
3053.013511	5962.700167	946.737305	441.228027
3053.013511	5962.700167	945.563477	597.538025
3053.013511	5962.700167	944.388672	387.614624
3053.013511	5962.700167	943.213867	278.422485
3053.013511	5962.700167	942.039063	102.335358
3053.013511	5962.700167	940.864258	241.023865
3053.013511	5962.700167	939.688477	292.527344
3053.013511	5962.700167	938.513672	337.300354
3053.013511	5962.700167	937.337891	191.946228
3053.013511	5962.700167	936.161133	514.099365
3053.013511	5962.700167	934.985352	402.648041
3053.013511	5962.700167	933.808594	525.603638
3053.013511	5962.700167	932.631836	482.958435
3053.013511	5962.700167	931.454102	666.253540
3053.013511	5962.700167	930.277344	393.194824
3053.013511	5962.700167	929.099609	712.654724
3053.013511	5962.700167	927.921875	593.894165
3053.013511	5962.700167	926.743164	454.968689
3053.013511	5962.700167	925.565430	597.650879
3053.013511	5962.700167	924.386719	498.933929
3053.013511	5962.700167	923.208008	371.185364
3053.013511	5962.700167	922.028320	498.065948
3053.013511	5962.700167	920.849609	495.349548
3053.013511	5962.700167	919.669922	502.459656
3053.013511	5962.700167	919.474609	210.223236
3053.013511	5962.700167	918.309570	305.627502
3053.013511	5962.700167	917.143555	280.449982
3053.013511	5962.700167	915.977539	440.451935
3053.013511	5962.700167	914.810547	292.499939
3053.013511	5962.700167	913.644531	276.167908
3053.013511	5962.700167	912.477539	90.338875
3053.013511	5962.700167	911.310547	-115.510994
3053.013511	5962.700167	910.143555	73.240814
3053.013511	5962.700167	908.975586	63.544697
3053.013511	5962.700167	907.807617	44.911041
3053.013511	5962.700167	906.639648	226.751404
3053.013511	5962.700167	905.471680	43.218533
3053.013511	5962.700167	904.303711	-55.649078
3053.013511	5962.700167	903.134766	-52.084793
3053.013511	5962.700167	901.965820	-1.805702
3053.013511	5962.700167	900.796875	153.023529
3053.013511	5962.700167	899.626953	-14.855943
3053.013511	5962.700167	898.457031	159.886673
3053.013511	5962.700167	897.287109	18.711697
3053.013511	5962.700167	896.117188	215.562805
3053.013511	5962.700167	894.947266	281.140503
3053.013511	5962.700167	893.776367	362.230713
3053.013511	5962.700167	892.605469	245.480713
3053.013511	5962.700167	891.434570	255.398575
3053.013511	5962.700167	890.262695	112.019157
3053.013511	5962.700167	889.091797	477.260895
3053.013511	5962.700167	887.919922	342.729248
3053.013511	5962.700167	886.748047	219.329346
3053.013511	5962.700167	885.575195	364.529510
3053.013511	5962.700167	884.403320	17.000271
3053.013511	5962.700167	883.230469	237.571472
3053.013511	5962.700167	882.057617	280.574066
3053.013511	5962.700167	880.883789	272.533905
3053.013511	5962.700167	879.710938	215.689896
3053.013511	5962.700167	878.537109	-135.988602
3053.013511	5962.700167	877.362305	11.147925
3053.013511	5962.700167	876.188477	251.267242
3053.013511	5962.700167	875.013672	10.511393
3053.013511	5962.700167	873.839844	95.437836
3053.013511	5962.700167	872.664063	260.042114
3053.013511	5962.700167	871.489258	130.074966
3053.013511	5962.700167	870.313477	-95.042442
3053.013511	5962.700167	869.138672	-67.787704
3053.013511	5962.700167	867.962891	123.184036
3053.013511	5962.700167	866.786133	6.550512
3053.013511	5962.700167	865.610352	-1.679451
3053.013511	5962.700167	864.433594	-34.248055
3053.013511	5962.700167	863.256836	-40.292965
3053.013511	5962.700167	862.079102	57.541203
3053.013511	5962.700167	860.902344	84.588577
3053.013511	5962.700167	859.724609	162.429993
3053.013511	5962.700167	858.546875	131.969818
3053.013511	5962.700167	857.368164	119.174637
3053.013511	5962.700167	856.190430	99.735130
3053.013511	5962.700167	855.011719	-49.973141
3053.013511	5962.700167	853.833008	109.384872
3053.013511	5962.700167	852.654297	-35.892082
3053.013511	5962.700167	851.474609	-130.379562
3053.013511	5962.700167	850.294922	-68.225906
3053.013511	5962.700167	849.115234	-36.996658
3053.013511	5962.700167	847.935547	95.630310
3053.013511	5962.700167	846.754883	117.954323
3053.013511	5962.700167	845.575195	111.588181
3053.013511	5962.700167	844.393555	41.304096
3053.013511	5962.700167	843.212891	30.509188
3053.013511	5962.700167	842.032227	-0.129113
3053.013511	5962.700167	840.850586	68.331924
3053.013511	5962.700167	839.668945	-147.302841
3053.013511	5962.700167	838.486328	-6.235260
3053.013511	5962.700167	837.304688	-74.347473
3053.013511	5962.700167	836.122070	-56.630913
3053.013511	5962.700167	834.939453	134.859940
3053.013511	5962.700167	833.756836	-32.291176
3053.013511	5962.700167	832.573242	165.667801
3053.013511	5962.700167	831.389648	-126.794136
3053.013511	5962.700167	830.206055	277.687958
3053.013511	5962.700167	829.022461	5.052263
3053.013511	5962.700167	827.838867	55.514267
3053.013511	5962.700167	826.654297	-91.788361
3053.013511	5962.700167	825.469727	-78.716652
3053.013511	5962.700167	824.284180	-245.745316
3053.013511	5962.700167	823.099609	-173.423065
3053.013511	5962.700167	821.914063	208.354675
3053.013511	5962.700167	820.728516	-55.278904
3053.013511	5962.700167	819.542969	-274.949188
3053.013511	5962.700167	818.356445	-172.074448
3053.013511	5962.700167	817.169922	-146.037064
3053.013511	5962.700167	815.983398	46.613716
3053.013511	5962.700167	814.796875	-212.475067
3053.013511	5962.700167	813.609375	122.528206
3053.013511	5962.700167	812.422852	-55.447277
3053.013511	5962.700167	811.235352	-141.355072
3053.013511	5962.700167	810.046875	53.137276
3053.013511	5962.700167	808.859375	-181.750854
3053.013511	5962.700167	807.670898	21.360767
3053.013511	5962.700167	806.482422	-90.891556
3053.013511	5962.700167	805.293945	-73.995613
3053.013511	5962.700167	804.104492	-33.066368
3053.013511	5962.700167	802.915039	108.451500
3053.013511	5962.700167	801.725586	74.882668
3053.013511	5962.700167	800.536133	-157.721619
3053.013511	5962.700167	799.345703	-46.983303
3053.013511	5962.700167	798.155273	-28.142881
3053.013511	5962.700167	796.964844	-112.071007
3053.013511	5962.700167	795.774414	-257.187164
3053.013511	5962.700167	794.583008	-183.810730
3053.013511	5962.700167	793.392578	29.282288
3053.013511	5962.700167	792.200195	-124.622101
3053.013511	5962.700167	791.008789	206.191895
3053.013511	5962.700167	789.816406	-0.157290
3053.013511	5962.700167	788.625000	51.059460
3053.013511	5962.700167	787.432617	298.591309
3053.013511	5962.700167	786.239258	271.109406
3053.013511	5962.700167	785.046875	213.056976
3053.013511	5962.700167	783.853516	163.708298
3053.013511	5962.700167	782.660156	57.650414
3053.013511	5962.700167	781.465820	34.421894
3053.013511	5962.700167	780.272461	309.711334
3053.013511	5962.700167	779.078125	146.903030
3053.013511	5962.700167	777.883789	8.075418
3053.013511	5962.700167	776.688477	115.361595
3053.013511	5962.700167	775.494141	-156.324951
3053.013511	5962.700167	774.298828	138.072662
3053.013511	5962.700167	773.103516	92.756981
3053.013511	5962.700167	771.907227	-15.695700
3053.013511	5962.700167	770.711914	-6.673315
3053.013511	5962.700167	769.515625	256.790802
3053.013511	5962.700167	768.318359	-167.120468
3053.013511	5962.700167	767.122070	-42.994095
3053.013511	5962.700167	765.924805	-190.699570
3053.013511	5962.700167	764.727539	18.034288
3053.013511	5962.700167	763.530273	107.113098
3053.013511	5962.700167	762.333008	113.545021
3053.013511	5962.700167	761.134766	-79.906548
3053.013511	5962.700167	759.936523	-179.959503
3053.013511	5962.700167	758.738281	-67.259964
3053.013511	5962.700167	757.540039	17.114267
3053.013511	5962.700167	756.340820	-83.072617
3053.013511	5962.700167	755.141602	61.903107
3053.013511	5962.700167	753.942383	24.535915
3053.013511	5962.700167	752.742188	-54.084953
3053.013511	5962.700167	751.541992	144.820038
3053.013511	5962.700167	750.341797	79.087173
3053.013511	5962.700167	749.141602	39.328152
3053.013511	5962.700167	747.941406	229.227890
3053.013511	5962.700167	746.740234	310.653717
3053.013511	5962.700167	745.539063	136.374664
3053.013511	5962.700167	744.337891	87.711441
3053.013511	5962.700167	743.135742	249.031189
3053.013511	5962.700167	741.933594	-68.204460
3053.013511	5962.700167	740.731445	129.736313
3053.013511	5962.700167	739.529297	197.691803
3053.013511	5962.700167	738.326172	-87.090202
3053.013511	5962.700167	737.124023	-14.933269
3053.013511	5962.700167	735.919922	227.964645
3053.013511	5962.700167	734.716797	263.127502
3053.013511	5962.700167	733.513672	319.819702
3053.013511	5962.700167	732.309570	197.037811
3053.013511	5962.700167	731.105469	-38.124172
3053.013511	5962.700167	729.900391	495.795074
3053.013511	5962.700167	728.696289	329.632996
3053.013511	5962.700167	727.491211	223.928909
3053.013511	5962.700167	726.286133	401.009521
3053.013511	5962.700167	725.080078	407.420898
3053.013511	5962.700167	723.874023	381.382446
3053.013511	5962.700167	722.668945	331.543549
3053.013511	5962.700167	721.461914	40.050861
3053.013511	5962.700167	720.255859	173.462830
3053.013511	5962.700167	719.048828	235.584595
3053.013511	5962.700167	717.841797	403.232605
3053.013511	5962.700167	716.634766	100.873215
3053.013511	5962.700167	715.427734	123.941582
3053.013511	5962.700167	714.219727	-31.895658
3053.013511	5962.700167	713.011719	184.882385
3053.013511	5962.700167	711.803711	201.212814
3053.013511	5962.700167	710.594727	152.861740
3053.013511	5962.700167	709.385742	414.421539
3053.013511	5962.700167	708.176758	133.446594
3053.013511	5962.700167	706.967773	250.569351
3053.013511	5962.700167	705.758789	137.375412
3053.013511	5962.700167	704.548828	15.539825
3053.013511	5962.700167	703.338867	207.620209
3053.013511	5962.700167	702.127930	156.595200
3053.013511	5962.700167	700.917969	107.657021
3053.013511	5962.700167	699.707031	333.721191
3053.013511	5962.700167	698.496094	415.653290
3053.013511	5962.700167	697.285156	173.102478
3053.013511	5962.700167	696.073242	218.347946
3053.013511	5962.700167	694.861328	42.327751
3053.013511	5962.700167	693.649414	74.527092
3053.013511	5962.700167	692.436523	48.673183
3053.013511	5962.700167	691.224609	29.181175
3053.013511	5962.700167	690.011719	-35.445541
3053.013511	5962.700167	688.798828	125.083122
3053.013511	5962.700167	687.584961	64.574257
3053.013511	5962.700167	686.372070	226.981720
3053.013511	5962.700167	685.158203	305.629730
3053.013511	5962.700167	683.943359	264.140045
3053.013511	5962.700167	682.729492	269.719025
3053.013511	5962.700167	681.514648	165.952194
3053.013511	5962.700167	680.299805	109.257217
3053.013511	5962.700167	679.084961	294.466156
3053.013511	5962.700167	677.869141	252.574158
3053.013511	5962.700167	676.653320	283.383911
3053.013511	5962.700167	675.437500	267.012756
3053.013511	5962.700167	674.221680	359.673645
3053.013511	5962.700167	673.004883	242.576401
3053.013511	5962.700167	671.789063	245.203156
3053.013511	5962.700167	670.571289	196.420166
3053.013511	5962.700167	669.354492	265.144775
3053.013511	5962.700167	668.136719	205.512939
3053.013511	5962.700167	666.919922	47.527977
3053.013511	5962.700167	665.701172	115.969452
3053.013511	5962.700167	664.483398	244.102295
3053.013511	5962.700167	663.264648	374.225098
3053.013511	5962.700167	662.045898	388.915100
3053.013511	5962.700167	660.827148	322.399231
3053.013511	5962.700167	659.608398	245.152451
3053.013511	5962.700167	658.388672	458.026581
3053.013511	5962.700167	657.168945	423.272034
3053.013511	5962.700167	655.949219	330.861938
3053.013511	5962.700167	654.728516	157.374557
3053.013511	5962.700167	653.507813	158.686523
3053.013511	5962.700167	652.287109	370.922394
3053.013511	5962.700167	651.066406	263.341522
3053.013511	5962.700167	649.844727	289.939880
3053.013511	5962.700167	648.623047	290.883667
3053.013511	5962.700167	647.401367	266.188049
3053.013511	5962.700167	646.179688	435.174042
3053.013511	5962.700167	644.957031	410.291565
3053.013511	5962.700167	643.734375	417.261810
3053.013511	5962.700167	642.511719	473.088379
3053.013511	5962.700167	641.289063	479.882385
3053.013511	5962.700167	640.065430	401.514526
3053.013511	5962.700167	638.841797	316.721924
3053.013511	5962.700167	637.618164	238.265121
3053.013511	5962.700167	636.393555	412.701294
3053.013511	5962.700167	635.168945	229.970947
3053.013511	5962.700167	633.944336	317.072968
3053.013511	5962.700167	632.719727	314.847107
3053.013511	5962.700167	631.494141	344.400238
3053.013511	5962.700167	630.269531	384.489136
3053.013511	5962.700167	629.042969	250.406967
3053.013511	5962.700167	627.817383	160.885010
3053.013511	5962.700167	626.590820	279.278412
3053.013511	5962.700167	625.365234	123.882568
3053.013511	5962.700167	624.137695	191.186417
3053.013511	5962.700167	622.911133	487.423889
3053.013511	5962.700167	621.683594	331.872650
3053.013511	5962.700167	620.456055	104.253433
3053.013511	5962.700167	619.228516	82.234383
3053.013511	5962.700167	618.000977	-295.796631
3053.013511	5962.700167	616.772461	-80.595406
3053.013511	5962.700167	615.543945	-187.467300
3053.013511	5962.700167	614.314453	-133.431839
3053.013511	5962.700167	613.085938	39.081059
3053.013511	5962.700167	611.856445	-108.141754
3053.013511	5962.700167	610.626953	-151.668045
3053.013511	5962.700167	609.397461	-277.739685
3053.013511	5962.700167	608.166992	-44.231754
3053.013511	5962.700167	606.936523	-45.613216
3053.013511	5962.700167	605.706055	-28.014530
3053.013511	5962.700167	604.474609	-99.260056
3053.013511	5962.700167	603.244141	-138.816040
3053.013511	5962.700167	602.012695	-129.808182
3053.013511	5962.700167	600.780273	14.345916
3053.013511	5962.700167	599.548828	12.668566
3053.013511	5962.700167	598.316406	-160.095963
3053.013511	5962.700167	597.083984	-123.822464
3053.013511	5962.700167	595.851563	-53.831673
3053.013511	5962.700167	594.618164	-110.529114
3053.013511	5962.700167	593.384766	5.766236
3053.013511	5962.700167	592.151367	-53.099339
3053.013511	5962.700167	590.917969	-8.634997
3053.013511	5962.700167	589.683594	-54.891796
3053.013511	5962.700167	588.449219	166.560455
3053.013511	5962.700167	587.214844	-2.010023
3053.013511	5962.700167	585.979492	14.886712
3053.013511	5962.700167	584.745117	25.435818
3053.013511	5962.700167	583.509766	-12.490892
3053.013511	5962.700167	582.273438	-60.957230
3053.013511	5962.700167	581.038086	134.800201
3053.013511	5962.700167	579.801758	273.618011
3053.013511	5962.700167	578.565430	-59.030411
3053.013511	5962.700167	577.329102	16.620275
3053.013511	5962.700167	576.091797	62.768986
3053.013511	5962.700167	574.854492	-57.255386
3053.013511	5962.700167	573.617188	-385.399384
3053.013511	5962.700167	572.378906	-40.718964
3053.013511	5962.700167	571.141602	-118.635155
3053.013511	5962.700167	569.903320	183.804794
3053.013511	5962.700167	568.664063	-198.765549
3053.013511	5962.700167	567.425781	-43.468388
3053.013511	5962.700167	566.186523	82.357048
3053.013511	5962.700167	564.947266	44.371716
3053.013511	5962.700167	563.708008	52.584141
3053.013511	5962.700167	562.467773	35.611225
3053.013511	5962.700167	561.227539	45.927364
3053.013511	5962.700167	559.987305	144.352600
3053.013511	5962.700167	558.747070	146.272385
3053.013511	5962.700167	557.505859	242.554626
3053.013511	5962.700167	556.264648	183.679474
3053.013511	5962.700167	555.023438	179.338043
3053.013511	5962.700167	553.781250	307.024200
3053.013511	5962.700167	552.539063	225.174088
3053.013511	5962.700167	551.296875	233.445572
3053.013511	5962.700167	550.054688	124.465202
3053.013511	5962.700167	548.811523	128.607727
3053.013511	5962.700167	547.569336	113.940826
3053.013511	5962.700167	546.325195	-36.734673
3053.013511	5962.700167	545.082031	7.273628
3053.013511	5962.700167	543.837891	151.698059
3053.013511	5962.700167	542.593750	109.954918
3053.013511	5962.700167	541.349609	-105.288406
3053.013511	5962.700167	540.105469	216.859116
3053.013511	5962.700167	538.860352	-142.466034
3053.013511	5962.700167	537.615234	68.868958
3053.013511	5962.700167	536.369141	255.074783
3053.013511	5962.700167	535.124023	109.138153
3053.013511	5962.700167	533.877930	28.034805
3053.013511	5962.700167	532.631836	74.367004
3053.013511	5962.700167	531.384766	62.270218
3053.013511	5962.700167	530.138672	79.444572
3053.013511	5962.700167	528.891602	-134.948547
3053.013511	5962.700167	527.643555	-84.282097
3053.013511	5962.700167	526.396484	-16.899296
3053.013511	5962.700167	525.148438	-183.040054
3053.013511	5962.700167	523.900391	80.388481
3053.013511	5962.700167	522.652344	12.356791
3053.013511	5962.700167	521.403320	156.947479
3053.013511	5962.700167	520.154297	36.940624
3053.013511	5962.700167	518.905273	6.602377
3053.013511	5962.700167	517.656250	-34.084370
3053.013511	5962.700167	516.406250	-164.232407
3053.013511	5962.700167	515.156250	-29.910751
3053.013511	5962.700167	513.906250	252.165024
3053.013511	5962.700167	512.655273	49.370300
3053.013511	5962.700167	511.404297	-7.668014
3053.013511	5962.700167	510.153320	-139.499725
3053.013511	5962.700167	508.902344	-71.605392
3053.013511	5962.700167	507.650391	-136.740646
3053.013511	5962.700167	506.398438	-224.657059
3053.013511	5962.700167	505.146484	63.634262
3053.013511	5962.700167	503.893555	158.638275
3053.013511	5962.700167	502.641602	-1.827310
3053.013511	5962.700167	501.388672	74.562187
3053.013511	5962.700167	500.134766	148.889114
3053.013511	5962.700167	498.881836	154.737213
3053.013511	5962.700167	497.627930	-13.698824
3053.013511	5962.700167	496.374023	-18.100475
3053.013511	5962.700167	495.119141	236.845306
3053.013511	5962.700167	493.865234	259.445099
3053.013511	5962.700167	492.610352	302.809418
3053.013511	5962.700167	491.355469	246.688736
3053.013511	5962.700167	490.099609	536.760010
3053.013511	5962.700167	488.843750	192.653152
3053.013511	5962.700167	487.587891	383.241150
3053.013511	5962.700167	486.332031	294.155609
3053.013511	5962.700167	485.075195	290.041687
3053.013511	5962.700167	483.818359	451.592163
3053.013511	5962.700167	482.561523	561.349243
3053.013511	5962.700167	481.304688	267.527893
3053.013511	5962.700167	480.046875	112.477837
3053.013511	5962.700167	478.789063	466.393982
3053.013511	5962.700167	477.531250	576.127441
3053.013511	5962.700167	476.272461	495.588013
3053.013511	5962.700167	475.013672	549.465149
3053.013511	5962.700167	473.754883	630.190430
3053.013511	5962.700167	472.496094	795.601563
3053.013511	5962.700167	471.236328	723.349792
3053.013511	5962.700167	469.976563	632.528992
3053.013511	5962.700167	468.716797	686.286804
3053.013511	5962.700167	467.456055	496.374359
3053.013511	5962.700167	466.196289	775.088806
3053.013511	5962.700167	464.935547	915.380310
3053.013511	5962.700167	463.673828	655.295837
3053.013511	5962.700167	462.413086	929.559814
3053.013511	5962.700167	461.151367	784.989685
3053.013511	5962.700167	459.889648	877.550598
3053.013511	5962.700167	458.626953	829.825867
3053.013511	5962.700167	457.364258	798.542969
3053.013511	5962.700167	456.101563	742.472229
3053.013511	5962.700167	454.838867	935.621887
3053.013511	5962.700167	453.575195	1126.534912
3053.013511	5962.700167	452.312500	1006.324890
3053.013511	5962.700167	451.047852	1021.931885
3053.013511	5962.700167	449.784180	909.804565
3053.013511	5962.700167	448.519531	1063.070923
3053.013511	5962.700167	447.254883	1135.897217
3053.013511	5962.700167	445.990234	1146.837402
3053.013511	5962.700167	444.725586	1155.565552
3053.013511	5962.700167	443.459961	1071.598022
3053.013511	5962.700167	442.194336	993.661438
3053.013511	5962.700167	440.927734	1059.437378
3053.013511	5962.700167	439.662109	1279.108643
3053.013511	5962.700167	438.395508	1383.428833
3053.013511	5962.700167	437.127930	1257.440308
3053.013511	5962.700167	435.861328	1045.037109
3053.013511	5962.700167	434.593750	1039.833618
3053.013511	5962.700167	433.326172	1106.219360
3053.013511	5962.700167	432.058594	1036.864746
3053.013511	5962.700167	430.790039	1338.610840
3053.013511	5962.700167	429.521484	1170.192383
3053.013511	5962.700167	428.252930	1026.143555
3053.013511	5962.700167	426.984375	1269.352295
3053.013511	5962.700167	425.714844	1362.461426
3053.013511	5962.700167	424.445313	1100.613159
3053.013511	5962.700167	423.174805	1219.617188
3053.013511	5962.700167	421.905273	1106.695801
3053.013511	5962.700167	420.634766	1151.114258
3053.013511	5962.700167	419.364258	1297.474731
3053.013511	5962.700167	418.092773	1191.503662
3053.013511	5962.700167	416.822266	1242.732788
3053.013511	5962.700167	415.550781	1451.018555
3053.013511	5962.700167	414.278320	1182.000610
3053.013511	5962.700167	413.006836	1203.047241
3053.013511	5962.700167	411.734375	1213.306030
3053.013511	5962.700167	410.461914	1135.081177
3053.013511	5962.700167	409.188477	1174.852661
3053.013511	5962.700167	407.916016	1263.060547
3053.013511	5962.700167	406.642578	1131.955933
3053.013511	5962.700167	405.368164	1096.254639
3053.013511	5962.700167	404.094727	1339.712280
3053.013511	5962.700167	402.820313	930.966064
3053.013511	5962.700167	401.545898	1315.813721
3053.013511	5962.700167	400.270508	1124.145508
3053.013511	5962.700167	398.996094	1084.842163
3053.013511	5962.700167	397.720703	1483.367920
3053.013511	5962.700167	396.444336	1328.104004
3053.013511	5962.700167	395.168945	1400.458130
3053.013511	5962.700167	393.892578	1143.617554
3053.013511	5962.700167	392.616211	1261.031860
3053.013511	5962.700167	391.339844	1171.607056
3053.013511	5962.700167	390.062500	1144.379272
3053.013511	5962.700167	388.785156	1272.999268
3053.013511	5962.700167	387.507813	1023.740234
3053.013511	5962.700167	386.229492	1186.828979
3053.013511	5962.700167	384.951172	1116.654785
3053.013511	5962.700167	383.672852	1047.394897
3053.013511	5962.700167	382.394531	968.838623
3053.013511	5962.700167	381.115234	990.786499
3053.013511	5962.700167	379.835938	1241.302246
3053.013511	5962.700167	378.556641	1036.934692
3053.013511	5962.700167	377.277344	890.279053
3053.013511	5962.700167	375.997070	819.519104
3053.013511	5962.700167	374.716797	1096.908691
3053.013511	5962.700167	373.435547	1356.432373
3053.013511	5962.700167	372.155273	1157.328369
3053.013511	5962.700167	370.874023	1111.078003
3053.013511	5962.700167	369.591797	925.152649
3053.013511	5962.700167	368.310547	668.691162
3053.013511	5962.700167	367.028320	1043.842896
3053.013511	5962.700167	365.746094	1118.824097
3053.013511	5962.700167	364.463867	983.045654
3053.013511	5962.700167	363.180664	924.562866
3053.013511	5962.700167	361.897461	829.757202
3053.013511	5962.700167	360.614258	1051.362671
3053.013511	5962.700167	359.330078	1025.591431
3053.013511	5962.700167	358.045898	957.273438
3053.013511	5962.700167	356.761719	824.096741
3053.013511	5962.700167	355.477539	937.984741
3053.013511	5962.700167	354.192383	942.242615
3053.013511	5962.700167	352.907227	1100.149536
3053.013511	5962.700167	351.622070	749.616150
3053.013511	5962.700167	350.336914	866.389526
3053.013511	5962.700167	349.050781	836.964844
3053.013511	5962.700167	347.764648	647.274048
3053.013511	5962.700167	346.477539	592.575623
3053.013511	5962.700167	345.191406	755.749329
3053.013511	5962.700167	343.904297	558.278687
3053.013511	5962.700167	342.616211	594.548523
3053.013511	5962.700167	341.329102	86.503532
3053.013511	5962.700167	340.041016	470.701324
3053.013511	5962.700167	338.752930	427.608429
3053.013511	5962.700167	337.463867	444.028442
3053.013511	5962.700167	336.175781	451.360138
3053.013511	5962.700167	334.886719	69.893997
3053.013511	5962.700167	333.596680	82.817436
3053.013511	5962.700167	332.307617	130.824707
3053.013511	5962.700167	331.017578	64.369408
3053.013511	5962.700167	329.727539	107.393829
3053.013511	5962.700167	328.436523	291.907166
3053.013511	5962.700167	327.146484	-73.515961
3053.013511	5962.700167	325.855469	204.338638
3053.013511	5962.700167	324.563477	260.522552
3053.013511	5962.700167	323.272461	-27.578367
3053.013511	5962.700167	321.980469	199.978607
3053.013511	5962.700167	320.688477	54.847778
3053.013511	5962.700167	319.395508	-140.824432
3053.013511	5962.700167	318.103516	-30.596928
3053.013511	5962.700167	316.810547	-23.510723
3053.013511	5962.700167	315.516602	-4.928514
3053.013511	5962.700167	314.223633	-91.363182
3053.013511	5962.700167	312.929688	-164.458588
3053.013511	5962.700167	311.635742	-135.727081
3053.013511	5962.700167	310.340820	-236.651108
3053.013511	5962.700167	309.045898	-155.606720
3053.013511	5962.700167	307.750977	-25.431259
3053.013511	5962.700167	306.456055	-37.106289
3053.013511	5962.700167	305.160156	226.941742
3053.013511	5962.700167	303.865234	-168.977600
3053.013511	5962.700167	302.568359	81.865585
3053.013511	5962.700167	301.272461	331.129211
3053.013511	5962.700167	299.975586	734.880554
3053.013511	5962.700167	298.678711	633.021973
