#X		#Y		#Wave		#Intensity
13268.388245	3909.861833	1999.980469	-34.090149
13268.388245	3909.861833	1999.016602	63.095001
13268.388245	3909.861833	1998.052734	-80.607246
13268.388245	3909.861833	1997.087891	45.425350
13268.388245	3909.861833	1996.123047	-178.366943
13268.388245	3909.861833	1995.158203	-55.680862
13268.388245	3909.861833	1994.193359	-208.358994
13268.388245	3909.861833	1993.228516	119.034134
13268.388245	3909.861833	1992.262695	-9.616077
13268.388245	3909.861833	1991.297852	-106.403496
13268.388245	3909.861833	1990.332031	177.638443
13268.388245	3909.861833	1989.366211	-23.754185
13268.388245	3909.861833	1988.399414	-52.213074
13268.388245	3909.861833	1987.433594	-26.558903
13268.388245	3909.861833	1986.466797	278.246338
13268.388245	3909.861833	1985.500977	-0.892696
13268.388245	3909.861833	1984.534180	122.758514
13268.388245	3909.861833	1983.567383	122.510681
13268.388245	3909.861833	1982.599609	201.087250
13268.388245	3909.861833	1981.632813	210.203674
13268.388245	3909.861833	1980.665039	251.195847
13268.388245	3909.861833	1979.697266	190.680267
13268.388245	3909.861833	1978.729492	68.234024
13268.388245	3909.861833	1977.761719	407.317749
13268.388245	3909.861833	1976.792969	158.576965
13268.388245	3909.861833	1975.825195	220.708862
13268.388245	3909.861833	1974.856445	245.622528
13268.388245	3909.861833	1973.887695	243.214691
13268.388245	3909.861833	1972.918945	107.442894
13268.388245	3909.861833	1971.949219	-23.503380
13268.388245	3909.861833	1970.980469	151.202637
13268.388245	3909.861833	1970.010742	37.262218
13268.388245	3909.861833	1969.041016	51.400990
13268.388245	3909.861833	1968.071289	139.337204
13268.388245	3909.861833	1967.101563	-61.155434
13268.388245	3909.861833	1966.130859	70.877174
13268.388245	3909.861833	1965.161133	-60.784721
13268.388245	3909.861833	1964.190430	31.590696
13268.388245	3909.861833	1963.219727	109.066528
13268.388245	3909.861833	1962.249023	58.420437
13268.388245	3909.861833	1961.277344	248.903931
13268.388245	3909.861833	1960.306641	230.081467
13268.388245	3909.861833	1959.334961	70.960434
13268.388245	3909.861833	1958.363281	256.204071
13268.388245	3909.861833	1957.391602	-269.429382
13268.388245	3909.861833	1956.419922	171.416702
13268.388245	3909.861833	1955.447266	19.566732
13268.388245	3909.861833	1954.474609	172.516525
13268.388245	3909.861833	1953.501953	-33.427505
13268.388245	3909.861833	1952.529297	-50.137852
13268.388245	3909.861833	1951.556641	-5.459796
13268.388245	3909.861833	1950.583984	98.121567
13268.388245	3909.861833	1949.610352	226.194107
13268.388245	3909.861833	1948.636719	91.491280
13268.388245	3909.861833	1947.663086	199.843948
13268.388245	3909.861833	1946.689453	141.250824
13268.388245	3909.861833	1945.715820	254.439957
13268.388245	3909.861833	1944.741211	156.587326
13268.388245	3909.861833	1943.767578	68.581184
13268.388245	3909.861833	1942.792969	-9.583561
13268.388245	3909.861833	1941.818359	-68.099152
13268.388245	3909.861833	1940.842773	189.662033
13268.388245	3909.861833	1939.868164	45.356266
13268.388245	3909.861833	1938.892578	-162.604050
13268.388245	3909.861833	1937.916992	139.167450
13268.388245	3909.861833	1936.941406	193.419113
13268.388245	3909.861833	1935.965820	-222.593948
13268.388245	3909.861833	1934.990234	115.807083
13268.388245	3909.861833	1934.013672	192.126053
13268.388245	3909.861833	1933.037109	104.430321
13268.388245	3909.861833	1932.060547	-156.977646
13268.388245	3909.861833	1931.083984	-163.771988
13268.388245	3909.861833	1930.107422	-258.610382
13268.388245	3909.861833	1929.129883	3.744027
13268.388245	3909.861833	1928.153320	63.046257
13268.388245	3909.861833	1927.175781	-87.927803
13268.388245	3909.861833	1926.198242	34.997646
13268.388245	3909.861833	1925.219727	67.472313
13268.388245	3909.861833	1924.242188	55.982952
13268.388245	3909.861833	1923.263672	122.721397
13268.388245	3909.861833	1922.285156	-98.790398
13268.388245	3909.861833	1921.306641	-24.645531
13268.388245	3909.861833	1920.328125	61.721027
13268.388245	3909.861833	1919.349609	50.432800
13268.388245	3909.861833	1918.370117	-2.311026
13268.388245	3909.861833	1917.391602	-130.653748
13268.388245	3909.861833	1916.412109	-183.263916
13268.388245	3909.861833	1915.431641	-30.878557
13268.388245	3909.861833	1914.452148	-37.060379
13268.388245	3909.861833	1913.472656	-191.966949
13268.388245	3909.861833	1912.492188	43.360493
13268.388245	3909.861833	1911.511719	-147.991013
13268.388245	3909.861833	1910.531250	-32.113434
13268.388245	3909.861833	1909.550781	-18.592001
13268.388245	3909.861833	1908.569336	-19.656546
13268.388245	3909.861833	1907.588867	71.890877
13268.388245	3909.861833	1906.607422	29.483406
13268.388245	3909.861833	1905.625977	108.889114
13268.388245	3909.861833	1904.644531	-116.035141
13268.388245	3909.861833	1903.662109	-36.557384
13268.388245	3909.861833	1902.680664	-20.350483
13268.388245	3909.861833	1901.698242	5.618422
13268.388245	3909.861833	1900.715820	-0.012957
13268.388245	3909.861833	1899.733398	101.418610
13268.388245	3909.861833	1898.750000	52.061996
13268.388245	3909.861833	1897.767578	85.430260
13268.388245	3909.861833	1896.784180	-41.633110
13268.388245	3909.861833	1895.800781	-47.088463
13268.388245	3909.861833	1894.817383	132.181290
13268.388245	3909.861833	1893.833984	24.707264
13268.388245	3909.861833	1892.850586	-46.260719
13268.388245	3909.861833	1891.866211	-180.324860
13268.388245	3909.861833	1890.881836	236.920334
13268.388245	3909.861833	1889.897461	-74.332062
13268.388245	3909.861833	1888.913086	39.354122
13268.388245	3909.861833	1887.927734	179.716492
13268.388245	3909.861833	1886.943359	-204.083557
13268.388245	3909.861833	1885.958008	-177.715042
13268.388245	3909.861833	1884.972656	197.949814
13268.388245	3909.861833	1883.987305	37.528687
13268.388245	3909.861833	1883.001953	151.173401
13268.388245	3909.861833	1882.015625	-343.699829
13268.388245	3909.861833	1881.029297	123.872520
13268.388245	3909.861833	1880.042969	-65.447044
13268.388245	3909.861833	1879.056641	-85.085922
13268.388245	3909.861833	1878.070313	-36.882648
13268.388245	3909.861833	1877.083984	-22.600595
13268.388245	3909.861833	1876.096680	23.158781
13268.388245	3909.861833	1875.109375	97.955498
13268.388245	3909.861833	1874.122070	-100.805908
13268.388245	3909.861833	1873.134766	-6.655478
13268.388245	3909.861833	1872.146484	150.368713
13268.388245	3909.861833	1871.159180	-48.302097
13268.388245	3909.861833	1870.170898	-251.744293
13268.388245	3909.861833	1869.182617	33.388176
13268.388245	3909.861833	1868.194336	-136.163330
13268.388245	3909.861833	1867.205078	-112.267067
13268.388245	3909.861833	1866.216797	1.033599
13268.388245	3909.861833	1865.227539	208.520523
13268.388245	3909.861833	1864.238281	118.732124
13268.388245	3909.861833	1863.249023	55.529831
13268.388245	3909.861833	1862.259766	96.181313
13268.388245	3909.861833	1861.269531	194.747818
13268.388245	3909.861833	1860.279297	-27.848391
13268.388245	3909.861833	1859.290039	82.719315
13268.388245	3909.861833	1858.298828	111.160751
13268.388245	3909.861833	1857.308594	14.088489
13268.388245	3909.861833	1856.318359	-99.867920
13268.388245	3909.861833	1855.327148	-66.685501
13268.388245	3909.861833	1854.335938	41.205585
13268.388245	3909.861833	1853.344727	47.750706
13268.388245	3909.861833	1852.353516	186.837616
13268.388245	3909.861833	1851.362305	12.503478
13268.388245	3909.861833	1850.370117	76.754456
13268.388245	3909.861833	1849.377930	102.385201
13268.388245	3909.861833	1848.385742	62.918224
13268.388245	3909.861833	1847.393555	-195.747971
13268.388245	3909.861833	1846.401367	263.194336
13268.388245	3909.861833	1845.408203	74.296921
13268.388245	3909.861833	1844.415039	8.172104
13268.388245	3909.861833	1843.421875	144.165665
13268.388245	3909.861833	1842.428711	92.370468
13268.388245	3909.861833	1841.435547	194.494614
13268.388245	3909.861833	1840.441406	176.253754
13268.388245	3909.861833	1839.448242	-29.615133
13268.388245	3909.861833	1838.454102	377.621765
13268.388245	3909.861833	1837.459961	121.171967
13268.388245	3909.861833	1836.464844	278.129730
13268.388245	3909.861833	1835.470703	201.871292
13268.388245	3909.861833	1834.475586	-59.428600
13268.388245	3909.861833	1833.480469	217.351898
13268.388245	3909.861833	1832.485352	4.022538
13268.388245	3909.861833	1831.490234	263.718292
13268.388245	3909.861833	1830.495117	-76.938522
13268.388245	3909.861833	1829.499023	-23.914619
13268.388245	3909.861833	1828.502930	79.398613
13268.388245	3909.861833	1827.506836	117.802231
13268.388245	3909.861833	1826.510742	110.523056
13268.388245	3909.861833	1825.513672	2.419329
13268.388245	3909.861833	1824.517578	42.940453
13268.388245	3909.861833	1823.520508	16.217550
13268.388245	3909.861833	1822.523438	85.291481
13268.388245	3909.861833	1821.526367	276.468262
13268.388245	3909.861833	1820.529297	187.121338
13268.388245	3909.861833	1819.531250	207.907272
13268.388245	3909.861833	1818.533203	130.376175
13268.388245	3909.861833	1817.535156	16.847794
13268.388245	3909.861833	1816.537109	-0.969394
13268.388245	3909.861833	1815.539063	-71.554413
13268.388245	3909.861833	1814.540039	1.381718
13268.388245	3909.861833	1813.541992	112.471428
13268.388245	3909.861833	1812.542969	82.242302
13268.388245	3909.861833	1811.543945	126.066566
13268.388245	3909.861833	1810.543945	217.587341
13268.388245	3909.861833	1809.544922	14.844254
13268.388245	3909.861833	1808.544922	180.229340
13268.388245	3909.861833	1807.544922	182.892670
13268.388245	3909.861833	1806.544922	92.230446
13268.388245	3909.861833	1805.544922	104.222839
13268.388245	3909.861833	1804.544922	-91.749573
13268.388245	3909.861833	1803.543945	247.243774
13268.388245	3909.861833	1802.542969	208.672012
13268.388245	3909.861833	1801.541992	14.795686
13268.388245	3909.861833	1800.541016	219.514038
13268.388245	3909.861833	1799.539063	249.792374
13268.388245	3909.861833	1798.538086	74.717125
13268.388245	3909.861833	1797.536133	80.889854
13268.388245	3909.861833	1796.534180	175.183899
13268.388245	3909.861833	1795.532227	-31.186905
13268.388245	3909.861833	1794.529297	279.798859
13268.388245	3909.861833	1793.527344	13.614737
13268.388245	3909.861833	1792.524414	102.532066
13268.388245	3909.861833	1791.521484	-70.861191
13268.388245	3909.861833	1790.518555	53.498524
13268.388245	3909.861833	1789.514648	153.842056
13268.388245	3909.861833	1788.511719	-19.883907
13268.388245	3909.861833	1787.507813	42.049744
13268.388245	3909.861833	1786.503906	53.820629
13268.388245	3909.861833	1785.500000	91.625252
13268.388245	3909.861833	1784.496094	-151.558624
13268.388245	3909.861833	1783.491211	-35.505703
13268.388245	3909.861833	1782.486328	125.557037
13268.388245	3909.861833	1781.481445	98.504890
13268.388245	3909.861833	1780.476563	21.374342
13268.388245	3909.861833	1779.471680	-8.322536
13268.388245	3909.861833	1778.465820	75.938789
13268.388245	3909.861833	1777.460938	-49.128941
13268.388245	3909.861833	1776.455078	-38.858986
13268.388245	3909.861833	1775.449219	215.967178
13268.388245	3909.861833	1774.442383	47.714428
13268.388245	3909.861833	1773.436523	109.751053
13268.388245	3909.861833	1772.429688	107.489830
13268.388245	3909.861833	1771.422852	-18.374462
13268.388245	3909.861833	1770.416016	-18.545313
13268.388245	3909.861833	1769.409180	-125.662720
13268.388245	3909.861833	1768.402344	-152.223083
13268.388245	3909.861833	1767.394531	98.612251
13268.388245	3909.861833	1766.386719	-151.250122
13268.388245	3909.861833	1765.378906	13.808682
13268.388245	3909.861833	1764.371094	17.427147
13268.388245	3909.861833	1763.362305	4.284269
13268.388245	3909.861833	1762.354492	71.578995
13268.388245	3909.861833	1761.345703	245.308090
13268.388245	3909.861833	1760.336914	-107.122765
13268.388245	3909.861833	1759.328125	-130.338654
13268.388245	3909.861833	1758.318359	142.307587
13268.388245	3909.861833	1757.308594	166.080536
13268.388245	3909.861833	1756.299805	-200.904953
13268.388245	3909.861833	1755.290039	-165.560013
13268.388245	3909.861833	1754.279297	73.110123
13268.388245	3909.861833	1753.269531	60.753574
13268.388245	3909.861833	1752.258789	-41.656796
13268.388245	3909.861833	1751.249023	-56.669460
13268.388245	3909.861833	1750.238281	-83.670509
13268.388245	3909.861833	1749.226563	31.016571
13268.388245	3909.861833	1748.215820	-187.766083
13268.388245	3909.861833	1747.204102	-215.213959
13268.388245	3909.861833	1746.193359	102.167091
13268.388245	3909.861833	1745.181641	112.154686
13268.388245	3909.861833	1744.168945	74.730141
13268.388245	3909.861833	1743.157227	138.715714
13268.388245	3909.861833	1742.144531	-66.644981
13268.388245	3909.861833	1741.132813	-137.520264
13268.388245	3909.861833	1740.120117	-203.819412
13268.388245	3909.861833	1739.106445	126.152885
13268.388245	3909.861833	1738.093750	94.903122
13268.388245	3909.861833	1737.080078	-33.211220
13268.388245	3909.861833	1736.067383	215.904846
13268.388245	3909.861833	1735.053711	-108.193451
13268.388245	3909.861833	1734.040039	79.226326
13268.388245	3909.861833	1733.025391	216.910858
13268.388245	3909.861833	1732.011719	-50.908882
13268.388245	3909.861833	1730.997070	22.828138
13268.388245	3909.861833	1729.982422	-2.548296
13268.388245	3909.861833	1728.967773	-103.432022
13268.388245	3909.861833	1727.952148	-93.773224
13268.388245	3909.861833	1726.937500	-227.861862
13268.388245	3909.861833	1725.921875	-183.177261
13268.388245	3909.861833	1724.906250	-23.346827
13268.388245	3909.861833	1723.890625	18.630268
13268.388245	3909.861833	1722.875000	-92.463898
13268.388245	3909.861833	1721.858398	85.614143
13268.388245	3909.861833	1720.841797	141.198563
13268.388245	3909.861833	1719.825195	140.189682
13268.388245	3909.861833	1718.808594	-86.623489
13268.388245	3909.861833	1717.791992	34.332253
13268.388245	3909.861833	1716.774414	65.792999
13268.388245	3909.861833	1715.756836	-213.005905
13268.388245	3909.861833	1714.739258	-108.980453
13268.388245	3909.861833	1713.721680	18.348919
13268.388245	3909.861833	1712.704102	-54.084129
13268.388245	3909.861833	1711.685547	291.204987
13268.388245	3909.861833	1710.667969	37.751190
13268.388245	3909.861833	1709.649414	54.096714
13268.388245	3909.861833	1708.630859	-42.314056
13268.388245	3909.861833	1707.611328	-105.999886
13268.388245	3909.861833	1706.592773	-209.646454
13268.388245	3909.861833	1705.573242	80.519020
13268.388245	3909.861833	1704.553711	14.104571
13268.388245	3909.861833	1703.534180	-61.788960
13268.388245	3909.861833	1702.513672	44.985195
13268.388245	3909.861833	1701.494141	-148.290573
13268.388245	3909.861833	1700.473633	84.702309
13268.388245	3909.861833	1699.453125	34.089165
13268.388245	3909.861833	1698.432617	37.228741
13268.388245	3909.861833	1697.412109	140.914368
13268.388245	3909.861833	1696.390625	155.472931
13268.388245	3909.861833	1695.369141	235.432602
13268.388245	3909.861833	1694.347656	322.262573
13268.388245	3909.861833	1693.326172	102.483757
13268.388245	3909.861833	1692.304688	-79.905334
13268.388245	3909.861833	1691.282227	-0.448370
13268.388245	3909.861833	1690.260742	-38.016655
13268.388245	3909.861833	1689.238281	48.188652
13268.388245	3909.861833	1688.214844	-132.203323
13268.388245	3909.861833	1687.192383	7.510983
13268.388245	3909.861833	1686.168945	214.793930
13268.388245	3909.861833	1685.146484	242.055557
13268.388245	3909.861833	1684.123047	-15.728463
13268.388245	3909.861833	1683.099609	67.375763
13268.388245	3909.861833	1682.075195	211.021118
13268.388245	3909.861833	1681.051758	251.836197
13268.388245	3909.861833	1680.027344	150.170044
13268.388245	3909.861833	1679.002930	288.752838
13268.388245	3909.861833	1677.978516	322.219086
13268.388245	3909.861833	1676.953125	411.528900
13268.388245	3909.861833	1675.928711	524.051025
13268.388245	3909.861833	1674.903320	361.325165
13268.388245	3909.861833	1673.877930	361.731415
13268.388245	3909.861833	1672.852539	278.155273
13268.388245	3909.861833	1671.826172	199.164993
13268.388245	3909.861833	1670.800781	469.564667
13268.388245	3909.861833	1669.774414	530.141418
13268.388245	3909.861833	1668.748047	378.713196
13268.388245	3909.861833	1667.721680	555.531799
13268.388245	3909.861833	1666.694336	802.012878
13268.388245	3909.861833	1665.667969	573.588196
13268.388245	3909.861833	1664.640625	864.029541
13268.388245	3909.861833	1663.613281	654.122192
13268.388245	3909.861833	1662.585938	590.756592
13268.388245	3909.861833	1661.557617	534.301270
13268.388245	3909.861833	1660.530273	498.747223
13268.388245	3909.861833	1659.501953	809.477051
13268.388245	3909.861833	1658.473633	771.408203
13268.388245	3909.861833	1657.444336	942.398254
13268.388245	3909.861833	1656.416016	899.550903
13268.388245	3909.861833	1655.386719	921.674316
13268.388245	3909.861833	1654.358398	1011.103882
13268.388245	3909.861833	1653.328125	928.583069
13268.388245	3909.861833	1652.298828	1171.057739
13268.388245	3909.861833	1651.269531	1366.970337
13268.388245	3909.861833	1650.239258	1298.196655
13268.388245	3909.861833	1649.208984	1486.929199
13268.388245	3909.861833	1648.178711	1422.706787
13268.388245	3909.861833	1647.148438	1509.211060
13268.388245	3909.861833	1646.117188	1679.091309
13268.388245	3909.861833	1645.086914	1626.336060
13268.388245	3909.861833	1644.055664	1712.606934
13268.388245	3909.861833	1643.024414	1634.278320
13268.388245	3909.861833	1641.992188	1685.669189
13268.388245	3909.861833	1640.960938	1915.399048
13268.388245	3909.861833	1639.928711	1742.000610
13268.388245	3909.861833	1638.896484	1763.149048
13268.388245	3909.861833	1637.864258	1923.168457
13268.388245	3909.861833	1636.832031	2004.404663
13268.388245	3909.861833	1635.798828	2178.131592
13268.388245	3909.861833	1634.766602	2078.770020
13268.388245	3909.861833	1633.733398	2189.916748
13268.388245	3909.861833	1632.699219	2009.560181
13268.388245	3909.861833	1631.666016	2321.826172
13268.388245	3909.861833	1630.632813	2543.791016
13268.388245	3909.861833	1629.598633	2696.291992
13268.388245	3909.861833	1628.564453	2462.775146
13268.388245	3909.861833	1627.530273	2354.115967
13268.388245	3909.861833	1626.495117	2619.720947
13268.388245	3909.861833	1625.460938	2631.171143
13268.388245	3909.861833	1624.425781	2924.325439
13268.388245	3909.861833	1623.390625	3014.190674
13268.388245	3909.861833	1622.355469	2880.110840
13268.388245	3909.861833	1621.319336	3246.887207
13268.388245	3909.861833	1620.284180	3288.194336
13268.388245	3909.861833	1619.248047	3248.725342
13268.388245	3909.861833	1618.211914	3246.190186
13268.388245	3909.861833	1617.174805	3241.337646
13268.388245	3909.861833	1616.138672	3432.510010
13268.388245	3909.861833	1615.101563	3416.128906
13268.388245	3909.861833	1614.065430	3761.649658
13268.388245	3909.861833	1613.027344	3823.576904
13268.388245	3909.861833	1611.990234	3691.997803
13268.388245	3909.861833	1610.953125	3611.171143
13268.388245	3909.861833	1609.915039	3774.498291
13268.388245	3909.861833	1608.876953	3898.645996
13268.388245	3909.861833	1607.838867	3852.421387
13268.388245	3909.861833	1606.800781	3948.950928
13268.388245	3909.861833	1605.761719	3985.623047
13268.388245	3909.861833	1604.723633	3918.805908
13268.388245	3909.861833	1603.684570	3996.949463
13268.388245	3909.861833	1602.644531	4277.469727
13268.388245	3909.861833	1601.605469	4192.339355
13268.388245	3909.861833	1600.566406	4079.697021
13268.388245	3909.861833	1599.526367	4022.289307
13268.388245	3909.861833	1598.486328	4369.411133
13268.388245	3909.861833	1597.446289	4137.447266
13268.388245	3909.861833	1596.405273	3995.196533
13268.388245	3909.861833	1595.365234	4236.627930
13268.388245	3909.861833	1594.324219	4135.854492
13268.388245	3909.861833	1593.283203	4273.944336
13268.388245	3909.861833	1592.242188	4092.983643
13268.388245	3909.861833	1591.200195	4091.138184
13268.388245	3909.861833	1590.159180	4153.623047
13268.388245	3909.861833	1589.117188	4365.240234
13268.388245	3909.861833	1588.075195	4069.961182
13268.388245	3909.861833	1587.032227	3926.191895
13268.388245	3909.861833	1585.990234	3878.865479
13268.388245	3909.861833	1584.947266	3946.220459
13268.388245	3909.861833	1583.904297	3942.578857
13268.388245	3909.861833	1582.861328	3886.313721
13268.388245	3909.861833	1581.818359	3871.387451
13268.388245	3909.861833	1580.775391	3700.796143
13268.388245	3909.861833	1579.731445	3979.171631
13268.388245	3909.861833	1578.687500	3898.065186
13268.388245	3909.861833	1577.643555	3716.355957
13268.388245	3909.861833	1576.598633	3610.310059
13268.388245	3909.861833	1575.554688	3632.556641
13268.388245	3909.861833	1574.509766	3597.671387
13268.388245	3909.861833	1573.464844	3752.739258
13268.388245	3909.861833	1572.419922	3708.884766
13268.388245	3909.861833	1571.374023	3589.672119
13268.388245	3909.861833	1570.329102	3504.916016
13268.388245	3909.861833	1569.283203	3781.383057
13268.388245	3909.861833	1568.237305	3356.331299
13268.388245	3909.861833	1567.191406	3372.479248
13268.388245	3909.861833	1566.144531	3196.838379
13268.388245	3909.861833	1565.098633	3238.345703
13268.388245	3909.861833	1564.051758	3069.866455
13268.388245	3909.861833	1563.004883	3225.724365
13268.388245	3909.861833	1561.957031	3349.659912
13268.388245	3909.861833	1560.910156	3359.583984
13268.388245	3909.861833	1559.862305	3193.928711
13268.388245	3909.861833	1558.814453	3035.301025
13268.388245	3909.861833	1557.766602	2712.651123
13268.388245	3909.861833	1556.718750	2786.990967
13268.388245	3909.861833	1555.669922	2909.277832
13268.388245	3909.861833	1554.621094	2641.893555
13268.388245	3909.861833	1553.573242	2757.593506
13268.388245	3909.861833	1552.523438	2832.329346
13268.388245	3909.861833	1551.474609	2485.773682
13268.388245	3909.861833	1550.424805	2362.656006
13268.388245	3909.861833	1549.375000	2503.849365
13268.388245	3909.861833	1548.325195	2508.526611
13268.388245	3909.861833	1547.275391	2394.982422
13268.388245	3909.861833	1546.225586	2242.930908
13268.388245	3909.861833	1545.174805	2409.589355
13268.388245	3909.861833	1544.124023	2162.317627
13268.388245	3909.861833	1543.073242	2292.816650
13268.388245	3909.861833	1542.022461	2277.880371
13268.388245	3909.861833	1540.970703	2522.246338
13268.388245	3909.861833	1539.919922	1762.030029
13268.388245	3909.861833	1538.868164	1663.544312
13268.388245	3909.861833	1537.815430	1969.656250
13268.388245	3909.861833	1536.763672	1821.490601
13268.388245	3909.861833	1535.710938	1834.770996
13268.388245	3909.861833	1534.659180	1546.207764
13268.388245	3909.861833	1533.606445	1668.815918
13268.388245	3909.861833	1532.552734	1857.339478
13268.388245	3909.861833	1531.500000	1637.473999
13268.388245	3909.861833	1530.446289	1347.501099
13268.388245	3909.861833	1529.393555	1502.437988
13268.388245	3909.861833	1528.338867	1671.050659
13268.388245	3909.861833	1527.285156	1372.653564
13268.388245	3909.861833	1526.231445	1446.344482
13268.388245	3909.861833	1525.176758	1316.155396
13268.388245	3909.861833	1524.122070	1328.955444
13268.388245	3909.861833	1523.067383	1174.249390
13268.388245	3909.861833	1522.012695	1069.606689
13268.388245	3909.861833	1520.957031	1101.056030
13268.388245	3909.861833	1519.901367	1121.340698
13268.388245	3909.861833	1518.845703	1200.651001
13268.388245	3909.861833	1517.790039	913.408081
13268.388245	3909.861833	1516.734375	524.612671
13268.388245	3909.861833	1515.677734	683.694702
13268.388245	3909.861833	1514.621094	967.308594
13268.388245	3909.861833	1513.564453	563.414246
13268.388245	3909.861833	1512.507813	804.328918
13268.388245	3909.861833	1511.450195	602.188171
13268.388245	3909.861833	1510.393555	531.421082
13268.388245	3909.861833	1509.335938	616.788086
13268.388245	3909.861833	1508.278320	566.731567
13268.388245	3909.861833	1507.219727	582.379944
13268.388245	3909.861833	1506.162109	379.129456
13268.388245	3909.861833	1505.103516	311.622833
13268.388245	3909.861833	1504.044922	345.926666
13268.388245	3909.861833	1502.986328	272.053467
13268.388245	3909.861833	1501.926758	200.644043
13268.388245	3909.861833	1500.868164	303.202240
13268.388245	3909.861833	1499.808594	209.630295
13268.388245	3909.861833	1498.749023	100.497734
13268.388245	3909.861833	1497.688477	221.602295
13268.388245	3909.861833	1496.628906	128.674850
13268.388245	3909.861833	1495.568359	-45.183773
13268.388245	3909.861833	1494.507813	-29.469263
13268.388245	3909.861833	1493.447266	-85.671272
13268.388245	3909.861833	1492.386719	11.531081
13268.388245	3909.861833	1491.325195	-129.866196
13268.388245	3909.861833	1490.263672	-102.119385
13268.388245	3909.861833	1489.202148	-148.483810
13268.388245	3909.861833	1488.140625	-82.084000
13268.388245	3909.861833	1487.079102	61.004383
13268.388245	3909.861833	1486.016602	-232.294098
13268.388245	3909.861833	1484.954102	-151.832428
13268.388245	3909.861833	1483.891602	-37.465652
13268.388245	3909.861833	1482.829102	36.578129
13268.388245	3909.861833	1481.765625	342.358948
13268.388245	3909.861833	1480.702148	-140.785629
13268.388245	3909.861833	1479.638672	354.084229
13268.388245	3909.861833	1478.575195	271.486450
13268.388245	3909.861833	1477.511719	106.034637
13268.388245	3909.861833	1476.447266	-63.667385
13268.388245	3909.861833	1475.382813	137.392746
13268.388245	3909.861833	1474.318359	235.271927
13268.388245	3909.861833	1473.253906	283.939178
13268.388245	3909.861833	1472.189453	209.525558
13268.388245	3909.861833	1471.124023	144.223694
13268.388245	3909.861833	1470.058594	328.115204
13268.388245	3909.861833	1468.993164	175.864319
13268.388245	3909.861833	1467.927734	50.969250
13268.388245	3909.861833	1466.861328	130.099869
13268.388245	3909.861833	1465.794922	79.696320
13268.388245	3909.861833	1464.728516	69.747002
13268.388245	3909.861833	1463.662109	129.482468
13268.388245	3909.861833	1462.594727	186.499054
13268.388245	3909.861833	1461.528320	225.952133
13268.388245	3909.861833	1460.460938	102.632111
13268.388245	3909.861833	1459.393555	346.057983
13268.388245	3909.861833	1458.326172	117.997330
13268.388245	3909.861833	1457.257813	624.771973
13268.388245	3909.861833	1456.189453	270.056488
13268.388245	3909.861833	1455.121094	251.286423
13268.388245	3909.861833	1454.052734	418.869873
13268.388245	3909.861833	1452.984375	150.574326
13268.388245	3909.861833	1451.915039	222.294769
13268.388245	3909.861833	1450.845703	228.228165
13268.388245	3909.861833	1449.776367	406.604889
13268.388245	3909.861833	1448.707031	33.975506
13268.388245	3909.861833	1447.636719	239.265030
13268.388245	3909.861833	1446.567383	397.759857
13268.388245	3909.861833	1445.497070	195.839615
13268.388245	3909.861833	1444.425781	362.854218
13268.388245	3909.861833	1443.355469	326.852570
13268.388245	3909.861833	1442.285156	580.992371
13268.388245	3909.861833	1441.213867	539.851990
13268.388245	3909.861833	1440.142578	499.561829
13268.388245	3909.861833	1439.070313	576.911560
13268.388245	3909.861833	1437.999023	382.950104
13268.388245	3909.861833	1436.926758	439.776672
13268.388245	3909.861833	1435.854492	399.321655
13268.388245	3909.861833	1434.782227	390.276123
13268.388245	3909.861833	1433.709961	142.793961
13268.388245	3909.861833	1432.636719	251.011566
13268.388245	3909.861833	1431.563477	107.085060
13268.388245	3909.861833	1430.490234	123.308929
13268.388245	3909.861833	1429.416992	117.139748
13268.388245	3909.861833	1428.343750	-177.448349
13268.388245	3909.861833	1427.269531	103.818611
13268.388245	3909.861833	1426.195313	-68.951141
13268.388245	3909.861833	1425.121094	-317.043304
13268.388245	3909.861833	1424.046875	-59.618519
13268.388245	3909.861833	1422.971680	-121.452957
13268.388245	3909.861833	1421.896484	-39.659901
13268.388245	3909.861833	1420.821289	-47.230152
13268.388245	3909.861833	1419.746094	126.423576
13268.388245	3909.861833	1418.669922	43.246529
13268.388245	3909.861833	1417.594727	188.188354
13268.388245	3909.861833	1416.518555	183.179352
13268.388245	3909.861833	1415.442383	107.066002
13268.388245	3909.861833	1414.365234	-0.252672
13268.388245	3909.861833	1413.289063	-91.170341
13268.388245	3909.861833	1412.211914	293.738831
13268.388245	3909.861833	1411.134766	164.019775
13268.388245	3909.861833	1410.057617	117.767426
13268.388245	3909.861833	1408.979492	94.748840
13268.388245	3909.861833	1407.902344	169.463013
13268.388245	3909.861833	1406.824219	453.150024
13268.388245	3909.861833	1405.746094	345.625244
13268.388245	3909.861833	1404.666992	261.244324
13268.388245	3909.861833	1403.588867	247.641434
13268.388245	3909.861833	1402.509766	281.634216
13268.388245	3909.861833	1401.430664	324.974762
13268.388245	3909.861833	1400.351563	577.851746
13268.388245	3909.861833	1399.271484	575.545349
13268.388245	3909.861833	1398.192383	87.750458
13268.388245	3909.861833	1397.112305	344.188751
13268.388245	3909.861833	1396.031250	749.586365
13268.388245	3909.861833	1394.951172	605.568787
13268.388245	3909.861833	1393.871094	455.477051
13268.388245	3909.861833	1392.790039	510.688080
13268.388245	3909.861833	1391.708984	545.551880
13268.388245	3909.861833	1390.626953	618.523865
13268.388245	3909.861833	1389.545898	616.368286
13268.388245	3909.861833	1388.463867	891.035950
13268.388245	3909.861833	1387.381836	868.450500
13268.388245	3909.861833	1386.299805	702.935059
13268.388245	3909.861833	1385.217773	1083.728882
13268.388245	3909.861833	1384.134766	1018.141602
13268.388245	3909.861833	1383.051758	1009.678223
13268.388245	3909.861833	1381.968750	1111.597412
13268.388245	3909.861833	1380.885742	944.677429
13268.388245	3909.861833	1379.802734	1103.649536
13268.388245	3909.861833	1378.718750	974.003967
13268.388245	3909.861833	1377.634766	1159.977051
13268.388245	3909.861833	1376.550781	1040.483887
13268.388245	3909.861833	1375.465820	1168.922974
13268.388245	3909.861833	1374.381836	912.321899
13268.388245	3909.861833	1373.296875	791.020325
13268.388245	3909.861833	1372.211914	767.117310
13268.388245	3909.861833	1371.126953	571.285400
13268.388245	3909.861833	1370.041016	500.646729
13268.388245	3909.861833	1368.955078	515.061462
13268.388245	3909.861833	1367.869141	563.403503
13268.388245	3909.861833	1366.783203	553.736023
13268.388245	3909.861833	1365.697266	594.719849
13268.388245	3909.861833	1364.610352	551.880188
13268.388245	3909.861833	1363.523438	371.474884
13268.388245	3909.861833	1362.436523	598.924500
13268.388245	3909.861833	1361.349609	500.038422
13268.388245	3909.861833	1360.261719	617.318726
13268.388245	3909.861833	1359.174805	184.745758
13268.388245	3909.861833	1358.086914	283.059570
13268.388245	3909.861833	1356.998047	518.878479
13268.388245	3909.861833	1355.910156	691.797058
13268.388245	3909.861833	1354.821289	509.798431
13268.388245	3909.861833	1353.732422	639.508301
13268.388245	3909.861833	1352.643555	642.151855
13268.388245	3909.861833	1351.554688	680.815735
13268.388245	3909.861833	1350.464844	559.507019
13268.388245	3909.861833	1349.375000	782.913513
13268.388245	3909.861833	1348.285156	663.082520
13268.388245	3909.861833	1347.195313	577.942505
13268.388245	3909.861833	1346.105469	743.562256
13268.388245	3909.861833	1345.014648	629.807129
13268.388245	3909.861833	1343.923828	697.051575
13268.388245	3909.861833	1342.833008	763.294067
13268.388245	3909.861833	1341.741211	575.302673
13268.388245	3909.861833	1340.650391	495.293304
13268.388245	3909.861833	1339.558594	730.225098
13268.388245	3909.861833	1338.466797	628.792297
13268.388245	3909.861833	1337.374023	567.395935
13268.388245	3909.861833	1336.282227	460.842896
13268.388245	3909.861833	1335.189453	486.511230
13268.388245	3909.861833	1334.096680	464.743011
13268.388245	3909.861833	1333.003906	658.081726
13268.388245	3909.861833	1331.910156	435.571625
13268.388245	3909.861833	1330.817383	523.024292
13268.388245	3909.861833	1329.723633	335.176208
13268.388245	3909.861833	1328.629883	499.019318
13268.388245	3909.861833	1327.535156	445.037689
13268.388245	3909.861833	1326.441406	280.553802
13268.388245	3909.861833	1325.346680	243.058853
13268.388245	3909.861833	1324.251953	441.028717
13268.388245	3909.861833	1323.156250	343.213440
13268.388245	3909.861833	1322.061523	285.635925
13268.388245	3909.861833	1320.965820	580.413086
13268.388245	3909.861833	1319.870117	464.020386
13268.388245	3909.861833	1318.774414	380.942688
13268.388245	3909.861833	1317.678711	299.694122
13268.388245	3909.861833	1316.582031	375.824097
13268.388245	3909.861833	1315.485352	248.059662
13268.388245	3909.861833	1314.388672	100.825119
13268.388245	3909.861833	1313.291016	470.056824
13268.388245	3909.861833	1312.194336	274.670563
13268.388245	3909.861833	1311.096680	249.499664
13268.388245	3909.861833	1309.999023	239.817612
13268.388245	3909.861833	1308.901367	287.929535
13268.388245	3909.861833	1307.802734	237.623764
13268.388245	3909.861833	1306.705078	241.336746
13268.388245	3909.861833	1305.606445	155.261978
13268.388245	3909.861833	1304.506836	148.628616
13268.388245	3909.861833	1303.408203	455.987885
13268.388245	3909.861833	1302.308594	276.730988
13268.388245	3909.861833	1301.208984	344.921783
13268.388245	3909.861833	1300.109375	533.007935
13268.388245	3909.861833	1299.009766	549.161804
13268.388245	3909.861833	1297.909180	395.277832
13268.388245	3909.861833	1296.808594	731.017212
13268.388245	3909.861833	1295.708008	649.899902
13268.388245	3909.861833	1294.607422	836.690063
13268.388245	3909.861833	1293.506836	375.022797
13268.388245	3909.861833	1292.405273	475.371063
13268.388245	3909.861833	1291.303711	654.919189
13268.388245	3909.861833	1290.202148	548.064026
13268.388245	3909.861833	1289.099609	294.388062
13268.388245	3909.861833	1287.998047	470.395782
13268.388245	3909.861833	1286.895508	501.523102
13268.388245	3909.861833	1285.792969	383.084991
13268.388245	3909.861833	1284.689453	484.732361
13268.388245	3909.861833	1283.586914	317.350220
13268.388245	3909.861833	1282.483398	561.275269
13268.388245	3909.861833	1281.379883	372.271454
13268.388245	3909.861833	1280.276367	402.540405
13268.388245	3909.861833	1279.171875	351.393524
13268.388245	3909.861833	1278.067383	407.174652
13268.388245	3909.861833	1276.962891	259.046387
13268.388245	3909.861833	1275.858398	211.409576
13268.388245	3909.861833	1274.753906	240.081055
13268.388245	3909.861833	1273.648438	182.018890
13268.388245	3909.861833	1272.542969	169.402725
13268.388245	3909.861833	1271.437500	179.449844
13268.388245	3909.861833	1270.331055	2.182842
13268.388245	3909.861833	1269.225586	74.384094
13268.388245	3909.861833	1268.119141	60.139416
13268.388245	3909.861833	1267.012695	-79.574814
13268.388245	3909.861833	1265.906250	128.056335
13268.388245	3909.861833	1264.798828	103.631813
13268.388245	3909.861833	1263.691406	-63.803738
13268.388245	3909.861833	1262.583984	-151.533020
13268.388245	3909.861833	1261.476563	-93.276253
13268.388245	3909.861833	1260.368164	-137.834763
13268.388245	3909.861833	1259.260742	-123.504738
13268.388245	3909.861833	1258.152344	97.399719
13268.388245	3909.861833	1257.043945	136.614563
13268.388245	3909.861833	1255.934570	-280.414368
13268.388245	3909.861833	1254.825195	50.057587
13268.388245	3909.861833	1253.716797	-94.805939
13268.388245	3909.861833	1252.606445	-107.484856
13268.388245	3909.861833	1251.497070	-81.473770
13268.388245	3909.861833	1250.387695	-62.141281
13268.388245	3909.861833	1249.277344	-112.722122
13268.388245	3909.861833	1248.166992	-15.604457
13268.388245	3909.861833	1247.055664	-196.441956
13268.388245	3909.861833	1245.945313	-79.667755
13268.388245	3909.861833	1244.833984	-60.751877
13268.388245	3909.861833	1243.722656	42.619682
13268.388245	3909.861833	1242.611328	-24.268316
13268.388245	3909.861833	1241.499023	-44.736496
13268.388245	3909.861833	1240.387695	-244.688705
13268.388245	3909.861833	1239.275391	-131.100754
13268.388245	3909.861833	1238.162109	-6.474006
13268.388245	3909.861833	1237.049805	-98.067734
13268.388245	3909.861833	1235.936523	-62.092125
13268.388245	3909.861833	1234.823242	-136.326889
13268.388245	3909.861833	1233.709961	-190.049728
13268.388245	3909.861833	1232.596680	-14.103715
13268.388245	3909.861833	1231.482422	-44.948166
13268.388245	3909.861833	1230.369141	-59.077568
13268.388245	3909.861833	1229.253906	-16.061565
13268.388245	3909.861833	1228.139648	-5.792065
13268.388245	3909.861833	1227.025391	41.602711
13268.388245	3909.861833	1225.910156	-9.903947
13268.388245	3909.861833	1224.794922	61.081261
13268.388245	3909.861833	1223.679688	-105.992714
13268.388245	3909.861833	1222.563477	-102.715118
13268.388245	3909.861833	1221.447266	6.244923
13268.388245	3909.861833	1220.331055	-148.850143
13268.388245	3909.861833	1219.214844	-116.618721
13268.388245	3909.861833	1218.098633	-73.244621
13268.388245	3909.861833	1216.981445	101.227745
13268.388245	3909.861833	1215.864258	-119.020012
13268.388245	3909.861833	1214.747070	-123.648247
13268.388245	3909.861833	1213.629883	-134.330978
13268.388245	3909.861833	1212.511719	22.133402
13268.388245	3909.861833	1211.393555	56.028210
13268.388245	3909.861833	1210.275391	49.492928
13268.388245	3909.861833	1209.157227	34.410202
13268.388245	3909.861833	1208.038086	96.337036
13268.388245	3909.861833	1206.918945	11.822514
13268.388245	3909.861833	1205.799805	121.697563
13268.388245	3909.861833	1204.680664	153.177887
13268.388245	3909.861833	1203.560547	70.700241
13268.388245	3909.861833	1202.441406	101.693466
13268.388245	3909.861833	1201.321289	273.162048
13268.388245	3909.861833	1200.200195	185.443695
13268.388245	3909.861833	1199.080078	138.419617
13268.388245	3909.861833	1197.958984	106.499382
13268.388245	3909.861833	1196.837891	196.926834
13268.388245	3909.861833	1195.716797	193.780060
13268.388245	3909.861833	1194.594727	334.122528
13268.388245	3909.861833	1193.473633	391.741211
13268.388245	3909.861833	1192.351563	347.948608
13268.388245	3909.861833	1191.229492	399.454651
13268.388245	3909.861833	1190.106445	255.092194
13268.388245	3909.861833	1188.984375	401.518738
13268.388245	3909.861833	1187.861328	226.656815
13268.388245	3909.861833	1186.738281	177.023209
13268.388245	3909.861833	1185.614258	11.986750
13268.388245	3909.861833	1184.491211	-39.221367
13268.388245	3909.861833	1183.367188	-46.150677
13268.388245	3909.861833	1182.243164	-61.881794
13268.388245	3909.861833	1181.119141	59.123455
13268.388245	3909.861833	1179.994141	-95.021202
13268.388245	3909.861833	1178.869141	13.328424
13268.388245	3909.861833	1177.744141	-204.121490
13268.388245	3909.861833	1176.619141	-18.183331
13268.388245	3909.861833	1175.493164	-182.555054
13268.388245	3909.861833	1174.368164	-53.684086
13268.388245	3909.861833	1173.242188	-41.837650
13268.388245	3909.861833	1172.115234	43.298695
13268.388245	3909.861833	1170.989258	110.099228
13268.388245	3909.861833	1169.862305	56.579582
13268.388245	3909.861833	1168.735352	84.500771
13268.388245	3909.861833	1167.608398	175.950897
13268.388245	3909.861833	1166.481445	145.421417
13268.388245	3909.861833	1165.353516	79.838890
13268.388245	3909.861833	1164.225586	-43.751213
13268.388245	3909.861833	1163.097656	38.113293
13268.388245	3909.861833	1161.968750	95.736740
13268.388245	3909.861833	1160.840820	101.357918
13268.388245	3909.861833	1159.711914	161.478714
13268.388245	3909.861833	1158.583008	-36.242687
13268.388245	3909.861833	1157.453125	99.877678
13268.388245	3909.861833	1156.324219	192.337997
13268.388245	3909.861833	1155.194336	174.983398
13268.388245	3909.861833	1154.064453	217.143280
13268.388245	3909.861833	1152.933594	462.247467
13268.388245	3909.861833	1151.803711	623.076965
13268.388245	3909.861833	1150.672852	663.715637
13268.388245	3909.861833	1149.541992	607.021606
13268.388245	3909.861833	1148.411133	714.044006
13268.388245	3909.861833	1147.279297	585.152771
13268.388245	3909.861833	1146.147461	563.576416
13268.388245	3909.861833	1145.015625	562.059509
13268.388245	3909.861833	1143.883789	387.541901
13268.388245	3909.861833	1142.750977	154.613037
13268.388245	3909.861833	1141.619141	277.774109
13268.388245	3909.861833	1140.486328	127.442749
13268.388245	3909.861833	1139.352539	144.823303
13268.388245	3909.861833	1138.219727	59.258259
13268.388245	3909.861833	1137.085938	65.798599
13268.388245	3909.861833	1135.952148	72.336586
13268.388245	3909.861833	1134.818359	156.185272
13268.388245	3909.861833	1133.683594	304.484344
13268.388245	3909.861833	1132.549805	364.700134
13268.388245	3909.861833	1131.415039	466.164215
13268.388245	3909.861833	1130.279297	553.244080
13268.388245	3909.861833	1129.144531	783.700500
13268.388245	3909.861833	1128.008789	611.748474
13268.388245	3909.861833	1126.873047	614.709534
13268.388245	3909.861833	1125.737305	520.224060
13268.388245	3909.861833	1124.601563	584.245728
13268.388245	3909.861833	1123.464844	845.223328
13268.388245	3909.861833	1122.328125	554.930908
13268.388245	3909.861833	1121.191406	562.921997
13268.388245	3909.861833	1120.054688	453.341766
13268.388245	3909.861833	1118.916992	742.738159
13268.388245	3909.861833	1117.779297	532.094788
13268.388245	3909.861833	1116.641602	514.565735
13268.388245	3909.861833	1115.503906	321.714111
13268.388245	3909.861833	1114.365234	406.972412
13268.388245	3909.861833	1113.226563	329.147858
13268.388245	3909.861833	1112.087891	264.269501
13268.388245	3909.861833	1110.949219	98.093987
13268.388245	3909.861833	1109.809570	167.136459
13268.388245	3909.861833	1108.669922	200.384171
13268.388245	3909.861833	1107.530273	82.141647
13268.388245	3909.861833	1106.390625	208.047394
13268.388245	3909.861833	1105.250000	378.589905
13268.388245	3909.861833	1104.109375	261.693329
13268.388245	3909.861833	1102.968750	262.613403
13268.388245	3909.861833	1101.828125	514.998474
13268.388245	3909.861833	1100.686523	400.525116
13268.388245	3909.861833	1099.544922	547.457825
13268.388245	3909.861833	1098.403320	501.956604
13268.388245	3909.861833	1097.261719	321.641510
13268.388245	3909.861833	1096.120117	368.923615
13268.388245	3909.861833	1094.977539	345.936249
13268.388245	3909.861833	1093.834961	240.314362
13268.388245	3909.861833	1092.691406	380.555389
13268.388245	3909.861833	1091.548828	316.168213
13268.388245	3909.861833	1090.405273	255.607620
13268.388245	3909.861833	1089.261719	347.764801
13268.388245	3909.861833	1088.118164	391.524536
13268.388245	3909.861833	1086.973633	389.459045
13268.388245	3909.861833	1085.829102	316.349518
13268.388245	3909.861833	1084.684570	65.442070
13268.388245	3909.861833	1083.540039	90.857811
13268.388245	3909.861833	1082.395508	215.027481
13268.388245	3909.861833	1081.250000	198.159653
13268.388245	3909.861833	1080.104492	-14.903501
13268.388245	3909.861833	1078.958984	461.397675
13268.388245	3909.861833	1077.812500	338.947266
13268.388245	3909.861833	1076.666016	345.641510
13268.388245	3909.861833	1075.519531	105.504852
13268.388245	3909.861833	1074.373047	99.008163
13268.388245	3909.861833	1073.226563	406.735535
13268.388245	3909.861833	1072.079102	435.266052
13268.388245	3909.861833	1070.931641	371.095886
13268.388245	3909.861833	1069.784180	245.713562
13268.388245	3909.861833	1068.635742	472.032806
13268.388245	3909.861833	1067.487305	485.280640
13268.388245	3909.861833	1066.338867	382.107605
13268.388245	3909.861833	1065.190430	360.079346
13268.388245	3909.861833	1064.041992	407.719482
13268.388245	3909.861833	1062.892578	640.225586
13268.388245	3909.861833	1061.743164	494.093658
13268.388245	3909.861833	1060.593750	540.686279
13268.388245	3909.861833	1059.443359	300.075745
13268.388245	3909.861833	1058.292969	355.083557
13268.388245	3909.861833	1057.142578	498.081055
13268.388245	3909.861833	1055.992188	302.799957
13268.388245	3909.861833	1054.841797	462.843964
13268.388245	3909.861833	1053.690430	320.313446
13268.388245	3909.861833	1052.539063	393.638702
13268.388245	3909.861833	1051.387695	228.275085
13268.388245	3909.861833	1050.235352	145.043381
13268.388245	3909.861833	1049.083984	167.448303
13268.388245	3909.861833	1047.931641	199.145721
13268.388245	3909.861833	1046.778320	147.709900
13268.388245	3909.861833	1045.625977	108.596260
13268.388245	3909.861833	1044.472656	55.382076
13268.388245	3909.861833	1043.319336	194.252289
13268.388245	3909.861833	1042.166016	36.528526
13268.388245	3909.861833	1041.012695	-180.214676
13268.388245	3909.861833	1039.858398	65.441452
13268.388245	3909.861833	1038.704102	-109.364700
13268.388245	3909.861833	1037.549805	-36.820259
13268.388245	3909.861833	1036.394531	43.504032
13268.388245	3909.861833	1035.239258	148.900177
13268.388245	3909.861833	1034.083984	376.062866
13268.388245	3909.861833	1032.928711	211.291321
13268.388245	3909.861833	1031.773438	17.483366
13268.388245	3909.861833	1030.617188	114.546425
13268.388245	3909.861833	1029.460938	207.965302
13268.388245	3909.861833	1028.304688	54.973778
13268.388245	3909.861833	1027.147461	177.581604
13268.388245	3909.861833	1025.991211	216.818268
13268.388245	3909.861833	1024.833984	162.447906
13268.388245	3909.861833	1023.675781	331.488281
13268.388245	3909.861833	1022.518555	81.442017
13268.388245	3909.861833	1021.360352	141.973190
13268.388245	3909.861833	1020.202148	60.429562
13268.388245	3909.861833	1019.043945	88.536163
13268.388245	3909.861833	1017.884766	-61.853096
13268.388245	3909.861833	1016.726563	73.328636
13268.388245	3909.861833	1015.567383	8.412702
13268.388245	3909.861833	1014.407227	155.600494
13268.388245	3909.861833	1013.248047	-52.436192
13268.388245	3909.861833	1012.087891	-50.941639
13268.388245	3909.861833	1010.927734	-87.557709
13268.388245	3909.861833	1009.767578	-24.688236
13268.388245	3909.861833	1008.606445	-179.197647
13268.388245	3909.861833	1007.446289	-155.494461
13268.388245	3909.861833	1006.285156	-279.858826
13268.388245	3909.861833	1005.123047	5.261296
13268.388245	3909.861833	1003.961914	-24.768774
13268.388245	3909.861833	1002.799805	76.724518
13268.388245	3909.861833	1001.637695	-174.996780
13268.388245	3909.861833	1000.475586	116.453560
13268.388245	3909.861833	999.312500	181.032852
13268.388245	3909.861833	998.149414	97.184013
13268.388245	3909.861833	996.986328	53.155582
13268.388245	3909.861833	995.823242	188.927536
13268.388245	3909.861833	994.659180	182.736221
13268.388245	3909.861833	993.496094	212.865219
13268.388245	3909.861833	992.332031	-120.968193
13268.388245	3909.861833	991.166992	-93.618217
13268.388245	3909.861833	990.002930	-58.636826
13268.388245	3909.861833	988.837891	29.294439
13268.388245	3909.861833	987.672852	60.425751
13268.388245	3909.861833	986.506836	-96.720848
13268.388245	3909.861833	985.341797	16.555147
13268.388245	3909.861833	984.175781	-26.665628
13268.388245	3909.861833	983.009766	21.010817
13268.388245	3909.861833	981.843750	-81.229469
13268.388245	3909.861833	980.676758	271.686981
13268.388245	3909.861833	979.509766	24.723732
13268.388245	3909.861833	978.342773	-69.658798
13268.388245	3909.861833	977.175781	-65.913231
13268.388245	3909.861833	976.007813	-116.353020
13268.388245	3909.861833	974.839844	-86.388451
13268.388245	3909.861833	973.671875	-27.795374
13268.388245	3909.861833	972.503906	214.526306
13268.388245	3909.861833	971.334961	19.091007
13268.388245	3909.861833	970.166016	-18.737856
13268.388245	3909.861833	968.997070	51.013840
13268.388245	3909.861833	967.828125	-7.156342
13268.388245	3909.861833	966.658203	-236.657074
13268.388245	3909.861833	965.488281	172.789368
13268.388245	3909.861833	964.318359	-159.828278
13268.388245	3909.861833	963.148438	167.170181
13268.388245	3909.861833	961.977539	-87.602661
13268.388245	3909.861833	960.806641	67.933846
13268.388245	3909.861833	959.635742	-184.284271
13268.388245	3909.861833	958.463867	117.213799
13268.388245	3909.861833	957.292969	32.813988
13268.388245	3909.861833	956.121094	190.442749
13268.388245	3909.861833	954.948242	197.040817
13268.388245	3909.861833	953.776367	-13.161806
13268.388245	3909.861833	952.603516	-89.760490
13268.388245	3909.861833	951.430664	-78.041351
13268.388245	3909.861833	950.257813	134.739243
13268.388245	3909.861833	949.084961	100.599319
13268.388245	3909.861833	947.911133	70.037552
13268.388245	3909.861833	946.737305	338.393982
13268.388245	3909.861833	945.563477	81.322380
13268.388245	3909.861833	944.388672	-152.107452
13268.388245	3909.861833	943.213867	120.487625
13268.388245	3909.861833	942.039063	45.986977
13268.388245	3909.861833	940.864258	66.961357
13268.388245	3909.861833	939.688477	105.806511
13268.388245	3909.861833	938.513672	-70.507057
13268.388245	3909.861833	937.337891	181.385880
13268.388245	3909.861833	936.161133	118.508064
13268.388245	3909.861833	934.985352	252.065628
13268.388245	3909.861833	933.808594	276.978180
13268.388245	3909.861833	932.631836	380.576569
13268.388245	3909.861833	931.454102	324.121429
13268.388245	3909.861833	930.277344	286.295776
13268.388245	3909.861833	929.099609	359.467102
13268.388245	3909.861833	927.921875	437.261353
13268.388245	3909.861833	926.743164	385.384247
13268.388245	3909.861833	925.565430	458.356079
13268.388245	3909.861833	924.386719	739.440430
13268.388245	3909.861833	923.208008	763.698975
13268.388245	3909.861833	922.028320	841.067688
13268.388245	3909.861833	920.849609	1057.039917
13268.388245	3909.861833	919.669922	1060.627808
13268.388245	3909.861833	919.474609	845.922668
13268.388245	3909.861833	918.309570	680.410645
13268.388245	3909.861833	917.143555	330.110870
13268.388245	3909.861833	915.977539	397.949524
13268.388245	3909.861833	914.810547	354.874969
13268.388245	3909.861833	913.644531	182.479660
13268.388245	3909.861833	912.477539	-59.137848
13268.388245	3909.861833	911.310547	36.229965
13268.388245	3909.861833	910.143555	103.823647
13268.388245	3909.861833	908.975586	30.629471
13268.388245	3909.861833	907.807617	17.382397
13268.388245	3909.861833	906.639648	105.554390
13268.388245	3909.861833	905.471680	-145.252686
13268.388245	3909.861833	904.303711	-112.494606
13268.388245	3909.861833	903.134766	185.222900
13268.388245	3909.861833	901.965820	-47.150219
13268.388245	3909.861833	900.796875	229.609940
13268.388245	3909.861833	899.626953	220.632889
13268.388245	3909.861833	898.457031	200.102051
13268.388245	3909.861833	897.287109	80.543076
13268.388245	3909.861833	896.117188	117.501152
13268.388245	3909.861833	894.947266	-34.296936
13268.388245	3909.861833	893.776367	-52.633045
13268.388245	3909.861833	892.605469	-6.598951
13268.388245	3909.861833	891.434570	60.071198
13268.388245	3909.861833	890.262695	78.387398
13268.388245	3909.861833	889.091797	34.581238
13268.388245	3909.861833	887.919922	236.679276
13268.388245	3909.861833	886.748047	268.605530
13268.388245	3909.861833	885.575195	233.853256
13268.388245	3909.861833	884.403320	398.906219
13268.388245	3909.861833	883.230469	476.584625
13268.388245	3909.861833	882.057617	574.852661
13268.388245	3909.861833	880.883789	537.602783
13268.388245	3909.861833	879.710938	589.832703
13268.388245	3909.861833	878.537109	795.740356
13268.388245	3909.861833	877.362305	478.456543
13268.388245	3909.861833	876.188477	585.590515
13268.388245	3909.861833	875.013672	495.424896
13268.388245	3909.861833	873.839844	336.470367
13268.388245	3909.861833	872.664063	363.215912
13268.388245	3909.861833	871.489258	82.806580
13268.388245	3909.861833	870.313477	47.644798
13268.388245	3909.861833	869.138672	124.708321
13268.388245	3909.861833	867.962891	226.894516
13268.388245	3909.861833	866.786133	164.124268
13268.388245	3909.861833	865.610352	-6.268003
13268.388245	3909.861833	864.433594	111.783775
13268.388245	3909.861833	863.256836	-79.205009
13268.388245	3909.861833	862.079102	-9.316133
13268.388245	3909.861833	860.902344	-60.741322
13268.388245	3909.861833	859.724609	-43.570057
13268.388245	3909.861833	858.546875	-101.906944
13268.388245	3909.861833	857.368164	-77.956993
13268.388245	3909.861833	856.190430	-22.059135
13268.388245	3909.861833	855.011719	-210.743576
13268.388245	3909.861833	853.833008	-289.723206
13268.388245	3909.861833	852.654297	60.737339
13268.388245	3909.861833	851.474609	-173.646240
13268.388245	3909.861833	850.294922	-88.304535
13268.388245	3909.861833	849.115234	-9.885984
13268.388245	3909.861833	847.935547	-68.487267
13268.388245	3909.861833	846.754883	-175.025650
13268.388245	3909.861833	845.575195	126.824524
13268.388245	3909.861833	844.393555	-25.412249
13268.388245	3909.861833	843.212891	-109.210693
13268.388245	3909.861833	842.032227	-199.857285
13268.388245	3909.861833	840.850586	-292.786072
13268.388245	3909.861833	839.668945	-137.291672
13268.388245	3909.861833	838.486328	-20.639280
13268.388245	3909.861833	837.304688	89.088036
13268.388245	3909.861833	836.122070	-83.710442
13268.388245	3909.861833	834.939453	-113.010826
13268.388245	3909.861833	833.756836	-99.082733
13268.388245	3909.861833	832.573242	-19.187645
13268.388245	3909.861833	831.389648	-119.160988
13268.388245	3909.861833	830.206055	97.144615
13268.388245	3909.861833	829.022461	83.551338
13268.388245	3909.861833	827.838867	28.980951
13268.388245	3909.861833	826.654297	149.488174
13268.388245	3909.861833	825.469727	133.491653
13268.388245	3909.861833	824.284180	65.178825
13268.388245	3909.861833	823.099609	-98.598053
13268.388245	3909.861833	821.914063	-176.009903
13268.388245	3909.861833	820.728516	184.994843
13268.388245	3909.861833	819.542969	21.165083
13268.388245	3909.861833	818.356445	-133.558044
13268.388245	3909.861833	817.169922	109.030464
13268.388245	3909.861833	815.983398	-54.813698
13268.388245	3909.861833	814.796875	128.568512
13268.388245	3909.861833	813.609375	103.097572
13268.388245	3909.861833	812.422852	45.836315
13268.388245	3909.861833	811.235352	-4.643709
13268.388245	3909.861833	810.046875	110.375008
13268.388245	3909.861833	808.859375	234.368561
13268.388245	3909.861833	807.670898	190.545013
13268.388245	3909.861833	806.482422	99.107666
13268.388245	3909.861833	805.293945	100.549507
13268.388245	3909.861833	804.104492	190.282898
13268.388245	3909.861833	802.915039	282.197784
13268.388245	3909.861833	801.725586	161.197266
13268.388245	3909.861833	800.536133	139.802673
13268.388245	3909.861833	799.345703	224.740631
13268.388245	3909.861833	798.155273	329.959808
13268.388245	3909.861833	796.964844	154.566467
13268.388245	3909.861833	795.774414	56.099457
13268.388245	3909.861833	794.583008	192.803818
13268.388245	3909.861833	793.392578	28.708338
13268.388245	3909.861833	792.200195	133.618759
13268.388245	3909.861833	791.008789	30.523851
13268.388245	3909.861833	789.816406	87.843391
13268.388245	3909.861833	788.625000	29.882830
13268.388245	3909.861833	787.432617	5.773713
13268.388245	3909.861833	786.239258	-158.375900
13268.388245	3909.861833	785.046875	-132.868713
13268.388245	3909.861833	783.853516	64.117958
13268.388245	3909.861833	782.660156	84.953186
13268.388245	3909.861833	781.465820	153.108139
13268.388245	3909.861833	780.272461	282.088989
13268.388245	3909.861833	779.078125	29.826551
13268.388245	3909.861833	777.883789	91.031807
13268.388245	3909.861833	776.688477	-19.168962
13268.388245	3909.861833	775.494141	-142.897171
13268.388245	3909.861833	774.298828	37.577446
13268.388245	3909.861833	773.103516	-34.401127
13268.388245	3909.861833	771.907227	-119.918709
13268.388245	3909.861833	770.711914	-95.106125
13268.388245	3909.861833	769.515625	-29.831125
13268.388245	3909.861833	768.318359	-38.923145
13268.388245	3909.861833	767.122070	100.474525
13268.388245	3909.861833	765.924805	43.998795
13268.388245	3909.861833	764.727539	129.219528
13268.388245	3909.861833	763.530273	59.158001
13268.388245	3909.861833	762.333008	108.250519
13268.388245	3909.861833	761.134766	-0.109603
13268.388245	3909.861833	759.936523	44.367405
13268.388245	3909.861833	758.738281	-28.089169
13268.388245	3909.861833	757.540039	40.979454
13268.388245	3909.861833	756.340820	-238.225967
13268.388245	3909.861833	755.141602	-61.454533
13268.388245	3909.861833	753.942383	-30.766987
13268.388245	3909.861833	752.742188	58.217964
13268.388245	3909.861833	751.541992	-39.183205
13268.388245	3909.861833	750.341797	-35.621071
13268.388245	3909.861833	749.141602	196.724487
13268.388245	3909.861833	747.941406	144.043747
13268.388245	3909.861833	746.740234	248.306625
13268.388245	3909.861833	745.539063	289.688263
13268.388245	3909.861833	744.337891	420.662109
13268.388245	3909.861833	743.135742	378.946045
13268.388245	3909.861833	741.933594	485.076660
13268.388245	3909.861833	740.731445	349.155396
13268.388245	3909.861833	739.529297	264.745514
13268.388245	3909.861833	738.326172	39.231796
13268.388245	3909.861833	737.124023	301.828705
13268.388245	3909.861833	735.919922	456.806702
13268.388245	3909.861833	734.716797	173.027863
13268.388245	3909.861833	733.513672	106.340775
13268.388245	3909.861833	732.309570	122.387718
13268.388245	3909.861833	731.105469	160.733109
13268.388245	3909.861833	729.900391	87.194946
13268.388245	3909.861833	728.696289	-44.494957
13268.388245	3909.861833	727.491211	-44.322586
13268.388245	3909.861833	726.286133	85.400696
13268.388245	3909.861833	725.080078	27.331617
13268.388245	3909.861833	723.874023	-120.123299
13268.388245	3909.861833	722.668945	31.681921
13268.388245	3909.861833	721.461914	134.234894
13268.388245	3909.861833	720.255859	-22.264566
13268.388245	3909.861833	719.048828	28.800444
13268.388245	3909.861833	717.841797	12.839665
13268.388245	3909.861833	716.634766	-181.650818
13268.388245	3909.861833	715.427734	90.045769
13268.388245	3909.861833	714.219727	-207.086075
13268.388245	3909.861833	713.011719	-6.971345
13268.388245	3909.861833	711.803711	-67.802414
13268.388245	3909.861833	710.594727	-26.158375
13268.388245	3909.861833	709.385742	-51.437695
13268.388245	3909.861833	708.176758	-194.834656
13268.388245	3909.861833	706.967773	-46.471275
13268.388245	3909.861833	705.758789	141.848816
13268.388245	3909.861833	704.548828	-66.249580
13268.388245	3909.861833	703.338867	-40.614819
13268.388245	3909.861833	702.127930	-55.113380
13268.388245	3909.861833	700.917969	-309.946625
13268.388245	3909.861833	699.707031	-228.857361
13268.388245	3909.861833	698.496094	125.678322
13268.388245	3909.861833	697.285156	-40.283752
13268.388245	3909.861833	696.073242	-72.863174
13268.388245	3909.861833	694.861328	54.530590
13268.388245	3909.861833	693.649414	172.922134
13268.388245	3909.861833	692.436523	-106.466438
13268.388245	3909.861833	691.224609	85.084305
13268.388245	3909.861833	690.011719	192.104309
13268.388245	3909.861833	688.798828	-11.807817
13268.388245	3909.861833	687.584961	179.410751
13268.388245	3909.861833	686.372070	146.348969
13268.388245	3909.861833	685.158203	93.267929
13268.388245	3909.861833	683.943359	9.087703
13268.388245	3909.861833	682.729492	191.030380
13268.388245	3909.861833	681.514648	124.484749
13268.388245	3909.861833	680.299805	-39.634724
13268.388245	3909.861833	679.084961	153.103943
13268.388245	3909.861833	677.869141	175.067017
13268.388245	3909.861833	676.653320	219.118378
13268.388245	3909.861833	675.437500	170.062088
13268.388245	3909.861833	674.221680	136.470840
13268.388245	3909.861833	673.004883	102.830902
13268.388245	3909.861833	671.789063	-48.168900
13268.388245	3909.861833	670.571289	61.983994
13268.388245	3909.861833	669.354492	23.787701
13268.388245	3909.861833	668.136719	124.918282
13268.388245	3909.861833	666.919922	371.935089
13268.388245	3909.861833	665.701172	269.393219
13268.388245	3909.861833	664.483398	211.064789
13268.388245	3909.861833	663.264648	305.217377
13268.388245	3909.861833	662.045898	275.522186
13268.388245	3909.861833	660.827148	77.868477
13268.388245	3909.861833	659.608398	388.313446
13268.388245	3909.861833	658.388672	349.624329
13268.388245	3909.861833	657.168945	218.161972
13268.388245	3909.861833	655.949219	289.803009
13268.388245	3909.861833	654.728516	456.265778
13268.388245	3909.861833	653.507813	218.790192
13268.388245	3909.861833	652.287109	393.924774
13268.388245	3909.861833	651.066406	696.868530
13268.388245	3909.861833	649.844727	697.512451
13268.388245	3909.861833	648.623047	265.969818
13268.388245	3909.861833	647.401367	392.258942
13268.388245	3909.861833	646.179688	361.975311
13268.388245	3909.861833	644.957031	382.333191
13268.388245	3909.861833	643.734375	402.638367
13268.388245	3909.861833	642.511719	510.990265
13268.388245	3909.861833	641.289063	656.689575
13268.388245	3909.861833	640.065430	793.473877
13268.388245	3909.861833	638.841797	989.587708
13268.388245	3909.861833	637.618164	1557.481079
13268.388245	3909.861833	636.393555	2056.883789
13268.388245	3909.861833	635.168945	2012.721313
13268.388245	3909.861833	633.944336	2159.871338
13268.388245	3909.861833	632.719727	2333.307373
13268.388245	3909.861833	631.494141	2330.767334
13268.388245	3909.861833	630.269531	1906.223755
13268.388245	3909.861833	629.042969	1481.812622
13268.388245	3909.861833	627.817383	1347.543823
13268.388245	3909.861833	626.590820	1116.652100
13268.388245	3909.861833	625.365234	890.227051
13268.388245	3909.861833	624.137695	558.473389
13268.388245	3909.861833	622.911133	509.995178
13268.388245	3909.861833	621.683594	496.616028
13268.388245	3909.861833	620.456055	290.138641
13268.388245	3909.861833	619.228516	213.147156
13268.388245	3909.861833	618.000977	278.719849
13268.388245	3909.861833	616.772461	326.693878
13268.388245	3909.861833	615.543945	190.480438
13268.388245	3909.861833	614.314453	122.241928
13268.388245	3909.861833	613.085938	108.803589
13268.388245	3909.861833	611.856445	152.306412
13268.388245	3909.861833	610.626953	110.351158
13268.388245	3909.861833	609.397461	140.664627
13268.388245	3909.861833	608.166992	-161.847595
13268.388245	3909.861833	606.936523	115.830360
13268.388245	3909.861833	605.706055	25.711468
13268.388245	3909.861833	604.474609	12.194498
13268.388245	3909.861833	603.244141	-10.067915
13268.388245	3909.861833	602.012695	249.798615
13268.388245	3909.861833	600.780273	174.988739
13268.388245	3909.861833	599.548828	-0.352639
13268.388245	3909.861833	598.316406	150.040482
13268.388245	3909.861833	597.083984	-97.345215
13268.388245	3909.861833	595.851563	81.402802
13268.388245	3909.861833	594.618164	-32.628159
13268.388245	3909.861833	593.384766	-174.998230
13268.388245	3909.861833	592.151367	60.419960
13268.388245	3909.861833	590.917969	108.011604
13268.388245	3909.861833	589.683594	214.508636
13268.388245	3909.861833	588.449219	115.861679
13268.388245	3909.861833	587.214844	196.150284
13268.388245	3909.861833	585.979492	304.761688
13268.388245	3909.861833	584.745117	51.368137
13268.388245	3909.861833	583.509766	20.462439
13268.388245	3909.861833	582.273438	259.854706
13268.388245	3909.861833	581.038086	174.468018
13268.388245	3909.861833	579.801758	167.563904
13268.388245	3909.861833	578.565430	337.121246
13268.388245	3909.861833	577.329102	256.179626
13268.388245	3909.861833	576.091797	157.870605
13268.388245	3909.861833	574.854492	179.354675
13268.388245	3909.861833	573.617188	220.441940
13268.388245	3909.861833	572.378906	65.698608
13268.388245	3909.861833	571.141602	69.864891
13268.388245	3909.861833	569.903320	108.854004
13268.388245	3909.861833	568.664063	65.217354
13268.388245	3909.861833	567.425781	-41.408585
13268.388245	3909.861833	566.186523	-102.315460
13268.388245	3909.861833	564.947266	-41.463104
13268.388245	3909.861833	563.708008	15.054256
13268.388245	3909.861833	562.467773	2.069701
13268.388245	3909.861833	561.227539	45.596928
13268.388245	3909.861833	559.987305	13.153027
13268.388245	3909.861833	558.747070	-56.138466
13268.388245	3909.861833	557.505859	-49.398449
13268.388245	3909.861833	556.264648	-86.012810
13268.388245	3909.861833	555.023438	-285.272095
13268.388245	3909.861833	553.781250	-31.086172
13268.388245	3909.861833	552.539063	-91.391853
13268.388245	3909.861833	551.296875	-34.545155
13268.388245	3909.861833	550.054688	-57.869873
13268.388245	3909.861833	548.811523	53.227188
13268.388245	3909.861833	547.569336	-58.827797
13268.388245	3909.861833	546.325195	-36.483452
13268.388245	3909.861833	545.082031	-96.381241
13268.388245	3909.861833	543.837891	-121.553734
13268.388245	3909.861833	542.593750	28.695562
13268.388245	3909.861833	541.349609	-167.349854
13268.388245	3909.861833	540.105469	-32.174057
13268.388245	3909.861833	538.860352	-147.951172
13268.388245	3909.861833	537.615234	-142.485977
13268.388245	3909.861833	536.369141	139.838516
13268.388245	3909.861833	535.124023	17.819269
13268.388245	3909.861833	533.877930	-58.689831
13268.388245	3909.861833	532.631836	-143.738037
13268.388245	3909.861833	531.384766	60.843498
13268.388245	3909.861833	530.138672	-71.568733
13268.388245	3909.861833	528.891602	-24.599037
13268.388245	3909.861833	527.643555	-27.240374
13268.388245	3909.861833	526.396484	-31.956593
13268.388245	3909.861833	525.148438	101.535515
13268.388245	3909.861833	523.900391	411.993652
13268.388245	3909.861833	522.652344	541.178406
13268.388245	3909.861833	521.403320	650.971802
13268.388245	3909.861833	520.154297	1026.046265
13268.388245	3909.861833	518.905273	892.224670
13268.388245	3909.861833	517.656250	734.833923
13268.388245	3909.861833	516.406250	803.874268
13268.388245	3909.861833	515.156250	868.660217
13268.388245	3909.861833	513.906250	556.527283
13268.388245	3909.861833	512.655273	449.211060
13268.388245	3909.861833	511.404297	441.075592
13268.388245	3909.861833	510.153320	433.031372
13268.388245	3909.861833	508.902344	597.261292
13268.388245	3909.861833	507.650391	436.577240
13268.388245	3909.861833	506.398438	312.622955
13268.388245	3909.861833	505.146484	434.014740
13268.388245	3909.861833	503.893555	688.766663
13268.388245	3909.861833	502.641602	554.352722
13268.388245	3909.861833	501.388672	544.754028
13268.388245	3909.861833	500.134766	472.921753
13268.388245	3909.861833	498.881836	601.031433
13268.388245	3909.861833	497.627930	215.765579
13268.388245	3909.861833	496.374023	116.393700
13268.388245	3909.861833	495.119141	36.473801
13268.388245	3909.861833	493.865234	44.694168
13268.388245	3909.861833	492.610352	7.923066
13268.388245	3909.861833	491.355469	-204.705307
13268.388245	3909.861833	490.099609	-3.105719
13268.388245	3909.861833	488.843750	-50.317139
13268.388245	3909.861833	487.587891	-11.647216
13268.388245	3909.861833	486.332031	-22.223999
13268.388245	3909.861833	485.075195	278.091339
13268.388245	3909.861833	483.818359	344.765045
13268.388245	3909.861833	482.561523	505.761536
13268.388245	3909.861833	481.304688	424.704254
13268.388245	3909.861833	480.046875	476.538574
13268.388245	3909.861833	478.789063	162.277832
13268.388245	3909.861833	477.531250	-61.864960
13268.388245	3909.861833	476.272461	-114.620445
13268.388245	3909.861833	475.013672	-62.433781
13268.388245	3909.861833	473.754883	-189.909714
13268.388245	3909.861833	472.496094	-214.601349
13268.388245	3909.861833	471.236328	-237.083389
13268.388245	3909.861833	469.976563	-111.977478
13268.388245	3909.861833	468.716797	13.129657
13268.388245	3909.861833	467.456055	-163.089874
13268.388245	3909.861833	466.196289	-170.390320
13268.388245	3909.861833	464.935547	153.456955
13268.388245	3909.861833	463.673828	225.197815
13268.388245	3909.861833	462.413086	354.600769
13268.388245	3909.861833	461.151367	217.138351
13268.388245	3909.861833	459.889648	92.575104
13268.388245	3909.861833	458.626953	320.174103
13268.388245	3909.861833	457.364258	118.892830
13268.388245	3909.861833	456.101563	105.415520
13268.388245	3909.861833	454.838867	47.179153
13268.388245	3909.861833	453.575195	-15.285260
13268.388245	3909.861833	452.312500	35.255901
13268.388245	3909.861833	451.047852	45.284359
13268.388245	3909.861833	449.784180	-0.088186
13268.388245	3909.861833	448.519531	82.356476
13268.388245	3909.861833	447.254883	-99.327087
13268.388245	3909.861833	445.990234	61.851517
13268.388245	3909.861833	444.725586	-141.082397
13268.388245	3909.861833	443.459961	73.184769
13268.388245	3909.861833	442.194336	-51.005116
13268.388245	3909.861833	440.927734	224.758698
13268.388245	3909.861833	439.662109	-95.182533
13268.388245	3909.861833	438.395508	-172.629211
13268.388245	3909.861833	437.127930	51.781437
13268.388245	3909.861833	435.861328	33.712505
13268.388245	3909.861833	434.593750	21.943668
13268.388245	3909.861833	433.326172	103.574280
13268.388245	3909.861833	432.058594	85.236801
13268.388245	3909.861833	430.790039	126.263466
13268.388245	3909.861833	429.521484	118.323364
13268.388245	3909.861833	428.252930	72.053093
13268.388245	3909.861833	426.984375	68.117302
13268.388245	3909.861833	425.714844	259.248138
13268.388245	3909.861833	424.445313	458.630615
13268.388245	3909.861833	423.174805	405.370087
13268.388245	3909.861833	421.905273	222.613129
13268.388245	3909.861833	420.634766	330.192078
13268.388245	3909.861833	419.364258	62.368378
13268.388245	3909.861833	418.092773	91.125565
13268.388245	3909.861833	416.822266	172.621887
13268.388245	3909.861833	415.550781	213.604263
13268.388245	3909.861833	414.278320	53.141140
13268.388245	3909.861833	413.006836	133.864502
13268.388245	3909.861833	411.734375	184.647141
13268.388245	3909.861833	410.461914	70.052185
13268.388245	3909.861833	409.188477	139.290024
13268.388245	3909.861833	407.916016	-37.194550
13268.388245	3909.861833	406.642578	247.133224
13268.388245	3909.861833	405.368164	97.520874
13268.388245	3909.861833	404.094727	243.593307
13268.388245	3909.861833	402.820313	423.046722
13268.388245	3909.861833	401.545898	316.766602
13268.388245	3909.861833	400.270508	91.817329
13268.388245	3909.861833	398.996094	170.714249
13268.388245	3909.861833	397.720703	31.627180
13268.388245	3909.861833	396.444336	4.040040
13268.388245	3909.861833	395.168945	7.667197
13268.388245	3909.861833	393.892578	428.651794
13268.388245	3909.861833	392.616211	7.091635
13268.388245	3909.861833	391.339844	61.927013
13268.388245	3909.861833	390.062500	78.223900
13268.388245	3909.861833	388.785156	174.074081
13268.388245	3909.861833	387.507813	73.245644
13268.388245	3909.861833	386.229492	-7.078981
13268.388245	3909.861833	384.951172	-50.066898
13268.388245	3909.861833	383.672852	-9.416245
13268.388245	3909.861833	382.394531	215.895096
13268.388245	3909.861833	381.115234	109.791763
13268.388245	3909.861833	379.835938	127.232643
13268.388245	3909.861833	378.556641	106.035255
13268.388245	3909.861833	377.277344	132.483444
13268.388245	3909.861833	375.997070	15.046395
13268.388245	3909.861833	374.716797	-56.880325
13268.388245	3909.861833	373.435547	-37.100368
13268.388245	3909.861833	372.155273	25.973045
13268.388245	3909.861833	370.874023	-84.269188
13268.388245	3909.861833	369.591797	222.826538
13268.388245	3909.861833	368.310547	-23.763887
13268.388245	3909.861833	367.028320	184.616089
13268.388245	3909.861833	365.746094	141.959396
13268.388245	3909.861833	364.463867	-239.794434
13268.388245	3909.861833	363.180664	64.024002
13268.388245	3909.861833	361.897461	93.746964
13268.388245	3909.861833	360.614258	19.495802
13268.388245	3909.861833	359.330078	53.182537
13268.388245	3909.861833	358.045898	66.775803
13268.388245	3909.861833	356.761719	135.748566
13268.388245	3909.861833	355.477539	106.978455
13268.388245	3909.861833	354.192383	-101.288025
13268.388245	3909.861833	352.907227	37.086761
13268.388245	3909.861833	351.622070	-159.125061
13268.388245	3909.861833	350.336914	118.858711
13268.388245	3909.861833	349.050781	18.253260
13268.388245	3909.861833	347.764648	108.838150
13268.388245	3909.861833	346.477539	287.836517
13268.388245	3909.861833	345.191406	243.363205
13268.388245	3909.861833	343.904297	504.863953
13268.388245	3909.861833	342.616211	555.350342
13268.388245	3909.861833	341.329102	451.468536
13268.388245	3909.861833	340.041016	312.392914
13268.388245	3909.861833	338.752930	251.039856
13268.388245	3909.861833	337.463867	114.682724
13268.388245	3909.861833	336.175781	-84.050232
13268.388245	3909.861833	334.886719	-86.177238
13268.388245	3909.861833	333.596680	-230.274918
13268.388245	3909.861833	332.307617	68.554832
13268.388245	3909.861833	331.017578	-351.036865
13268.388245	3909.861833	329.727539	-284.084717
13268.388245	3909.861833	328.436523	-250.690140
13268.388245	3909.861833	327.146484	-263.293610
13268.388245	3909.861833	325.855469	-100.898849
13268.388245	3909.861833	324.563477	-283.015015
13268.388245	3909.861833	323.272461	-292.213745
13268.388245	3909.861833	321.980469	-47.479679
13268.388245	3909.861833	320.688477	238.424332
13268.388245	3909.861833	319.395508	256.932648
13268.388245	3909.861833	318.103516	287.473969
13268.388245	3909.861833	316.810547	106.967636
13268.388245	3909.861833	315.516602	150.728180
13268.388245	3909.861833	314.223633	256.294800
13268.388245	3909.861833	312.929688	-5.396052
13268.388245	3909.861833	311.635742	-45.128872
13268.388245	3909.861833	310.340820	113.916351
13268.388245	3909.861833	309.045898	-54.675583
13268.388245	3909.861833	307.750977	-1.695778
13268.388245	3909.861833	306.456055	73.024597
13268.388245	3909.861833	305.160156	123.580971
13268.388245	3909.861833	303.865234	62.803810
13268.388245	3909.861833	302.568359	258.212219
13268.388245	3909.861833	301.272461	375.369080
13268.388245	3909.861833	299.975586	561.528320
13268.388245	3909.861833	298.678711	471.952850
