#X		#Y		#Wave		#Intensity
13301.973511	3893.351833	1999.980469	71.664612
13301.973511	3893.351833	1999.016602	69.728989
13301.973511	3893.351833	1998.052734	34.572746
13301.973511	3893.351833	1997.087891	4.356632
13301.973511	3893.351833	1996.123047	21.202381
13301.973511	3893.351833	1995.158203	18.201374
13301.973511	3893.351833	1994.193359	0.319940
13301.973511	3893.351833	1993.228516	-5.192936
13301.973511	3893.351833	1992.262695	-0.819452
13301.973511	3893.351833	1991.297852	-105.377777
13301.973511	3893.351833	1990.332031	-81.217583
13301.973511	3893.351833	1989.366211	-22.436117
13301.973511	3893.351833	1988.399414	11.571102
13301.973511	3893.351833	1987.433594	-45.961472
13301.973511	3893.351833	1986.466797	25.117674
13301.973511	3893.351833	1985.500977	36.823692
13301.973511	3893.351833	1984.534180	-23.173473
13301.973511	3893.351833	1983.567383	-65.849220
13301.973511	3893.351833	1982.599609	81.772690
13301.973511	3893.351833	1981.632813	16.854698
13301.973511	3893.351833	1980.665039	50.772137
13301.973511	3893.351833	1979.697266	-127.728401
13301.973511	3893.351833	1978.729492	-101.198936
13301.973511	3893.351833	1977.761719	-57.391731
13301.973511	3893.351833	1976.792969	16.025167
13301.973511	3893.351833	1975.825195	54.871140
13301.973511	3893.351833	1974.856445	66.564774
13301.973511	3893.351833	1973.887695	-59.894688
13301.973511	3893.351833	1972.918945	57.901432
13301.973511	3893.351833	1971.949219	44.953892
13301.973511	3893.351833	1970.980469	51.750710
13301.973511	3893.351833	1970.010742	-30.194393
13301.973511	3893.351833	1969.041016	1.286538
13301.973511	3893.351833	1968.071289	-97.841858
13301.973511	3893.351833	1967.101563	88.894775
13301.973511	3893.351833	1966.130859	132.695801
13301.973511	3893.351833	1965.161133	53.349148
13301.973511	3893.351833	1964.190430	35.610203
13301.973511	3893.351833	1963.219727	20.357075
13301.973511	3893.351833	1962.249023	0.205072
13301.973511	3893.351833	1961.277344	61.295376
13301.973511	3893.351833	1960.306641	-5.572229
13301.973511	3893.351833	1959.334961	-67.477280
13301.973511	3893.351833	1958.363281	67.444405
13301.973511	3893.351833	1957.391602	35.101437
13301.973511	3893.351833	1956.419922	0.333061
13301.973511	3893.351833	1955.447266	93.434219
13301.973511	3893.351833	1954.474609	34.129242
13301.973511	3893.351833	1953.501953	48.593231
13301.973511	3893.351833	1952.529297	-101.548065
13301.973511	3893.351833	1951.556641	60.376011
13301.973511	3893.351833	1950.583984	163.315384
13301.973511	3893.351833	1949.610352	67.327652
13301.973511	3893.351833	1948.636719	-136.630707
13301.973511	3893.351833	1947.663086	-129.380371
13301.973511	3893.351833	1946.689453	42.329269
13301.973511	3893.351833	1945.715820	-38.748280
13301.973511	3893.351833	1944.741211	51.964134
13301.973511	3893.351833	1943.767578	-29.037682
13301.973511	3893.351833	1942.792969	-19.245516
13301.973511	3893.351833	1941.818359	24.895391
13301.973511	3893.351833	1940.842773	125.428017
13301.973511	3893.351833	1939.868164	127.903549
13301.973511	3893.351833	1938.892578	147.554932
13301.973511	3893.351833	1937.916992	56.964066
13301.973511	3893.351833	1936.941406	-165.855469
13301.973511	3893.351833	1935.965820	-99.553680
13301.973511	3893.351833	1934.990234	91.637337
13301.973511	3893.351833	1934.013672	-50.199360
13301.973511	3893.351833	1933.037109	136.059921
13301.973511	3893.351833	1932.060547	-47.293491
13301.973511	3893.351833	1931.083984	-39.690002
13301.973511	3893.351833	1930.107422	-12.494578
13301.973511	3893.351833	1929.129883	-73.347282
13301.973511	3893.351833	1928.153320	22.366255
13301.973511	3893.351833	1927.175781	-102.001541
13301.973511	3893.351833	1926.198242	-16.055267
13301.973511	3893.351833	1925.219727	-35.224525
13301.973511	3893.351833	1924.242188	9.174163
13301.973511	3893.351833	1923.263672	19.368828
13301.973511	3893.351833	1922.285156	-21.721357
13301.973511	3893.351833	1921.306641	-72.545967
13301.973511	3893.351833	1920.328125	62.259369
13301.973511	3893.351833	1919.349609	18.801207
13301.973511	3893.351833	1918.370117	-75.885635
13301.973511	3893.351833	1917.391602	-9.436920
13301.973511	3893.351833	1916.412109	20.401470
13301.973511	3893.351833	1915.431641	-152.250732
13301.973511	3893.351833	1914.452148	97.171280
13301.973511	3893.351833	1913.472656	-7.109731
13301.973511	3893.351833	1912.492188	122.744820
13301.973511	3893.351833	1911.511719	111.168892
13301.973511	3893.351833	1910.531250	94.737221
13301.973511	3893.351833	1909.550781	-114.194748
13301.973511	3893.351833	1908.569336	-40.397774
13301.973511	3893.351833	1907.588867	-15.335697
13301.973511	3893.351833	1906.607422	43.828350
13301.973511	3893.351833	1905.625977	-140.533340
13301.973511	3893.351833	1904.644531	42.827259
13301.973511	3893.351833	1903.662109	70.338104
13301.973511	3893.351833	1902.680664	-4.369086
13301.973511	3893.351833	1901.698242	18.295565
13301.973511	3893.351833	1900.715820	72.589027
13301.973511	3893.351833	1899.733398	-92.046875
13301.973511	3893.351833	1898.750000	23.064383
13301.973511	3893.351833	1897.767578	55.469906
13301.973511	3893.351833	1896.784180	-160.098267
13301.973511	3893.351833	1895.800781	-74.182549
13301.973511	3893.351833	1894.817383	26.288721
13301.973511	3893.351833	1893.833984	39.259296
13301.973511	3893.351833	1892.850586	154.258865
13301.973511	3893.351833	1891.866211	104.061607
13301.973511	3893.351833	1890.881836	85.455627
13301.973511	3893.351833	1889.897461	129.985718
13301.973511	3893.351833	1888.913086	-9.982503
13301.973511	3893.351833	1887.927734	-55.244183
13301.973511	3893.351833	1886.943359	32.972218
13301.973511	3893.351833	1885.958008	72.634659
13301.973511	3893.351833	1884.972656	7.981873
13301.973511	3893.351833	1883.987305	-112.425735
13301.973511	3893.351833	1883.001953	94.546967
13301.973511	3893.351833	1882.015625	-20.985504
13301.973511	3893.351833	1881.029297	-121.933838
13301.973511	3893.351833	1880.042969	169.735016
13301.973511	3893.351833	1879.056641	97.858337
13301.973511	3893.351833	1878.070313	64.763611
13301.973511	3893.351833	1877.083984	51.052761
13301.973511	3893.351833	1876.096680	109.987259
13301.973511	3893.351833	1875.109375	45.419594
13301.973511	3893.351833	1874.122070	55.908714
13301.973511	3893.351833	1873.134766	-32.839954
13301.973511	3893.351833	1872.146484	-7.836443
13301.973511	3893.351833	1871.159180	-2.204178
13301.973511	3893.351833	1870.170898	0.997850
13301.973511	3893.351833	1869.182617	-140.911514
13301.973511	3893.351833	1868.194336	128.264847
13301.973511	3893.351833	1867.205078	114.487572
13301.973511	3893.351833	1866.216797	1.608427
13301.973511	3893.351833	1865.227539	-111.241234
13301.973511	3893.351833	1864.238281	-117.752769
13301.973511	3893.351833	1863.249023	126.950645
13301.973511	3893.351833	1862.259766	81.726311
13301.973511	3893.351833	1861.269531	77.554810
13301.973511	3893.351833	1860.279297	3.355688
13301.973511	3893.351833	1859.290039	86.068069
13301.973511	3893.351833	1858.298828	11.862392
13301.973511	3893.351833	1857.308594	-67.157097
13301.973511	3893.351833	1856.318359	68.544853
13301.973511	3893.351833	1855.327148	-0.844196
13301.973511	3893.351833	1854.335938	103.406418
13301.973511	3893.351833	1853.344727	91.865944
13301.973511	3893.351833	1852.353516	24.864372
13301.973511	3893.351833	1851.362305	71.147217
13301.973511	3893.351833	1850.370117	95.703209
13301.973511	3893.351833	1849.377930	47.949184
13301.973511	3893.351833	1848.385742	24.279589
13301.973511	3893.351833	1847.393555	43.946800
13301.973511	3893.351833	1846.401367	121.374092
13301.973511	3893.351833	1845.408203	68.742981
13301.973511	3893.351833	1844.415039	83.504608
13301.973511	3893.351833	1843.421875	-19.687284
13301.973511	3893.351833	1842.428711	88.873322
13301.973511	3893.351833	1841.435547	0.101909
13301.973511	3893.351833	1840.441406	34.002167
13301.973511	3893.351833	1839.448242	173.673035
13301.973511	3893.351833	1838.454102	-6.510402
13301.973511	3893.351833	1837.459961	-3.961569
13301.973511	3893.351833	1836.464844	5.766498
13301.973511	3893.351833	1835.470703	-6.163543
13301.973511	3893.351833	1834.475586	68.369766
13301.973511	3893.351833	1833.480469	102.009781
13301.973511	3893.351833	1832.485352	253.284348
13301.973511	3893.351833	1831.490234	226.786255
13301.973511	3893.351833	1830.495117	130.646378
13301.973511	3893.351833	1829.499023	108.916023
13301.973511	3893.351833	1828.502930	19.967218
13301.973511	3893.351833	1827.506836	-20.994413
13301.973511	3893.351833	1826.510742	48.373947
13301.973511	3893.351833	1825.513672	38.532169
13301.973511	3893.351833	1824.517578	83.815033
13301.973511	3893.351833	1823.520508	57.117809
13301.973511	3893.351833	1822.523438	-29.531464
13301.973511	3893.351833	1821.526367	-49.078506
13301.973511	3893.351833	1820.529297	41.569054
13301.973511	3893.351833	1819.531250	-30.764812
13301.973511	3893.351833	1818.533203	193.903671
13301.973511	3893.351833	1817.535156	128.678116
13301.973511	3893.351833	1816.537109	77.805229
13301.973511	3893.351833	1815.539063	48.457989
13301.973511	3893.351833	1814.540039	81.310791
13301.973511	3893.351833	1813.541992	75.826225
13301.973511	3893.351833	1812.542969	-89.998611
13301.973511	3893.351833	1811.543945	153.248093
13301.973511	3893.351833	1810.543945	118.929092
13301.973511	3893.351833	1809.544922	113.279274
13301.973511	3893.351833	1808.544922	-2.386173
13301.973511	3893.351833	1807.544922	130.541519
13301.973511	3893.351833	1806.544922	53.071316
13301.973511	3893.351833	1805.544922	-88.925476
13301.973511	3893.351833	1804.544922	91.596260
13301.973511	3893.351833	1803.543945	16.436069
13301.973511	3893.351833	1802.542969	96.484215
13301.973511	3893.351833	1801.541992	-102.888474
13301.973511	3893.351833	1800.541016	218.164917
13301.973511	3893.351833	1799.539063	45.008240
13301.973511	3893.351833	1798.538086	22.207932
13301.973511	3893.351833	1797.536133	178.302963
13301.973511	3893.351833	1796.534180	59.981266
13301.973511	3893.351833	1795.532227	-91.728096
13301.973511	3893.351833	1794.529297	-81.287598
13301.973511	3893.351833	1793.527344	24.465345
13301.973511	3893.351833	1792.524414	132.513672
13301.973511	3893.351833	1791.521484	37.914669
13301.973511	3893.351833	1790.518555	12.401090
13301.973511	3893.351833	1789.514648	-41.737778
13301.973511	3893.351833	1788.511719	-122.098160
13301.973511	3893.351833	1787.507813	-42.933346
13301.973511	3893.351833	1786.503906	-75.743401
13301.973511	3893.351833	1785.500000	43.755226
13301.973511	3893.351833	1784.496094	48.925694
13301.973511	3893.351833	1783.491211	-29.236862
13301.973511	3893.351833	1782.486328	-126.449097
13301.973511	3893.351833	1781.481445	16.561834
13301.973511	3893.351833	1780.476563	-116.389221
13301.973511	3893.351833	1779.471680	-51.992302
13301.973511	3893.351833	1778.465820	24.214838
13301.973511	3893.351833	1777.460938	-37.503109
13301.973511	3893.351833	1776.455078	93.231018
13301.973511	3893.351833	1775.449219	-20.844469
13301.973511	3893.351833	1774.442383	71.730560
13301.973511	3893.351833	1773.436523	-68.519035
13301.973511	3893.351833	1772.429688	-99.540649
13301.973511	3893.351833	1771.422852	-47.507378
13301.973511	3893.351833	1770.416016	-0.289849
13301.973511	3893.351833	1769.409180	20.756947
13301.973511	3893.351833	1768.402344	-0.961235
13301.973511	3893.351833	1767.394531	-17.979637
13301.973511	3893.351833	1766.386719	0.536714
13301.973511	3893.351833	1765.378906	-80.598686
13301.973511	3893.351833	1764.371094	20.806084
13301.973511	3893.351833	1763.362305	-12.995310
13301.973511	3893.351833	1762.354492	-72.897827
13301.973511	3893.351833	1761.345703	25.928059
13301.973511	3893.351833	1760.336914	22.796650
13301.973511	3893.351833	1759.328125	-94.076172
13301.973511	3893.351833	1758.318359	21.124601
13301.973511	3893.351833	1757.308594	-22.405235
13301.973511	3893.351833	1756.299805	28.728552
13301.973511	3893.351833	1755.290039	-62.220196
13301.973511	3893.351833	1754.279297	26.658161
13301.973511	3893.351833	1753.269531	-177.916702
13301.973511	3893.351833	1752.258789	-27.644302
13301.973511	3893.351833	1751.249023	-92.690514
13301.973511	3893.351833	1750.238281	-115.202286
13301.973511	3893.351833	1749.226563	-14.823669
13301.973511	3893.351833	1748.215820	-63.437515
13301.973511	3893.351833	1747.204102	-102.632927
13301.973511	3893.351833	1746.193359	-37.893646
13301.973511	3893.351833	1745.181641	-72.449554
13301.973511	3893.351833	1744.168945	-62.168781
13301.973511	3893.351833	1743.157227	-56.656857
13301.973511	3893.351833	1742.144531	-60.642925
13301.973511	3893.351833	1741.132813	-52.867100
13301.973511	3893.351833	1740.120117	-2.664157
13301.973511	3893.351833	1739.106445	-129.504227
13301.973511	3893.351833	1738.093750	-81.758507
13301.973511	3893.351833	1737.080078	6.016335
13301.973511	3893.351833	1736.067383	-40.705017
13301.973511	3893.351833	1735.053711	-40.302639
13301.973511	3893.351833	1734.040039	-51.733372
13301.973511	3893.351833	1733.025391	31.066387
13301.973511	3893.351833	1732.011719	-48.801346
13301.973511	3893.351833	1730.997070	-126.333176
13301.973511	3893.351833	1729.982422	-48.412502
13301.973511	3893.351833	1728.967773	-29.443840
13301.973511	3893.351833	1727.952148	-45.852524
13301.973511	3893.351833	1726.937500	-90.543922
13301.973511	3893.351833	1725.921875	-41.116562
13301.973511	3893.351833	1724.906250	-147.071289
13301.973511	3893.351833	1723.890625	24.610739
13301.973511	3893.351833	1722.875000	76.210609
13301.973511	3893.351833	1721.858398	43.070847
13301.973511	3893.351833	1720.841797	47.526237
13301.973511	3893.351833	1719.825195	11.969685
13301.973511	3893.351833	1718.808594	89.214508
13301.973511	3893.351833	1717.791992	91.182922
13301.973511	3893.351833	1716.774414	8.513692
13301.973511	3893.351833	1715.756836	160.762024
13301.973511	3893.351833	1714.739258	122.657288
13301.973511	3893.351833	1713.721680	-11.756216
13301.973511	3893.351833	1712.704102	34.632225
13301.973511	3893.351833	1711.685547	-24.679398
13301.973511	3893.351833	1710.667969	38.044003
13301.973511	3893.351833	1709.649414	93.658844
13301.973511	3893.351833	1708.630859	160.944260
13301.973511	3893.351833	1707.611328	-13.444636
13301.973511	3893.351833	1706.592773	196.818344
13301.973511	3893.351833	1705.573242	207.651382
13301.973511	3893.351833	1704.553711	61.373802
13301.973511	3893.351833	1703.534180	29.965527
13301.973511	3893.351833	1702.513672	85.232872
13301.973511	3893.351833	1701.494141	46.731392
13301.973511	3893.351833	1700.473633	-5.852957
13301.973511	3893.351833	1699.453125	-2.241678
13301.973511	3893.351833	1698.432617	85.631584
13301.973511	3893.351833	1697.412109	16.578781
13301.973511	3893.351833	1696.390625	130.088226
13301.973511	3893.351833	1695.369141	84.381920
13301.973511	3893.351833	1694.347656	108.855324
13301.973511	3893.351833	1693.326172	30.354120
13301.973511	3893.351833	1692.304688	-73.876610
13301.973511	3893.351833	1691.282227	72.110794
13301.973511	3893.351833	1690.260742	0.581554
13301.973511	3893.351833	1689.238281	87.996918
13301.973511	3893.351833	1688.214844	86.531113
13301.973511	3893.351833	1687.192383	73.359695
13301.973511	3893.351833	1686.168945	71.838280
13301.973511	3893.351833	1685.146484	121.682587
13301.973511	3893.351833	1684.123047	68.717873
13301.973511	3893.351833	1683.099609	32.089355
13301.973511	3893.351833	1682.075195	18.785040
13301.973511	3893.351833	1681.051758	273.873840
13301.973511	3893.351833	1680.027344	-115.223892
13301.973511	3893.351833	1679.002930	62.741127
13301.973511	3893.351833	1677.978516	79.660545
13301.973511	3893.351833	1676.953125	-15.403517
13301.973511	3893.351833	1675.928711	62.100040
13301.973511	3893.351833	1674.903320	109.235855
13301.973511	3893.351833	1673.877930	2.494595
13301.973511	3893.351833	1672.852539	86.863113
13301.973511	3893.351833	1671.826172	173.499649
13301.973511	3893.351833	1670.800781	129.636658
13301.973511	3893.351833	1669.774414	81.103256
13301.973511	3893.351833	1668.748047	190.912186
13301.973511	3893.351833	1667.721680	130.704132
13301.973511	3893.351833	1666.694336	196.187057
13301.973511	3893.351833	1665.667969	84.762543
13301.973511	3893.351833	1664.640625	182.766388
13301.973511	3893.351833	1663.613281	215.575714
13301.973511	3893.351833	1662.585938	159.971313
13301.973511	3893.351833	1661.557617	367.138641
13301.973511	3893.351833	1660.530273	385.892059
13301.973511	3893.351833	1659.501953	214.002274
13301.973511	3893.351833	1658.473633	267.599884
13301.973511	3893.351833	1657.444336	272.358124
13301.973511	3893.351833	1656.416016	228.320389
13301.973511	3893.351833	1655.386719	216.796417
13301.973511	3893.351833	1654.358398	463.046478
13301.973511	3893.351833	1653.328125	284.275024
13301.973511	3893.351833	1652.298828	321.457947
13301.973511	3893.351833	1651.269531	323.800171
13301.973511	3893.351833	1650.239258	312.199921
13301.973511	3893.351833	1649.208984	316.834320
13301.973511	3893.351833	1648.178711	268.105255
13301.973511	3893.351833	1647.148438	298.237488
13301.973511	3893.351833	1646.117188	430.364075
13301.973511	3893.351833	1645.086914	404.797699
13301.973511	3893.351833	1644.055664	464.984619
13301.973511	3893.351833	1643.024414	464.889587
13301.973511	3893.351833	1641.992188	425.392761
13301.973511	3893.351833	1640.960938	529.533386
13301.973511	3893.351833	1639.928711	487.711853
13301.973511	3893.351833	1638.896484	584.835266
13301.973511	3893.351833	1637.864258	505.967712
13301.973511	3893.351833	1636.832031	422.497925
13301.973511	3893.351833	1635.798828	582.042419
13301.973511	3893.351833	1634.766602	542.546204
13301.973511	3893.351833	1633.733398	745.953552
13301.973511	3893.351833	1632.699219	630.097168
13301.973511	3893.351833	1631.666016	733.972839
13301.973511	3893.351833	1630.632813	673.657471
13301.973511	3893.351833	1629.598633	634.161621
13301.973511	3893.351833	1628.564453	795.745422
13301.973511	3893.351833	1627.530273	714.652649
13301.973511	3893.351833	1626.495117	783.746887
13301.973511	3893.351833	1625.460938	778.913513
13301.973511	3893.351833	1624.425781	859.520752
13301.973511	3893.351833	1623.390625	866.217407
13301.973511	3893.351833	1622.355469	778.272644
13301.973511	3893.351833	1621.319336	838.067139
13301.973511	3893.351833	1620.284180	810.166870
13301.973511	3893.351833	1619.248047	798.425049
13301.973511	3893.351833	1618.211914	805.147583
13301.973511	3893.351833	1617.174805	756.519470
13301.973511	3893.351833	1616.138672	774.790649
13301.973511	3893.351833	1615.101563	855.297363
13301.973511	3893.351833	1614.065430	825.159119
13301.973511	3893.351833	1613.027344	799.635742
13301.973511	3893.351833	1611.990234	926.196594
13301.973511	3893.351833	1610.953125	732.540344
13301.973511	3893.351833	1609.915039	1022.592712
13301.973511	3893.351833	1608.876953	838.219177
13301.973511	3893.351833	1607.838867	810.472473
13301.973511	3893.351833	1606.800781	1026.724365
13301.973511	3893.351833	1605.761719	1035.790161
13301.973511	3893.351833	1604.723633	957.445129
13301.973511	3893.351833	1603.684570	1010.255554
13301.973511	3893.351833	1602.644531	987.158081
13301.973511	3893.351833	1601.605469	1003.183105
13301.973511	3893.351833	1600.566406	1115.774048
13301.973511	3893.351833	1599.526367	1173.166260
13301.973511	3893.351833	1598.486328	1115.651001
13301.973511	3893.351833	1597.446289	1083.449829
13301.973511	3893.351833	1596.405273	986.952209
13301.973511	3893.351833	1595.365234	908.892822
13301.973511	3893.351833	1594.324219	957.170776
13301.973511	3893.351833	1593.283203	975.604553
13301.973511	3893.351833	1592.242188	1122.592529
13301.973511	3893.351833	1591.200195	1193.805420
13301.973511	3893.351833	1590.159180	1120.467896
13301.973511	3893.351833	1589.117188	1125.170898
13301.973511	3893.351833	1588.075195	1162.005493
13301.973511	3893.351833	1587.032227	992.460815
13301.973511	3893.351833	1585.990234	1224.232544
13301.973511	3893.351833	1584.947266	1047.914185
13301.973511	3893.351833	1583.904297	1114.619263
13301.973511	3893.351833	1582.861328	917.820435
13301.973511	3893.351833	1581.818359	1103.702759
13301.973511	3893.351833	1580.775391	1085.690552
13301.973511	3893.351833	1579.731445	1042.515869
13301.973511	3893.351833	1578.687500	1079.520020
13301.973511	3893.351833	1577.643555	839.558533
13301.973511	3893.351833	1576.598633	1025.400024
13301.973511	3893.351833	1575.554688	927.469604
13301.973511	3893.351833	1574.509766	852.478027
13301.973511	3893.351833	1573.464844	946.806519
13301.973511	3893.351833	1572.419922	837.599548
13301.973511	3893.351833	1571.374023	765.042603
13301.973511	3893.351833	1570.329102	966.867371
13301.973511	3893.351833	1569.283203	1029.223022
13301.973511	3893.351833	1568.237305	885.932495
13301.973511	3893.351833	1567.191406	962.054321
13301.973511	3893.351833	1566.144531	1051.878418
13301.973511	3893.351833	1565.098633	924.755615
13301.973511	3893.351833	1564.051758	984.939697
13301.973511	3893.351833	1563.004883	846.530212
13301.973511	3893.351833	1561.957031	701.357849
13301.973511	3893.351833	1560.910156	759.375977
13301.973511	3893.351833	1559.862305	972.542419
13301.973511	3893.351833	1558.814453	891.410645
13301.973511	3893.351833	1557.766602	814.909790
13301.973511	3893.351833	1556.718750	676.913879
13301.973511	3893.351833	1555.669922	700.862671
13301.973511	3893.351833	1554.621094	688.373474
13301.973511	3893.351833	1553.573242	760.249512
13301.973511	3893.351833	1552.523438	777.446167
13301.973511	3893.351833	1551.474609	837.961975
13301.973511	3893.351833	1550.424805	786.895569
13301.973511	3893.351833	1549.375000	760.937317
13301.973511	3893.351833	1548.325195	409.486511
13301.973511	3893.351833	1547.275391	686.417175
13301.973511	3893.351833	1546.225586	514.980530
13301.973511	3893.351833	1545.174805	557.517273
13301.973511	3893.351833	1544.124023	534.113403
13301.973511	3893.351833	1543.073242	626.752319
13301.973511	3893.351833	1542.022461	603.432800
13301.973511	3893.351833	1540.970703	687.011780
13301.973511	3893.351833	1539.919922	459.214294
13301.973511	3893.351833	1538.868164	342.900055
13301.973511	3893.351833	1537.815430	460.694092
13301.973511	3893.351833	1536.763672	617.111267
13301.973511	3893.351833	1535.710938	768.966553
13301.973511	3893.351833	1534.659180	680.118469
13301.973511	3893.351833	1533.606445	507.348053
13301.973511	3893.351833	1532.552734	527.624023
13301.973511	3893.351833	1531.500000	529.790283
13301.973511	3893.351833	1530.446289	545.613586
13301.973511	3893.351833	1529.393555	529.725769
13301.973511	3893.351833	1528.338867	550.172974
13301.973511	3893.351833	1527.285156	545.723206
13301.973511	3893.351833	1526.231445	362.222900
13301.973511	3893.351833	1525.176758	298.974792
13301.973511	3893.351833	1524.122070	362.712067
13301.973511	3893.351833	1523.067383	489.917419
13301.973511	3893.351833	1522.012695	286.385101
13301.973511	3893.351833	1520.957031	463.482452
13301.973511	3893.351833	1519.901367	380.151428
13301.973511	3893.351833	1518.845703	482.553406
13301.973511	3893.351833	1517.790039	480.845428
13301.973511	3893.351833	1516.734375	318.511139
13301.973511	3893.351833	1515.677734	346.353241
13301.973511	3893.351833	1514.621094	509.970581
13301.973511	3893.351833	1513.564453	494.898529
13301.973511	3893.351833	1512.507813	366.821930
13301.973511	3893.351833	1511.450195	320.238007
13301.973511	3893.351833	1510.393555	606.012024
13301.973511	3893.351833	1509.335938	383.232941
13301.973511	3893.351833	1508.278320	296.169128
13301.973511	3893.351833	1507.219727	297.295044
13301.973511	3893.351833	1506.162109	244.273880
13301.973511	3893.351833	1505.103516	200.359512
13301.973511	3893.351833	1504.044922	170.065735
13301.973511	3893.351833	1502.986328	130.812195
13301.973511	3893.351833	1501.926758	51.004730
13301.973511	3893.351833	1500.868164	178.877243
13301.973511	3893.351833	1499.808594	-45.171818
13301.973511	3893.351833	1498.749023	-43.525444
13301.973511	3893.351833	1497.688477	97.987556
13301.973511	3893.351833	1496.628906	-44.571758
13301.973511	3893.351833	1495.568359	-135.173645
13301.973511	3893.351833	1494.507813	33.493977
13301.973511	3893.351833	1493.447266	-23.170780
13301.973511	3893.351833	1492.386719	44.150604
13301.973511	3893.351833	1491.325195	-32.648697
13301.973511	3893.351833	1490.263672	55.031731
13301.973511	3893.351833	1489.202148	-125.186386
13301.973511	3893.351833	1488.140625	39.132156
13301.973511	3893.351833	1487.079102	-44.116516
13301.973511	3893.351833	1486.016602	61.735935
13301.973511	3893.351833	1484.954102	183.354065
13301.973511	3893.351833	1483.891602	44.075893
13301.973511	3893.351833	1482.829102	55.581703
13301.973511	3893.351833	1481.765625	215.528320
13301.973511	3893.351833	1480.702148	177.662094
13301.973511	3893.351833	1479.638672	99.412308
13301.973511	3893.351833	1478.575195	93.170670
13301.973511	3893.351833	1477.511719	12.849380
13301.973511	3893.351833	1476.447266	60.656799
13301.973511	3893.351833	1475.382813	20.937096
13301.973511	3893.351833	1474.318359	-23.192959
13301.973511	3893.351833	1473.253906	31.369246
13301.973511	3893.351833	1472.189453	30.060789
13301.973511	3893.351833	1471.124023	-175.339874
13301.973511	3893.351833	1470.058594	-120.422005
13301.973511	3893.351833	1468.993164	-209.055664
13301.973511	3893.351833	1467.927734	-136.271561
13301.973511	3893.351833	1466.861328	-63.164581
13301.973511	3893.351833	1465.794922	0.570311
13301.973511	3893.351833	1464.728516	-51.744595
13301.973511	3893.351833	1463.662109	-97.241104
13301.973511	3893.351833	1462.594727	22.456345
13301.973511	3893.351833	1461.528320	66.705620
13301.973511	3893.351833	1460.460938	-36.827557
13301.973511	3893.351833	1459.393555	-15.168150
13301.973511	3893.351833	1458.326172	-11.421624
13301.973511	3893.351833	1457.257813	82.053482
13301.973511	3893.351833	1456.189453	12.391207
13301.973511	3893.351833	1455.121094	85.144753
13301.973511	3893.351833	1454.052734	120.946426
13301.973511	3893.351833	1452.984375	37.792294
13301.973511	3893.351833	1451.915039	-37.644653
13301.973511	3893.351833	1450.845703	26.404545
13301.973511	3893.351833	1449.776367	-17.495207
13301.973511	3893.351833	1448.707031	-25.281452
13301.973511	3893.351833	1447.636719	-105.368393
13301.973511	3893.351833	1446.567383	84.809586
13301.973511	3893.351833	1445.497070	-146.861450
13301.973511	3893.351833	1444.425781	-34.976143
13301.973511	3893.351833	1443.355469	33.928726
13301.973511	3893.351833	1442.285156	108.236893
13301.973511	3893.351833	1441.213867	174.644836
13301.973511	3893.351833	1440.142578	125.962883
13301.973511	3893.351833	1439.070313	160.774811
13301.973511	3893.351833	1437.999023	128.144760
13301.973511	3893.351833	1436.926758	113.206779
13301.973511	3893.351833	1435.854492	178.206467
13301.973511	3893.351833	1434.782227	286.530914
13301.973511	3893.351833	1433.709961	133.997421
13301.973511	3893.351833	1432.636719	122.010384
13301.973511	3893.351833	1431.563477	179.604721
13301.973511	3893.351833	1430.490234	209.647522
13301.973511	3893.351833	1429.416992	214.123962
13301.973511	3893.351833	1428.343750	166.081314
13301.973511	3893.351833	1427.269531	217.367615
13301.973511	3893.351833	1426.195313	82.039917
13301.973511	3893.351833	1425.121094	111.880302
13301.973511	3893.351833	1424.046875	169.333939
13301.973511	3893.351833	1422.971680	195.284241
13301.973511	3893.351833	1421.896484	295.702087
13301.973511	3893.351833	1420.821289	154.750854
13301.973511	3893.351833	1419.746094	153.326904
13301.973511	3893.351833	1418.669922	335.788452
13301.973511	3893.351833	1417.594727	148.399048
13301.973511	3893.351833	1416.518555	105.362656
13301.973511	3893.351833	1415.442383	68.309959
13301.973511	3893.351833	1414.365234	81.017372
13301.973511	3893.351833	1413.289063	22.935448
13301.973511	3893.351833	1412.211914	-17.104914
13301.973511	3893.351833	1411.134766	-5.172511
13301.973511	3893.351833	1410.057617	-31.122530
13301.973511	3893.351833	1408.979492	90.547775
13301.973511	3893.351833	1407.902344	93.758598
13301.973511	3893.351833	1406.824219	98.752510
13301.973511	3893.351833	1405.746094	267.356903
13301.973511	3893.351833	1404.666992	155.910629
13301.973511	3893.351833	1403.588867	224.255829
13301.973511	3893.351833	1402.509766	293.671631
13301.973511	3893.351833	1401.430664	410.833771
13301.973511	3893.351833	1400.351563	561.096069
13301.973511	3893.351833	1399.271484	776.459717
13301.973511	3893.351833	1398.192383	402.142273
13301.973511	3893.351833	1397.112305	663.485413
13301.973511	3893.351833	1396.031250	735.074890
13301.973511	3893.351833	1394.951172	892.558105
13301.973511	3893.351833	1393.871094	871.369080
13301.973511	3893.351833	1392.790039	666.442383
13301.973511	3893.351833	1391.708984	768.423523
13301.973511	3893.351833	1390.626953	469.693970
13301.973511	3893.351833	1389.545898	588.473877
13301.973511	3893.351833	1388.463867	528.813171
13301.973511	3893.351833	1387.381836	441.272705
13301.973511	3893.351833	1386.299805	540.258850
13301.973511	3893.351833	1385.217773	353.090637
13301.973511	3893.351833	1384.134766	414.113312
13301.973511	3893.351833	1383.051758	349.184784
13301.973511	3893.351833	1381.968750	452.228577
13301.973511	3893.351833	1380.885742	437.885010
13301.973511	3893.351833	1379.802734	478.701630
13301.973511	3893.351833	1378.718750	578.047729
13301.973511	3893.351833	1377.634766	684.181458
13301.973511	3893.351833	1376.550781	804.210327
13301.973511	3893.351833	1375.465820	626.561462
13301.973511	3893.351833	1374.381836	475.044281
13301.973511	3893.351833	1373.296875	465.762848
13301.973511	3893.351833	1372.211914	532.535522
13301.973511	3893.351833	1371.126953	617.501648
13301.973511	3893.351833	1370.041016	445.655396
13301.973511	3893.351833	1368.955078	439.346191
13301.973511	3893.351833	1367.869141	472.058105
13301.973511	3893.351833	1366.783203	454.993927
13301.973511	3893.351833	1365.697266	338.293884
13301.973511	3893.351833	1364.610352	482.956299
13301.973511	3893.351833	1363.523438	478.509125
13301.973511	3893.351833	1362.436523	334.059906
13301.973511	3893.351833	1361.349609	509.004272
13301.973511	3893.351833	1360.261719	473.517456
13301.973511	3893.351833	1359.174805	485.807037
13301.973511	3893.351833	1358.086914	425.227783
13301.973511	3893.351833	1356.998047	318.081177
13301.973511	3893.351833	1355.910156	368.041870
13301.973511	3893.351833	1354.821289	473.850067
13301.973511	3893.351833	1353.732422	473.805328
13301.973511	3893.351833	1352.643555	405.618622
13301.973511	3893.351833	1351.554688	360.902405
13301.973511	3893.351833	1350.464844	313.789307
13301.973511	3893.351833	1349.375000	397.183594
13301.973511	3893.351833	1348.285156	361.913483
13301.973511	3893.351833	1347.195313	396.756897
13301.973511	3893.351833	1346.105469	216.017670
13301.973511	3893.351833	1345.014648	234.630844
13301.973511	3893.351833	1343.923828	411.085449
13301.973511	3893.351833	1342.833008	311.917725
13301.973511	3893.351833	1341.741211	150.175583
13301.973511	3893.351833	1340.650391	141.361603
13301.973511	3893.351833	1339.558594	148.663422
13301.973511	3893.351833	1338.466797	178.573776
13301.973511	3893.351833	1337.374023	130.549942
13301.973511	3893.351833	1336.282227	206.928131
13301.973511	3893.351833	1335.189453	141.204391
13301.973511	3893.351833	1334.096680	200.860550
13301.973511	3893.351833	1333.003906	116.229233
13301.973511	3893.351833	1331.910156	192.910919
13301.973511	3893.351833	1330.817383	137.988052
13301.973511	3893.351833	1329.723633	194.769516
13301.973511	3893.351833	1328.629883	312.023102
13301.973511	3893.351833	1327.535156	201.276215
13301.973511	3893.351833	1326.441406	134.446457
13301.973511	3893.351833	1325.346680	234.338089
13301.973511	3893.351833	1324.251953	64.356461
13301.973511	3893.351833	1323.156250	100.244904
13301.973511	3893.351833	1322.061523	10.678592
13301.973511	3893.351833	1320.965820	64.415154
13301.973511	3893.351833	1319.870117	51.935482
13301.973511	3893.351833	1318.774414	100.190331
13301.973511	3893.351833	1317.678711	79.433159
13301.973511	3893.351833	1316.582031	68.622330
13301.973511	3893.351833	1315.485352	-21.130035
13301.973511	3893.351833	1314.388672	-43.416660
13301.973511	3893.351833	1313.291016	162.905945
13301.973511	3893.351833	1312.194336	61.681839
13301.973511	3893.351833	1311.096680	124.272194
13301.973511	3893.351833	1309.999023	28.483332
13301.973511	3893.351833	1308.901367	7.819688
13301.973511	3893.351833	1307.802734	31.296469
13301.973511	3893.351833	1306.705078	27.702766
13301.973511	3893.351833	1305.606445	-71.075562
13301.973511	3893.351833	1304.506836	15.299981
13301.973511	3893.351833	1303.408203	52.744308
13301.973511	3893.351833	1302.308594	50.284054
13301.973511	3893.351833	1301.208984	38.766331
13301.973511	3893.351833	1300.109375	-9.044663
13301.973511	3893.351833	1299.009766	123.901413
13301.973511	3893.351833	1297.909180	77.008156
13301.973511	3893.351833	1296.808594	47.169952
13301.973511	3893.351833	1295.708008	76.739372
13301.973511	3893.351833	1294.607422	45.723309
13301.973511	3893.351833	1293.506836	59.083214
13301.973511	3893.351833	1292.405273	-84.440773
13301.973511	3893.351833	1291.303711	-144.807404
13301.973511	3893.351833	1290.202148	-18.379930
13301.973511	3893.351833	1289.099609	-35.012878
13301.973511	3893.351833	1287.998047	-179.551727
13301.973511	3893.351833	1286.895508	-213.958984
13301.973511	3893.351833	1285.792969	-119.035316
13301.973511	3893.351833	1284.689453	-118.250397
13301.973511	3893.351833	1283.586914	-179.561676
13301.973511	3893.351833	1282.483398	-74.739632
13301.973511	3893.351833	1281.379883	-169.335968
13301.973511	3893.351833	1280.276367	-101.912628
13301.973511	3893.351833	1279.171875	-125.860641
13301.973511	3893.351833	1278.067383	-81.184868
13301.973511	3893.351833	1276.962891	-12.628926
13301.973511	3893.351833	1275.858398	-96.183006
13301.973511	3893.351833	1274.753906	-61.213268
13301.973511	3893.351833	1273.648438	-34.329388
13301.973511	3893.351833	1272.542969	-93.105652
13301.973511	3893.351833	1271.437500	-151.422394
13301.973511	3893.351833	1270.331055	26.566338
13301.973511	3893.351833	1269.225586	-66.072403
13301.973511	3893.351833	1268.119141	-29.044710
13301.973511	3893.351833	1267.012695	82.727394
13301.973511	3893.351833	1265.906250	48.517403
13301.973511	3893.351833	1264.798828	36.051685
13301.973511	3893.351833	1263.691406	200.194336
13301.973511	3893.351833	1262.583984	37.144115
13301.973511	3893.351833	1261.476563	154.038300
13301.973511	3893.351833	1260.368164	32.256634
13301.973511	3893.351833	1259.260742	141.457291
13301.973511	3893.351833	1258.152344	59.837193
13301.973511	3893.351833	1257.043945	89.930305
13301.973511	3893.351833	1255.934570	168.490906
13301.973511	3893.351833	1254.825195	135.059769
13301.973511	3893.351833	1253.716797	192.478409
13301.973511	3893.351833	1252.606445	157.252792
13301.973511	3893.351833	1251.497070	224.365860
13301.973511	3893.351833	1250.387695	279.169556
13301.973511	3893.351833	1249.277344	216.005157
13301.973511	3893.351833	1248.166992	153.957336
13301.973511	3893.351833	1247.055664	121.625160
13301.973511	3893.351833	1245.945313	285.379059
13301.973511	3893.351833	1244.833984	196.672958
13301.973511	3893.351833	1243.722656	255.189713
13301.973511	3893.351833	1242.611328	305.161285
13301.973511	3893.351833	1241.499023	259.824005
13301.973511	3893.351833	1240.387695	152.495041
13301.973511	3893.351833	1239.275391	314.829559
13301.973511	3893.351833	1238.162109	318.158691
13301.973511	3893.351833	1237.049805	310.804016
13301.973511	3893.351833	1235.936523	273.790314
13301.973511	3893.351833	1234.823242	243.453720
13301.973511	3893.351833	1233.709961	202.606323
13301.973511	3893.351833	1232.596680	181.523621
13301.973511	3893.351833	1231.482422	302.805695
13301.973511	3893.351833	1230.369141	310.467010
13301.973511	3893.351833	1229.253906	223.774445
13301.973511	3893.351833	1228.139648	207.616089
13301.973511	3893.351833	1227.025391	243.643311
13301.973511	3893.351833	1225.910156	317.874664
13301.973511	3893.351833	1224.794922	346.309906
13301.973511	3893.351833	1223.679688	288.644379
13301.973511	3893.351833	1222.563477	176.240952
13301.973511	3893.351833	1221.447266	164.575378
13301.973511	3893.351833	1220.331055	198.312820
13301.973511	3893.351833	1219.214844	190.900665
13301.973511	3893.351833	1218.098633	5.417152
13301.973511	3893.351833	1216.981445	74.822243
13301.973511	3893.351833	1215.864258	31.270466
13301.973511	3893.351833	1214.747070	29.148664
13301.973511	3893.351833	1213.629883	-19.842840
13301.973511	3893.351833	1212.511719	-52.895458
13301.973511	3893.351833	1211.393555	24.153173
13301.973511	3893.351833	1210.275391	-41.566925
13301.973511	3893.351833	1209.157227	16.768108
13301.973511	3893.351833	1208.038086	-35.871044
13301.973511	3893.351833	1206.918945	16.909954
13301.973511	3893.351833	1205.799805	-35.287685
13301.973511	3893.351833	1204.680664	-5.899845
13301.973511	3893.351833	1203.560547	-69.839661
13301.973511	3893.351833	1202.441406	-32.433254
13301.973511	3893.351833	1201.321289	-175.147675
13301.973511	3893.351833	1200.200195	22.432255
13301.973511	3893.351833	1199.080078	-77.451180
13301.973511	3893.351833	1197.958984	-37.897381
13301.973511	3893.351833	1196.837891	3.217076
13301.973511	3893.351833	1195.716797	-29.764378
13301.973511	3893.351833	1194.594727	-86.789597
13301.973511	3893.351833	1193.473633	41.355503
13301.973511	3893.351833	1192.351563	74.821426
13301.973511	3893.351833	1191.229492	22.747774
13301.973511	3893.351833	1190.106445	33.050926
13301.973511	3893.351833	1188.984375	104.947983
13301.973511	3893.351833	1187.861328	37.950706
13301.973511	3893.351833	1186.738281	98.712425
13301.973511	3893.351833	1185.614258	228.400452
13301.973511	3893.351833	1184.491211	192.801346
13301.973511	3893.351833	1183.367188	168.845718
13301.973511	3893.351833	1182.243164	224.124451
13301.973511	3893.351833	1181.119141	159.242264
13301.973511	3893.351833	1179.994141	189.543625
13301.973511	3893.351833	1178.869141	16.064831
13301.973511	3893.351833	1177.744141	192.671799
13301.973511	3893.351833	1176.619141	170.328110
13301.973511	3893.351833	1175.493164	210.472488
13301.973511	3893.351833	1174.368164	194.739395
13301.973511	3893.351833	1173.242188	142.404938
13301.973511	3893.351833	1172.115234	261.956085
13301.973511	3893.351833	1170.989258	307.998169
13301.973511	3893.351833	1169.862305	357.865265
13301.973511	3893.351833	1168.735352	363.503967
13301.973511	3893.351833	1167.608398	289.586853
13301.973511	3893.351833	1166.481445	355.617615
13301.973511	3893.351833	1165.353516	444.136383
13301.973511	3893.351833	1164.225586	366.734802
13301.973511	3893.351833	1163.097656	421.969788
13301.973511	3893.351833	1161.968750	440.796021
13301.973511	3893.351833	1160.840820	532.778503
13301.973511	3893.351833	1159.711914	463.492889
13301.973511	3893.351833	1158.583008	317.625092
13301.973511	3893.351833	1157.453125	380.393402
13301.973511	3893.351833	1156.324219	297.382111
13301.973511	3893.351833	1155.194336	299.828217
13301.973511	3893.351833	1154.064453	253.076065
13301.973511	3893.351833	1152.933594	187.525955
13301.973511	3893.351833	1151.803711	97.933235
13301.973511	3893.351833	1150.672852	148.318008
13301.973511	3893.351833	1149.541992	123.191628
13301.973511	3893.351833	1148.411133	100.749710
13301.973511	3893.351833	1147.279297	140.813416
13301.973511	3893.351833	1146.147461	5.491347
13301.973511	3893.351833	1145.015625	-78.683968
13301.973511	3893.351833	1143.883789	-13.556465
13301.973511	3893.351833	1142.750977	-10.796751
13301.973511	3893.351833	1141.619141	102.430481
13301.973511	3893.351833	1140.486328	117.671364
13301.973511	3893.351833	1139.352539	45.577053
13301.973511	3893.351833	1138.219727	11.771058
13301.973511	3893.351833	1137.085938	17.711523
13301.973511	3893.351833	1135.952148	52.018497
13301.973511	3893.351833	1134.818359	144.019943
13301.973511	3893.351833	1133.683594	4.380563
13301.973511	3893.351833	1132.549805	30.994125
13301.973511	3893.351833	1131.415039	161.056366
13301.973511	3893.351833	1130.279297	149.936707
13301.973511	3893.351833	1129.144531	205.860107
13301.973511	3893.351833	1128.008789	157.644272
13301.973511	3893.351833	1126.873047	184.917236
13301.973511	3893.351833	1125.737305	164.615402
13301.973511	3893.351833	1124.601563	165.547729
13301.973511	3893.351833	1123.464844	163.102859
13301.973511	3893.351833	1122.328125	197.113052
13301.973511	3893.351833	1121.191406	150.595779
13301.973511	3893.351833	1120.054688	170.067520
13301.973511	3893.351833	1118.916992	68.388031
13301.973511	3893.351833	1117.779297	103.595741
13301.973511	3893.351833	1116.641602	137.500595
13301.973511	3893.351833	1115.503906	132.514130
13301.973511	3893.351833	1114.365234	71.768951
13301.973511	3893.351833	1113.226563	99.209846
13301.973511	3893.351833	1112.087891	91.695122
13301.973511	3893.351833	1110.949219	63.824791
13301.973511	3893.351833	1109.809570	-45.469776
13301.973511	3893.351833	1108.669922	-16.374559
13301.973511	3893.351833	1107.530273	21.302263
13301.973511	3893.351833	1106.390625	28.203682
13301.973511	3893.351833	1105.250000	112.585205
13301.973511	3893.351833	1104.109375	-50.720482
13301.973511	3893.351833	1102.968750	43.192802
13301.973511	3893.351833	1101.828125	6.558890
13301.973511	3893.351833	1100.686523	33.626366
13301.973511	3893.351833	1099.544922	97.480949
13301.973511	3893.351833	1098.403320	125.301308
13301.973511	3893.351833	1097.261719	14.141097
13301.973511	3893.351833	1096.120117	12.216092
13301.973511	3893.351833	1094.977539	88.639519
13301.973511	3893.351833	1093.834961	194.996765
13301.973511	3893.351833	1092.691406	198.830185
13301.973511	3893.351833	1091.548828	37.191132
13301.973511	3893.351833	1090.405273	160.893387
13301.973511	3893.351833	1089.261719	149.163071
13301.973511	3893.351833	1088.118164	53.159309
13301.973511	3893.351833	1086.973633	66.397552
13301.973511	3893.351833	1085.829102	100.812958
13301.973511	3893.351833	1084.684570	61.111568
13301.973511	3893.351833	1083.540039	160.102448
13301.973511	3893.351833	1082.395508	30.407183
13301.973511	3893.351833	1081.250000	73.194389
13301.973511	3893.351833	1080.104492	82.159645
13301.973511	3893.351833	1078.958984	209.627151
13301.973511	3893.351833	1077.812500	118.711296
13301.973511	3893.351833	1076.666016	115.885048
13301.973511	3893.351833	1075.519531	128.689941
13301.973511	3893.351833	1074.373047	55.724598
13301.973511	3893.351833	1073.226563	44.764431
13301.973511	3893.351833	1072.079102	73.097527
13301.973511	3893.351833	1070.931641	224.570541
13301.973511	3893.351833	1069.784180	54.426674
13301.973511	3893.351833	1068.635742	148.483231
13301.973511	3893.351833	1067.487305	164.247604
13301.973511	3893.351833	1066.338867	59.465908
13301.973511	3893.351833	1065.190430	86.125008
13301.973511	3893.351833	1064.041992	89.966621
13301.973511	3893.351833	1062.892578	62.698097
13301.973511	3893.351833	1061.743164	132.178040
13301.973511	3893.351833	1060.593750	167.320053
13301.973511	3893.351833	1059.443359	224.903214
13301.973511	3893.351833	1058.292969	124.625053
13301.973511	3893.351833	1057.142578	167.685822
13301.973511	3893.351833	1055.992188	72.333122
13301.973511	3893.351833	1054.841797	135.296021
13301.973511	3893.351833	1053.690430	182.010193
13301.973511	3893.351833	1052.539063	95.952637
13301.973511	3893.351833	1051.387695	136.047714
13301.973511	3893.351833	1050.235352	112.948318
13301.973511	3893.351833	1049.083984	-141.826462
13301.973511	3893.351833	1047.931641	-55.495319
13301.973511	3893.351833	1046.778320	-191.454742
13301.973511	3893.351833	1045.625977	-134.547348
13301.973511	3893.351833	1044.472656	-229.537827
13301.973511	3893.351833	1043.319336	-67.030563
13301.973511	3893.351833	1042.166016	-95.289619
13301.973511	3893.351833	1041.012695	-75.790993
13301.973511	3893.351833	1039.858398	-38.419083
13301.973511	3893.351833	1038.704102	-52.276680
13301.973511	3893.351833	1037.549805	55.025959
13301.973511	3893.351833	1036.394531	8.904661
13301.973511	3893.351833	1035.239258	116.658081
13301.973511	3893.351833	1034.083984	2.154974
13301.973511	3893.351833	1032.928711	-48.726646
13301.973511	3893.351833	1031.773438	74.959618
13301.973511	3893.351833	1030.617188	-19.783125
13301.973511	3893.351833	1029.460938	41.206718
13301.973511	3893.351833	1028.304688	-101.824661
13301.973511	3893.351833	1027.147461	-42.525570
13301.973511	3893.351833	1025.991211	-98.009262
13301.973511	3893.351833	1024.833984	-71.821983
13301.973511	3893.351833	1023.675781	54.579281
13301.973511	3893.351833	1022.518555	-39.292122
13301.973511	3893.351833	1021.360352	92.399269
13301.973511	3893.351833	1020.202148	219.350372
13301.973511	3893.351833	1019.043945	203.463181
13301.973511	3893.351833	1017.884766	39.907581
13301.973511	3893.351833	1016.726563	45.919304
13301.973511	3893.351833	1015.567383	-124.103401
13301.973511	3893.351833	1014.407227	36.243324
13301.973511	3893.351833	1013.248047	9.492730
13301.973511	3893.351833	1012.087891	25.611284
13301.973511	3893.351833	1010.927734	-15.283973
13301.973511	3893.351833	1009.767578	-21.230511
13301.973511	3893.351833	1008.606445	-139.043472
13301.973511	3893.351833	1007.446289	-70.660072
13301.973511	3893.351833	1006.285156	-95.966606
13301.973511	3893.351833	1005.123047	-87.022575
13301.973511	3893.351833	1003.961914	-26.563910
13301.973511	3893.351833	1002.799805	-61.019974
13301.973511	3893.351833	1001.637695	-94.786247
13301.973511	3893.351833	1000.475586	37.900108
13301.973511	3893.351833	999.312500	35.251621
13301.973511	3893.351833	998.149414	51.923187
13301.973511	3893.351833	996.986328	-66.426857
13301.973511	3893.351833	995.823242	-26.769567
13301.973511	3893.351833	994.659180	-33.630756
13301.973511	3893.351833	993.496094	-146.104858
13301.973511	3893.351833	992.332031	-6.687540
13301.973511	3893.351833	991.166992	-47.445591
13301.973511	3893.351833	990.002930	-98.970413
13301.973511	3893.351833	988.837891	-62.918404
13301.973511	3893.351833	987.672852	-34.898659
13301.973511	3893.351833	986.506836	95.458878
13301.973511	3893.351833	985.341797	-17.383329
13301.973511	3893.351833	984.175781	14.665732
13301.973511	3893.351833	983.009766	-95.941917
13301.973511	3893.351833	981.843750	-71.754463
13301.973511	3893.351833	980.676758	-194.827240
13301.973511	3893.351833	979.509766	-0.306321
13301.973511	3893.351833	978.342773	45.744976
13301.973511	3893.351833	977.175781	78.254539
13301.973511	3893.351833	976.007813	-6.378943
13301.973511	3893.351833	974.839844	-220.657898
13301.973511	3893.351833	973.671875	-8.501123
13301.973511	3893.351833	972.503906	-27.988052
13301.973511	3893.351833	971.334961	-22.347994
13301.973511	3893.351833	970.166016	-103.189262
13301.973511	3893.351833	968.997070	26.255878
13301.973511	3893.351833	967.828125	-26.165747
13301.973511	3893.351833	966.658203	-18.501865
13301.973511	3893.351833	965.488281	27.920525
13301.973511	3893.351833	964.318359	41.312027
13301.973511	3893.351833	963.148438	-20.874077
13301.973511	3893.351833	961.977539	43.212357
13301.973511	3893.351833	960.806641	35.155048
13301.973511	3893.351833	959.635742	126.567429
13301.973511	3893.351833	958.463867	94.041306
13301.973511	3893.351833	957.292969	69.229942
13301.973511	3893.351833	956.121094	173.674683
13301.973511	3893.351833	954.948242	33.262344
13301.973511	3893.351833	953.776367	129.327454
13301.973511	3893.351833	952.603516	85.883408
13301.973511	3893.351833	951.430664	154.160065
13301.973511	3893.351833	950.257813	-28.533358
13301.973511	3893.351833	949.084961	-36.173748
13301.973511	3893.351833	947.911133	19.940905
13301.973511	3893.351833	946.737305	27.654753
13301.973511	3893.351833	945.563477	81.163750
13301.973511	3893.351833	944.388672	37.598568
13301.973511	3893.351833	943.213867	-61.089161
13301.973511	3893.351833	942.039063	-27.030155
13301.973511	3893.351833	940.864258	117.238136
13301.973511	3893.351833	939.688477	-25.848490
13301.973511	3893.351833	938.513672	92.156677
13301.973511	3893.351833	937.337891	121.590874
13301.973511	3893.351833	936.161133	204.007919
13301.973511	3893.351833	934.985352	-0.702521
13301.973511	3893.351833	933.808594	4.356281
13301.973511	3893.351833	932.631836	86.830894
13301.973511	3893.351833	931.454102	118.419708
13301.973511	3893.351833	930.277344	114.630653
13301.973511	3893.351833	929.099609	258.819336
13301.973511	3893.351833	927.921875	133.556686
13301.973511	3893.351833	926.743164	145.179703
13301.973511	3893.351833	925.565430	57.492348
13301.973511	3893.351833	924.386719	91.188957
13301.973511	3893.351833	923.208008	241.799011
13301.973511	3893.351833	922.028320	-35.650585
13301.973511	3893.351833	920.849609	75.209618
13301.973511	3893.351833	919.669922	76.830719
13301.973511	3893.351833	919.474609	259.060913
13301.973511	3893.351833	918.309570	-35.925831
13301.973511	3893.351833	917.143555	204.873825
13301.973511	3893.351833	915.977539	-28.296721
13301.973511	3893.351833	914.810547	77.960930
13301.973511	3893.351833	913.644531	40.958748
13301.973511	3893.351833	912.477539	45.810272
13301.973511	3893.351833	911.310547	176.171555
13301.973511	3893.351833	910.143555	-103.059830
13301.973511	3893.351833	908.975586	7.441694
13301.973511	3893.351833	907.807617	95.876160
13301.973511	3893.351833	906.639648	78.642113
13301.973511	3893.351833	905.471680	79.001877
13301.973511	3893.351833	904.303711	231.115234
13301.973511	3893.351833	903.134766	112.669502
13301.973511	3893.351833	901.965820	139.368683
13301.973511	3893.351833	900.796875	262.763641
13301.973511	3893.351833	899.626953	113.579285
13301.973511	3893.351833	898.457031	140.225677
13301.973511	3893.351833	897.287109	232.753693
13301.973511	3893.351833	896.117188	285.696655
13301.973511	3893.351833	894.947266	213.437958
13301.973511	3893.351833	893.776367	235.603790
13301.973511	3893.351833	892.605469	312.624298
13301.973511	3893.351833	891.434570	266.705139
13301.973511	3893.351833	890.262695	431.430969
13301.973511	3893.351833	889.091797	269.216705
13301.973511	3893.351833	887.919922	468.944000
13301.973511	3893.351833	886.748047	317.730042
13301.973511	3893.351833	885.575195	368.263885
13301.973511	3893.351833	884.403320	269.715485
13301.973511	3893.351833	883.230469	407.874023
13301.973511	3893.351833	882.057617	300.572601
13301.973511	3893.351833	880.883789	329.118896
13301.973511	3893.351833	879.710938	195.573486
13301.973511	3893.351833	878.537109	215.349106
13301.973511	3893.351833	877.362305	342.378387
13301.973511	3893.351833	876.188477	250.467117
13301.973511	3893.351833	875.013672	359.908752
13301.973511	3893.351833	873.839844	233.004242
13301.973511	3893.351833	872.664063	303.010834
13301.973511	3893.351833	871.489258	265.815430
13301.973511	3893.351833	870.313477	261.423401
13301.973511	3893.351833	869.138672	182.695236
13301.973511	3893.351833	867.962891	287.582550
13301.973511	3893.351833	866.786133	191.380768
13301.973511	3893.351833	865.610352	101.761528
13301.973511	3893.351833	864.433594	77.697838
13301.973511	3893.351833	863.256836	123.516991
13301.973511	3893.351833	862.079102	31.754562
13301.973511	3893.351833	860.902344	110.288292
13301.973511	3893.351833	859.724609	103.662880
13301.973511	3893.351833	858.546875	153.763779
13301.973511	3893.351833	857.368164	-5.599095
13301.973511	3893.351833	856.190430	61.933037
13301.973511	3893.351833	855.011719	37.838398
13301.973511	3893.351833	853.833008	-27.681150
13301.973511	3893.351833	852.654297	33.245525
13301.973511	3893.351833	851.474609	44.012794
13301.973511	3893.351833	850.294922	52.587193
13301.973511	3893.351833	849.115234	56.791012
13301.973511	3893.351833	847.935547	67.517357
13301.973511	3893.351833	846.754883	213.240143
13301.973511	3893.351833	845.575195	86.751846
13301.973511	3893.351833	844.393555	86.554222
13301.973511	3893.351833	843.212891	-72.518486
13301.973511	3893.351833	842.032227	-29.187201
13301.973511	3893.351833	840.850586	94.604950
13301.973511	3893.351833	839.668945	92.192734
13301.973511	3893.351833	838.486328	161.529465
13301.973511	3893.351833	837.304688	-160.492630
13301.973511	3893.351833	836.122070	65.344109
13301.973511	3893.351833	834.939453	-52.272503
13301.973511	3893.351833	833.756836	-22.109549
13301.973511	3893.351833	832.573242	12.376603
13301.973511	3893.351833	831.389648	-0.939704
13301.973511	3893.351833	830.206055	26.994759
13301.973511	3893.351833	829.022461	-55.805843
13301.973511	3893.351833	827.838867	-56.106159
13301.973511	3893.351833	826.654297	-41.225395
13301.973511	3893.351833	825.469727	12.691285
13301.973511	3893.351833	824.284180	3.672796
13301.973511	3893.351833	823.099609	-48.723953
13301.973511	3893.351833	821.914063	-7.876694
13301.973511	3893.351833	820.728516	43.782330
13301.973511	3893.351833	819.542969	28.225277
13301.973511	3893.351833	818.356445	-32.838810
13301.973511	3893.351833	817.169922	-98.219597
13301.973511	3893.351833	815.983398	-141.923920
13301.973511	3893.351833	814.796875	26.598965
13301.973511	3893.351833	813.609375	-30.122589
13301.973511	3893.351833	812.422852	-95.489067
13301.973511	3893.351833	811.235352	-230.091248
13301.973511	3893.351833	810.046875	-72.545891
13301.973511	3893.351833	808.859375	-120.585930
13301.973511	3893.351833	807.670898	-220.523407
13301.973511	3893.351833	806.482422	-91.218216
13301.973511	3893.351833	805.293945	-80.882294
13301.973511	3893.351833	804.104492	-154.857498
13301.973511	3893.351833	802.915039	-51.608200
13301.973511	3893.351833	801.725586	-11.068019
13301.973511	3893.351833	800.536133	-72.081718
13301.973511	3893.351833	799.345703	-44.532204
13301.973511	3893.351833	798.155273	-109.851593
13301.973511	3893.351833	796.964844	-108.231812
13301.973511	3893.351833	795.774414	-97.989799
13301.973511	3893.351833	794.583008	9.344047
13301.973511	3893.351833	793.392578	30.324066
13301.973511	3893.351833	792.200195	40.501171
13301.973511	3893.351833	791.008789	70.071930
13301.973511	3893.351833	789.816406	47.873463
13301.973511	3893.351833	788.625000	161.480698
13301.973511	3893.351833	787.432617	137.095932
13301.973511	3893.351833	786.239258	41.603889
13301.973511	3893.351833	785.046875	-40.933662
13301.973511	3893.351833	783.853516	31.631348
13301.973511	3893.351833	782.660156	-74.579391
13301.973511	3893.351833	781.465820	21.624313
13301.973511	3893.351833	780.272461	72.573349
13301.973511	3893.351833	779.078125	-119.696098
13301.973511	3893.351833	777.883789	73.247742
13301.973511	3893.351833	776.688477	78.946594
13301.973511	3893.351833	775.494141	82.480431
13301.973511	3893.351833	774.298828	167.713989
13301.973511	3893.351833	773.103516	48.663525
13301.973511	3893.351833	771.907227	17.777966
13301.973511	3893.351833	770.711914	38.467922
13301.973511	3893.351833	769.515625	84.920792
13301.973511	3893.351833	768.318359	66.900642
13301.973511	3893.351833	767.122070	14.513967
13301.973511	3893.351833	765.924805	93.115570
13301.973511	3893.351833	764.727539	-10.799676
13301.973511	3893.351833	763.530273	123.554298
13301.973511	3893.351833	762.333008	210.631546
13301.973511	3893.351833	761.134766	102.430672
13301.973511	3893.351833	759.936523	146.553528
13301.973511	3893.351833	758.738281	53.397984
13301.973511	3893.351833	757.540039	-48.306999
13301.973511	3893.351833	756.340820	-160.700058
13301.973511	3893.351833	755.141602	35.556534
13301.973511	3893.351833	753.942383	26.018366
13301.973511	3893.351833	752.742188	78.597572
13301.973511	3893.351833	751.541992	-29.494091
13301.973511	3893.351833	750.341797	-54.039879
13301.973511	3893.351833	749.141602	-50.756157
13301.973511	3893.351833	747.941406	104.487877
13301.973511	3893.351833	746.740234	-69.910843
13301.973511	3893.351833	745.539063	-13.174584
13301.973511	3893.351833	744.337891	97.003731
13301.973511	3893.351833	743.135742	-70.906723
13301.973511	3893.351833	741.933594	56.317619
13301.973511	3893.351833	740.731445	-152.159241
13301.973511	3893.351833	739.529297	-37.821232
13301.973511	3893.351833	738.326172	23.032703
13301.973511	3893.351833	737.124023	-25.111555
13301.973511	3893.351833	735.919922	10.055333
13301.973511	3893.351833	734.716797	2.482714
13301.973511	3893.351833	733.513672	54.683174
13301.973511	3893.351833	732.309570	-74.599304
13301.973511	3893.351833	731.105469	-26.700127
13301.973511	3893.351833	729.900391	-15.109219
13301.973511	3893.351833	728.696289	-63.270237
13301.973511	3893.351833	727.491211	-49.570686
13301.973511	3893.351833	726.286133	-55.083248
13301.973511	3893.351833	725.080078	41.728489
13301.973511	3893.351833	723.874023	76.670784
13301.973511	3893.351833	722.668945	-35.462269
13301.973511	3893.351833	721.461914	76.157333
13301.973511	3893.351833	720.255859	87.595551
13301.973511	3893.351833	719.048828	116.053108
13301.973511	3893.351833	717.841797	84.863670
13301.973511	3893.351833	716.634766	113.281105
13301.973511	3893.351833	715.427734	131.030472
13301.973511	3893.351833	714.219727	176.421555
13301.973511	3893.351833	713.011719	287.732880
13301.973511	3893.351833	711.803711	167.129913
13301.973511	3893.351833	710.594727	165.654861
13301.973511	3893.351833	709.385742	208.816254
13301.973511	3893.351833	708.176758	196.675598
13301.973511	3893.351833	706.967773	144.144485
13301.973511	3893.351833	705.758789	242.486099
13301.973511	3893.351833	704.548828	221.804062
13301.973511	3893.351833	703.338867	29.073790
13301.973511	3893.351833	702.127930	57.256809
13301.973511	3893.351833	700.917969	79.044289
13301.973511	3893.351833	699.707031	92.316803
13301.973511	3893.351833	698.496094	29.170418
13301.973511	3893.351833	697.285156	72.122719
13301.973511	3893.351833	696.073242	159.589294
13301.973511	3893.351833	694.861328	119.753151
13301.973511	3893.351833	693.649414	-4.897402
13301.973511	3893.351833	692.436523	76.125450
13301.973511	3893.351833	691.224609	140.143921
13301.973511	3893.351833	690.011719	40.952023
13301.973511	3893.351833	688.798828	123.988693
13301.973511	3893.351833	687.584961	124.366234
13301.973511	3893.351833	686.372070	126.846916
13301.973511	3893.351833	685.158203	0.156283
13301.973511	3893.351833	683.943359	169.862686
13301.973511	3893.351833	682.729492	212.498993
13301.973511	3893.351833	681.514648	238.174469
13301.973511	3893.351833	680.299805	219.398972
13301.973511	3893.351833	679.084961	198.501648
13301.973511	3893.351833	677.869141	289.672852
13301.973511	3893.351833	676.653320	285.652924
13301.973511	3893.351833	675.437500	110.408295
13301.973511	3893.351833	674.221680	292.368164
13301.973511	3893.351833	673.004883	104.489441
13301.973511	3893.351833	671.789063	244.096756
13301.973511	3893.351833	670.571289	214.673996
13301.973511	3893.351833	669.354492	170.469330
13301.973511	3893.351833	668.136719	183.266602
13301.973511	3893.351833	666.919922	20.864628
13301.973511	3893.351833	665.701172	198.252106
13301.973511	3893.351833	664.483398	128.714417
13301.973511	3893.351833	663.264648	255.353729
13301.973511	3893.351833	662.045898	93.016037
13301.973511	3893.351833	660.827148	217.473434
13301.973511	3893.351833	659.608398	225.927643
13301.973511	3893.351833	658.388672	145.849197
13301.973511	3893.351833	657.168945	118.466957
13301.973511	3893.351833	655.949219	183.773727
13301.973511	3893.351833	654.728516	194.278549
13301.973511	3893.351833	653.507813	301.628326
13301.973511	3893.351833	652.287109	373.130341
13301.973511	3893.351833	651.066406	208.848114
13301.973511	3893.351833	649.844727	145.631577
13301.973511	3893.351833	648.623047	362.253113
13301.973511	3893.351833	647.401367	254.832047
13301.973511	3893.351833	646.179688	305.172668
13301.973511	3893.351833	644.957031	389.120453
13301.973511	3893.351833	643.734375	195.534775
13301.973511	3893.351833	642.511719	300.462677
13301.973511	3893.351833	641.289063	312.877960
13301.973511	3893.351833	640.065430	356.787628
13301.973511	3893.351833	638.841797	312.451080
13301.973511	3893.351833	637.618164	297.520813
13301.973511	3893.351833	636.393555	211.201584
13301.973511	3893.351833	635.168945	297.029694
13301.973511	3893.351833	633.944336	338.739166
13301.973511	3893.351833	632.719727	246.138321
13301.973511	3893.351833	631.494141	147.271744
13301.973511	3893.351833	630.269531	98.771461
13301.973511	3893.351833	629.042969	121.571724
13301.973511	3893.351833	627.817383	-75.766701
13301.973511	3893.351833	626.590820	215.319809
13301.973511	3893.351833	625.365234	-2.929705
13301.973511	3893.351833	624.137695	-24.164082
13301.973511	3893.351833	622.911133	136.832336
13301.973511	3893.351833	621.683594	-79.198151
13301.973511	3893.351833	620.456055	-102.524315
13301.973511	3893.351833	619.228516	-6.533144
13301.973511	3893.351833	618.000977	108.244339
13301.973511	3893.351833	616.772461	130.898605
13301.973511	3893.351833	615.543945	105.420692
13301.973511	3893.351833	614.314453	46.480667
13301.973511	3893.351833	613.085938	56.563805
13301.973511	3893.351833	611.856445	89.630615
13301.973511	3893.351833	610.626953	20.258591
13301.973511	3893.351833	609.397461	178.687729
13301.973511	3893.351833	608.166992	77.972351
13301.973511	3893.351833	606.936523	-31.061956
13301.973511	3893.351833	605.706055	77.135353
13301.973511	3893.351833	604.474609	-44.393105
13301.973511	3893.351833	603.244141	21.999680
13301.973511	3893.351833	602.012695	86.270752
13301.973511	3893.351833	600.780273	-35.199745
13301.973511	3893.351833	599.548828	-0.160272
13301.973511	3893.351833	598.316406	91.173347
13301.973511	3893.351833	597.083984	88.626732
13301.973511	3893.351833	595.851563	4.768047
13301.973511	3893.351833	594.618164	135.632584
13301.973511	3893.351833	593.384766	97.638268
13301.973511	3893.351833	592.151367	-38.267338
13301.973511	3893.351833	590.917969	23.772511
13301.973511	3893.351833	589.683594	-10.017920
13301.973511	3893.351833	588.449219	-39.631821
13301.973511	3893.351833	587.214844	45.259724
13301.973511	3893.351833	585.979492	11.479138
13301.973511	3893.351833	584.745117	-103.439751
13301.973511	3893.351833	583.509766	77.104614
13301.973511	3893.351833	582.273438	-2.424063
13301.973511	3893.351833	581.038086	-56.963634
13301.973511	3893.351833	579.801758	-51.188404
13301.973511	3893.351833	578.565430	-103.616943
13301.973511	3893.351833	577.329102	114.141212
13301.973511	3893.351833	576.091797	61.699997
13301.973511	3893.351833	574.854492	-36.417641
13301.973511	3893.351833	573.617188	23.348684
13301.973511	3893.351833	572.378906	-70.563347
13301.973511	3893.351833	571.141602	-4.583298
13301.973511	3893.351833	569.903320	-56.934265
13301.973511	3893.351833	568.664063	-94.736031
13301.973511	3893.351833	567.425781	33.453911
13301.973511	3893.351833	566.186523	16.398306
13301.973511	3893.351833	564.947266	26.312469
13301.973511	3893.351833	563.708008	65.252884
13301.973511	3893.351833	562.467773	58.577171
13301.973511	3893.351833	561.227539	-14.408051
13301.973511	3893.351833	559.987305	130.200378
13301.973511	3893.351833	558.747070	-85.693916
13301.973511	3893.351833	557.505859	-9.467632
13301.973511	3893.351833	556.264648	-55.435783
13301.973511	3893.351833	555.023438	31.115330
13301.973511	3893.351833	553.781250	-60.364342
13301.973511	3893.351833	552.539063	-52.470093
13301.973511	3893.351833	551.296875	17.494682
13301.973511	3893.351833	550.054688	23.315939
13301.973511	3893.351833	548.811523	99.453407
13301.973511	3893.351833	547.569336	63.920197
13301.973511	3893.351833	546.325195	16.006031
13301.973511	3893.351833	545.082031	-29.810629
13301.973511	3893.351833	543.837891	-139.652115
13301.973511	3893.351833	542.593750	-88.306175
13301.973511	3893.351833	541.349609	-175.349686
13301.973511	3893.351833	540.105469	-107.478157
13301.973511	3893.351833	538.860352	-49.949112
13301.973511	3893.351833	537.615234	67.423271
13301.973511	3893.351833	536.369141	-0.966171
13301.973511	3893.351833	535.124023	35.905704
13301.973511	3893.351833	533.877930	-36.549633
13301.973511	3893.351833	532.631836	-45.032658
13301.973511	3893.351833	531.384766	-162.775970
13301.973511	3893.351833	530.138672	-2.172523
13301.973511	3893.351833	528.891602	12.049046
13301.973511	3893.351833	527.643555	-35.537766
13301.973511	3893.351833	526.396484	36.391754
13301.973511	3893.351833	525.148438	46.515274
13301.973511	3893.351833	523.900391	83.416870
13301.973511	3893.351833	522.652344	157.373077
13301.973511	3893.351833	521.403320	9.018036
13301.973511	3893.351833	520.154297	74.754097
13301.973511	3893.351833	518.905273	-87.892700
13301.973511	3893.351833	517.656250	-36.534042
13301.973511	3893.351833	516.406250	64.172699
13301.973511	3893.351833	515.156250	-51.035244
13301.973511	3893.351833	513.906250	27.048775
13301.973511	3893.351833	512.655273	18.796185
13301.973511	3893.351833	511.404297	33.164360
13301.973511	3893.351833	510.153320	53.704144
13301.973511	3893.351833	508.902344	-42.819279
13301.973511	3893.351833	507.650391	-61.257141
13301.973511	3893.351833	506.398438	-89.936844
13301.973511	3893.351833	505.146484	0.457526
13301.973511	3893.351833	503.893555	-63.078587
13301.973511	3893.351833	502.641602	-95.797333
13301.973511	3893.351833	501.388672	-196.176605
13301.973511	3893.351833	500.134766	-175.503540
13301.973511	3893.351833	498.881836	35.855812
13301.973511	3893.351833	497.627930	46.250248
13301.973511	3893.351833	496.374023	-47.865654
13301.973511	3893.351833	495.119141	-82.506264
13301.973511	3893.351833	493.865234	-194.961639
13301.973511	3893.351833	492.610352	-104.591957
13301.973511	3893.351833	491.355469	-73.629295
13301.973511	3893.351833	490.099609	18.750319
13301.973511	3893.351833	488.843750	-21.937712
13301.973511	3893.351833	487.587891	37.676456
13301.973511	3893.351833	486.332031	-19.338152
13301.973511	3893.351833	485.075195	140.503021
13301.973511	3893.351833	483.818359	18.074133
13301.973511	3893.351833	482.561523	-44.996300
13301.973511	3893.351833	481.304688	43.238087
13301.973511	3893.351833	480.046875	55.828678
13301.973511	3893.351833	478.789063	-78.690369
13301.973511	3893.351833	477.531250	97.367943
13301.973511	3893.351833	476.272461	-22.785408
13301.973511	3893.351833	475.013672	-46.906902
13301.973511	3893.351833	473.754883	45.356865
13301.973511	3893.351833	472.496094	-27.737404
13301.973511	3893.351833	471.236328	58.375172
13301.973511	3893.351833	469.976563	44.488232
13301.973511	3893.351833	468.716797	40.812473
13301.973511	3893.351833	467.456055	-40.350502
13301.973511	3893.351833	466.196289	-117.395775
13301.973511	3893.351833	464.935547	5.360623
13301.973511	3893.351833	463.673828	132.142441
13301.973511	3893.351833	462.413086	14.366461
13301.973511	3893.351833	461.151367	53.498787
13301.973511	3893.351833	459.889648	57.990917
13301.973511	3893.351833	458.626953	168.362946
13301.973511	3893.351833	457.364258	101.572136
13301.973511	3893.351833	456.101563	47.018719
13301.973511	3893.351833	454.838867	57.600937
13301.973511	3893.351833	453.575195	112.930969
13301.973511	3893.351833	452.312500	-29.069857
13301.973511	3893.351833	451.047852	68.943680
13301.973511	3893.351833	449.784180	109.977676
13301.973511	3893.351833	448.519531	24.955225
13301.973511	3893.351833	447.254883	94.408447
13301.973511	3893.351833	445.990234	100.830429
13301.973511	3893.351833	444.725586	78.794807
13301.973511	3893.351833	443.459961	101.431808
13301.973511	3893.351833	442.194336	213.381287
13301.973511	3893.351833	440.927734	244.058975
13301.973511	3893.351833	439.662109	195.545059
13301.973511	3893.351833	438.395508	222.107208
13301.973511	3893.351833	437.127930	193.854279
13301.973511	3893.351833	435.861328	25.632475
13301.973511	3893.351833	434.593750	50.099804
13301.973511	3893.351833	433.326172	155.620392
13301.973511	3893.351833	432.058594	184.034821
13301.973511	3893.351833	430.790039	60.407574
13301.973511	3893.351833	429.521484	179.927353
13301.973511	3893.351833	428.252930	123.120071
13301.973511	3893.351833	426.984375	86.544800
13301.973511	3893.351833	425.714844	173.449677
13301.973511	3893.351833	424.445313	240.023727
13301.973511	3893.351833	423.174805	87.931847
13301.973511	3893.351833	421.905273	211.045044
13301.973511	3893.351833	420.634766	261.216095
13301.973511	3893.351833	419.364258	115.111435
13301.973511	3893.351833	418.092773	167.176682
13301.973511	3893.351833	416.822266	194.892273
13301.973511	3893.351833	415.550781	262.949646
13301.973511	3893.351833	414.278320	88.401016
13301.973511	3893.351833	413.006836	77.504234
13301.973511	3893.351833	411.734375	70.570251
13301.973511	3893.351833	410.461914	168.570389
13301.973511	3893.351833	409.188477	163.464386
13301.973511	3893.351833	407.916016	164.326141
13301.973511	3893.351833	406.642578	213.527222
13301.973511	3893.351833	405.368164	248.480972
13301.973511	3893.351833	404.094727	220.779480
13301.973511	3893.351833	402.820313	140.540176
13301.973511	3893.351833	401.545898	207.425552
13301.973511	3893.351833	400.270508	221.746155
13301.973511	3893.351833	398.996094	370.985474
13301.973511	3893.351833	397.720703	213.728485
13301.973511	3893.351833	396.444336	34.244713
13301.973511	3893.351833	395.168945	197.132599
13301.973511	3893.351833	393.892578	91.966461
13301.973511	3893.351833	392.616211	208.173828
13301.973511	3893.351833	391.339844	217.492294
13301.973511	3893.351833	390.062500	252.810684
13301.973511	3893.351833	388.785156	112.900253
13301.973511	3893.351833	387.507813	-55.280605
13301.973511	3893.351833	386.229492	21.803656
13301.973511	3893.351833	384.951172	128.836853
13301.973511	3893.351833	383.672852	127.080223
13301.973511	3893.351833	382.394531	197.489197
13301.973511	3893.351833	381.115234	147.098236
13301.973511	3893.351833	379.835938	122.642906
13301.973511	3893.351833	378.556641	69.866821
13301.973511	3893.351833	377.277344	-59.413322
13301.973511	3893.351833	375.997070	60.091572
13301.973511	3893.351833	374.716797	22.745066
13301.973511	3893.351833	373.435547	57.418114
13301.973511	3893.351833	372.155273	75.784050
13301.973511	3893.351833	370.874023	53.764133
13301.973511	3893.351833	369.591797	-74.805908
13301.973511	3893.351833	368.310547	-47.185661
13301.973511	3893.351833	367.028320	-29.882769
13301.973511	3893.351833	365.746094	-115.088181
13301.973511	3893.351833	364.463867	-46.257732
13301.973511	3893.351833	363.180664	-37.866177
13301.973511	3893.351833	361.897461	-43.808922
13301.973511	3893.351833	360.614258	44.048492
13301.973511	3893.351833	359.330078	-22.625404
13301.973511	3893.351833	358.045898	-67.590607
13301.973511	3893.351833	356.761719	-60.852356
13301.973511	3893.351833	355.477539	-150.509323
13301.973511	3893.351833	354.192383	27.538826
13301.973511	3893.351833	352.907227	43.143681
13301.973511	3893.351833	351.622070	-83.604553
13301.973511	3893.351833	350.336914	29.184931
13301.973511	3893.351833	349.050781	-54.350449
13301.973511	3893.351833	347.764648	23.579731
13301.973511	3893.351833	346.477539	69.073746
13301.973511	3893.351833	345.191406	166.045517
13301.973511	3893.351833	343.904297	72.814804
13301.973511	3893.351833	342.616211	64.993767
13301.973511	3893.351833	341.329102	22.779943
13301.973511	3893.351833	340.041016	97.820435
13301.973511	3893.351833	338.752930	-104.988083
13301.973511	3893.351833	337.463867	-44.941502
13301.973511	3893.351833	336.175781	116.269135
13301.973511	3893.351833	334.886719	-60.088497
13301.973511	3893.351833	333.596680	-49.563190
13301.973511	3893.351833	332.307617	-85.431190
13301.973511	3893.351833	331.017578	-54.134064
13301.973511	3893.351833	329.727539	-71.254059
13301.973511	3893.351833	328.436523	-17.293409
13301.973511	3893.351833	327.146484	145.549835
13301.973511	3893.351833	325.855469	-130.291077
13301.973511	3893.351833	324.563477	82.928474
13301.973511	3893.351833	323.272461	-26.953300
13301.973511	3893.351833	321.980469	69.410095
13301.973511	3893.351833	320.688477	67.570641
13301.973511	3893.351833	319.395508	-76.191704
13301.973511	3893.351833	318.103516	-75.473183
13301.973511	3893.351833	316.810547	-81.487801
13301.973511	3893.351833	315.516602	-68.416931
13301.973511	3893.351833	314.223633	53.158352
13301.973511	3893.351833	312.929688	-64.509064
13301.973511	3893.351833	311.635742	23.591093
13301.973511	3893.351833	310.340820	81.007050
13301.973511	3893.351833	309.045898	-9.357276
13301.973511	3893.351833	307.750977	135.612030
13301.973511	3893.351833	306.456055	370.893799
13301.973511	3893.351833	305.160156	160.765289
13301.973511	3893.351833	303.865234	360.368378
13301.973511	3893.351833	302.568359	140.479614
13301.973511	3893.351833	301.272461	282.527863
13301.973511	3893.351833	299.975586	215.371246
13301.973511	3893.351833	298.678711	278.008636
