#X		#Y		#Wave		#Intensity
12479.600000	3943.894833	1999.980469	-267.077454
12479.600000	3943.894833	1999.016602	-233.937332
12479.600000	3943.894833	1998.052734	-267.382843
12479.600000	3943.894833	1997.087891	-309.820923
12479.600000	3943.894833	1996.123047	-267.076874
12479.600000	3943.894833	1995.158203	-45.014614
12479.600000	3943.894833	1994.193359	-0.339951
12479.600000	3943.894833	1993.228516	137.005997
12479.600000	3943.894833	1992.262695	-29.098974
12479.600000	3943.894833	1991.297852	145.117447
12479.600000	3943.894833	1990.332031	-48.282013
12479.600000	3943.894833	1989.366211	71.405777
12479.600000	3943.894833	1988.399414	311.088074
12479.600000	3943.894833	1987.433594	104.273369
12479.600000	3943.894833	1986.466797	-7.123758
12479.600000	3943.894833	1985.500977	-45.392731
12479.600000	3943.894833	1984.534180	31.509581
12479.600000	3943.894833	1983.567383	268.035522
12479.600000	3943.894833	1982.599609	155.062317
12479.600000	3943.894833	1981.632813	191.906219
12479.600000	3943.894833	1980.665039	346.414551
12479.600000	3943.894833	1979.697266	72.708496
12479.600000	3943.894833	1978.729492	-1.710764
12479.600000	3943.894833	1977.761719	78.637634
12479.600000	3943.894833	1976.792969	138.435654
12479.600000	3943.894833	1975.825195	145.639023
12479.600000	3943.894833	1974.856445	46.021965
12479.600000	3943.894833	1973.887695	298.554901
12479.600000	3943.894833	1972.918945	190.207214
12479.600000	3943.894833	1971.949219	81.270126
12479.600000	3943.894833	1970.980469	358.897064
12479.600000	3943.894833	1970.010742	342.474213
12479.600000	3943.894833	1969.041016	362.482635
12479.600000	3943.894833	1968.071289	266.134491
12479.600000	3943.894833	1967.101563	309.767151
12479.600000	3943.894833	1966.130859	163.218430
12479.600000	3943.894833	1965.161133	306.911804
12479.600000	3943.894833	1964.190430	75.811363
12479.600000	3943.894833	1963.219727	277.716858
12479.600000	3943.894833	1962.249023	178.844421
12479.600000	3943.894833	1961.277344	278.990692
12479.600000	3943.894833	1960.306641	120.390778
12479.600000	3943.894833	1959.334961	303.492188
12479.600000	3943.894833	1958.363281	198.426712
12479.600000	3943.894833	1957.391602	430.041473
12479.600000	3943.894833	1956.419922	267.884155
12479.600000	3943.894833	1955.447266	284.991364
12479.600000	3943.894833	1954.474609	314.150299
12479.600000	3943.894833	1953.501953	200.545715
12479.600000	3943.894833	1952.529297	307.919495
12479.600000	3943.894833	1951.556641	356.108765
12479.600000	3943.894833	1950.583984	205.165863
12479.600000	3943.894833	1949.610352	171.986633
12479.600000	3943.894833	1948.636719	185.328125
12479.600000	3943.894833	1947.663086	-59.211800
12479.600000	3943.894833	1946.689453	91.369499
12479.600000	3943.894833	1945.715820	217.256851
12479.600000	3943.894833	1944.741211	109.925224
12479.600000	3943.894833	1943.767578	-193.665375
12479.600000	3943.894833	1942.792969	47.232166
12479.600000	3943.894833	1941.818359	417.943878
12479.600000	3943.894833	1940.842773	278.538574
12479.600000	3943.894833	1939.868164	112.200562
12479.600000	3943.894833	1938.892578	107.635925
12479.600000	3943.894833	1937.916992	-7.199887
12479.600000	3943.894833	1936.941406	-134.243973
12479.600000	3943.894833	1935.965820	191.881592
12479.600000	3943.894833	1934.990234	118.742867
12479.600000	3943.894833	1934.013672	72.570992
12479.600000	3943.894833	1933.037109	-110.635521
12479.600000	3943.894833	1932.060547	149.252762
12479.600000	3943.894833	1931.083984	61.614899
12479.600000	3943.894833	1930.107422	-248.576645
12479.600000	3943.894833	1929.129883	65.146118
12479.600000	3943.894833	1928.153320	36.438190
12479.600000	3943.894833	1927.175781	335.453247
12479.600000	3943.894833	1926.198242	-59.870510
12479.600000	3943.894833	1925.219727	-39.452747
12479.600000	3943.894833	1924.242188	147.230804
12479.600000	3943.894833	1923.263672	-15.477336
12479.600000	3943.894833	1922.285156	137.103729
12479.600000	3943.894833	1921.306641	28.382168
12479.600000	3943.894833	1920.328125	-104.617897
12479.600000	3943.894833	1919.349609	-195.957596
12479.600000	3943.894833	1918.370117	-362.841095
12479.600000	3943.894833	1917.391602	-12.128359
12479.600000	3943.894833	1916.412109	21.332300
12479.600000	3943.894833	1915.431641	137.836502
12479.600000	3943.894833	1914.452148	117.827538
12479.600000	3943.894833	1913.472656	-126.427109
12479.600000	3943.894833	1912.492188	-209.546432
12479.600000	3943.894833	1911.511719	-175.494171
12479.600000	3943.894833	1910.531250	-231.516266
12479.600000	3943.894833	1909.550781	-316.637177
12479.600000	3943.894833	1908.569336	0.418306
12479.600000	3943.894833	1907.588867	120.166306
12479.600000	3943.894833	1906.607422	-125.354530
12479.600000	3943.894833	1905.625977	6.792376
12479.600000	3943.894833	1904.644531	-335.749512
12479.600000	3943.894833	1903.662109	-337.251190
12479.600000	3943.894833	1902.680664	-231.531830
12479.600000	3943.894833	1901.698242	-300.933258
12479.600000	3943.894833	1900.715820	82.331116
12479.600000	3943.894833	1899.733398	-120.638115
12479.600000	3943.894833	1898.750000	26.787189
12479.600000	3943.894833	1897.767578	-44.549149
12479.600000	3943.894833	1896.784180	-64.694595
12479.600000	3943.894833	1895.800781	-130.895233
12479.600000	3943.894833	1894.817383	-65.725075
12479.600000	3943.894833	1893.833984	-141.385208
12479.600000	3943.894833	1892.850586	67.315727
12479.600000	3943.894833	1891.866211	-258.289246
12479.600000	3943.894833	1890.881836	-102.851784
12479.600000	3943.894833	1889.897461	-12.919229
12479.600000	3943.894833	1888.913086	-39.433540
12479.600000	3943.894833	1887.927734	-68.268776
12479.600000	3943.894833	1886.943359	2.500824
12479.600000	3943.894833	1885.958008	-431.289307
12479.600000	3943.894833	1884.972656	47.208813
12479.600000	3943.894833	1883.987305	130.317291
12479.600000	3943.894833	1883.001953	-123.553925
12479.600000	3943.894833	1882.015625	-57.247719
12479.600000	3943.894833	1881.029297	-7.853421
12479.600000	3943.894833	1880.042969	157.922409
12479.600000	3943.894833	1879.056641	78.996178
12479.600000	3943.894833	1878.070313	-334.125946
12479.600000	3943.894833	1877.083984	-386.148804
12479.600000	3943.894833	1876.096680	-137.825455
12479.600000	3943.894833	1875.109375	-105.011826
12479.600000	3943.894833	1874.122070	-173.821182
12479.600000	3943.894833	1873.134766	18.826525
12479.600000	3943.894833	1872.146484	63.842228
12479.600000	3943.894833	1871.159180	120.985786
12479.600000	3943.894833	1870.170898	-97.602554
12479.600000	3943.894833	1869.182617	-110.511810
12479.600000	3943.894833	1868.194336	-210.427856
12479.600000	3943.894833	1867.205078	-58.871471
12479.600000	3943.894833	1866.216797	-262.642029
12479.600000	3943.894833	1865.227539	-256.083496
12479.600000	3943.894833	1864.238281	175.718536
12479.600000	3943.894833	1863.249023	-175.296951
12479.600000	3943.894833	1862.259766	2.748401
12479.600000	3943.894833	1861.269531	-99.385094
12479.600000	3943.894833	1860.279297	-131.468689
12479.600000	3943.894833	1859.290039	56.113037
12479.600000	3943.894833	1858.298828	130.173355
12479.600000	3943.894833	1857.308594	93.200417
12479.600000	3943.894833	1856.318359	-42.692055
12479.600000	3943.894833	1855.327148	183.236526
12479.600000	3943.894833	1854.335938	-107.025429
12479.600000	3943.894833	1853.344727	-9.025499
12479.600000	3943.894833	1852.353516	-41.276146
12479.600000	3943.894833	1851.362305	256.634003
12479.600000	3943.894833	1850.370117	91.708984
12479.600000	3943.894833	1849.377930	-51.525555
12479.600000	3943.894833	1848.385742	200.283157
12479.600000	3943.894833	1847.393555	-97.178123
12479.600000	3943.894833	1846.401367	46.054722
12479.600000	3943.894833	1845.408203	95.264717
12479.600000	3943.894833	1844.415039	151.598892
12479.600000	3943.894833	1843.421875	130.818253
12479.600000	3943.894833	1842.428711	141.236572
12479.600000	3943.894833	1841.435547	293.495728
12479.600000	3943.894833	1840.441406	142.536606
12479.600000	3943.894833	1839.448242	174.301590
12479.600000	3943.894833	1838.454102	112.174927
12479.600000	3943.894833	1837.459961	343.232086
12479.600000	3943.894833	1836.464844	18.894058
12479.600000	3943.894833	1835.470703	235.229126
12479.600000	3943.894833	1834.475586	223.113007
12479.600000	3943.894833	1833.480469	290.143127
12479.600000	3943.894833	1832.485352	140.869781
12479.600000	3943.894833	1831.490234	116.374573
12479.600000	3943.894833	1830.495117	199.778198
12479.600000	3943.894833	1829.499023	321.401306
12479.600000	3943.894833	1828.502930	296.439789
12479.600000	3943.894833	1827.506836	259.336731
12479.600000	3943.894833	1826.510742	500.359406
12479.600000	3943.894833	1825.513672	263.829956
12479.600000	3943.894833	1824.517578	178.304474
12479.600000	3943.894833	1823.520508	178.941055
12479.600000	3943.894833	1822.523438	155.430862
12479.600000	3943.894833	1821.526367	347.445740
12479.600000	3943.894833	1820.529297	105.495369
12479.600000	3943.894833	1819.531250	424.037903
12479.600000	3943.894833	1818.533203	169.800507
12479.600000	3943.894833	1817.535156	327.369232
12479.600000	3943.894833	1816.537109	420.031311
12479.600000	3943.894833	1815.539063	323.335846
12479.600000	3943.894833	1814.540039	310.230438
12479.600000	3943.894833	1813.541992	387.861481
12479.600000	3943.894833	1812.542969	281.012543
12479.600000	3943.894833	1811.543945	164.416412
12479.600000	3943.894833	1810.543945	313.104004
12479.600000	3943.894833	1809.544922	411.303741
12479.600000	3943.894833	1808.544922	337.094543
12479.600000	3943.894833	1807.544922	222.044250
12479.600000	3943.894833	1806.544922	379.243347
12479.600000	3943.894833	1805.544922	457.292236
12479.600000	3943.894833	1804.544922	229.285492
12479.600000	3943.894833	1803.543945	309.221619
12479.600000	3943.894833	1802.542969	126.195267
12479.600000	3943.894833	1801.541992	298.734741
12479.600000	3943.894833	1800.541016	-75.699898
12479.600000	3943.894833	1799.539063	222.779770
12479.600000	3943.894833	1798.538086	160.577805
12479.600000	3943.894833	1797.536133	241.268631
12479.600000	3943.894833	1796.534180	13.954543
12479.600000	3943.894833	1795.532227	249.123245
12479.600000	3943.894833	1794.529297	23.720779
12479.600000	3943.894833	1793.527344	382.216583
12479.600000	3943.894833	1792.524414	27.612514
12479.600000	3943.894833	1791.521484	249.565201
12479.600000	3943.894833	1790.518555	294.838074
12479.600000	3943.894833	1789.514648	411.256989
12479.600000	3943.894833	1788.511719	374.933105
12479.600000	3943.894833	1787.507813	131.145172
12479.600000	3943.894833	1786.503906	249.041748
12479.600000	3943.894833	1785.500000	154.749847
12479.600000	3943.894833	1784.496094	222.029388
12479.600000	3943.894833	1783.491211	274.693298
12479.600000	3943.894833	1782.486328	255.668808
12479.600000	3943.894833	1781.481445	17.520723
12479.600000	3943.894833	1780.476563	145.388138
12479.600000	3943.894833	1779.471680	68.425827
12479.600000	3943.894833	1778.465820	269.299133
12479.600000	3943.894833	1777.460938	77.641724
12479.600000	3943.894833	1776.455078	118.607780
12479.600000	3943.894833	1775.449219	228.146545
12479.600000	3943.894833	1774.442383	90.270142
12479.600000	3943.894833	1773.436523	18.651934
12479.600000	3943.894833	1772.429688	-105.512993
12479.600000	3943.894833	1771.422852	73.929199
12479.600000	3943.894833	1770.416016	215.008896
12479.600000	3943.894833	1769.409180	184.852295
12479.600000	3943.894833	1768.402344	104.560226
12479.600000	3943.894833	1767.394531	173.408829
12479.600000	3943.894833	1766.386719	106.719772
12479.600000	3943.894833	1765.378906	200.984741
12479.600000	3943.894833	1764.371094	181.088058
12479.600000	3943.894833	1763.362305	141.890869
12479.600000	3943.894833	1762.354492	31.308256
12479.600000	3943.894833	1761.345703	126.570473
12479.600000	3943.894833	1760.336914	-50.973183
12479.600000	3943.894833	1759.328125	3.354924
12479.600000	3943.894833	1758.318359	-23.208307
12479.600000	3943.894833	1757.308594	-142.425751
12479.600000	3943.894833	1756.299805	-136.434006
12479.600000	3943.894833	1755.290039	70.388474
12479.600000	3943.894833	1754.279297	-111.306625
12479.600000	3943.894833	1753.269531	-73.201660
12479.600000	3943.894833	1752.258789	2.387757
12479.600000	3943.894833	1751.249023	115.489609
12479.600000	3943.894833	1750.238281	-379.499908
12479.600000	3943.894833	1749.226563	-7.016690
12479.600000	3943.894833	1748.215820	64.840370
12479.600000	3943.894833	1747.204102	-177.989243
12479.600000	3943.894833	1746.193359	11.365662
12479.600000	3943.894833	1745.181641	68.009506
12479.600000	3943.894833	1744.168945	-41.049889
12479.600000	3943.894833	1743.157227	147.177826
12479.600000	3943.894833	1742.144531	-19.159597
12479.600000	3943.894833	1741.132813	118.783028
12479.600000	3943.894833	1740.120117	-64.644478
12479.600000	3943.894833	1739.106445	20.648071
12479.600000	3943.894833	1738.093750	-153.886734
12479.600000	3943.894833	1737.080078	-114.058853
12479.600000	3943.894833	1736.067383	149.509445
12479.600000	3943.894833	1735.053711	28.305984
12479.600000	3943.894833	1734.040039	71.853600
12479.600000	3943.894833	1733.025391	-474.186951
12479.600000	3943.894833	1732.011719	-181.392471
12479.600000	3943.894833	1730.997070	-197.689255
12479.600000	3943.894833	1729.982422	-301.439819
12479.600000	3943.894833	1728.967773	-103.999794
12479.600000	3943.894833	1727.952148	-236.627487
12479.600000	3943.894833	1726.937500	-211.736435
12479.600000	3943.894833	1725.921875	-90.683189
12479.600000	3943.894833	1724.906250	-14.687967
12479.600000	3943.894833	1723.890625	-221.361954
12479.600000	3943.894833	1722.875000	-42.453018
12479.600000	3943.894833	1721.858398	-73.263733
12479.600000	3943.894833	1720.841797	-12.643866
12479.600000	3943.894833	1719.825195	245.154984
12479.600000	3943.894833	1718.808594	-181.460526
12479.600000	3943.894833	1717.791992	-32.404015
12479.600000	3943.894833	1716.774414	-78.748627
12479.600000	3943.894833	1715.756836	123.669167
12479.600000	3943.894833	1714.739258	-35.985962
12479.600000	3943.894833	1713.721680	-5.635241
12479.600000	3943.894833	1712.704102	-6.090467
12479.600000	3943.894833	1711.685547	-23.285145
12479.600000	3943.894833	1710.667969	109.509148
12479.600000	3943.894833	1709.649414	-65.452431
12479.600000	3943.894833	1708.630859	-24.762094
12479.600000	3943.894833	1707.611328	13.268955
12479.600000	3943.894833	1706.592773	-244.431519
12479.600000	3943.894833	1705.573242	90.905571
12479.600000	3943.894833	1704.553711	-366.519836
12479.600000	3943.894833	1703.534180	-83.351173
12479.600000	3943.894833	1702.513672	-58.353657
12479.600000	3943.894833	1701.494141	-232.718170
12479.600000	3943.894833	1700.473633	-180.070190
12479.600000	3943.894833	1699.453125	10.504427
12479.600000	3943.894833	1698.432617	-108.321136
12479.600000	3943.894833	1697.412109	-96.223259
12479.600000	3943.894833	1696.390625	-84.395882
12479.600000	3943.894833	1695.369141	-30.671940
12479.600000	3943.894833	1694.347656	100.026222
12479.600000	3943.894833	1693.326172	-230.399506
12479.600000	3943.894833	1692.304688	-221.765945
12479.600000	3943.894833	1691.282227	193.507599
12479.600000	3943.894833	1690.260742	-121.007164
12479.600000	3943.894833	1689.238281	158.099457
12479.600000	3943.894833	1688.214844	168.086441
12479.600000	3943.894833	1687.192383	-53.412804
12479.600000	3943.894833	1686.168945	173.492905
12479.600000	3943.894833	1685.146484	414.181885
12479.600000	3943.894833	1684.123047	276.224365
12479.600000	3943.894833	1683.099609	271.229492
12479.600000	3943.894833	1682.075195	273.018951
12479.600000	3943.894833	1681.051758	118.298569
12479.600000	3943.894833	1680.027344	119.772285
12479.600000	3943.894833	1679.002930	291.393707
12479.600000	3943.894833	1677.978516	873.330811
12479.600000	3943.894833	1676.953125	577.939880
12479.600000	3943.894833	1675.928711	611.324829
12479.600000	3943.894833	1674.903320	786.711670
12479.600000	3943.894833	1673.877930	668.199463
12479.600000	3943.894833	1672.852539	1143.837158
12479.600000	3943.894833	1671.826172	1143.798828
12479.600000	3943.894833	1670.800781	1350.996460
12479.600000	3943.894833	1669.774414	1227.215576
12479.600000	3943.894833	1668.748047	1231.426880
12479.600000	3943.894833	1667.721680	1198.261475
12479.600000	3943.894833	1666.694336	1507.117798
12479.600000	3943.894833	1665.667969	1450.406860
12479.600000	3943.894833	1664.640625	1803.077515
12479.600000	3943.894833	1663.613281	1715.827393
12479.600000	3943.894833	1662.585938	1854.118042
12479.600000	3943.894833	1661.557617	1789.900146
12479.600000	3943.894833	1660.530273	2109.280762
12479.600000	3943.894833	1659.501953	2140.159424
12479.600000	3943.894833	1658.473633	2280.173828
12479.600000	3943.894833	1657.444336	2275.938721
12479.600000	3943.894833	1656.416016	2578.336914
12479.600000	3943.894833	1655.386719	2655.193604
12479.600000	3943.894833	1654.358398	3019.961914
12479.600000	3943.894833	1653.328125	3502.848389
12479.600000	3943.894833	1652.298828	2957.153320
12479.600000	3943.894833	1651.269531	3388.733643
12479.600000	3943.894833	1650.239258	3288.653076
12479.600000	3943.894833	1649.208984	3443.772705
12479.600000	3943.894833	1648.178711	3816.829102
12479.600000	3943.894833	1647.148438	4089.981201
12479.600000	3943.894833	1646.117188	4307.298340
12479.600000	3943.894833	1645.086914	4693.779785
12479.600000	3943.894833	1644.055664	4931.701172
12479.600000	3943.894833	1643.024414	5190.366211
12479.600000	3943.894833	1641.992188	5499.838867
12479.600000	3943.894833	1640.960938	6110.366699
12479.600000	3943.894833	1639.928711	6092.963379
12479.600000	3943.894833	1638.896484	6466.895508
12479.600000	3943.894833	1637.864258	6574.443848
12479.600000	3943.894833	1636.832031	7341.635742
12479.600000	3943.894833	1635.798828	7057.839844
12479.600000	3943.894833	1634.766602	7570.150391
12479.600000	3943.894833	1633.733398	8066.042969
12479.600000	3943.894833	1632.699219	8420.632813
12479.600000	3943.894833	1631.666016	8224.803711
12479.600000	3943.894833	1630.632813	8704.177734
12479.600000	3943.894833	1629.598633	9335.916992
12479.600000	3943.894833	1628.564453	9274.130859
12479.600000	3943.894833	1627.530273	9683.777344
12479.600000	3943.894833	1626.495117	10056.310547
12479.600000	3943.894833	1625.460938	10421.866211
12479.600000	3943.894833	1624.425781	10263.088867
12479.600000	3943.894833	1623.390625	10713.962891
12479.600000	3943.894833	1622.355469	10453.751953
12479.600000	3943.894833	1621.319336	10569.858398
12479.600000	3943.894833	1620.284180	11163.689453
12479.600000	3943.894833	1619.248047	11362.822266
12479.600000	3943.894833	1618.211914	11066.048828
12479.600000	3943.894833	1617.174805	11329.825195
12479.600000	3943.894833	1616.138672	11270.838867
12479.600000	3943.894833	1615.101563	11779.016602
12479.600000	3943.894833	1614.065430	12022.095703
12479.600000	3943.894833	1613.027344	12336.530273
12479.600000	3943.894833	1611.990234	12604.916992
12479.600000	3943.894833	1610.953125	13057.592773
12479.600000	3943.894833	1609.915039	12662.665039
12479.600000	3943.894833	1608.876953	13345.604492
12479.600000	3943.894833	1607.838867	13402.234375
12479.600000	3943.894833	1606.800781	13873.271484
12479.600000	3943.894833	1605.761719	13575.617188
12479.600000	3943.894833	1604.723633	13556.655273
12479.600000	3943.894833	1603.684570	13655.112305
12479.600000	3943.894833	1602.644531	13866.332031
12479.600000	3943.894833	1601.605469	14148.948242
12479.600000	3943.894833	1600.566406	13712.039063
12479.600000	3943.894833	1599.526367	13845.444336
12479.600000	3943.894833	1598.486328	14178.894531
12479.600000	3943.894833	1597.446289	14117.198242
12479.600000	3943.894833	1596.405273	13759.321289
12479.600000	3943.894833	1595.365234	13663.625977
12479.600000	3943.894833	1594.324219	13774.774414
12479.600000	3943.894833	1593.283203	14000.858398
12479.600000	3943.894833	1592.242188	13673.855469
12479.600000	3943.894833	1591.200195	13730.387695
12479.600000	3943.894833	1590.159180	13823.841797
12479.600000	3943.894833	1589.117188	13697.199219
12479.600000	3943.894833	1588.075195	13536.407227
12479.600000	3943.894833	1587.032227	12816.323242
12479.600000	3943.894833	1585.990234	13151.406250
12479.600000	3943.894833	1584.947266	12904.306641
12479.600000	3943.894833	1583.904297	12877.537109
12479.600000	3943.894833	1582.861328	12828.089844
12479.600000	3943.894833	1581.818359	12751.397461
12479.600000	3943.894833	1580.775391	12679.549805
12479.600000	3943.894833	1579.731445	12688.078125
12479.600000	3943.894833	1578.687500	12543.438477
12479.600000	3943.894833	1577.643555	12163.327148
12479.600000	3943.894833	1576.598633	11939.197266
12479.600000	3943.894833	1575.554688	12351.564453
12479.600000	3943.894833	1574.509766	11979.289063
12479.600000	3943.894833	1573.464844	11573.104492
12479.600000	3943.894833	1572.419922	11487.500977
12479.600000	3943.894833	1571.374023	11427.310547
12479.600000	3943.894833	1570.329102	11310.298828
12479.600000	3943.894833	1569.283203	10974.156250
12479.600000	3943.894833	1568.237305	11072.584961
12479.600000	3943.894833	1567.191406	11084.437500
12479.600000	3943.894833	1566.144531	10616.854492
12479.600000	3943.894833	1565.098633	10499.187500
12479.600000	3943.894833	1564.051758	10178.606445
12479.600000	3943.894833	1563.004883	10077.591797
12479.600000	3943.894833	1561.957031	9924.386719
12479.600000	3943.894833	1560.910156	9899.358398
12479.600000	3943.894833	1559.862305	9566.609375
12479.600000	3943.894833	1558.814453	9781.736328
12479.600000	3943.894833	1557.766602	9219.414063
12479.600000	3943.894833	1556.718750	9204.854492
12479.600000	3943.894833	1555.669922	8875.983398
12479.600000	3943.894833	1554.621094	8900.838867
12479.600000	3943.894833	1553.573242	8853.112305
12479.600000	3943.894833	1552.523438	8778.324219
12479.600000	3943.894833	1551.474609	8453.357422
12479.600000	3943.894833	1550.424805	8313.284180
12479.600000	3943.894833	1549.375000	8540.191406
12479.600000	3943.894833	1548.325195	8098.043457
12479.600000	3943.894833	1547.275391	7863.524902
12479.600000	3943.894833	1546.225586	7536.140625
12479.600000	3943.894833	1545.174805	7489.040039
12479.600000	3943.894833	1544.124023	7371.791016
12479.600000	3943.894833	1543.073242	7257.207520
12479.600000	3943.894833	1542.022461	6820.127930
12479.600000	3943.894833	1540.970703	6765.476563
12479.600000	3943.894833	1539.919922	6574.853516
12479.600000	3943.894833	1538.868164	6402.815430
12479.600000	3943.894833	1537.815430	6481.100098
12479.600000	3943.894833	1536.763672	6284.876465
12479.600000	3943.894833	1535.710938	6213.983887
12479.600000	3943.894833	1534.659180	5880.109863
12479.600000	3943.894833	1533.606445	5726.055664
12479.600000	3943.894833	1532.552734	5592.838867
12479.600000	3943.894833	1531.500000	5770.973633
12479.600000	3943.894833	1530.446289	5570.480469
12479.600000	3943.894833	1529.393555	5071.027832
12479.600000	3943.894833	1528.338867	5513.333008
12479.600000	3943.894833	1527.285156	5237.046387
12479.600000	3943.894833	1526.231445	5067.804688
12479.600000	3943.894833	1525.176758	4830.993652
12479.600000	3943.894833	1524.122070	4884.738770
12479.600000	3943.894833	1523.067383	4938.851074
12479.600000	3943.894833	1522.012695	4775.858398
12479.600000	3943.894833	1520.957031	4520.440918
12479.600000	3943.894833	1519.901367	4684.437988
12479.600000	3943.894833	1518.845703	4278.241699
12479.600000	3943.894833	1517.790039	4413.587891
12479.600000	3943.894833	1516.734375	4144.184570
12479.600000	3943.894833	1515.677734	4192.039063
12479.600000	3943.894833	1514.621094	3921.305908
12479.600000	3943.894833	1513.564453	3506.331299
12479.600000	3943.894833	1512.507813	3833.632324
12479.600000	3943.894833	1511.450195	3824.323242
12479.600000	3943.894833	1510.393555	3578.098389
12479.600000	3943.894833	1509.335938	3375.303467
12479.600000	3943.894833	1508.278320	3304.048340
12479.600000	3943.894833	1507.219727	2923.724609
12479.600000	3943.894833	1506.162109	2871.478271
12479.600000	3943.894833	1505.103516	2864.813965
12479.600000	3943.894833	1504.044922	2747.937500
12479.600000	3943.894833	1502.986328	2457.713379
12479.600000	3943.894833	1501.926758	2158.977783
12479.600000	3943.894833	1500.868164	2048.071533
12479.600000	3943.894833	1499.808594	2111.320068
12479.600000	3943.894833	1498.749023	1899.794312
12479.600000	3943.894833	1497.688477	1907.495850
12479.600000	3943.894833	1496.628906	1884.065430
12479.600000	3943.894833	1495.568359	1640.145508
12479.600000	3943.894833	1494.507813	1529.713379
12479.600000	3943.894833	1493.447266	1449.040771
12479.600000	3943.894833	1492.386719	1503.989502
12479.600000	3943.894833	1491.325195	1633.659302
12479.600000	3943.894833	1490.263672	1085.877197
12479.600000	3943.894833	1489.202148	1157.889771
12479.600000	3943.894833	1488.140625	1029.958618
12479.600000	3943.894833	1487.079102	895.751831
12479.600000	3943.894833	1486.016602	942.025269
12479.600000	3943.894833	1484.954102	763.740662
12479.600000	3943.894833	1483.891602	689.415649
12479.600000	3943.894833	1482.829102	491.860535
12479.600000	3943.894833	1481.765625	213.850281
12479.600000	3943.894833	1480.702148	-0.690323
12479.600000	3943.894833	1479.638672	-84.378662
12479.600000	3943.894833	1478.575195	290.742035
12479.600000	3943.894833	1477.511719	304.409760
12479.600000	3943.894833	1476.447266	78.270256
12479.600000	3943.894833	1475.382813	258.910278
12479.600000	3943.894833	1474.318359	36.057884
12479.600000	3943.894833	1473.253906	168.097412
12479.600000	3943.894833	1472.189453	-83.166954
12479.600000	3943.894833	1471.124023	-134.136505
12479.600000	3943.894833	1470.058594	-144.396622
12479.600000	3943.894833	1468.993164	-151.881516
12479.600000	3943.894833	1467.927734	217.306580
12479.600000	3943.894833	1466.861328	100.740479
12479.600000	3943.894833	1465.794922	-51.147411
12479.600000	3943.894833	1464.728516	128.419464
12479.600000	3943.894833	1463.662109	114.284065
12479.600000	3943.894833	1462.594727	151.827209
12479.600000	3943.894833	1461.528320	-188.289200
12479.600000	3943.894833	1460.460938	93.324623
12479.600000	3943.894833	1459.393555	-23.421005
12479.600000	3943.894833	1458.326172	52.531506
12479.600000	3943.894833	1457.257813	351.476837
12479.600000	3943.894833	1456.189453	333.628723
12479.600000	3943.894833	1455.121094	264.601288
12479.600000	3943.894833	1454.052734	208.215622
12479.600000	3943.894833	1452.984375	380.253754
12479.600000	3943.894833	1451.915039	172.392944
12479.600000	3943.894833	1450.845703	372.848724
12479.600000	3943.894833	1449.776367	229.819031
12479.600000	3943.894833	1448.707031	72.960709
12479.600000	3943.894833	1447.636719	-159.576874
12479.600000	3943.894833	1446.567383	98.327621
12479.600000	3943.894833	1445.497070	262.361298
12479.600000	3943.894833	1444.425781	322.473022
12479.600000	3943.894833	1443.355469	445.746643
12479.600000	3943.894833	1442.285156	587.484436
12479.600000	3943.894833	1441.213867	620.593628
12479.600000	3943.894833	1440.142578	782.385254
12479.600000	3943.894833	1439.070313	885.155884
12479.600000	3943.894833	1437.999023	941.303833
12479.600000	3943.894833	1436.926758	1129.525757
12479.600000	3943.894833	1435.854492	1153.021729
12479.600000	3943.894833	1434.782227	1090.838745
12479.600000	3943.894833	1433.709961	1022.307190
12479.600000	3943.894833	1432.636719	983.518311
12479.600000	3943.894833	1431.563477	1232.262573
12479.600000	3943.894833	1430.490234	1312.090698
12479.600000	3943.894833	1429.416992	905.971558
12479.600000	3943.894833	1428.343750	829.467529
12479.600000	3943.894833	1427.269531	1425.275269
12479.600000	3943.894833	1426.195313	802.384399
12479.600000	3943.894833	1425.121094	492.249786
12479.600000	3943.894833	1424.046875	549.369324
12479.600000	3943.894833	1422.971680	636.784729
12479.600000	3943.894833	1421.896484	802.774963
12479.600000	3943.894833	1420.821289	745.677734
12479.600000	3943.894833	1419.746094	579.395142
12479.600000	3943.894833	1418.669922	563.239563
12479.600000	3943.894833	1417.594727	593.183350
12479.600000	3943.894833	1416.518555	555.142822
12479.600000	3943.894833	1415.442383	335.422241
12479.600000	3943.894833	1414.365234	554.337097
12479.600000	3943.894833	1413.289063	589.616821
12479.600000	3943.894833	1412.211914	482.629395
12479.600000	3943.894833	1411.134766	699.984314
12479.600000	3943.894833	1410.057617	1000.569763
12479.600000	3943.894833	1408.979492	742.659729
12479.600000	3943.894833	1407.902344	423.792847
12479.600000	3943.894833	1406.824219	803.135132
12479.600000	3943.894833	1405.746094	1306.114502
12479.600000	3943.894833	1404.666992	1212.840332
12479.600000	3943.894833	1403.588867	911.541748
12479.600000	3943.894833	1402.509766	1520.188110
12479.600000	3943.894833	1401.430664	1583.750854
12479.600000	3943.894833	1400.351563	1589.118164
12479.600000	3943.894833	1399.271484	1415.472656
12479.600000	3943.894833	1398.192383	1192.929443
12479.600000	3943.894833	1397.112305	1696.671387
12479.600000	3943.894833	1396.031250	1617.651733
12479.600000	3943.894833	1394.951172	1760.926880
12479.600000	3943.894833	1393.871094	1811.979126
12479.600000	3943.894833	1392.790039	1929.399048
12479.600000	3943.894833	1391.708984	1722.278442
12479.600000	3943.894833	1390.626953	1650.382324
12479.600000	3943.894833	1389.545898	1968.191895
12479.600000	3943.894833	1388.463867	1906.050903
12479.600000	3943.894833	1387.381836	1574.747192
12479.600000	3943.894833	1386.299805	1940.516113
12479.600000	3943.894833	1385.217773	2031.622314
12479.600000	3943.894833	1384.134766	1825.580444
12479.600000	3943.894833	1383.051758	2036.708374
12479.600000	3943.894833	1381.968750	2269.991455
12479.600000	3943.894833	1380.885742	2124.610352
12479.600000	3943.894833	1379.802734	2483.341309
12479.600000	3943.894833	1378.718750	2397.905029
12479.600000	3943.894833	1377.634766	2621.375977
12479.600000	3943.894833	1376.550781	3031.685059
12479.600000	3943.894833	1375.465820	2888.609863
12479.600000	3943.894833	1374.381836	2662.765381
12479.600000	3943.894833	1373.296875	2575.243896
12479.600000	3943.894833	1372.211914	3260.550537
12479.600000	3943.894833	1371.126953	3160.658691
12479.600000	3943.894833	1370.041016	2958.400146
12479.600000	3943.894833	1368.955078	2761.239990
12479.600000	3943.894833	1367.869141	2993.526855
12479.600000	3943.894833	1366.783203	3246.079346
12479.600000	3943.894833	1365.697266	2613.607666
12479.600000	3943.894833	1364.610352	2631.515137
12479.600000	3943.894833	1363.523438	3035.284668
12479.600000	3943.894833	1362.436523	2794.553955
12479.600000	3943.894833	1361.349609	2786.228027
12479.600000	3943.894833	1360.261719	2898.337891
12479.600000	3943.894833	1359.174805	2781.232178
12479.600000	3943.894833	1358.086914	3049.032715
12479.600000	3943.894833	1356.998047	3038.869629
12479.600000	3943.894833	1355.910156	2830.740723
12479.600000	3943.894833	1354.821289	3078.851074
12479.600000	3943.894833	1353.732422	3117.842529
12479.600000	3943.894833	1352.643555	3094.578857
12479.600000	3943.894833	1351.554688	3540.201416
12479.600000	3943.894833	1350.464844	3308.799561
12479.600000	3943.894833	1349.375000	3303.279541
12479.600000	3943.894833	1348.285156	3148.856934
12479.600000	3943.894833	1347.195313	2969.415283
12479.600000	3943.894833	1346.105469	2909.373047
12479.600000	3943.894833	1345.014648	3183.292969
12479.600000	3943.894833	1343.923828	3183.010498
12479.600000	3943.894833	1342.833008	2821.709717
12479.600000	3943.894833	1341.741211	2658.793701
12479.600000	3943.894833	1340.650391	2727.942871
12479.600000	3943.894833	1339.558594	2196.206787
12479.600000	3943.894833	1338.466797	2304.738281
12479.600000	3943.894833	1337.374023	2128.263428
12479.600000	3943.894833	1336.282227	2343.728760
12479.600000	3943.894833	1335.189453	1938.464600
12479.600000	3943.894833	1334.096680	1956.685547
12479.600000	3943.894833	1333.003906	2068.550781
12479.600000	3943.894833	1331.910156	1909.102661
12479.600000	3943.894833	1330.817383	1805.986450
12479.600000	3943.894833	1329.723633	1824.025269
12479.600000	3943.894833	1328.629883	1724.947266
12479.600000	3943.894833	1327.535156	1788.410767
12479.600000	3943.894833	1326.441406	1734.817749
12479.600000	3943.894833	1325.346680	1521.601807
12479.600000	3943.894833	1324.251953	1588.703247
12479.600000	3943.894833	1323.156250	1340.972534
12479.600000	3943.894833	1322.061523	1634.841675
12479.600000	3943.894833	1320.965820	1468.520874
12479.600000	3943.894833	1319.870117	1500.182251
12479.600000	3943.894833	1318.774414	1572.811035
12479.600000	3943.894833	1317.678711	1311.095337
12479.600000	3943.894833	1316.582031	1119.384155
12479.600000	3943.894833	1315.485352	1162.618896
12479.600000	3943.894833	1314.388672	1319.378662
12479.600000	3943.894833	1313.291016	1131.231079
12479.600000	3943.894833	1312.194336	1072.995850
12479.600000	3943.894833	1311.096680	1316.618530
12479.600000	3943.894833	1309.999023	1383.022827
12479.600000	3943.894833	1308.901367	678.313171
12479.600000	3943.894833	1307.802734	1168.868286
12479.600000	3943.894833	1306.705078	763.061523
12479.600000	3943.894833	1305.606445	1042.656006
12479.600000	3943.894833	1304.506836	911.324341
12479.600000	3943.894833	1303.408203	1224.924072
12479.600000	3943.894833	1302.308594	811.886536
12479.600000	3943.894833	1301.208984	1129.062622
12479.600000	3943.894833	1300.109375	1015.955078
12479.600000	3943.894833	1299.009766	1180.955322
12479.600000	3943.894833	1297.909180	973.194763
12479.600000	3943.894833	1296.808594	1164.293701
12479.600000	3943.894833	1295.708008	1345.667114
12479.600000	3943.894833	1294.607422	1205.962280
12479.600000	3943.894833	1293.506836	601.287415
12479.600000	3943.894833	1292.405273	940.883545
12479.600000	3943.894833	1291.303711	886.185303
12479.600000	3943.894833	1290.202148	880.304993
12479.600000	3943.894833	1289.099609	739.651489
12479.600000	3943.894833	1287.998047	593.757385
12479.600000	3943.894833	1286.895508	790.935791
12479.600000	3943.894833	1285.792969	667.433899
12479.600000	3943.894833	1284.689453	575.219299
12479.600000	3943.894833	1283.586914	728.916443
12479.600000	3943.894833	1282.483398	688.311035
12479.600000	3943.894833	1281.379883	687.910156
12479.600000	3943.894833	1280.276367	763.279358
12479.600000	3943.894833	1279.171875	801.231934
12479.600000	3943.894833	1278.067383	847.032776
12479.600000	3943.894833	1276.962891	880.395874
12479.600000	3943.894833	1275.858398	907.589905
12479.600000	3943.894833	1274.753906	1055.115967
12479.600000	3943.894833	1273.648438	859.398865
12479.600000	3943.894833	1272.542969	1061.055054
12479.600000	3943.894833	1271.437500	985.812256
12479.600000	3943.894833	1270.331055	1145.798340
12479.600000	3943.894833	1269.225586	1107.265259
12479.600000	3943.894833	1268.119141	834.742554
12479.600000	3943.894833	1267.012695	894.485962
12479.600000	3943.894833	1265.906250	737.711426
12479.600000	3943.894833	1264.798828	655.990051
12479.600000	3943.894833	1263.691406	555.122437
12479.600000	3943.894833	1262.583984	379.721252
12479.600000	3943.894833	1261.476563	291.711578
12479.600000	3943.894833	1260.368164	423.633118
12479.600000	3943.894833	1259.260742	182.621521
12479.600000	3943.894833	1258.152344	179.948120
12479.600000	3943.894833	1257.043945	164.536926
12479.600000	3943.894833	1255.934570	180.269318
12479.600000	3943.894833	1254.825195	191.444427
12479.600000	3943.894833	1253.716797	344.484711
12479.600000	3943.894833	1252.606445	397.632629
12479.600000	3943.894833	1251.497070	229.355804
12479.600000	3943.894833	1250.387695	204.689835
12479.600000	3943.894833	1249.277344	484.017792
12479.600000	3943.894833	1248.166992	322.272095
12479.600000	3943.894833	1247.055664	133.816193
12479.600000	3943.894833	1245.945313	73.271790
12479.600000	3943.894833	1244.833984	244.074966
12479.600000	3943.894833	1243.722656	7.896875
12479.600000	3943.894833	1242.611328	77.350533
12479.600000	3943.894833	1241.499023	40.920120
12479.600000	3943.894833	1240.387695	-137.592010
12479.600000	3943.894833	1239.275391	-98.461418
12479.600000	3943.894833	1238.162109	-182.266693
12479.600000	3943.894833	1237.049805	-266.167755
12479.600000	3943.894833	1235.936523	-161.145721
12479.600000	3943.894833	1234.823242	-191.968079
12479.600000	3943.894833	1233.709961	-167.285263
12479.600000	3943.894833	1232.596680	-198.985992
12479.600000	3943.894833	1231.482422	-359.692200
12479.600000	3943.894833	1230.369141	-301.630859
12479.600000	3943.894833	1229.253906	-465.060577
12479.600000	3943.894833	1228.139648	-338.326202
12479.600000	3943.894833	1227.025391	-234.078964
12479.600000	3943.894833	1225.910156	-309.515442
12479.600000	3943.894833	1224.794922	-442.499573
12479.600000	3943.894833	1223.679688	-257.951141
12479.600000	3943.894833	1222.563477	-358.453735
12479.600000	3943.894833	1221.447266	-260.818176
12479.600000	3943.894833	1220.331055	-90.852821
12479.600000	3943.894833	1219.214844	-28.151180
12479.600000	3943.894833	1218.098633	43.259682
12479.600000	3943.894833	1216.981445	125.791817
12479.600000	3943.894833	1215.864258	42.752308
12479.600000	3943.894833	1214.747070	219.746948
12479.600000	3943.894833	1213.629883	280.295685
12479.600000	3943.894833	1212.511719	288.189026
12479.600000	3943.894833	1211.393555	182.822571
12479.600000	3943.894833	1210.275391	220.056107
12479.600000	3943.894833	1209.157227	207.460464
12479.600000	3943.894833	1208.038086	227.126541
12479.600000	3943.894833	1206.918945	168.184875
12479.600000	3943.894833	1205.799805	409.282501
12479.600000	3943.894833	1204.680664	160.468872
12479.600000	3943.894833	1203.560547	272.791443
12479.600000	3943.894833	1202.441406	224.375687
12479.600000	3943.894833	1201.321289	89.905739
12479.600000	3943.894833	1200.200195	140.479523
12479.600000	3943.894833	1199.080078	-7.667200
12479.600000	3943.894833	1197.958984	55.158695
12479.600000	3943.894833	1196.837891	-51.086544
12479.600000	3943.894833	1195.716797	-13.634557
12479.600000	3943.894833	1194.594727	10.824887
12479.600000	3943.894833	1193.473633	-134.996277
12479.600000	3943.894833	1192.351563	-111.443336
12479.600000	3943.894833	1191.229492	-10.389280
12479.600000	3943.894833	1190.106445	-170.707977
12479.600000	3943.894833	1188.984375	-394.516235
12479.600000	3943.894833	1187.861328	-445.912476
12479.600000	3943.894833	1186.738281	-95.636086
12479.600000	3943.894833	1185.614258	-84.514610
12479.600000	3943.894833	1184.491211	-6.614708
12479.600000	3943.894833	1183.367188	-82.391350
12479.600000	3943.894833	1182.243164	15.057355
12479.600000	3943.894833	1181.119141	-34.855366
12479.600000	3943.894833	1179.994141	20.766933
12479.600000	3943.894833	1178.869141	99.373558
12479.600000	3943.894833	1177.744141	73.553604
12479.600000	3943.894833	1176.619141	85.388359
12479.600000	3943.894833	1175.493164	312.648743
12479.600000	3943.894833	1174.368164	393.386383
12479.600000	3943.894833	1173.242188	330.719849
12479.600000	3943.894833	1172.115234	395.405884
12479.600000	3943.894833	1170.989258	322.403381
12479.600000	3943.894833	1169.862305	319.005798
12479.600000	3943.894833	1168.735352	571.574280
12479.600000	3943.894833	1167.608398	310.172760
12479.600000	3943.894833	1166.481445	408.486267
12479.600000	3943.894833	1165.353516	529.858643
12479.600000	3943.894833	1164.225586	314.749542
12479.600000	3943.894833	1163.097656	415.787323
12479.600000	3943.894833	1161.968750	236.471741
12479.600000	3943.894833	1160.840820	456.903595
12479.600000	3943.894833	1159.711914	477.381348
12479.600000	3943.894833	1158.583008	504.045258
12479.600000	3943.894833	1157.453125	539.665894
12479.600000	3943.894833	1156.324219	554.925598
12479.600000	3943.894833	1155.194336	344.555176
12479.600000	3943.894833	1154.064453	263.035492
12479.600000	3943.894833	1152.933594	135.243942
12479.600000	3943.894833	1151.803711	-40.772400
12479.600000	3943.894833	1150.672852	158.649643
12479.600000	3943.894833	1149.541992	72.700623
12479.600000	3943.894833	1148.411133	221.280807
12479.600000	3943.894833	1147.279297	140.495438
12479.600000	3943.894833	1146.147461	187.518036
12479.600000	3943.894833	1145.015625	340.289978
12479.600000	3943.894833	1143.883789	195.209671
12479.600000	3943.894833	1142.750977	520.612183
12479.600000	3943.894833	1141.619141	462.167053
12479.600000	3943.894833	1140.486328	573.052124
12479.600000	3943.894833	1139.352539	568.579407
12479.600000	3943.894833	1138.219727	545.073792
12479.600000	3943.894833	1137.085938	519.964172
12479.600000	3943.894833	1135.952148	945.509766
12479.600000	3943.894833	1134.818359	813.398315
12479.600000	3943.894833	1133.683594	991.229309
12479.600000	3943.894833	1132.549805	1132.356689
12479.600000	3943.894833	1131.415039	1208.502808
12479.600000	3943.894833	1130.279297	1509.966064
12479.600000	3943.894833	1129.144531	1580.929688
12479.600000	3943.894833	1128.008789	1518.058350
12479.600000	3943.894833	1126.873047	1263.515137
12479.600000	3943.894833	1125.737305	1214.372803
12479.600000	3943.894833	1124.601563	1015.490784
12479.600000	3943.894833	1123.464844	880.930298
12479.600000	3943.894833	1122.328125	817.714539
12479.600000	3943.894833	1121.191406	682.318604
12479.600000	3943.894833	1120.054688	588.104187
12479.600000	3943.894833	1118.916992	514.580933
12479.600000	3943.894833	1117.779297	538.042419
12479.600000	3943.894833	1116.641602	526.229370
12479.600000	3943.894833	1115.503906	231.066025
12479.600000	3943.894833	1114.365234	178.292023
12479.600000	3943.894833	1113.226563	-10.522995
12479.600000	3943.894833	1112.087891	81.762146
12479.600000	3943.894833	1110.949219	-48.307102
12479.600000	3943.894833	1109.809570	-212.714417
12479.600000	3943.894833	1108.669922	-106.772194
12479.600000	3943.894833	1107.530273	-143.274750
12479.600000	3943.894833	1106.390625	-195.164856
12479.600000	3943.894833	1105.250000	-346.186523
12479.600000	3943.894833	1104.109375	-39.448315
12479.600000	3943.894833	1102.968750	-36.123394
12479.600000	3943.894833	1101.828125	203.177582
12479.600000	3943.894833	1100.686523	123.243187
12479.600000	3943.894833	1099.544922	87.112083
12479.600000	3943.894833	1098.403320	112.296707
12479.600000	3943.894833	1097.261719	411.247009
12479.600000	3943.894833	1096.120117	547.367981
12479.600000	3943.894833	1094.977539	377.674133
12479.600000	3943.894833	1093.834961	529.372864
12479.600000	3943.894833	1092.691406	233.523300
12479.600000	3943.894833	1091.548828	442.333710
12479.600000	3943.894833	1090.405273	386.179138
12479.600000	3943.894833	1089.261719	114.369324
12479.600000	3943.894833	1088.118164	105.172646
12479.600000	3943.894833	1086.973633	241.213882
12479.600000	3943.894833	1085.829102	278.994659
12479.600000	3943.894833	1084.684570	482.254181
12479.600000	3943.894833	1083.540039	572.981506
12479.600000	3943.894833	1082.395508	492.456940
12479.600000	3943.894833	1081.250000	508.413849
12479.600000	3943.894833	1080.104492	628.157410
12479.600000	3943.894833	1078.958984	669.419128
12479.600000	3943.894833	1077.812500	687.804932
12479.600000	3943.894833	1076.666016	824.851013
12479.600000	3943.894833	1075.519531	891.238037
12479.600000	3943.894833	1074.373047	628.539185
12479.600000	3943.894833	1073.226563	606.673462
12479.600000	3943.894833	1072.079102	634.566528
12479.600000	3943.894833	1070.931641	509.243591
12479.600000	3943.894833	1069.784180	435.240784
12479.600000	3943.894833	1068.635742	311.479523
12479.600000	3943.894833	1067.487305	533.596802
12479.600000	3943.894833	1066.338867	594.337769
12479.600000	3943.894833	1065.190430	375.639008
12479.600000	3943.894833	1064.041992	568.288635
12479.600000	3943.894833	1062.892578	639.935913
12479.600000	3943.894833	1061.743164	561.380676
12479.600000	3943.894833	1060.593750	668.588867
12479.600000	3943.894833	1059.443359	343.918243
12479.600000	3943.894833	1058.292969	348.249207
12479.600000	3943.894833	1057.142578	361.076935
12479.600000	3943.894833	1055.992188	248.207214
12479.600000	3943.894833	1054.841797	260.889160
12479.600000	3943.894833	1053.690430	363.302246
12479.600000	3943.894833	1052.539063	139.266968
12479.600000	3943.894833	1051.387695	310.635956
12479.600000	3943.894833	1050.235352	-111.171394
12479.600000	3943.894833	1049.083984	-19.312954
12479.600000	3943.894833	1047.931641	123.296867
12479.600000	3943.894833	1046.778320	47.434189
12479.600000	3943.894833	1045.625977	162.086456
12479.600000	3943.894833	1044.472656	13.842409
12479.600000	3943.894833	1043.319336	-121.904190
12479.600000	3943.894833	1042.166016	96.464966
12479.600000	3943.894833	1041.012695	0.224418
12479.600000	3943.894833	1039.858398	39.640129
12479.600000	3943.894833	1038.704102	247.784073
12479.600000	3943.894833	1037.549805	-99.746925
12479.600000	3943.894833	1036.394531	-191.103271
12479.600000	3943.894833	1035.239258	-122.359116
12479.600000	3943.894833	1034.083984	-60.708652
12479.600000	3943.894833	1032.928711	127.054321
12479.600000	3943.894833	1031.773438	4.727789
12479.600000	3943.894833	1030.617188	54.832661
12479.600000	3943.894833	1029.460938	-128.817917
12479.600000	3943.894833	1028.304688	-18.886913
12479.600000	3943.894833	1027.147461	-138.976776
12479.600000	3943.894833	1025.991211	74.735878
12479.600000	3943.894833	1024.833984	53.056614
12479.600000	3943.894833	1023.675781	141.609268
12479.600000	3943.894833	1022.518555	155.700302
12479.600000	3943.894833	1021.360352	-171.484512
12479.600000	3943.894833	1020.202148	37.661770
12479.600000	3943.894833	1019.043945	186.177353
12479.600000	3943.894833	1017.884766	158.128860
12479.600000	3943.894833	1016.726563	205.144043
12479.600000	3943.894833	1015.567383	144.851013
12479.600000	3943.894833	1014.407227	11.842337
12479.600000	3943.894833	1013.248047	-37.376652
12479.600000	3943.894833	1012.087891	-171.033936
12479.600000	3943.894833	1010.927734	98.939140
12479.600000	3943.894833	1009.767578	150.022156
12479.600000	3943.894833	1008.606445	215.224274
12479.600000	3943.894833	1007.446289	36.030247
12479.600000	3943.894833	1006.285156	273.254089
12479.600000	3943.894833	1005.123047	117.976631
12479.600000	3943.894833	1003.961914	269.573822
12479.600000	3943.894833	1002.799805	521.964539
12479.600000	3943.894833	1001.637695	463.024811
12479.600000	3943.894833	1000.475586	260.052551
12479.600000	3943.894833	999.312500	487.774811
12479.600000	3943.894833	998.149414	641.112854
12479.600000	3943.894833	996.986328	343.591064
12479.600000	3943.894833	995.823242	31.362757
12479.600000	3943.894833	994.659180	-5.774991
12479.600000	3943.894833	993.496094	35.844315
12479.600000	3943.894833	992.332031	-63.641342
12479.600000	3943.894833	991.166992	-15.725405
12479.600000	3943.894833	990.002930	131.729797
12479.600000	3943.894833	988.837891	70.734772
12479.600000	3943.894833	987.672852	-40.722198
12479.600000	3943.894833	986.506836	-165.911102
12479.600000	3943.894833	985.341797	-134.576462
12479.600000	3943.894833	984.175781	-25.852966
12479.600000	3943.894833	983.009766	-39.533333
12479.600000	3943.894833	981.843750	262.646973
12479.600000	3943.894833	980.676758	52.544533
12479.600000	3943.894833	979.509766	186.679321
12479.600000	3943.894833	978.342773	329.464264
12479.600000	3943.894833	977.175781	186.499847
12479.600000	3943.894833	976.007813	424.028961
12479.600000	3943.894833	974.839844	346.487885
12479.600000	3943.894833	973.671875	336.156677
12479.600000	3943.894833	972.503906	386.075226
12479.600000	3943.894833	971.334961	373.650177
12479.600000	3943.894833	970.166016	11.523129
12479.600000	3943.894833	968.997070	202.513153
12479.600000	3943.894833	967.828125	-47.466900
12479.600000	3943.894833	966.658203	215.502991
12479.600000	3943.894833	965.488281	-206.327942
12479.600000	3943.894833	964.318359	-91.296906
12479.600000	3943.894833	963.148438	260.305756
12479.600000	3943.894833	961.977539	163.573608
12479.600000	3943.894833	960.806641	22.648655
12479.600000	3943.894833	959.635742	-55.154018
12479.600000	3943.894833	958.463867	-143.889542
12479.600000	3943.894833	957.292969	-287.594299
12479.600000	3943.894833	956.121094	-120.980812
12479.600000	3943.894833	954.948242	-32.410027
12479.600000	3943.894833	953.776367	-107.777359
12479.600000	3943.894833	952.603516	-86.065308
12479.600000	3943.894833	951.430664	-18.316977
12479.600000	3943.894833	950.257813	-173.660751
12479.600000	3943.894833	949.084961	-148.853958
12479.600000	3943.894833	947.911133	189.117950
12479.600000	3943.894833	946.737305	284.008881
12479.600000	3943.894833	945.563477	533.907166
12479.600000	3943.894833	944.388672	110.387711
12479.600000	3943.894833	943.213867	148.813904
12479.600000	3943.894833	942.039063	414.910797
12479.600000	3943.894833	940.864258	374.897522
12479.600000	3943.894833	939.688477	549.635803
12479.600000	3943.894833	938.513672	662.374023
12479.600000	3943.894833	937.337891	485.882019
12479.600000	3943.894833	936.161133	671.179443
12479.600000	3943.894833	934.985352	580.895935
12479.600000	3943.894833	933.808594	749.134766
12479.600000	3943.894833	932.631836	589.058716
12479.600000	3943.894833	931.454102	834.931152
12479.600000	3943.894833	930.277344	605.266968
12479.600000	3943.894833	929.099609	1084.534180
12479.600000	3943.894833	927.921875	707.327148
12479.600000	3943.894833	926.743164	738.739258
12479.600000	3943.894833	925.565430	786.789612
12479.600000	3943.894833	924.386719	673.541382
12479.600000	3943.894833	923.208008	557.470093
12479.600000	3943.894833	922.028320	549.733215
12479.600000	3943.894833	920.849609	341.932190
12479.600000	3943.894833	919.669922	343.108307
12479.600000	3943.894833	919.474609	145.440979
12479.600000	3943.894833	918.309570	429.081055
12479.600000	3943.894833	917.143555	185.117859
12479.600000	3943.894833	915.977539	-11.629182
12479.600000	3943.894833	914.810547	-22.446369
12479.600000	3943.894833	913.644531	241.323044
12479.600000	3943.894833	912.477539	91.645332
12479.600000	3943.894833	911.310547	149.947540
12479.600000	3943.894833	910.143555	-160.584808
12479.600000	3943.894833	908.975586	-146.734421
12479.600000	3943.894833	907.807617	-35.955059
12479.600000	3943.894833	906.639648	94.112648
12479.600000	3943.894833	905.471680	-30.804802
12479.600000	3943.894833	904.303711	-260.984802
12479.600000	3943.894833	903.134766	1.773892
12479.600000	3943.894833	901.965820	45.642799
12479.600000	3943.894833	900.796875	-156.925079
12479.600000	3943.894833	899.626953	-88.265762
12479.600000	3943.894833	898.457031	-22.465483
12479.600000	3943.894833	897.287109	-56.344692
12479.600000	3943.894833	896.117188	59.072998
12479.600000	3943.894833	894.947266	8.467100
12479.600000	3943.894833	893.776367	-155.535858
12479.600000	3943.894833	892.605469	100.603088
12479.600000	3943.894833	891.434570	49.819283
12479.600000	3943.894833	890.262695	322.254669
12479.600000	3943.894833	889.091797	221.589401
12479.600000	3943.894833	887.919922	479.933716
12479.600000	3943.894833	886.748047	503.397125
12479.600000	3943.894833	885.575195	689.664246
12479.600000	3943.894833	884.403320	605.294556
12479.600000	3943.894833	883.230469	945.860657
12479.600000	3943.894833	882.057617	775.804260
12479.600000	3943.894833	880.883789	509.200348
12479.600000	3943.894833	879.710938	650.802185
12479.600000	3943.894833	878.537109	640.621277
12479.600000	3943.894833	877.362305	481.508636
12479.600000	3943.894833	876.188477	573.204163
12479.600000	3943.894833	875.013672	358.914337
12479.600000	3943.894833	873.839844	775.549194
12479.600000	3943.894833	872.664063	464.751129
12479.600000	3943.894833	871.489258	324.751862
12479.600000	3943.894833	870.313477	457.317902
12479.600000	3943.894833	869.138672	234.644836
12479.600000	3943.894833	867.962891	466.104370
12479.600000	3943.894833	866.786133	356.186066
12479.600000	3943.894833	865.610352	628.642517
12479.600000	3943.894833	864.433594	460.821594
12479.600000	3943.894833	863.256836	449.739960
12479.600000	3943.894833	862.079102	287.365967
12479.600000	3943.894833	860.902344	64.507355
12479.600000	3943.894833	859.724609	83.509499
12479.600000	3943.894833	858.546875	275.529907
12479.600000	3943.894833	857.368164	319.042480
12479.600000	3943.894833	856.190430	-22.066431
12479.600000	3943.894833	855.011719	-137.944199
12479.600000	3943.894833	853.833008	221.111816
12479.600000	3943.894833	852.654297	-56.883350
12479.600000	3943.894833	851.474609	159.133698
12479.600000	3943.894833	850.294922	-256.093201
12479.600000	3943.894833	849.115234	-215.861542
12479.600000	3943.894833	847.935547	235.667877
12479.600000	3943.894833	846.754883	127.536682
12479.600000	3943.894833	845.575195	-57.398956
12479.600000	3943.894833	844.393555	-58.706493
12479.600000	3943.894833	843.212891	-82.022911
12479.600000	3943.894833	842.032227	-272.548859
12479.600000	3943.894833	840.850586	-123.418922
12479.600000	3943.894833	839.668945	-133.287140
12479.600000	3943.894833	838.486328	-36.456184
12479.600000	3943.894833	837.304688	5.491621
12479.600000	3943.894833	836.122070	-10.150055
12479.600000	3943.894833	834.939453	-97.029129
12479.600000	3943.894833	833.756836	-194.908035
12479.600000	3943.894833	832.573242	-90.433601
12479.600000	3943.894833	831.389648	-262.308228
12479.600000	3943.894833	830.206055	-207.270920
12479.600000	3943.894833	829.022461	-253.498184
12479.600000	3943.894833	827.838867	-62.027843
12479.600000	3943.894833	826.654297	-209.569656
12479.600000	3943.894833	825.469727	17.123568
12479.600000	3943.894833	824.284180	-163.357300
12479.600000	3943.894833	823.099609	43.916985
12479.600000	3943.894833	821.914063	-166.732513
12479.600000	3943.894833	820.728516	-142.646179
12479.600000	3943.894833	819.542969	-197.816971
12479.600000	3943.894833	818.356445	-163.031372
12479.600000	3943.894833	817.169922	-191.111969
12479.600000	3943.894833	815.983398	-69.278244
12479.600000	3943.894833	814.796875	-56.677452
12479.600000	3943.894833	813.609375	-349.541748
12479.600000	3943.894833	812.422852	-91.788033
12479.600000	3943.894833	811.235352	-38.645607
12479.600000	3943.894833	810.046875	14.359127
12479.600000	3943.894833	808.859375	113.544167
12479.600000	3943.894833	807.670898	68.224617
12479.600000	3943.894833	806.482422	229.754456
12479.600000	3943.894833	805.293945	233.205215
12479.600000	3943.894833	804.104492	114.051033
12479.600000	3943.894833	802.915039	226.136429
12479.600000	3943.894833	801.725586	536.669617
12479.600000	3943.894833	800.536133	428.056183
12479.600000	3943.894833	799.345703	599.480835
12479.600000	3943.894833	798.155273	520.563782
12479.600000	3943.894833	796.964844	577.482056
12479.600000	3943.894833	795.774414	253.754562
12479.600000	3943.894833	794.583008	239.805801
12479.600000	3943.894833	793.392578	223.028534
12479.600000	3943.894833	792.200195	257.730896
12479.600000	3943.894833	791.008789	42.462723
12479.600000	3943.894833	789.816406	389.171112
12479.600000	3943.894833	788.625000	100.423409
12479.600000	3943.894833	787.432617	-33.642262
12479.600000	3943.894833	786.239258	-140.655762
12479.600000	3943.894833	785.046875	-179.924149
12479.600000	3943.894833	783.853516	-232.872360
12479.600000	3943.894833	782.660156	118.111450
12479.600000	3943.894833	781.465820	116.366852
12479.600000	3943.894833	780.272461	-170.109604
12479.600000	3943.894833	779.078125	-23.007322
12479.600000	3943.894833	777.883789	-130.786301
12479.600000	3943.894833	776.688477	146.000107
12479.600000	3943.894833	775.494141	-124.535454
12479.600000	3943.894833	774.298828	216.852341
12479.600000	3943.894833	773.103516	124.811386
12479.600000	3943.894833	771.907227	-210.930817
12479.600000	3943.894833	770.711914	156.913101
12479.600000	3943.894833	769.515625	-22.051014
12479.600000	3943.894833	768.318359	120.799034
12479.600000	3943.894833	767.122070	147.171204
12479.600000	3943.894833	765.924805	100.383636
12479.600000	3943.894833	764.727539	-73.579010
12479.600000	3943.894833	763.530273	-82.744568
12479.600000	3943.894833	762.333008	75.484154
12479.600000	3943.894833	761.134766	182.165817
12479.600000	3943.894833	759.936523	159.012100
12479.600000	3943.894833	758.738281	124.924957
12479.600000	3943.894833	757.540039	-146.879257
12479.600000	3943.894833	756.340820	-38.121578
12479.600000	3943.894833	755.141602	105.529358
12479.600000	3943.894833	753.942383	-10.049875
12479.600000	3943.894833	752.742188	165.608841
12479.600000	3943.894833	751.541992	25.489595
12479.600000	3943.894833	750.341797	114.486580
12479.600000	3943.894833	749.141602	98.160042
12479.600000	3943.894833	747.941406	302.712799
12479.600000	3943.894833	746.740234	186.339066
12479.600000	3943.894833	745.539063	-70.236221
12479.600000	3943.894833	744.337891	163.400772
12479.600000	3943.894833	743.135742	-397.692780
12479.600000	3943.894833	741.933594	-105.156754
12479.600000	3943.894833	740.731445	-76.708138
12479.600000	3943.894833	739.529297	-366.011169
12479.600000	3943.894833	738.326172	-141.397736
12479.600000	3943.894833	737.124023	-89.194855
12479.600000	3943.894833	735.919922	46.195557
12479.600000	3943.894833	734.716797	-98.287704
12479.600000	3943.894833	733.513672	-41.212894
12479.600000	3943.894833	732.309570	-54.213158
12479.600000	3943.894833	731.105469	18.639236
12479.600000	3943.894833	729.900391	88.611336
12479.600000	3943.894833	728.696289	110.061462
12479.600000	3943.894833	727.491211	246.828339
12479.600000	3943.894833	726.286133	61.156662
12479.600000	3943.894833	725.080078	181.453705
12479.600000	3943.894833	723.874023	-84.969154
12479.600000	3943.894833	722.668945	131.627670
12479.600000	3943.894833	721.461914	-30.351135
12479.600000	3943.894833	720.255859	-157.528748
12479.600000	3943.894833	719.048828	-99.765182
12479.600000	3943.894833	717.841797	215.228165
12479.600000	3943.894833	716.634766	-6.214508
12479.600000	3943.894833	715.427734	80.508583
12479.600000	3943.894833	714.219727	81.282387
12479.600000	3943.894833	713.011719	47.075756
12479.600000	3943.894833	711.803711	165.408524
12479.600000	3943.894833	710.594727	130.882156
12479.600000	3943.894833	709.385742	192.608490
12479.600000	3943.894833	708.176758	192.589844
12479.600000	3943.894833	706.967773	-59.149971
12479.600000	3943.894833	705.758789	-32.657410
12479.600000	3943.894833	704.548828	84.615791
12479.600000	3943.894833	703.338867	-111.237358
12479.600000	3943.894833	702.127930	259.721863
12479.600000	3943.894833	700.917969	130.455200
12479.600000	3943.894833	699.707031	-124.549080
12479.600000	3943.894833	698.496094	291.167786
12479.600000	3943.894833	697.285156	14.569260
12479.600000	3943.894833	696.073242	119.910019
12479.600000	3943.894833	694.861328	-196.905441
12479.600000	3943.894833	693.649414	140.443817
12479.600000	3943.894833	692.436523	-11.037759
12479.600000	3943.894833	691.224609	-111.870834
12479.600000	3943.894833	690.011719	184.771088
12479.600000	3943.894833	688.798828	249.041229
12479.600000	3943.894833	687.584961	46.396774
12479.600000	3943.894833	686.372070	27.716490
12479.600000	3943.894833	685.158203	438.140564
12479.600000	3943.894833	683.943359	-140.707504
12479.600000	3943.894833	682.729492	138.711945
12479.600000	3943.894833	681.514648	194.038513
12479.600000	3943.894833	680.299805	217.238800
12479.600000	3943.894833	679.084961	442.706299
12479.600000	3943.894833	677.869141	598.692505
12479.600000	3943.894833	676.653320	514.875305
12479.600000	3943.894833	675.437500	771.654114
12479.600000	3943.894833	674.221680	626.360046
12479.600000	3943.894833	673.004883	542.168091
12479.600000	3943.894833	671.789063	731.879578
12479.600000	3943.894833	670.571289	495.831757
12479.600000	3943.894833	669.354492	283.701324
12479.600000	3943.894833	668.136719	677.610229
12479.600000	3943.894833	666.919922	786.862732
12479.600000	3943.894833	665.701172	712.558655
12479.600000	3943.894833	664.483398	624.895386
12479.600000	3943.894833	663.264648	877.101685
12479.600000	3943.894833	662.045898	486.442841
12479.600000	3943.894833	660.827148	401.146667
12479.600000	3943.894833	659.608398	427.247620
12479.600000	3943.894833	658.388672	461.161987
12479.600000	3943.894833	657.168945	492.288330
12479.600000	3943.894833	655.949219	178.428696
12479.600000	3943.894833	654.728516	442.737518
12479.600000	3943.894833	653.507813	452.264008
12479.600000	3943.894833	652.287109	549.157959
12479.600000	3943.894833	651.066406	497.469604
12479.600000	3943.894833	649.844727	185.979980
12479.600000	3943.894833	648.623047	470.617676
12479.600000	3943.894833	647.401367	532.524719
12479.600000	3943.894833	646.179688	506.907654
12479.600000	3943.894833	644.957031	573.844177
12479.600000	3943.894833	643.734375	365.345215
12479.600000	3943.894833	642.511719	146.244324
12479.600000	3943.894833	641.289063	128.228500
12479.600000	3943.894833	640.065430	472.527618
12479.600000	3943.894833	638.841797	575.895142
12479.600000	3943.894833	637.618164	546.904846
12479.600000	3943.894833	636.393555	404.128265
12479.600000	3943.894833	635.168945	549.426514
12479.600000	3943.894833	633.944336	380.094147
12479.600000	3943.894833	632.719727	614.978394
12479.600000	3943.894833	631.494141	316.066589
12479.600000	3943.894833	630.269531	582.377075
12479.600000	3943.894833	629.042969	391.657501
12479.600000	3943.894833	627.817383	417.419250
12479.600000	3943.894833	626.590820	158.023788
12479.600000	3943.894833	625.365234	183.655991
12479.600000	3943.894833	624.137695	657.642883
12479.600000	3943.894833	622.911133	216.121613
12479.600000	3943.894833	621.683594	207.162155
12479.600000	3943.894833	620.456055	250.858917
12479.600000	3943.894833	619.228516	167.938126
12479.600000	3943.894833	618.000977	266.819427
12479.600000	3943.894833	616.772461	167.956268
12479.600000	3943.894833	615.543945	-38.941483
12479.600000	3943.894833	614.314453	107.073715
12479.600000	3943.894833	613.085938	-65.630516
12479.600000	3943.894833	611.856445	132.847015
12479.600000	3943.894833	610.626953	120.614792
12479.600000	3943.894833	609.397461	176.740845
12479.600000	3943.894833	608.166992	40.707668
12479.600000	3943.894833	606.936523	-245.257019
12479.600000	3943.894833	605.706055	-36.760983
12479.600000	3943.894833	604.474609	-162.341385
12479.600000	3943.894833	603.244141	48.567253
12479.600000	3943.894833	602.012695	38.551018
12479.600000	3943.894833	600.780273	67.878990
12479.600000	3943.894833	599.548828	84.028900
12479.600000	3943.894833	598.316406	-291.233673
12479.600000	3943.894833	597.083984	-138.585068
12479.600000	3943.894833	595.851563	34.956696
12479.600000	3943.894833	594.618164	-376.960327
12479.600000	3943.894833	593.384766	-581.434326
12479.600000	3943.894833	592.151367	-292.619995
12479.600000	3943.894833	590.917969	-187.584335
12479.600000	3943.894833	589.683594	-247.870758
12479.600000	3943.894833	588.449219	-140.362625
12479.600000	3943.894833	587.214844	64.054779
12479.600000	3943.894833	585.979492	-282.044983
12479.600000	3943.894833	584.745117	-119.676018
12479.600000	3943.894833	583.509766	155.219513
12479.600000	3943.894833	582.273438	-15.310267
12479.600000	3943.894833	581.038086	-159.589966
12479.600000	3943.894833	579.801758	146.445877
12479.600000	3943.894833	578.565430	-115.668190
12479.600000	3943.894833	577.329102	258.215576
12479.600000	3943.894833	576.091797	119.088356
12479.600000	3943.894833	574.854492	66.316742
12479.600000	3943.894833	573.617188	363.991669
12479.600000	3943.894833	572.378906	300.668732
12479.600000	3943.894833	571.141602	370.695068
12479.600000	3943.894833	569.903320	197.588852
12479.600000	3943.894833	568.664063	139.489716
12479.600000	3943.894833	567.425781	253.842361
12479.600000	3943.894833	566.186523	511.764465
12479.600000	3943.894833	564.947266	270.792236
12479.600000	3943.894833	563.708008	609.506531
12479.600000	3943.894833	562.467773	556.503601
12479.600000	3943.894833	561.227539	344.321533
12479.600000	3943.894833	559.987305	549.675781
12479.600000	3943.894833	558.747070	436.688080
12479.600000	3943.894833	557.505859	602.770874
12479.600000	3943.894833	556.264648	275.963989
12479.600000	3943.894833	555.023438	168.267838
12479.600000	3943.894833	553.781250	222.176788
12479.600000	3943.894833	552.539063	153.582016
12479.600000	3943.894833	551.296875	358.556061
12479.600000	3943.894833	550.054688	370.689026
12479.600000	3943.894833	548.811523	-39.077721
12479.600000	3943.894833	547.569336	186.607880
12479.600000	3943.894833	546.325195	216.921082
12479.600000	3943.894833	545.082031	327.911255
12479.600000	3943.894833	543.837891	-32.117355
12479.600000	3943.894833	542.593750	-25.213560
12479.600000	3943.894833	541.349609	-41.729153
12479.600000	3943.894833	540.105469	139.368774
12479.600000	3943.894833	538.860352	112.386330
12479.600000	3943.894833	537.615234	90.602531
12479.600000	3943.894833	536.369141	-76.721588
12479.600000	3943.894833	535.124023	-95.879288
12479.600000	3943.894833	533.877930	-234.543427
12479.600000	3943.894833	532.631836	-9.599376
12479.600000	3943.894833	531.384766	-280.680939
12479.600000	3943.894833	530.138672	-177.853226
12479.600000	3943.894833	528.891602	-357.980804
12479.600000	3943.894833	527.643555	-348.660492
12479.600000	3943.894833	526.396484	-271.897095
12479.600000	3943.894833	525.148438	-275.604279
12479.600000	3943.894833	523.900391	-53.742306
12479.600000	3943.894833	522.652344	-111.978615
12479.600000	3943.894833	521.403320	-372.398956
12479.600000	3943.894833	520.154297	-259.586884
12479.600000	3943.894833	518.905273	-105.397606
12479.600000	3943.894833	517.656250	-181.831085
12479.600000	3943.894833	516.406250	-372.225433
12479.600000	3943.894833	515.156250	-36.992691
12479.600000	3943.894833	513.906250	103.925537
12479.600000	3943.894833	512.655273	257.661438
12479.600000	3943.894833	511.404297	-59.615246
12479.600000	3943.894833	510.153320	3.469928
12479.600000	3943.894833	508.902344	190.623337
12479.600000	3943.894833	507.650391	111.296936
12479.600000	3943.894833	506.398438	652.394470
12479.600000	3943.894833	505.146484	609.082886
12479.600000	3943.894833	503.893555	555.374329
12479.600000	3943.894833	502.641602	597.241028
12479.600000	3943.894833	501.388672	176.657196
12479.600000	3943.894833	500.134766	339.785339
12479.600000	3943.894833	498.881836	97.445267
12479.600000	3943.894833	497.627930	25.477745
12479.600000	3943.894833	496.374023	157.342438
12479.600000	3943.894833	495.119141	121.333420
12479.600000	3943.894833	493.865234	-33.385845
12479.600000	3943.894833	492.610352	368.926819
12479.600000	3943.894833	491.355469	141.812744
12479.600000	3943.894833	490.099609	97.711731
12479.600000	3943.894833	488.843750	550.961853
12479.600000	3943.894833	487.587891	349.388367
12479.600000	3943.894833	486.332031	199.314529
12479.600000	3943.894833	485.075195	384.007355
12479.600000	3943.894833	483.818359	120.415932
12479.600000	3943.894833	482.561523	155.464630
12479.600000	3943.894833	481.304688	277.880341
12479.600000	3943.894833	480.046875	317.726013
12479.600000	3943.894833	478.789063	123.268890
12479.600000	3943.894833	477.531250	196.270569
12479.600000	3943.894833	476.272461	266.486572
12479.600000	3943.894833	475.013672	387.931976
12479.600000	3943.894833	473.754883	385.756683
12479.600000	3943.894833	472.496094	288.305634
12479.600000	3943.894833	471.236328	491.335144
12479.600000	3943.894833	469.976563	367.809387
12479.600000	3943.894833	468.716797	444.481110
12479.600000	3943.894833	467.456055	400.193542
12479.600000	3943.894833	466.196289	178.581955
12479.600000	3943.894833	464.935547	570.298584
12479.600000	3943.894833	463.673828	17.188801
12479.600000	3943.894833	462.413086	331.327698
12479.600000	3943.894833	461.151367	301.323090
12479.600000	3943.894833	459.889648	527.539429
12479.600000	3943.894833	458.626953	845.674927
12479.600000	3943.894833	457.364258	719.906677
12479.600000	3943.894833	456.101563	555.467957
12479.600000	3943.894833	454.838867	495.867554
12479.600000	3943.894833	453.575195	838.179077
12479.600000	3943.894833	452.312500	1026.381958
12479.600000	3943.894833	451.047852	986.220032
12479.600000	3943.894833	449.784180	1086.586548
12479.600000	3943.894833	448.519531	1091.833374
12479.600000	3943.894833	447.254883	692.389648
12479.600000	3943.894833	445.990234	888.899536
12479.600000	3943.894833	444.725586	570.796082
12479.600000	3943.894833	443.459961	988.963928
12479.600000	3943.894833	442.194336	992.342346
12479.600000	3943.894833	440.927734	870.026001
12479.600000	3943.894833	439.662109	982.507324
12479.600000	3943.894833	438.395508	969.276855
12479.600000	3943.894833	437.127930	968.355286
12479.600000	3943.894833	435.861328	880.174072
12479.600000	3943.894833	434.593750	965.180054
12479.600000	3943.894833	433.326172	1019.037964
12479.600000	3943.894833	432.058594	1177.034424
12479.600000	3943.894833	430.790039	1102.205322
12479.600000	3943.894833	429.521484	1105.989258
12479.600000	3943.894833	428.252930	1678.072632
12479.600000	3943.894833	426.984375	1318.524658
12479.600000	3943.894833	425.714844	1078.382568
12479.600000	3943.894833	424.445313	1176.812378
12479.600000	3943.894833	423.174805	966.203735
12479.600000	3943.894833	421.905273	1438.002075
12479.600000	3943.894833	420.634766	1170.176880
12479.600000	3943.894833	419.364258	1222.756592
12479.600000	3943.894833	418.092773	1287.372192
12479.600000	3943.894833	416.822266	1356.433105
12479.600000	3943.894833	415.550781	1182.955078
12479.600000	3943.894833	414.278320	1237.857666
12479.600000	3943.894833	413.006836	1312.425415
12479.600000	3943.894833	411.734375	1370.946167
12479.600000	3943.894833	410.461914	912.465942
12479.600000	3943.894833	409.188477	1470.405762
12479.600000	3943.894833	407.916016	1549.489624
12479.600000	3943.894833	406.642578	1376.117432
12479.600000	3943.894833	405.368164	930.109253
12479.600000	3943.894833	404.094727	1375.172485
12479.600000	3943.894833	402.820313	1311.218506
12479.600000	3943.894833	401.545898	1218.510864
12479.600000	3943.894833	400.270508	1137.627441
12479.600000	3943.894833	398.996094	1066.094360
12479.600000	3943.894833	397.720703	706.903076
12479.600000	3943.894833	396.444336	1267.837280
12479.600000	3943.894833	395.168945	1213.815430
12479.600000	3943.894833	393.892578	1270.394775
12479.600000	3943.894833	392.616211	1194.137329
12479.600000	3943.894833	391.339844	1124.527100
12479.600000	3943.894833	390.062500	1122.311035
12479.600000	3943.894833	388.785156	1126.669922
12479.600000	3943.894833	387.507813	1585.946899
12479.600000	3943.894833	386.229492	1474.067505
12479.600000	3943.894833	384.951172	1158.585693
12479.600000	3943.894833	383.672852	1176.295288
12479.600000	3943.894833	382.394531	1314.355469
12479.600000	3943.894833	381.115234	1537.191895
12479.600000	3943.894833	379.835938	1083.292725
12479.600000	3943.894833	378.556641	1205.088013
12479.600000	3943.894833	377.277344	1272.523804
12479.600000	3943.894833	375.997070	514.451172
12479.600000	3943.894833	374.716797	920.709106
12479.600000	3943.894833	373.435547	683.580383
12479.600000	3943.894833	372.155273	763.676514
12479.600000	3943.894833	370.874023	958.561829
12479.600000	3943.894833	369.591797	561.016479
12479.600000	3943.894833	368.310547	667.339172
12479.600000	3943.894833	367.028320	315.271729
12479.600000	3943.894833	365.746094	163.871918
12479.600000	3943.894833	364.463867	293.729248
12479.600000	3943.894833	363.180664	177.328781
12479.600000	3943.894833	361.897461	384.879669
12479.600000	3943.894833	360.614258	200.016159
12479.600000	3943.894833	359.330078	-147.682449
12479.600000	3943.894833	358.045898	27.515648
12479.600000	3943.894833	356.761719	72.578598
12479.600000	3943.894833	355.477539	-103.127022
12479.600000	3943.894833	354.192383	-36.085167
12479.600000	3943.894833	352.907227	293.743164
12479.600000	3943.894833	351.622070	193.785095
12479.600000	3943.894833	350.336914	155.153351
12479.600000	3943.894833	349.050781	87.105263
12479.600000	3943.894833	347.764648	216.169052
12479.600000	3943.894833	346.477539	13.841766
12479.600000	3943.894833	345.191406	466.372772
12479.600000	3943.894833	343.904297	36.804337
12479.600000	3943.894833	342.616211	-117.910728
12479.600000	3943.894833	341.329102	95.197823
12479.600000	3943.894833	340.041016	193.229050
12479.600000	3943.894833	338.752930	254.204971
12479.600000	3943.894833	337.463867	187.615829
12479.600000	3943.894833	336.175781	-159.474884
12479.600000	3943.894833	334.886719	16.312502
12479.600000	3943.894833	333.596680	-138.818695
12479.600000	3943.894833	332.307617	-44.774693
12479.600000	3943.894833	331.017578	-198.715088
12479.600000	3943.894833	329.727539	-171.456818
12479.600000	3943.894833	328.436523	-78.604523
12479.600000	3943.894833	327.146484	-235.938782
12479.600000	3943.894833	325.855469	-169.741409
12479.600000	3943.894833	324.563477	-358.874451
12479.600000	3943.894833	323.272461	-116.413483
12479.600000	3943.894833	321.980469	294.081787
12479.600000	3943.894833	320.688477	41.062206
12479.600000	3943.894833	319.395508	-51.335812
12479.600000	3943.894833	318.103516	67.063896
12479.600000	3943.894833	316.810547	-312.465912
12479.600000	3943.894833	315.516602	46.577797
12479.600000	3943.894833	314.223633	-69.479630
12479.600000	3943.894833	312.929688	-5.237271
12479.600000	3943.894833	311.635742	-0.781703
12479.600000	3943.894833	310.340820	36.291904
12479.600000	3943.894833	309.045898	-36.413425
12479.600000	3943.894833	307.750977	-311.307495
12479.600000	3943.894833	306.456055	-86.166855
12479.600000	3943.894833	305.160156	176.394730
12479.600000	3943.894833	303.865234	346.730530
12479.600000	3943.894833	302.568359	416.996368
12479.600000	3943.894833	301.272461	482.514130
12479.600000	3943.894833	299.975586	383.261383
12479.600000	3943.894833	298.678711	798.200317
