#X		#Y		#Wave		#Intensity
12470.682606	3936.549833	1999.980469	-210.193375
12470.682606	3936.549833	1999.016602	363.306366
12470.682606	3936.549833	1998.052734	90.678299
12470.682606	3936.549833	1997.087891	-45.915421
12470.682606	3936.549833	1996.123047	17.866793
12470.682606	3936.549833	1995.158203	170.446457
12470.682606	3936.549833	1994.193359	226.026245
12470.682606	3936.549833	1993.228516	68.283295
12470.682606	3936.549833	1992.262695	140.525879
12470.682606	3936.549833	1991.297852	16.852736
12470.682606	3936.549833	1990.332031	51.309258
12470.682606	3936.549833	1989.366211	31.004440
12470.682606	3936.549833	1988.399414	210.804428
12470.682606	3936.549833	1987.433594	-158.891083
12470.682606	3936.549833	1986.466797	17.818806
12470.682606	3936.549833	1985.500977	70.543732
12470.682606	3936.549833	1984.534180	-30.293367
12470.682606	3936.549833	1983.567383	113.338615
12470.682606	3936.549833	1982.599609	78.731239
12470.682606	3936.549833	1981.632813	-126.606575
12470.682606	3936.549833	1980.665039	-15.908755
12470.682606	3936.549833	1979.697266	114.265648
12470.682606	3936.549833	1978.729492	-173.172424
12470.682606	3936.549833	1977.761719	-107.672531
12470.682606	3936.549833	1976.792969	63.729668
12470.682606	3936.549833	1975.825195	212.637146
12470.682606	3936.549833	1974.856445	-134.699188
12470.682606	3936.549833	1973.887695	225.951508
12470.682606	3936.549833	1972.918945	223.672363
12470.682606	3936.549833	1971.949219	21.441820
12470.682606	3936.549833	1970.980469	-138.985214
12470.682606	3936.549833	1970.010742	55.470737
12470.682606	3936.549833	1969.041016	-137.299820
12470.682606	3936.549833	1968.071289	-14.728888
12470.682606	3936.549833	1967.101563	38.642078
12470.682606	3936.549833	1966.130859	17.931458
12470.682606	3936.549833	1965.161133	11.850747
12470.682606	3936.549833	1964.190430	111.512909
12470.682606	3936.549833	1963.219727	142.055969
12470.682606	3936.549833	1962.249023	256.143036
12470.682606	3936.549833	1961.277344	82.096405
12470.682606	3936.549833	1960.306641	16.254473
12470.682606	3936.549833	1959.334961	-32.466000
12470.682606	3936.549833	1958.363281	-27.173826
12470.682606	3936.549833	1957.391602	41.941090
12470.682606	3936.549833	1956.419922	86.328400
12470.682606	3936.549833	1955.447266	324.806183
12470.682606	3936.549833	1954.474609	-44.026299
12470.682606	3936.549833	1953.501953	344.089935
12470.682606	3936.549833	1952.529297	16.963545
12470.682606	3936.549833	1951.556641	264.707764
12470.682606	3936.549833	1950.583984	-94.394302
12470.682606	3936.549833	1949.610352	-82.640968
12470.682606	3936.549833	1948.636719	56.697033
12470.682606	3936.549833	1947.663086	75.621254
12470.682606	3936.549833	1946.689453	-77.338509
12470.682606	3936.549833	1945.715820	-85.536331
12470.682606	3936.549833	1944.741211	205.513840
12470.682606	3936.549833	1943.767578	45.049667
12470.682606	3936.549833	1942.792969	223.025146
12470.682606	3936.549833	1941.818359	55.138203
12470.682606	3936.549833	1940.842773	-58.808308
12470.682606	3936.549833	1939.868164	-94.330490
12470.682606	3936.549833	1938.892578	-0.007362
12470.682606	3936.549833	1937.916992	81.980957
12470.682606	3936.549833	1936.941406	-46.785816
12470.682606	3936.549833	1935.965820	71.830559
12470.682606	3936.549833	1934.990234	-152.475143
12470.682606	3936.549833	1934.013672	-16.827675
12470.682606	3936.549833	1933.037109	128.525269
12470.682606	3936.549833	1932.060547	286.026306
12470.682606	3936.549833	1931.083984	42.126709
12470.682606	3936.549833	1930.107422	331.635162
12470.682606	3936.549833	1929.129883	41.281807
12470.682606	3936.549833	1928.153320	-11.761982
12470.682606	3936.549833	1927.175781	-86.819275
12470.682606	3936.549833	1926.198242	155.942017
12470.682606	3936.549833	1925.219727	247.044632
12470.682606	3936.549833	1924.242188	120.595360
12470.682606	3936.549833	1923.263672	336.243347
12470.682606	3936.549833	1922.285156	102.298950
12470.682606	3936.549833	1921.306641	-14.337042
12470.682606	3936.549833	1920.328125	157.210663
12470.682606	3936.549833	1919.349609	77.202026
12470.682606	3936.549833	1918.370117	-34.524410
12470.682606	3936.549833	1917.391602	-70.559387
12470.682606	3936.549833	1916.412109	61.777744
12470.682606	3936.549833	1915.431641	8.636327
12470.682606	3936.549833	1914.452148	23.807302
12470.682606	3936.549833	1913.472656	-58.587959
12470.682606	3936.549833	1912.492188	-165.345169
12470.682606	3936.549833	1911.511719	8.288814
12470.682606	3936.549833	1910.531250	-61.891476
12470.682606	3936.549833	1909.550781	72.654526
12470.682606	3936.549833	1908.569336	116.993156
12470.682606	3936.549833	1907.588867	200.288010
12470.682606	3936.549833	1906.607422	13.193620
12470.682606	3936.549833	1905.625977	94.032097
12470.682606	3936.549833	1904.644531	26.319296
12470.682606	3936.549833	1903.662109	70.602669
12470.682606	3936.549833	1902.680664	-99.306007
12470.682606	3936.549833	1901.698242	149.377350
12470.682606	3936.549833	1900.715820	93.853485
12470.682606	3936.549833	1899.733398	135.644806
12470.682606	3936.549833	1898.750000	165.254517
12470.682606	3936.549833	1897.767578	126.768547
12470.682606	3936.549833	1896.784180	-4.088887
12470.682606	3936.549833	1895.800781	59.546764
12470.682606	3936.549833	1894.817383	35.667358
12470.682606	3936.549833	1893.833984	94.403374
12470.682606	3936.549833	1892.850586	-29.083530
12470.682606	3936.549833	1891.866211	112.207527
12470.682606	3936.549833	1890.881836	-210.373795
12470.682606	3936.549833	1889.897461	-10.845648
12470.682606	3936.549833	1888.913086	-102.693047
12470.682606	3936.549833	1887.927734	130.699890
12470.682606	3936.549833	1886.943359	43.695992
12470.682606	3936.549833	1885.958008	39.199474
12470.682606	3936.549833	1884.972656	-79.309380
12470.682606	3936.549833	1883.987305	-197.786514
12470.682606	3936.549833	1883.001953	-66.486725
12470.682606	3936.549833	1882.015625	244.143997
12470.682606	3936.549833	1881.029297	9.287970
12470.682606	3936.549833	1880.042969	-181.875198
12470.682606	3936.549833	1879.056641	-74.967644
12470.682606	3936.549833	1878.070313	-4.454369
12470.682606	3936.549833	1877.083984	-156.810135
12470.682606	3936.549833	1876.096680	-64.554512
12470.682606	3936.549833	1875.109375	-35.304165
12470.682606	3936.549833	1874.122070	277.126160
12470.682606	3936.549833	1873.134766	93.280075
12470.682606	3936.549833	1872.146484	245.816528
12470.682606	3936.549833	1871.159180	-56.550278
12470.682606	3936.549833	1870.170898	-51.645767
12470.682606	3936.549833	1869.182617	16.104689
12470.682606	3936.549833	1868.194336	83.799232
12470.682606	3936.549833	1867.205078	-0.866415
12470.682606	3936.549833	1866.216797	-73.446457
12470.682606	3936.549833	1865.227539	-25.211134
12470.682606	3936.549833	1864.238281	6.056763
12470.682606	3936.549833	1863.249023	-201.873886
12470.682606	3936.549833	1862.259766	-37.829906
12470.682606	3936.549833	1861.269531	-146.756607
12470.682606	3936.549833	1860.279297	17.127691
12470.682606	3936.549833	1859.290039	14.351893
12470.682606	3936.549833	1858.298828	1.872177
12470.682606	3936.549833	1857.308594	192.033524
12470.682606	3936.549833	1856.318359	-110.068573
12470.682606	3936.549833	1855.327148	-117.848572
12470.682606	3936.549833	1854.335938	-34.041294
12470.682606	3936.549833	1853.344727	-128.745270
12470.682606	3936.549833	1852.353516	-28.208500
12470.682606	3936.549833	1851.362305	36.075905
12470.682606	3936.549833	1850.370117	187.021210
12470.682606	3936.549833	1849.377930	-52.460762
12470.682606	3936.549833	1848.385742	-55.852428
12470.682606	3936.549833	1847.393555	-83.396019
12470.682606	3936.549833	1846.401367	2.172100
12470.682606	3936.549833	1845.408203	70.780380
12470.682606	3936.549833	1844.415039	-17.169851
12470.682606	3936.549833	1843.421875	140.306671
12470.682606	3936.549833	1842.428711	88.311386
12470.682606	3936.549833	1841.435547	65.122505
12470.682606	3936.549833	1840.441406	145.280319
12470.682606	3936.549833	1839.448242	-51.223026
12470.682606	3936.549833	1838.454102	-182.827423
12470.682606	3936.549833	1837.459961	-33.220921
12470.682606	3936.549833	1836.464844	0.868794
12470.682606	3936.549833	1835.470703	-128.544998
12470.682606	3936.549833	1834.475586	-39.383369
12470.682606	3936.549833	1833.480469	-8.004020
12470.682606	3936.549833	1832.485352	-82.408142
12470.682606	3936.549833	1831.490234	119.242897
12470.682606	3936.549833	1830.495117	61.439110
12470.682606	3936.549833	1829.499023	-3.657292
12470.682606	3936.549833	1828.502930	19.952894
12470.682606	3936.549833	1827.506836	-124.511833
12470.682606	3936.549833	1826.510742	81.199249
12470.682606	3936.549833	1825.513672	42.070168
12470.682606	3936.549833	1824.517578	336.161285
12470.682606	3936.549833	1823.520508	71.389984
12470.682606	3936.549833	1822.523438	158.965103
12470.682606	3936.549833	1821.526367	205.637329
12470.682606	3936.549833	1820.529297	125.166176
12470.682606	3936.549833	1819.531250	298.534943
12470.682606	3936.549833	1818.533203	241.759506
12470.682606	3936.549833	1817.535156	457.877747
12470.682606	3936.549833	1816.537109	113.495796
12470.682606	3936.549833	1815.539063	92.281395
12470.682606	3936.549833	1814.540039	264.795288
12470.682606	3936.549833	1813.541992	396.424805
12470.682606	3936.549833	1812.542969	197.678299
12470.682606	3936.549833	1811.543945	142.384186
12470.682606	3936.549833	1810.543945	139.566513
12470.682606	3936.549833	1809.544922	138.994629
12470.682606	3936.549833	1808.544922	54.583000
12470.682606	3936.549833	1807.544922	221.024841
12470.682606	3936.549833	1806.544922	153.038696
12470.682606	3936.549833	1805.544922	197.216156
12470.682606	3936.549833	1804.544922	-117.130501
12470.682606	3936.549833	1803.543945	167.975876
12470.682606	3936.549833	1802.542969	39.674622
12470.682606	3936.549833	1801.541992	286.099365
12470.682606	3936.549833	1800.541016	-33.493229
12470.682606	3936.549833	1799.539063	50.197559
12470.682606	3936.549833	1798.538086	288.790375
12470.682606	3936.549833	1797.536133	104.821205
12470.682606	3936.549833	1796.534180	113.948074
12470.682606	3936.549833	1795.532227	-163.297913
12470.682606	3936.549833	1794.529297	-152.122681
12470.682606	3936.549833	1793.527344	-141.132370
12470.682606	3936.549833	1792.524414	46.032543
12470.682606	3936.549833	1791.521484	58.967499
12470.682606	3936.549833	1790.518555	-4.542380
12470.682606	3936.549833	1789.514648	112.805855
12470.682606	3936.549833	1788.511719	-136.863480
12470.682606	3936.549833	1787.507813	-10.413363
12470.682606	3936.549833	1786.503906	3.885472
12470.682606	3936.549833	1785.500000	-10.592912
12470.682606	3936.549833	1784.496094	224.615417
12470.682606	3936.549833	1783.491211	74.039848
12470.682606	3936.549833	1782.486328	51.774784
12470.682606	3936.549833	1781.481445	43.573254
12470.682606	3936.549833	1780.476563	225.405106
12470.682606	3936.549833	1779.471680	200.093750
12470.682606	3936.549833	1778.465820	169.804367
12470.682606	3936.549833	1777.460938	260.529144
12470.682606	3936.549833	1776.455078	75.330574
12470.682606	3936.549833	1775.449219	44.406143
12470.682606	3936.549833	1774.442383	115.392937
12470.682606	3936.549833	1773.436523	60.263458
12470.682606	3936.549833	1772.429688	-80.573807
12470.682606	3936.549833	1771.422852	279.331543
12470.682606	3936.549833	1770.416016	555.788452
12470.682606	3936.549833	1769.409180	193.526749
12470.682606	3936.549833	1768.402344	248.756821
12470.682606	3936.549833	1767.394531	486.372101
12470.682606	3936.549833	1766.386719	256.411194
12470.682606	3936.549833	1765.378906	372.507324
12470.682606	3936.549833	1764.371094	720.660950
12470.682606	3936.549833	1763.362305	741.298035
12470.682606	3936.549833	1762.354492	764.064148
12470.682606	3936.549833	1761.345703	727.314270
12470.682606	3936.549833	1760.336914	974.615845
12470.682606	3936.549833	1759.328125	972.862000
12470.682606	3936.549833	1758.318359	1207.655396
12470.682606	3936.549833	1757.308594	996.966370
12470.682606	3936.549833	1756.299805	1157.780273
12470.682606	3936.549833	1755.290039	1207.013794
12470.682606	3936.549833	1754.279297	1166.026245
12470.682606	3936.549833	1753.269531	971.022644
12470.682606	3936.549833	1752.258789	1050.207275
12470.682606	3936.549833	1751.249023	916.262695
12470.682606	3936.549833	1750.238281	741.884521
12470.682606	3936.549833	1749.226563	988.100159
12470.682606	3936.549833	1748.215820	959.783325
12470.682606	3936.549833	1747.204102	836.659302
12470.682606	3936.549833	1746.193359	755.860596
12470.682606	3936.549833	1745.181641	698.422302
12470.682606	3936.549833	1744.168945	635.987122
12470.682606	3936.549833	1743.157227	433.995941
12470.682606	3936.549833	1742.144531	545.794678
12470.682606	3936.549833	1741.132813	345.706146
12470.682606	3936.549833	1740.120117	218.553864
12470.682606	3936.549833	1739.106445	112.387093
12470.682606	3936.549833	1738.093750	267.871948
12470.682606	3936.549833	1737.080078	109.281769
12470.682606	3936.549833	1736.067383	247.635330
12470.682606	3936.549833	1735.053711	107.406120
12470.682606	3936.549833	1734.040039	216.829010
12470.682606	3936.549833	1733.025391	12.430546
12470.682606	3936.549833	1732.011719	-137.951797
12470.682606	3936.549833	1730.997070	180.262833
12470.682606	3936.549833	1729.982422	132.953064
12470.682606	3936.549833	1728.967773	33.561802
12470.682606	3936.549833	1727.952148	28.081240
12470.682606	3936.549833	1726.937500	142.406342
12470.682606	3936.549833	1725.921875	11.580325
12470.682606	3936.549833	1724.906250	64.071182
12470.682606	3936.549833	1723.890625	10.374722
12470.682606	3936.549833	1722.875000	116.371544
12470.682606	3936.549833	1721.858398	85.597359
12470.682606	3936.549833	1720.841797	-107.712997
12470.682606	3936.549833	1719.825195	-115.506966
12470.682606	3936.549833	1718.808594	142.029800
12470.682606	3936.549833	1717.791992	98.352287
12470.682606	3936.549833	1716.774414	-206.446381
12470.682606	3936.549833	1715.756836	-86.206032
12470.682606	3936.549833	1714.739258	33.696381
12470.682606	3936.549833	1713.721680	-163.772293
12470.682606	3936.549833	1712.704102	-67.967438
12470.682606	3936.549833	1711.685547	-80.506088
12470.682606	3936.549833	1710.667969	-27.589622
12470.682606	3936.549833	1709.649414	-38.372341
12470.682606	3936.549833	1708.630859	-190.213440
12470.682606	3936.549833	1707.611328	-56.146915
12470.682606	3936.549833	1706.592773	-170.990982
12470.682606	3936.549833	1705.573242	-309.562103
12470.682606	3936.549833	1704.553711	-129.546432
12470.682606	3936.549833	1703.534180	104.015450
12470.682606	3936.549833	1702.513672	184.840317
12470.682606	3936.549833	1701.494141	110.735847
12470.682606	3936.549833	1700.473633	-24.570068
12470.682606	3936.549833	1699.453125	-50.037415
12470.682606	3936.549833	1698.432617	-73.448837
12470.682606	3936.549833	1697.412109	76.106422
12470.682606	3936.549833	1696.390625	-55.607426
12470.682606	3936.549833	1695.369141	39.443035
12470.682606	3936.549833	1694.347656	40.574913
12470.682606	3936.549833	1693.326172	97.560417
12470.682606	3936.549833	1692.304688	95.761635
12470.682606	3936.549833	1691.282227	-41.989986
12470.682606	3936.549833	1690.260742	-100.450867
12470.682606	3936.549833	1689.238281	-51.683727
12470.682606	3936.549833	1688.214844	122.948273
12470.682606	3936.549833	1687.192383	280.907196
12470.682606	3936.549833	1686.168945	384.747955
12470.682606	3936.549833	1685.146484	0.123206
12470.682606	3936.549833	1684.123047	278.559570
12470.682606	3936.549833	1683.099609	318.449493
12470.682606	3936.549833	1682.075195	294.973969
12470.682606	3936.549833	1681.051758	420.639343
12470.682606	3936.549833	1680.027344	209.909775
12470.682606	3936.549833	1679.002930	635.913269
12470.682606	3936.549833	1677.978516	312.697906
12470.682606	3936.549833	1676.953125	390.429962
12470.682606	3936.549833	1675.928711	360.632080
12470.682606	3936.549833	1674.903320	482.066925
12470.682606	3936.549833	1673.877930	628.820923
12470.682606	3936.549833	1672.852539	712.323181
12470.682606	3936.549833	1671.826172	609.088501
12470.682606	3936.549833	1670.800781	626.796509
12470.682606	3936.549833	1669.774414	728.035583
12470.682606	3936.549833	1668.748047	679.936646
12470.682606	3936.549833	1667.721680	750.325378
12470.682606	3936.549833	1666.694336	911.162842
12470.682606	3936.549833	1665.667969	1048.441772
12470.682606	3936.549833	1664.640625	1129.521729
12470.682606	3936.549833	1663.613281	1319.650269
12470.682606	3936.549833	1662.585938	1488.510498
12470.682606	3936.549833	1661.557617	1454.693604
12470.682606	3936.549833	1660.530273	1490.426880
12470.682606	3936.549833	1659.501953	1632.779053
12470.682606	3936.549833	1658.473633	1904.971313
12470.682606	3936.549833	1657.444336	1700.418091
12470.682606	3936.549833	1656.416016	2025.427002
12470.682606	3936.549833	1655.386719	2161.877197
12470.682606	3936.549833	1654.358398	1938.114746
12470.682606	3936.549833	1653.328125	2289.927490
12470.682606	3936.549833	1652.298828	2374.445313
12470.682606	3936.549833	1651.269531	2760.412354
12470.682606	3936.549833	1650.239258	2848.925293
12470.682606	3936.549833	1649.208984	3094.930176
12470.682606	3936.549833	1648.178711	3217.665283
12470.682606	3936.549833	1647.148438	3518.695801
12470.682606	3936.549833	1646.117188	3612.970703
12470.682606	3936.549833	1645.086914	3760.345703
12470.682606	3936.549833	1644.055664	3775.275879
12470.682606	3936.549833	1643.024414	4035.617432
12470.682606	3936.549833	1641.992188	3876.228760
12470.682606	3936.549833	1640.960938	4182.334473
12470.682606	3936.549833	1639.928711	4805.353516
12470.682606	3936.549833	1638.896484	4981.011230
12470.682606	3936.549833	1637.864258	5390.214355
12470.682606	3936.549833	1636.832031	5301.395020
12470.682606	3936.549833	1635.798828	5925.132324
12470.682606	3936.549833	1634.766602	6104.225098
12470.682606	3936.549833	1633.733398	6340.830078
12470.682606	3936.549833	1632.699219	6593.283203
12470.682606	3936.549833	1631.666016	6593.433594
12470.682606	3936.549833	1630.632813	6780.656250
12470.682606	3936.549833	1629.598633	7395.197754
12470.682606	3936.549833	1628.564453	7459.269531
12470.682606	3936.549833	1627.530273	7617.865234
12470.682606	3936.549833	1626.495117	7538.213867
12470.682606	3936.549833	1625.460938	7763.342773
12470.682606	3936.549833	1624.425781	8087.452637
12470.682606	3936.549833	1623.390625	8071.858398
12470.682606	3936.549833	1622.355469	8063.020020
12470.682606	3936.549833	1621.319336	8310.140625
12470.682606	3936.549833	1620.284180	8956.240234
12470.682606	3936.549833	1619.248047	8859.002930
12470.682606	3936.549833	1618.211914	8722.426758
12470.682606	3936.549833	1617.174805	8601.834961
12470.682606	3936.549833	1616.138672	8787.834961
12470.682606	3936.549833	1615.101563	9001.219727
12470.682606	3936.549833	1614.065430	9329.653320
12470.682606	3936.549833	1613.027344	9136.928711
12470.682606	3936.549833	1611.990234	9245.989258
12470.682606	3936.549833	1610.953125	9142.942383
12470.682606	3936.549833	1609.915039	9504.950195
12470.682606	3936.549833	1608.876953	9620.302734
12470.682606	3936.549833	1607.838867	9668.713867
12470.682606	3936.549833	1606.800781	10425.877930
12470.682606	3936.549833	1605.761719	9882.388672
12470.682606	3936.549833	1604.723633	10220.219727
12470.682606	3936.549833	1603.684570	10311.610352
12470.682606	3936.549833	1602.644531	11078.951172
12470.682606	3936.549833	1601.605469	11144.606445
12470.682606	3936.549833	1600.566406	11382.537109
12470.682606	3936.549833	1599.526367	11217.975586
12470.682606	3936.549833	1598.486328	11657.757813
12470.682606	3936.549833	1597.446289	11240.253906
12470.682606	3936.549833	1596.405273	11580.817383
12470.682606	3936.549833	1595.365234	11675.454102
12470.682606	3936.549833	1594.324219	11958.200195
12470.682606	3936.549833	1593.283203	11951.466797
12470.682606	3936.549833	1592.242188	11928.576172
12470.682606	3936.549833	1591.200195	12316.348633
12470.682606	3936.549833	1590.159180	12414.834961
12470.682606	3936.549833	1589.117188	12717.314453
12470.682606	3936.549833	1588.075195	12677.857422
12470.682606	3936.549833	1587.032227	12833.204102
12470.682606	3936.549833	1585.990234	13187.935547
12470.682606	3936.549833	1584.947266	13501.150391
12470.682606	3936.549833	1583.904297	13463.531250
12470.682606	3936.549833	1582.861328	13613.755859
12470.682606	3936.549833	1581.818359	13839.465820
12470.682606	3936.549833	1580.775391	13540.521484
12470.682606	3936.549833	1579.731445	13550.740234
12470.682606	3936.549833	1578.687500	13077.816406
12470.682606	3936.549833	1577.643555	13049.114258
12470.682606	3936.549833	1576.598633	12514.543945
12470.682606	3936.549833	1575.554688	12607.161133
12470.682606	3936.549833	1574.509766	11951.565430
12470.682606	3936.549833	1573.464844	11499.765625
12470.682606	3936.549833	1572.419922	11656.416016
12470.682606	3936.549833	1571.374023	11753.484375
12470.682606	3936.549833	1570.329102	11265.345703
12470.682606	3936.549833	1569.283203	10969.310547
12470.682606	3936.549833	1568.237305	11086.975586
12470.682606	3936.549833	1567.191406	10727.101563
12470.682606	3936.549833	1566.144531	10737.343750
12470.682606	3936.549833	1565.098633	10411.929688
12470.682606	3936.549833	1564.051758	10698.505859
12470.682606	3936.549833	1563.004883	10398.291016
12470.682606	3936.549833	1561.957031	10951.757813
12470.682606	3936.549833	1560.910156	11192.449219
12470.682606	3936.549833	1559.862305	11067.973633
12470.682606	3936.549833	1558.814453	11303.968750
12470.682606	3936.549833	1557.766602	11115.709961
12470.682606	3936.549833	1556.718750	11287.807617
12470.682606	3936.549833	1555.669922	11088.233398
12470.682606	3936.549833	1554.621094	10581.072266
12470.682606	3936.549833	1553.573242	10814.802734
12470.682606	3936.549833	1552.523438	11116.729492
12470.682606	3936.549833	1551.474609	11054.176758
12470.682606	3936.549833	1550.424805	10536.156250
12470.682606	3936.549833	1549.375000	10501.111328
12470.682606	3936.549833	1548.325195	10668.748047
12470.682606	3936.549833	1547.275391	10442.617188
12470.682606	3936.549833	1546.225586	10560.261719
12470.682606	3936.549833	1545.174805	10040.816406
12470.682606	3936.549833	1544.124023	10040.290039
12470.682606	3936.549833	1543.073242	10344.592773
12470.682606	3936.549833	1542.022461	9916.676758
12470.682606	3936.549833	1540.970703	9725.389648
12470.682606	3936.549833	1539.919922	9391.118164
12470.682606	3936.549833	1538.868164	9504.700195
12470.682606	3936.549833	1537.815430	9354.724609
12470.682606	3936.549833	1536.763672	9161.789063
12470.682606	3936.549833	1535.710938	8657.830078
12470.682606	3936.549833	1534.659180	8864.958008
12470.682606	3936.549833	1533.606445	8531.736328
12470.682606	3936.549833	1532.552734	8477.895508
12470.682606	3936.549833	1531.500000	8292.614258
12470.682606	3936.549833	1530.446289	7419.990234
12470.682606	3936.549833	1529.393555	7505.178223
12470.682606	3936.549833	1528.338867	7302.321289
12470.682606	3936.549833	1527.285156	7170.013672
12470.682606	3936.549833	1526.231445	6920.001953
12470.682606	3936.549833	1525.176758	6935.376953
12470.682606	3936.549833	1524.122070	6524.833008
12470.682606	3936.549833	1523.067383	6318.513184
12470.682606	3936.549833	1522.012695	6196.240234
12470.682606	3936.549833	1520.957031	5754.767090
12470.682606	3936.549833	1519.901367	5802.740234
12470.682606	3936.549833	1518.845703	5642.564941
12470.682606	3936.549833	1517.790039	5792.719727
12470.682606	3936.549833	1516.734375	5361.361816
12470.682606	3936.549833	1515.677734	5217.650879
12470.682606	3936.549833	1514.621094	5117.150879
12470.682606	3936.549833	1513.564453	5231.730957
12470.682606	3936.549833	1512.507813	5075.087891
12470.682606	3936.549833	1511.450195	4823.683594
12470.682606	3936.549833	1510.393555	4823.517578
12470.682606	3936.549833	1509.335938	4830.271484
12470.682606	3936.549833	1508.278320	4579.632324
12470.682606	3936.549833	1507.219727	4862.379395
12470.682606	3936.549833	1506.162109	4596.414063
12470.682606	3936.549833	1505.103516	4714.600098
12470.682606	3936.549833	1504.044922	4823.916016
12470.682606	3936.549833	1502.986328	4425.507324
12470.682606	3936.549833	1501.926758	4456.222656
12470.682606	3936.549833	1500.868164	4169.035156
12470.682606	3936.549833	1499.808594	4098.707031
12470.682606	3936.549833	1498.749023	4019.604980
12470.682606	3936.549833	1497.688477	3922.676514
12470.682606	3936.549833	1496.628906	3762.930664
12470.682606	3936.549833	1495.568359	4218.818359
12470.682606	3936.549833	1494.507813	3915.263184
12470.682606	3936.549833	1493.447266	3799.088623
12470.682606	3936.549833	1492.386719	4127.000977
12470.682606	3936.549833	1491.325195	3578.822021
12470.682606	3936.549833	1490.263672	3348.628662
12470.682606	3936.549833	1489.202148	3060.238770
12470.682606	3936.549833	1488.140625	2934.291748
12470.682606	3936.549833	1487.079102	2673.616699
12470.682606	3936.549833	1486.016602	2251.257324
12470.682606	3936.549833	1484.954102	2200.525879
12470.682606	3936.549833	1483.891602	1992.636475
12470.682606	3936.549833	1482.829102	1710.903931
12470.682606	3936.549833	1481.765625	1721.820435
12470.682606	3936.549833	1480.702148	1849.929565
12470.682606	3936.549833	1479.638672	1805.253540
12470.682606	3936.549833	1478.575195	1464.296997
12470.682606	3936.549833	1477.511719	1914.514038
12470.682606	3936.549833	1476.447266	1304.798096
12470.682606	3936.549833	1475.382813	1277.152222
12470.682606	3936.549833	1474.318359	1503.415039
12470.682606	3936.549833	1473.253906	1406.827393
12470.682606	3936.549833	1472.189453	1779.391846
12470.682606	3936.549833	1471.124023	1449.991821
12470.682606	3936.549833	1470.058594	1275.972290
12470.682606	3936.549833	1468.993164	1377.710938
12470.682606	3936.549833	1467.927734	1143.897705
12470.682606	3936.549833	1466.861328	1138.928589
12470.682606	3936.549833	1465.794922	1062.321411
12470.682606	3936.549833	1464.728516	1083.066772
12470.682606	3936.549833	1463.662109	1103.290283
12470.682606	3936.549833	1462.594727	806.619446
12470.682606	3936.549833	1461.528320	854.376770
12470.682606	3936.549833	1460.460938	954.010742
12470.682606	3936.549833	1459.393555	1018.814453
12470.682606	3936.549833	1458.326172	1475.417114
12470.682606	3936.549833	1457.257813	1346.145020
12470.682606	3936.549833	1456.189453	1412.905518
12470.682606	3936.549833	1455.121094	1471.190918
12470.682606	3936.549833	1454.052734	1435.634521
12470.682606	3936.549833	1452.984375	1781.837646
12470.682606	3936.549833	1451.915039	1541.913696
12470.682606	3936.549833	1450.845703	1297.937988
12470.682606	3936.549833	1449.776367	1190.621460
12470.682606	3936.549833	1448.707031	1296.286499
12470.682606	3936.549833	1447.636719	1006.855896
12470.682606	3936.549833	1446.567383	858.660217
12470.682606	3936.549833	1445.497070	535.449768
12470.682606	3936.549833	1444.425781	376.459808
12470.682606	3936.549833	1443.355469	600.768677
12470.682606	3936.549833	1442.285156	515.393555
12470.682606	3936.549833	1441.213867	771.837280
12470.682606	3936.549833	1440.142578	466.872833
12470.682606	3936.549833	1439.070313	472.728271
12470.682606	3936.549833	1437.999023	554.222412
12470.682606	3936.549833	1436.926758	572.903809
12470.682606	3936.549833	1435.854492	436.145477
12470.682606	3936.549833	1434.782227	510.634491
12470.682606	3936.549833	1433.709961	103.829475
12470.682606	3936.549833	1432.636719	758.023132
12470.682606	3936.549833	1431.563477	560.037842
12470.682606	3936.549833	1430.490234	197.314667
12470.682606	3936.549833	1429.416992	-36.084450
12470.682606	3936.549833	1428.343750	75.998169
12470.682606	3936.549833	1427.269531	-155.129456
12470.682606	3936.549833	1426.195313	-14.619511
12470.682606	3936.549833	1425.121094	16.449263
12470.682606	3936.549833	1424.046875	297.447296
12470.682606	3936.549833	1422.971680	47.818733
12470.682606	3936.549833	1421.896484	222.077744
12470.682606	3936.549833	1420.821289	140.770447
12470.682606	3936.549833	1419.746094	-45.172325
12470.682606	3936.549833	1418.669922	205.610992
12470.682606	3936.549833	1417.594727	174.996704
12470.682606	3936.549833	1416.518555	98.705177
12470.682606	3936.549833	1415.442383	11.080101
12470.682606	3936.549833	1414.365234	101.851639
12470.682606	3936.549833	1413.289063	489.252258
12470.682606	3936.549833	1412.211914	543.188843
12470.682606	3936.549833	1411.134766	622.448730
12470.682606	3936.549833	1410.057617	581.357056
12470.682606	3936.549833	1408.979492	-1.055519
12470.682606	3936.549833	1407.902344	-76.736328
12470.682606	3936.549833	1406.824219	354.908844
12470.682606	3936.549833	1405.746094	415.881989
12470.682606	3936.549833	1404.666992	408.730957
12470.682606	3936.549833	1403.588867	380.424988
12470.682606	3936.549833	1402.509766	901.740967
12470.682606	3936.549833	1401.430664	211.368713
12470.682606	3936.549833	1400.351563	513.193481
12470.682606	3936.549833	1399.271484	809.491455
12470.682606	3936.549833	1398.192383	597.657410
12470.682606	3936.549833	1397.112305	659.464294
12470.682606	3936.549833	1396.031250	700.566040
12470.682606	3936.549833	1394.951172	1084.931030
12470.682606	3936.549833	1393.871094	1080.924072
12470.682606	3936.549833	1392.790039	974.223877
12470.682606	3936.549833	1391.708984	1033.930298
12470.682606	3936.549833	1390.626953	1207.416260
12470.682606	3936.549833	1389.545898	1499.063965
12470.682606	3936.549833	1388.463867	1505.541138
12470.682606	3936.549833	1387.381836	1549.487061
12470.682606	3936.549833	1386.299805	1523.198486
12470.682606	3936.549833	1385.217773	1287.185303
12470.682606	3936.549833	1384.134766	1552.511963
12470.682606	3936.549833	1383.051758	2224.665527
12470.682606	3936.549833	1381.968750	2371.020996
12470.682606	3936.549833	1380.885742	2273.812500
12470.682606	3936.549833	1379.802734	2606.426758
12470.682606	3936.549833	1378.718750	3256.431885
12470.682606	3936.549833	1377.634766	3497.408691
12470.682606	3936.549833	1376.550781	3433.415283
12470.682606	3936.549833	1375.465820	3404.786621
12470.682606	3936.549833	1374.381836	3540.664795
12470.682606	3936.549833	1373.296875	3877.989990
12470.682606	3936.549833	1372.211914	3701.149170
12470.682606	3936.549833	1371.126953	3623.434814
12470.682606	3936.549833	1370.041016	3879.089844
12470.682606	3936.549833	1368.955078	3531.652588
12470.682606	3936.549833	1367.869141	3553.821533
12470.682606	3936.549833	1366.783203	3571.959473
12470.682606	3936.549833	1365.697266	3532.007324
12470.682606	3936.549833	1364.610352	3613.389160
12470.682606	3936.549833	1363.523438	3588.656738
12470.682606	3936.549833	1362.436523	3747.793701
12470.682606	3936.549833	1361.349609	3907.729248
12470.682606	3936.549833	1360.261719	3861.642822
12470.682606	3936.549833	1359.174805	4147.493164
12470.682606	3936.549833	1358.086914	4037.840576
12470.682606	3936.549833	1356.998047	3734.813721
12470.682606	3936.549833	1355.910156	3783.626953
12470.682606	3936.549833	1354.821289	4008.182373
12470.682606	3936.549833	1353.732422	3800.644531
12470.682606	3936.549833	1352.643555	3771.872070
12470.682606	3936.549833	1351.554688	3835.391113
12470.682606	3936.549833	1350.464844	3792.623047
12470.682606	3936.549833	1349.375000	3848.031738
12470.682606	3936.549833	1348.285156	3774.366211
12470.682606	3936.549833	1347.195313	3247.203125
12470.682606	3936.549833	1346.105469	3136.205322
12470.682606	3936.549833	1345.014648	2982.338867
12470.682606	3936.549833	1343.923828	2750.917480
12470.682606	3936.549833	1342.833008	2976.095459
12470.682606	3936.549833	1341.741211	2755.555176
12470.682606	3936.549833	1340.650391	2984.487549
12470.682606	3936.549833	1339.558594	2922.828369
12470.682606	3936.549833	1338.466797	2757.025635
12470.682606	3936.549833	1337.374023	2554.211914
12470.682606	3936.549833	1336.282227	2285.900879
12470.682606	3936.549833	1335.189453	2627.205566
12470.682606	3936.549833	1334.096680	2708.187500
12470.682606	3936.549833	1333.003906	2917.624268
12470.682606	3936.549833	1331.910156	2869.688965
12470.682606	3936.549833	1330.817383	2927.487549
12470.682606	3936.549833	1329.723633	3195.122314
12470.682606	3936.549833	1328.629883	3137.213623
12470.682606	3936.549833	1327.535156	3661.693848
12470.682606	3936.549833	1326.441406	3298.868896
12470.682606	3936.549833	1325.346680	3351.199463
12470.682606	3936.549833	1324.251953	2644.885742
12470.682606	3936.549833	1323.156250	2623.092529
12470.682606	3936.549833	1322.061523	2030.251221
12470.682606	3936.549833	1320.965820	2140.696533
12470.682606	3936.549833	1319.870117	1863.592041
12470.682606	3936.549833	1318.774414	1554.375610
12470.682606	3936.549833	1317.678711	1344.474487
12470.682606	3936.549833	1316.582031	1276.234619
12470.682606	3936.549833	1315.485352	1405.585938
12470.682606	3936.549833	1314.388672	1149.768433
12470.682606	3936.549833	1313.291016	1118.953125
12470.682606	3936.549833	1312.194336	1078.248779
12470.682606	3936.549833	1311.096680	932.575989
12470.682606	3936.549833	1309.999023	1097.860962
12470.682606	3936.549833	1308.901367	1108.130493
12470.682606	3936.549833	1307.802734	942.494690
12470.682606	3936.549833	1306.705078	911.924194
12470.682606	3936.549833	1305.606445	645.285950
12470.682606	3936.549833	1304.506836	811.391052
12470.682606	3936.549833	1303.408203	961.889893
12470.682606	3936.549833	1302.308594	1124.535889
12470.682606	3936.549833	1301.208984	1062.697876
12470.682606	3936.549833	1300.109375	1156.734497
12470.682606	3936.549833	1299.009766	1172.014404
12470.682606	3936.549833	1297.909180	1886.400146
12470.682606	3936.549833	1296.808594	2038.262695
12470.682606	3936.549833	1295.708008	2388.419922
12470.682606	3936.549833	1294.607422	2413.629150
12470.682606	3936.549833	1293.506836	2333.137207
12470.682606	3936.549833	1292.405273	2389.431152
12470.682606	3936.549833	1291.303711	2574.007813
12470.682606	3936.549833	1290.202148	2875.192383
12470.682606	3936.549833	1289.099609	3227.991943
12470.682606	3936.549833	1287.998047	3412.846924
12470.682606	3936.549833	1286.895508	3710.513184
12470.682606	3936.549833	1285.792969	4087.116699
12470.682606	3936.549833	1284.689453	3934.339111
12470.682606	3936.549833	1283.586914	3675.870605
12470.682606	3936.549833	1282.483398	3361.051270
12470.682606	3936.549833	1281.379883	3226.282959
12470.682606	3936.549833	1280.276367	2794.838135
12470.682606	3936.549833	1279.171875	2480.204590
12470.682606	3936.549833	1278.067383	2467.980713
12470.682606	3936.549833	1276.962891	2198.384521
12470.682606	3936.549833	1275.858398	1909.041382
12470.682606	3936.549833	1274.753906	1657.649780
12470.682606	3936.549833	1273.648438	1475.218384
12470.682606	3936.549833	1272.542969	1723.211182
12470.682606	3936.549833	1271.437500	1206.361328
12470.682606	3936.549833	1270.331055	1371.297607
12470.682606	3936.549833	1269.225586	1202.798462
12470.682606	3936.549833	1268.119141	1143.007202
12470.682606	3936.549833	1267.012695	1176.171631
12470.682606	3936.549833	1265.906250	812.236023
12470.682606	3936.549833	1264.798828	689.835815
12470.682606	3936.549833	1263.691406	937.882141
12470.682606	3936.549833	1262.583984	805.524048
12470.682606	3936.549833	1261.476563	702.516174
12470.682606	3936.549833	1260.368164	597.860046
12470.682606	3936.549833	1259.260742	272.298584
12470.682606	3936.549833	1258.152344	257.547577
12470.682606	3936.549833	1257.043945	225.637772
12470.682606	3936.549833	1255.934570	268.735657
12470.682606	3936.549833	1254.825195	-8.116721
12470.682606	3936.549833	1253.716797	100.651085
12470.682606	3936.549833	1252.606445	207.511337
12470.682606	3936.549833	1251.497070	4.817000
12470.682606	3936.549833	1250.387695	-144.727982
12470.682606	3936.549833	1249.277344	-69.971626
12470.682606	3936.549833	1248.166992	-69.513832
12470.682606	3936.549833	1247.055664	159.422729
12470.682606	3936.549833	1245.945313	187.747772
12470.682606	3936.549833	1244.833984	347.484436
12470.682606	3936.549833	1243.722656	787.270264
12470.682606	3936.549833	1242.611328	779.670105
12470.682606	3936.549833	1241.499023	707.210205
12470.682606	3936.549833	1240.387695	872.487854
12470.682606	3936.549833	1239.275391	1079.955688
12470.682606	3936.549833	1238.162109	954.161255
12470.682606	3936.549833	1237.049805	971.324097
12470.682606	3936.549833	1235.936523	944.350769
12470.682606	3936.549833	1234.823242	1078.002319
12470.682606	3936.549833	1233.709961	723.365173
12470.682606	3936.549833	1232.596680	719.484436
12470.682606	3936.549833	1231.482422	539.750916
12470.682606	3936.549833	1230.369141	332.931000
12470.682606	3936.549833	1229.253906	285.604980
12470.682606	3936.549833	1228.139648	337.072052
12470.682606	3936.549833	1227.025391	183.592194
12470.682606	3936.549833	1225.910156	263.451385
12470.682606	3936.549833	1224.794922	52.456268
12470.682606	3936.549833	1223.679688	213.720383
12470.682606	3936.549833	1222.563477	197.613998
12470.682606	3936.549833	1221.447266	-280.894531
12470.682606	3936.549833	1220.331055	-40.148678
12470.682606	3936.549833	1219.214844	-149.589630
12470.682606	3936.549833	1218.098633	-155.484726
12470.682606	3936.549833	1216.981445	-90.646751
12470.682606	3936.549833	1215.864258	-88.158714
12470.682606	3936.549833	1214.747070	34.122200
12470.682606	3936.549833	1213.629883	-74.782288
12470.682606	3936.549833	1212.511719	-14.665077
12470.682606	3936.549833	1211.393555	-184.656464
12470.682606	3936.549833	1210.275391	-77.709320
12470.682606	3936.549833	1209.157227	88.213684
12470.682606	3936.549833	1208.038086	38.171524
12470.682606	3936.549833	1206.918945	225.076553
12470.682606	3936.549833	1205.799805	142.739532
12470.682606	3936.549833	1204.680664	229.922424
12470.682606	3936.549833	1203.560547	405.582947
12470.682606	3936.549833	1202.441406	335.308411
12470.682606	3936.549833	1201.321289	141.953491
12470.682606	3936.549833	1200.200195	419.518585
12470.682606	3936.549833	1199.080078	123.299736
12470.682606	3936.549833	1197.958984	127.931198
12470.682606	3936.549833	1196.837891	51.879433
12470.682606	3936.549833	1195.716797	234.590027
12470.682606	3936.549833	1194.594727	320.099182
12470.682606	3936.549833	1193.473633	213.866577
12470.682606	3936.549833	1192.351563	456.952667
12470.682606	3936.549833	1191.229492	355.415588
12470.682606	3936.549833	1190.106445	279.742798
12470.682606	3936.549833	1188.984375	259.020752
12470.682606	3936.549833	1187.861328	247.462479
12470.682606	3936.549833	1186.738281	127.014664
12470.682606	3936.549833	1185.614258	278.901245
12470.682606	3936.549833	1184.491211	27.690939
12470.682606	3936.549833	1183.367188	77.350861
12470.682606	3936.549833	1182.243164	117.304207
12470.682606	3936.549833	1181.119141	-27.347109
12470.682606	3936.549833	1179.994141	102.607246
12470.682606	3936.549833	1178.869141	28.508442
12470.682606	3936.549833	1177.744141	145.552170
12470.682606	3936.549833	1176.619141	26.647015
12470.682606	3936.549833	1175.493164	-94.371689
12470.682606	3936.549833	1174.368164	-74.196831
12470.682606	3936.549833	1173.242188	-280.951141
12470.682606	3936.549833	1172.115234	116.783752
12470.682606	3936.549833	1170.989258	-24.716166
12470.682606	3936.549833	1169.862305	-80.038551
12470.682606	3936.549833	1168.735352	134.907990
12470.682606	3936.549833	1167.608398	136.295807
12470.682606	3936.549833	1166.481445	2.053145
12470.682606	3936.549833	1165.353516	54.788605
12470.682606	3936.549833	1164.225586	-3.169912
12470.682606	3936.549833	1163.097656	-99.823814
12470.682606	3936.549833	1161.968750	-100.533363
12470.682606	3936.549833	1160.840820	130.441177
12470.682606	3936.549833	1159.711914	127.447060
12470.682606	3936.549833	1158.583008	83.238281
12470.682606	3936.549833	1157.453125	168.643875
12470.682606	3936.549833	1156.324219	188.443146
12470.682606	3936.549833	1155.194336	48.553265
12470.682606	3936.549833	1154.064453	-89.390625
12470.682606	3936.549833	1152.933594	15.854356
12470.682606	3936.549833	1151.803711	-32.019749
12470.682606	3936.549833	1150.672852	-137.865814
12470.682606	3936.549833	1149.541992	-3.003412
12470.682606	3936.549833	1148.411133	30.538927
12470.682606	3936.549833	1147.279297	80.035011
12470.682606	3936.549833	1146.147461	-161.141083
12470.682606	3936.549833	1145.015625	-221.375259
12470.682606	3936.549833	1143.883789	51.149754
12470.682606	3936.549833	1142.750977	74.576576
12470.682606	3936.549833	1141.619141	1.167357
12470.682606	3936.549833	1140.486328	68.063889
12470.682606	3936.549833	1139.352539	-103.938309
12470.682606	3936.549833	1138.219727	123.638443
12470.682606	3936.549833	1137.085938	-38.254097
12470.682606	3936.549833	1135.952148	11.034606
12470.682606	3936.549833	1134.818359	-204.846008
12470.682606	3936.549833	1133.683594	-116.128990
12470.682606	3936.549833	1132.549805	-7.056146
12470.682606	3936.549833	1131.415039	158.729507
12470.682606	3936.549833	1130.279297	322.595856
12470.682606	3936.549833	1129.144531	558.538269
12470.682606	3936.549833	1128.008789	870.381836
12470.682606	3936.549833	1126.873047	618.387512
12470.682606	3936.549833	1125.737305	780.126831
12470.682606	3936.549833	1124.601563	1076.353027
12470.682606	3936.549833	1123.464844	952.726501
12470.682606	3936.549833	1122.328125	985.776611
12470.682606	3936.549833	1121.191406	1115.063110
12470.682606	3936.549833	1120.054688	1217.851196
12470.682606	3936.549833	1118.916992	1524.763672
12470.682606	3936.549833	1117.779297	1693.508057
12470.682606	3936.549833	1116.641602	1853.414185
12470.682606	3936.549833	1115.503906	1782.315308
12470.682606	3936.549833	1114.365234	1855.810425
12470.682606	3936.549833	1113.226563	1782.043335
12470.682606	3936.549833	1112.087891	1935.197510
12470.682606	3936.549833	1110.949219	1614.063232
12470.682606	3936.549833	1109.809570	1434.928467
12470.682606	3936.549833	1108.669922	1033.775879
12470.682606	3936.549833	1107.530273	794.019104
12470.682606	3936.549833	1106.390625	530.058289
12470.682606	3936.549833	1105.250000	438.497070
12470.682606	3936.549833	1104.109375	382.156708
12470.682606	3936.549833	1102.968750	321.753815
12470.682606	3936.549833	1101.828125	336.364349
12470.682606	3936.549833	1100.686523	93.601204
12470.682606	3936.549833	1099.544922	392.932892
12470.682606	3936.549833	1098.403320	247.535126
12470.682606	3936.549833	1097.261719	600.066040
12470.682606	3936.549833	1096.120117	653.148621
12470.682606	3936.549833	1094.977539	670.092285
12470.682606	3936.549833	1093.834961	626.390076
12470.682606	3936.549833	1092.691406	477.323578
12470.682606	3936.549833	1091.548828	767.399841
12470.682606	3936.549833	1090.405273	472.547302
12470.682606	3936.549833	1089.261719	609.084045
12470.682606	3936.549833	1088.118164	710.648987
12470.682606	3936.549833	1086.973633	744.528748
12470.682606	3936.549833	1085.829102	841.510986
12470.682606	3936.549833	1084.684570	732.586243
12470.682606	3936.549833	1083.540039	687.303589
12470.682606	3936.549833	1082.395508	576.555969
12470.682606	3936.549833	1081.250000	835.908569
12470.682606	3936.549833	1080.104492	859.609131
12470.682606	3936.549833	1078.958984	901.863159
12470.682606	3936.549833	1077.812500	865.600464
12470.682606	3936.549833	1076.666016	848.581238
12470.682606	3936.549833	1075.519531	1013.050232
12470.682606	3936.549833	1074.373047	920.804871
12470.682606	3936.549833	1073.226563	772.677734
12470.682606	3936.549833	1072.079102	1045.779419
12470.682606	3936.549833	1070.931641	778.609741
12470.682606	3936.549833	1069.784180	633.825562
12470.682606	3936.549833	1068.635742	505.552460
12470.682606	3936.549833	1067.487305	465.492157
12470.682606	3936.549833	1066.338867	318.309509
12470.682606	3936.549833	1065.190430	481.468262
12470.682606	3936.549833	1064.041992	664.315002
12470.682606	3936.549833	1062.892578	669.626709
12470.682606	3936.549833	1061.743164	321.188324
12470.682606	3936.549833	1060.593750	254.555588
12470.682606	3936.549833	1059.443359	212.063492
12470.682606	3936.549833	1058.292969	66.048538
12470.682606	3936.549833	1057.142578	115.103622
12470.682606	3936.549833	1055.992188	-34.422462
12470.682606	3936.549833	1054.841797	112.104240
12470.682606	3936.549833	1053.690430	225.418152
12470.682606	3936.549833	1052.539063	137.691101
12470.682606	3936.549833	1051.387695	297.346222
12470.682606	3936.549833	1050.235352	384.793152
12470.682606	3936.549833	1049.083984	398.526855
12470.682606	3936.549833	1047.931641	46.288963
12470.682606	3936.549833	1046.778320	122.226616
12470.682606	3936.549833	1045.625977	184.035583
12470.682606	3936.549833	1044.472656	172.006912
12470.682606	3936.549833	1043.319336	374.398560
12470.682606	3936.549833	1042.166016	426.737457
12470.682606	3936.549833	1041.012695	446.056458
12470.682606	3936.549833	1039.858398	248.700760
12470.682606	3936.549833	1038.704102	469.988098
12470.682606	3936.549833	1037.549805	355.931793
12470.682606	3936.549833	1036.394531	463.673431
12470.682606	3936.549833	1035.239258	315.416229
12470.682606	3936.549833	1034.083984	614.908020
12470.682606	3936.549833	1032.928711	769.416321
12470.682606	3936.549833	1031.773438	553.054260
12470.682606	3936.549833	1030.617188	444.290497
12470.682606	3936.549833	1029.460938	481.813934
12470.682606	3936.549833	1028.304688	1006.163696
12470.682606	3936.549833	1027.147461	721.462097
12470.682606	3936.549833	1025.991211	699.921387
12470.682606	3936.549833	1024.833984	598.286011
12470.682606	3936.549833	1023.675781	798.787720
12470.682606	3936.549833	1022.518555	847.255737
12470.682606	3936.549833	1021.360352	827.901794
12470.682606	3936.549833	1020.202148	619.602539
12470.682606	3936.549833	1019.043945	583.821289
12470.682606	3936.549833	1017.884766	894.274292
12470.682606	3936.549833	1016.726563	832.961121
12470.682606	3936.549833	1015.567383	1056.060303
12470.682606	3936.549833	1014.407227	991.709900
12470.682606	3936.549833	1013.248047	958.770630
12470.682606	3936.549833	1012.087891	902.294495
12470.682606	3936.549833	1010.927734	774.949341
12470.682606	3936.549833	1009.767578	818.128357
12470.682606	3936.549833	1008.606445	623.911499
12470.682606	3936.549833	1007.446289	612.001648
12470.682606	3936.549833	1006.285156	926.311768
12470.682606	3936.549833	1005.123047	774.824402
12470.682606	3936.549833	1003.961914	832.195007
12470.682606	3936.549833	1002.799805	664.456421
12470.682606	3936.549833	1001.637695	911.483948
12470.682606	3936.549833	1000.475586	1035.969604
12470.682606	3936.549833	999.312500	792.931335
12470.682606	3936.549833	998.149414	997.696167
12470.682606	3936.549833	996.986328	1193.384155
12470.682606	3936.549833	995.823242	1205.972778
12470.682606	3936.549833	994.659180	923.037476
12470.682606	3936.549833	993.496094	817.011902
12470.682606	3936.549833	992.332031	713.694458
12470.682606	3936.549833	991.166992	911.825684
12470.682606	3936.549833	990.002930	632.998718
12470.682606	3936.549833	988.837891	670.266663
12470.682606	3936.549833	987.672852	884.908142
12470.682606	3936.549833	986.506836	718.483765
12470.682606	3936.549833	985.341797	925.330688
12470.682606	3936.549833	984.175781	994.734741
12470.682606	3936.549833	983.009766	738.758789
12470.682606	3936.549833	981.843750	1095.525146
12470.682606	3936.549833	980.676758	917.177368
12470.682606	3936.549833	979.509766	975.454956
12470.682606	3936.549833	978.342773	1088.728271
12470.682606	3936.549833	977.175781	1028.885498
12470.682606	3936.549833	976.007813	1053.991089
12470.682606	3936.549833	974.839844	1383.885254
12470.682606	3936.549833	973.671875	1408.536255
12470.682606	3936.549833	972.503906	1391.349609
12470.682606	3936.549833	971.334961	1113.016357
12470.682606	3936.549833	970.166016	1212.648926
12470.682606	3936.549833	968.997070	780.854309
12470.682606	3936.549833	967.828125	880.378174
12470.682606	3936.549833	966.658203	693.369629
12470.682606	3936.549833	965.488281	746.526062
12470.682606	3936.549833	964.318359	798.550293
12470.682606	3936.549833	963.148438	784.414612
12470.682606	3936.549833	961.977539	630.950989
12470.682606	3936.549833	960.806641	723.330444
12470.682606	3936.549833	959.635742	880.994141
12470.682606	3936.549833	958.463867	1076.595703
12470.682606	3936.549833	957.292969	1056.860107
12470.682606	3936.549833	956.121094	1063.411377
12470.682606	3936.549833	954.948242	1018.408691
12470.682606	3936.549833	953.776367	1013.287292
12470.682606	3936.549833	952.603516	945.859436
12470.682606	3936.549833	951.430664	948.770508
12470.682606	3936.549833	950.257813	708.815308
12470.682606	3936.549833	949.084961	538.591431
12470.682606	3936.549833	947.911133	495.985474
12470.682606	3936.549833	946.737305	267.645508
12470.682606	3936.549833	945.563477	214.395798
12470.682606	3936.549833	944.388672	130.089157
12470.682606	3936.549833	943.213867	243.028656
12470.682606	3936.549833	942.039063	290.280762
12470.682606	3936.549833	940.864258	-73.170166
12470.682606	3936.549833	939.688477	93.645348
12470.682606	3936.549833	938.513672	234.776749
12470.682606	3936.549833	937.337891	25.535736
12470.682606	3936.549833	936.161133	454.519562
12470.682606	3936.549833	934.985352	187.130325
12470.682606	3936.549833	933.808594	-30.540016
12470.682606	3936.549833	932.631836	47.397278
12470.682606	3936.549833	931.454102	221.533600
12470.682606	3936.549833	930.277344	286.295868
12470.682606	3936.549833	929.099609	227.403671
12470.682606	3936.549833	927.921875	161.103897
12470.682606	3936.549833	926.743164	125.135796
12470.682606	3936.549833	925.565430	298.310364
12470.682606	3936.549833	924.386719	254.840179
12470.682606	3936.549833	923.208008	141.435654
12470.682606	3936.549833	922.028320	217.440964
12470.682606	3936.549833	920.849609	59.066780
12470.682606	3936.549833	919.669922	56.682747
12470.682606	3936.549833	919.474609	7.414807
12470.682606	3936.549833	918.309570	-215.514893
12470.682606	3936.549833	917.143555	56.364460
12470.682606	3936.549833	915.977539	-90.009315
12470.682606	3936.549833	914.810547	-281.134705
12470.682606	3936.549833	913.644531	-125.951721
12470.682606	3936.549833	912.477539	-220.912735
12470.682606	3936.549833	911.310547	62.383511
12470.682606	3936.549833	910.143555	-241.664291
12470.682606	3936.549833	908.975586	-212.123611
12470.682606	3936.549833	907.807617	-104.260742
12470.682606	3936.549833	906.639648	-251.608627
12470.682606	3936.549833	905.471680	-83.454124
12470.682606	3936.549833	904.303711	186.095596
12470.682606	3936.549833	903.134766	145.281082
12470.682606	3936.549833	901.965820	330.643311
12470.682606	3936.549833	900.796875	652.969666
12470.682606	3936.549833	899.626953	636.605835
12470.682606	3936.549833	898.457031	614.772827
12470.682606	3936.549833	897.287109	633.767761
12470.682606	3936.549833	896.117188	608.124084
12470.682606	3936.549833	894.947266	505.838226
12470.682606	3936.549833	893.776367	835.845154
12470.682606	3936.549833	892.605469	875.620300
12470.682606	3936.549833	891.434570	616.453064
12470.682606	3936.549833	890.262695	874.739014
12470.682606	3936.549833	889.091797	665.222595
12470.682606	3936.549833	887.919922	885.835571
12470.682606	3936.549833	886.748047	869.883789
12470.682606	3936.549833	885.575195	647.713867
12470.682606	3936.549833	884.403320	644.035645
12470.682606	3936.549833	883.230469	535.457886
12470.682606	3936.549833	882.057617	591.962646
12470.682606	3936.549833	880.883789	756.634338
12470.682606	3936.549833	879.710938	814.644592
12470.682606	3936.549833	878.537109	746.531006
12470.682606	3936.549833	877.362305	644.633362
12470.682606	3936.549833	876.188477	563.975342
12470.682606	3936.549833	875.013672	616.269836
12470.682606	3936.549833	873.839844	714.564148
12470.682606	3936.549833	872.664063	569.842163
12470.682606	3936.549833	871.489258	380.788300
12470.682606	3936.549833	870.313477	547.913696
12470.682606	3936.549833	869.138672	661.744812
12470.682606	3936.549833	867.962891	499.110748
12470.682606	3936.549833	866.786133	513.560364
12470.682606	3936.549833	865.610352	276.505096
12470.682606	3936.549833	864.433594	292.615570
12470.682606	3936.549833	863.256836	170.597595
12470.682606	3936.549833	862.079102	211.350754
12470.682606	3936.549833	860.902344	142.339615
12470.682606	3936.549833	859.724609	82.126945
12470.682606	3936.549833	858.546875	117.373772
12470.682606	3936.549833	857.368164	350.565399
12470.682606	3936.549833	856.190430	-68.684860
12470.682606	3936.549833	855.011719	213.816208
12470.682606	3936.549833	853.833008	130.378174
12470.682606	3936.549833	852.654297	18.653322
12470.682606	3936.549833	851.474609	69.413803
12470.682606	3936.549833	850.294922	21.211456
12470.682606	3936.549833	849.115234	-182.387405
12470.682606	3936.549833	847.935547	163.025284
12470.682606	3936.549833	846.754883	-81.210175
12470.682606	3936.549833	845.575195	145.732986
12470.682606	3936.549833	844.393555	-22.632034
12470.682606	3936.549833	843.212891	-7.529747
12470.682606	3936.549833	842.032227	49.848782
12470.682606	3936.549833	840.850586	-125.558746
12470.682606	3936.549833	839.668945	280.748901
12470.682606	3936.549833	838.486328	129.965164
12470.682606	3936.549833	837.304688	239.985443
12470.682606	3936.549833	836.122070	-53.476925
12470.682606	3936.549833	834.939453	-174.246872
12470.682606	3936.549833	833.756836	-20.301346
12470.682606	3936.549833	832.573242	36.720928
12470.682606	3936.549833	831.389648	102.496933
12470.682606	3936.549833	830.206055	-35.907345
12470.682606	3936.549833	829.022461	226.867020
12470.682606	3936.549833	827.838867	116.600784
12470.682606	3936.549833	826.654297	280.707794
12470.682606	3936.549833	825.469727	328.681366
12470.682606	3936.549833	824.284180	754.572021
12470.682606	3936.549833	823.099609	821.734131
12470.682606	3936.549833	821.914063	683.255493
12470.682606	3936.549833	820.728516	478.064911
12470.682606	3936.549833	819.542969	510.073883
12470.682606	3936.549833	818.356445	125.852234
12470.682606	3936.549833	817.169922	231.641251
12470.682606	3936.549833	815.983398	390.043732
12470.682606	3936.549833	814.796875	316.711273
12470.682606	3936.549833	813.609375	285.510468
12470.682606	3936.549833	812.422852	220.996780
12470.682606	3936.549833	811.235352	323.126801
12470.682606	3936.549833	810.046875	426.962219
12470.682606	3936.549833	808.859375	197.648132
12470.682606	3936.549833	807.670898	240.119675
12470.682606	3936.549833	806.482422	317.627625
12470.682606	3936.549833	805.293945	323.268646
12470.682606	3936.549833	804.104492	172.997131
12470.682606	3936.549833	802.915039	96.354721
12470.682606	3936.549833	801.725586	280.658752
12470.682606	3936.549833	800.536133	148.017487
12470.682606	3936.549833	799.345703	164.213333
12470.682606	3936.549833	798.155273	372.906982
12470.682606	3936.549833	796.964844	184.364807
12470.682606	3936.549833	795.774414	149.845383
12470.682606	3936.549833	794.583008	293.730652
12470.682606	3936.549833	793.392578	423.588959
12470.682606	3936.549833	792.200195	471.228729
12470.682606	3936.549833	791.008789	625.485352
12470.682606	3936.549833	789.816406	797.161072
12470.682606	3936.549833	788.625000	594.913757
12470.682606	3936.549833	787.432617	719.393311
12470.682606	3936.549833	786.239258	459.635406
12470.682606	3936.549833	785.046875	638.250916
12470.682606	3936.549833	783.853516	645.731445
12470.682606	3936.549833	782.660156	824.260559
12470.682606	3936.549833	781.465820	737.503296
12470.682606	3936.549833	780.272461	847.939331
12470.682606	3936.549833	779.078125	450.788818
12470.682606	3936.549833	777.883789	346.780060
12470.682606	3936.549833	776.688477	331.743988
12470.682606	3936.549833	775.494141	498.021393
12470.682606	3936.549833	774.298828	371.465302
12470.682606	3936.549833	773.103516	431.415070
12470.682606	3936.549833	771.907227	580.193848
12470.682606	3936.549833	770.711914	802.087341
12470.682606	3936.549833	769.515625	961.216248
12470.682606	3936.549833	768.318359	824.336609
12470.682606	3936.549833	767.122070	945.143982
12470.682606	3936.549833	765.924805	1018.929077
12470.682606	3936.549833	764.727539	1104.882446
12470.682606	3936.549833	763.530273	1363.027466
12470.682606	3936.549833	762.333008	1076.744751
12470.682606	3936.549833	761.134766	1529.560425
12470.682606	3936.549833	759.936523	1085.202148
12470.682606	3936.549833	758.738281	1058.173462
12470.682606	3936.549833	757.540039	895.638123
12470.682606	3936.549833	756.340820	906.911377
12470.682606	3936.549833	755.141602	721.925537
12470.682606	3936.549833	753.942383	597.817017
12470.682606	3936.549833	752.742188	463.353973
12470.682606	3936.549833	751.541992	323.755707
12470.682606	3936.549833	750.341797	114.814789
12470.682606	3936.549833	749.141602	-40.234901
12470.682606	3936.549833	747.941406	-49.481754
12470.682606	3936.549833	746.740234	-93.403664
12470.682606	3936.549833	745.539063	-41.920273
12470.682606	3936.549833	744.337891	-354.516541
12470.682606	3936.549833	743.135742	-96.713394
12470.682606	3936.549833	741.933594	37.958084
12470.682606	3936.549833	740.731445	84.221809
12470.682606	3936.549833	739.529297	-20.225645
12470.682606	3936.549833	738.326172	147.280289
12470.682606	3936.549833	737.124023	134.656296
12470.682606	3936.549833	735.919922	411.135834
12470.682606	3936.549833	734.716797	415.782684
12470.682606	3936.549833	733.513672	520.798401
12470.682606	3936.549833	732.309570	817.810364
12470.682606	3936.549833	731.105469	1057.623047
12470.682606	3936.549833	729.900391	1314.629517
12470.682606	3936.549833	728.696289	1165.228394
12470.682606	3936.549833	727.491211	1598.433105
12470.682606	3936.549833	726.286133	1260.655396
12470.682606	3936.549833	725.080078	1137.272705
12470.682606	3936.549833	723.874023	1285.165161
12470.682606	3936.549833	722.668945	712.771973
12470.682606	3936.549833	721.461914	762.256165
12470.682606	3936.549833	720.255859	668.427002
12470.682606	3936.549833	719.048828	621.231384
12470.682606	3936.549833	717.841797	553.342590
12470.682606	3936.549833	716.634766	682.165649
12470.682606	3936.549833	715.427734	289.978668
12470.682606	3936.549833	714.219727	182.506363
12470.682606	3936.549833	713.011719	-21.490181
12470.682606	3936.549833	711.803711	9.038521
12470.682606	3936.549833	710.594727	-120.753181
12470.682606	3936.549833	709.385742	-85.076927
12470.682606	3936.549833	708.176758	-8.084449
12470.682606	3936.549833	706.967773	141.203384
12470.682606	3936.549833	705.758789	531.507874
12470.682606	3936.549833	704.548828	291.461670
12470.682606	3936.549833	703.338867	438.808258
12470.682606	3936.549833	702.127930	410.518097
12470.682606	3936.549833	700.917969	394.268951
12470.682606	3936.549833	699.707031	605.075439
12470.682606	3936.549833	698.496094	700.530640
12470.682606	3936.549833	697.285156	1084.806885
12470.682606	3936.549833	696.073242	1410.433105
12470.682606	3936.549833	694.861328	1557.129395
12470.682606	3936.549833	693.649414	1628.116699
12470.682606	3936.549833	692.436523	1231.701294
12470.682606	3936.549833	691.224609	916.158813
12470.682606	3936.549833	690.011719	865.187073
12470.682606	3936.549833	688.798828	712.890869
12470.682606	3936.549833	687.584961	601.812622
12470.682606	3936.549833	686.372070	471.866638
12470.682606	3936.549833	685.158203	870.444031
12470.682606	3936.549833	683.943359	512.218811
12470.682606	3936.549833	682.729492	761.300903
12470.682606	3936.549833	681.514648	766.708008
12470.682606	3936.549833	680.299805	1137.258057
12470.682606	3936.549833	679.084961	977.923828
12470.682606	3936.549833	677.869141	827.163635
12470.682606	3936.549833	676.653320	895.734802
12470.682606	3936.549833	675.437500	1048.159058
12470.682606	3936.549833	674.221680	1205.600952
12470.682606	3936.549833	673.004883	1237.906860
12470.682606	3936.549833	671.789063	1268.431763
12470.682606	3936.549833	670.571289	1701.101074
12470.682606	3936.549833	669.354492	1572.230225
12470.682606	3936.549833	668.136719	2127.708984
12470.682606	3936.549833	666.919922	2291.173828
12470.682606	3936.549833	665.701172	2343.322998
12470.682606	3936.549833	664.483398	2262.017578
12470.682606	3936.549833	663.264648	2226.820801
12470.682606	3936.549833	662.045898	2123.201660
12470.682606	3936.549833	660.827148	2204.093750
12470.682606	3936.549833	659.608398	2088.407959
12470.682606	3936.549833	658.388672	2052.961182
12470.682606	3936.549833	657.168945	1879.126465
12470.682606	3936.549833	655.949219	2039.916016
12470.682606	3936.549833	654.728516	1828.429932
12470.682606	3936.549833	653.507813	1729.582520
12470.682606	3936.549833	652.287109	2002.645996
12470.682606	3936.549833	651.066406	2028.155884
12470.682606	3936.549833	649.844727	2350.313232
12470.682606	3936.549833	648.623047	2967.232422
12470.682606	3936.549833	647.401367	3348.537109
12470.682606	3936.549833	646.179688	3809.692627
12470.682606	3936.549833	644.957031	4212.610352
12470.682606	3936.549833	643.734375	4484.073730
12470.682606	3936.549833	642.511719	4344.817383
12470.682606	3936.549833	641.289063	3987.536621
12470.682606	3936.549833	640.065430	3926.552246
12470.682606	3936.549833	638.841797	3196.500244
12470.682606	3936.549833	637.618164	2936.377441
12470.682606	3936.549833	636.393555	2941.691162
12470.682606	3936.549833	635.168945	2873.743896
12470.682606	3936.549833	633.944336	3304.058105
12470.682606	3936.549833	632.719727	3305.562500
12470.682606	3936.549833	631.494141	3691.170166
12470.682606	3936.549833	630.269531	3821.549316
12470.682606	3936.549833	629.042969	4937.385254
12470.682606	3936.549833	627.817383	5084.197266
12470.682606	3936.549833	626.590820	5613.022461
12470.682606	3936.549833	625.365234	5772.984375
12470.682606	3936.549833	624.137695	5386.003906
12470.682606	3936.549833	622.911133	5206.183594
12470.682606	3936.549833	621.683594	5387.817871
12470.682606	3936.549833	620.456055	5307.938477
12470.682606	3936.549833	619.228516	5412.890625
12470.682606	3936.549833	618.000977	5741.566895
12470.682606	3936.549833	616.772461	5617.197266
12470.682606	3936.549833	615.543945	6060.721680
12470.682606	3936.549833	614.314453	5619.101563
12470.682606	3936.549833	613.085938	5002.998535
12470.682606	3936.549833	611.856445	4732.668945
12470.682606	3936.549833	610.626953	4026.973877
12470.682606	3936.549833	609.397461	3561.947266
12470.682606	3936.549833	608.166992	3242.599121
12470.682606	3936.549833	606.936523	2782.750977
12470.682606	3936.549833	605.706055	2258.652588
12470.682606	3936.549833	604.474609	2076.459961
12470.682606	3936.549833	603.244141	1956.824951
12470.682606	3936.549833	602.012695	1847.249634
12470.682606	3936.549833	600.780273	2008.157593
12470.682606	3936.549833	599.548828	2162.117188
12470.682606	3936.549833	598.316406	2057.241455
12470.682606	3936.549833	597.083984	2030.022949
12470.682606	3936.549833	595.851563	1867.516357
12470.682606	3936.549833	594.618164	1427.891357
12470.682606	3936.549833	593.384766	1454.472778
12470.682606	3936.549833	592.151367	1551.837036
12470.682606	3936.549833	590.917969	1304.633057
12470.682606	3936.549833	589.683594	1295.385620
12470.682606	3936.549833	588.449219	869.199707
12470.682606	3936.549833	587.214844	1133.112793
12470.682606	3936.549833	585.979492	1442.317871
12470.682606	3936.549833	584.745117	1483.135986
12470.682606	3936.549833	583.509766	1309.667236
12470.682606	3936.549833	582.273438	1822.222656
12470.682606	3936.549833	581.038086	1547.387817
12470.682606	3936.549833	579.801758	1821.842407
12470.682606	3936.549833	578.565430	1838.309570
12470.682606	3936.549833	577.329102	1911.915405
12470.682606	3936.549833	576.091797	1739.504761
12470.682606	3936.549833	574.854492	1496.340454
12470.682606	3936.549833	573.617188	1044.445068
12470.682606	3936.549833	572.378906	1220.311890
12470.682606	3936.549833	571.141602	961.923218
12470.682606	3936.549833	569.903320	789.305359
12470.682606	3936.549833	568.664063	855.445923
12470.682606	3936.549833	567.425781	785.267151
12470.682606	3936.549833	566.186523	1086.506104
12470.682606	3936.549833	564.947266	1695.075073
12470.682606	3936.549833	563.708008	1436.229858
12470.682606	3936.549833	562.467773	1103.459473
12470.682606	3936.549833	561.227539	1099.930908
12470.682606	3936.549833	559.987305	1255.833496
12470.682606	3936.549833	558.747070	1010.315674
12470.682606	3936.549833	557.505859	1249.888306
12470.682606	3936.549833	556.264648	1069.722534
12470.682606	3936.549833	555.023438	842.560791
12470.682606	3936.549833	553.781250	892.173645
12470.682606	3936.549833	552.539063	661.601685
12470.682606	3936.549833	551.296875	586.980225
12470.682606	3936.549833	550.054688	810.704407
12470.682606	3936.549833	548.811523	650.429443
12470.682606	3936.549833	547.569336	490.159058
12470.682606	3936.549833	546.325195	535.916626
12470.682606	3936.549833	545.082031	615.094360
12470.682606	3936.549833	543.837891	675.734802
12470.682606	3936.549833	542.593750	197.180359
12470.682606	3936.549833	541.349609	326.383148
12470.682606	3936.549833	540.105469	355.059113
12470.682606	3936.549833	538.860352	502.441803
12470.682606	3936.549833	537.615234	740.038147
12470.682606	3936.549833	536.369141	786.810303
12470.682606	3936.549833	535.124023	1039.193115
12470.682606	3936.549833	533.877930	1077.428101
12470.682606	3936.549833	532.631836	1197.501099
12470.682606	3936.549833	531.384766	1203.841064
12470.682606	3936.549833	530.138672	1101.567017
12470.682606	3936.549833	528.891602	905.756409
12470.682606	3936.549833	527.643555	1097.404907
12470.682606	3936.549833	526.396484	1332.373901
12470.682606	3936.549833	525.148438	1291.785767
12470.682606	3936.549833	523.900391	1733.495972
12470.682606	3936.549833	522.652344	1776.234741
12470.682606	3936.549833	521.403320	1845.619141
12470.682606	3936.549833	520.154297	1858.264282
12470.682606	3936.549833	518.905273	1614.119385
12470.682606	3936.549833	517.656250	1413.424805
12470.682606	3936.549833	516.406250	1114.471436
12470.682606	3936.549833	515.156250	1075.606934
12470.682606	3936.549833	513.906250	951.806213
12470.682606	3936.549833	512.655273	863.041809
12470.682606	3936.549833	511.404297	1042.444946
12470.682606	3936.549833	510.153320	955.410278
12470.682606	3936.549833	508.902344	953.336365
12470.682606	3936.549833	507.650391	1027.836792
12470.682606	3936.549833	506.398438	994.193054
12470.682606	3936.549833	505.146484	1131.944336
12470.682606	3936.549833	503.893555	631.030640
12470.682606	3936.549833	502.641602	742.295471
12470.682606	3936.549833	501.388672	554.319641
12470.682606	3936.549833	500.134766	318.269592
12470.682606	3936.549833	498.881836	233.613617
12470.682606	3936.549833	497.627930	94.223778
12470.682606	3936.549833	496.374023	-167.946915
12470.682606	3936.549833	495.119141	-21.430878
12470.682606	3936.549833	493.865234	23.841213
12470.682606	3936.549833	492.610352	14.386447
12470.682606	3936.549833	491.355469	-24.846457
12470.682606	3936.549833	490.099609	-2.594760
12470.682606	3936.549833	488.843750	34.674026
12470.682606	3936.549833	487.587891	257.778290
12470.682606	3936.549833	486.332031	271.966003
12470.682606	3936.549833	485.075195	248.115402
12470.682606	3936.549833	483.818359	267.479095
12470.682606	3936.549833	482.561523	366.488525
12470.682606	3936.549833	481.304688	251.864182
12470.682606	3936.549833	480.046875	476.945282
12470.682606	3936.549833	478.789063	528.181091
12470.682606	3936.549833	477.531250	493.432526
12470.682606	3936.549833	476.272461	611.105286
12470.682606	3936.549833	475.013672	217.499603
12470.682606	3936.549833	473.754883	287.476105
12470.682606	3936.549833	472.496094	101.168678
12470.682606	3936.549833	471.236328	-38.616486
12470.682606	3936.549833	469.976563	180.613358
12470.682606	3936.549833	468.716797	350.308167
12470.682606	3936.549833	467.456055	305.211670
12470.682606	3936.549833	466.196289	298.312836
12470.682606	3936.549833	464.935547	364.256531
12470.682606	3936.549833	463.673828	303.139038
12470.682606	3936.549833	462.413086	503.139465
12470.682606	3936.549833	461.151367	653.676514
12470.682606	3936.549833	459.889648	634.305115
12470.682606	3936.549833	458.626953	634.901611
12470.682606	3936.549833	457.364258	554.827026
12470.682606	3936.549833	456.101563	568.982788
12470.682606	3936.549833	454.838867	677.311096
12470.682606	3936.549833	453.575195	746.184265
12470.682606	3936.549833	452.312500	683.336060
12470.682606	3936.549833	451.047852	633.852661
12470.682606	3936.549833	449.784180	658.726135
12470.682606	3936.549833	448.519531	726.588745
12470.682606	3936.549833	447.254883	522.831665
12470.682606	3936.549833	445.990234	269.934540
12470.682606	3936.549833	444.725586	269.212524
12470.682606	3936.549833	443.459961	448.066223
12470.682606	3936.549833	442.194336	365.355804
12470.682606	3936.549833	440.927734	412.817413
12470.682606	3936.549833	439.662109	-77.455399
12470.682606	3936.549833	438.395508	212.163528
12470.682606	3936.549833	437.127930	10.189087
12470.682606	3936.549833	435.861328	-68.242096
12470.682606	3936.549833	434.593750	-47.885025
12470.682606	3936.549833	433.326172	104.064346
12470.682606	3936.549833	432.058594	121.384598
12470.682606	3936.549833	430.790039	-54.977207
12470.682606	3936.549833	429.521484	-22.585812
12470.682606	3936.549833	428.252930	-216.634613
12470.682606	3936.549833	426.984375	119.682556
12470.682606	3936.549833	425.714844	-34.698410
12470.682606	3936.549833	424.445313	175.319550
12470.682606	3936.549833	423.174805	546.089478
12470.682606	3936.549833	421.905273	70.592422
12470.682606	3936.549833	420.634766	102.008110
12470.682606	3936.549833	419.364258	302.325714
12470.682606	3936.549833	418.092773	520.642456
12470.682606	3936.549833	416.822266	429.245331
12470.682606	3936.549833	415.550781	372.327850
12470.682606	3936.549833	414.278320	770.767151
12470.682606	3936.549833	413.006836	780.986694
12470.682606	3936.549833	411.734375	959.822937
12470.682606	3936.549833	410.461914	773.578857
12470.682606	3936.549833	409.188477	1043.941162
12470.682606	3936.549833	407.916016	1019.670593
12470.682606	3936.549833	406.642578	1080.407349
12470.682606	3936.549833	405.368164	1265.326416
12470.682606	3936.549833	404.094727	1208.112183
12470.682606	3936.549833	402.820313	1382.927856
12470.682606	3936.549833	401.545898	1394.118164
12470.682606	3936.549833	400.270508	1414.956055
12470.682606	3936.549833	398.996094	1398.060913
12470.682606	3936.549833	397.720703	1307.488403
12470.682606	3936.549833	396.444336	1473.094971
12470.682606	3936.549833	395.168945	1380.478638
12470.682606	3936.549833	393.892578	1173.390503
12470.682606	3936.549833	392.616211	1130.924194
12470.682606	3936.549833	391.339844	1138.747192
12470.682606	3936.549833	390.062500	971.701843
12470.682606	3936.549833	388.785156	730.986572
12470.682606	3936.549833	387.507813	703.566711
12470.682606	3936.549833	386.229492	370.919159
12470.682606	3936.549833	384.951172	649.083801
12470.682606	3936.549833	383.672852	597.528625
12470.682606	3936.549833	382.394531	889.187195
12470.682606	3936.549833	381.115234	588.979736
12470.682606	3936.549833	379.835938	719.798279
12470.682606	3936.549833	378.556641	939.469421
12470.682606	3936.549833	377.277344	1011.908325
12470.682606	3936.549833	375.997070	1003.868164
12470.682606	3936.549833	374.716797	1069.921387
12470.682606	3936.549833	373.435547	827.744873
12470.682606	3936.549833	372.155273	1033.666016
12470.682606	3936.549833	370.874023	937.842712
12470.682606	3936.549833	369.591797	628.197754
12470.682606	3936.549833	368.310547	749.995544
12470.682606	3936.549833	367.028320	627.000854
12470.682606	3936.549833	365.746094	418.522675
12470.682606	3936.549833	364.463867	361.667358
12470.682606	3936.549833	363.180664	582.902649
12470.682606	3936.549833	361.897461	819.041077
12470.682606	3936.549833	360.614258	537.697754
12470.682606	3936.549833	359.330078	612.064941
12470.682606	3936.549833	358.045898	681.743958
12470.682606	3936.549833	356.761719	925.077087
12470.682606	3936.549833	355.477539	847.327026
12470.682606	3936.549833	354.192383	1088.965332
12470.682606	3936.549833	352.907227	1168.363770
12470.682606	3936.549833	351.622070	1130.927734
12470.682606	3936.549833	350.336914	952.363525
12470.682606	3936.549833	349.050781	1267.590698
12470.682606	3936.549833	347.764648	981.536682
12470.682606	3936.549833	346.477539	1167.897217
12470.682606	3936.549833	345.191406	1334.280518
12470.682606	3936.549833	343.904297	1139.068848
12470.682606	3936.549833	342.616211	1292.702881
12470.682606	3936.549833	341.329102	1060.548340
12470.682606	3936.549833	340.041016	1071.800415
12470.682606	3936.549833	338.752930	1311.697021
12470.682606	3936.549833	337.463867	1338.620239
12470.682606	3936.549833	336.175781	1443.633057
12470.682606	3936.549833	334.886719	1112.637939
12470.682606	3936.549833	333.596680	1130.946411
12470.682606	3936.549833	332.307617	1217.302734
12470.682606	3936.549833	331.017578	1033.943848
12470.682606	3936.549833	329.727539	1054.028442
12470.682606	3936.549833	328.436523	1031.898438
12470.682606	3936.549833	327.146484	754.586304
12470.682606	3936.549833	325.855469	833.477844
12470.682606	3936.549833	324.563477	803.657166
12470.682606	3936.549833	323.272461	420.089996
12470.682606	3936.549833	321.980469	759.765808
12470.682606	3936.549833	320.688477	574.483948
12470.682606	3936.549833	319.395508	713.692261
12470.682606	3936.549833	318.103516	492.425537
12470.682606	3936.549833	316.810547	447.038147
12470.682606	3936.549833	315.516602	181.061432
12470.682606	3936.549833	314.223633	-95.986443
12470.682606	3936.549833	312.929688	-142.967545
12470.682606	3936.549833	311.635742	130.046722
12470.682606	3936.549833	310.340820	-25.688906
12470.682606	3936.549833	309.045898	-66.163452
12470.682606	3936.549833	307.750977	143.489883
12470.682606	3936.549833	306.456055	33.667622
12470.682606	3936.549833	305.160156	59.276421
12470.682606	3936.549833	303.865234	180.120636
12470.682606	3936.549833	302.568359	-89.777809
12470.682606	3936.549833	301.272461	365.114777
12470.682606	3936.549833	299.975586	98.130661
12470.682606	3936.549833	298.678711	-64.822235
