#X		#Y		#Wave		#Intensity
13270.075319	3909.861833	1999.980469	-11.407590
13270.075319	3909.861833	1999.016602	-196.889725
13270.075319	3909.861833	1998.052734	-171.358337
13270.075319	3909.861833	1997.087891	99.114265
13270.075319	3909.861833	1996.123047	-52.091320
13270.075319	3909.861833	1995.158203	-64.879524
13270.075319	3909.861833	1994.193359	35.916248
13270.075319	3909.861833	1993.228516	257.674255
13270.075319	3909.861833	1992.262695	-33.471806
13270.075319	3909.861833	1991.297852	234.606842
13270.075319	3909.861833	1990.332031	192.918884
13270.075319	3909.861833	1989.366211	165.798828
13270.075319	3909.861833	1988.399414	29.552061
13270.075319	3909.861833	1987.433594	-52.501667
13270.075319	3909.861833	1986.466797	38.329567
13270.075319	3909.861833	1985.500977	193.161072
13270.075319	3909.861833	1984.534180	90.588547
13270.075319	3909.861833	1983.567383	249.821884
13270.075319	3909.861833	1982.599609	144.348190
13270.075319	3909.861833	1981.632813	137.529938
13270.075319	3909.861833	1980.665039	276.257965
13270.075319	3909.861833	1979.697266	207.267670
13270.075319	3909.861833	1978.729492	283.809906
13270.075319	3909.861833	1977.761719	105.841393
13270.075319	3909.861833	1976.792969	223.983582
13270.075319	3909.861833	1975.825195	329.579559
13270.075319	3909.861833	1974.856445	321.469818
13270.075319	3909.861833	1973.887695	98.575272
13270.075319	3909.861833	1972.918945	45.820412
13270.075319	3909.861833	1971.949219	175.448044
13270.075319	3909.861833	1970.980469	171.752960
13270.075319	3909.861833	1970.010742	-34.217655
13270.075319	3909.861833	1969.041016	191.119965
13270.075319	3909.861833	1968.071289	211.722610
13270.075319	3909.861833	1967.101563	27.712917
13270.075319	3909.861833	1966.130859	85.093727
13270.075319	3909.861833	1965.161133	-42.359440
13270.075319	3909.861833	1964.190430	0.065305
13270.075319	3909.861833	1963.219727	-43.775204
13270.075319	3909.861833	1962.249023	200.337524
13270.075319	3909.861833	1961.277344	119.417809
13270.075319	3909.861833	1960.306641	21.244099
13270.075319	3909.861833	1959.334961	16.538479
13270.075319	3909.861833	1958.363281	90.496239
13270.075319	3909.861833	1957.391602	51.251122
13270.075319	3909.861833	1956.419922	43.943535
13270.075319	3909.861833	1955.447266	-137.948517
13270.075319	3909.861833	1954.474609	-15.018190
13270.075319	3909.861833	1953.501953	127.497536
13270.075319	3909.861833	1952.529297	56.173092
13270.075319	3909.861833	1951.556641	107.684334
13270.075319	3909.861833	1950.583984	112.493095
13270.075319	3909.861833	1949.610352	117.283493
13270.075319	3909.861833	1948.636719	-25.250229
13270.075319	3909.861833	1947.663086	40.917850
13270.075319	3909.861833	1946.689453	87.424850
13270.075319	3909.861833	1945.715820	-8.408657
13270.075319	3909.861833	1944.741211	195.107651
13270.075319	3909.861833	1943.767578	23.259497
13270.075319	3909.861833	1942.792969	108.991585
13270.075319	3909.861833	1941.818359	62.294212
13270.075319	3909.861833	1940.842773	62.206898
13270.075319	3909.861833	1939.868164	79.297035
13270.075319	3909.861833	1938.892578	111.101768
13270.075319	3909.861833	1937.916992	-153.558029
13270.075319	3909.861833	1936.941406	-16.336447
13270.075319	3909.861833	1935.965820	-180.402283
13270.075319	3909.861833	1934.990234	59.679028
13270.075319	3909.861833	1934.013672	223.798019
13270.075319	3909.861833	1933.037109	54.971214
13270.075319	3909.861833	1932.060547	8.614337
13270.075319	3909.861833	1931.083984	-147.805206
13270.075319	3909.861833	1930.107422	62.852760
13270.075319	3909.861833	1929.129883	-46.970760
13270.075319	3909.861833	1928.153320	-210.514984
13270.075319	3909.861833	1927.175781	-43.860344
13270.075319	3909.861833	1926.198242	-6.795908
13270.075319	3909.861833	1925.219727	-99.251930
13270.075319	3909.861833	1924.242188	-88.985893
13270.075319	3909.861833	1923.263672	-37.143635
13270.075319	3909.861833	1922.285156	73.353424
13270.075319	3909.861833	1921.306641	-187.394363
13270.075319	3909.861833	1920.328125	52.609730
13270.075319	3909.861833	1919.349609	63.068439
13270.075319	3909.861833	1918.370117	2.777866
13270.075319	3909.861833	1917.391602	91.438309
13270.075319	3909.861833	1916.412109	-117.587143
13270.075319	3909.861833	1915.431641	61.427544
13270.075319	3909.861833	1914.452148	-5.936984
13270.075319	3909.861833	1913.472656	2.375878
13270.075319	3909.861833	1912.492188	-96.553696
13270.075319	3909.861833	1911.511719	-68.624985
13270.075319	3909.861833	1910.531250	129.964706
13270.075319	3909.861833	1909.550781	-85.757362
13270.075319	3909.861833	1908.569336	98.240128
13270.075319	3909.861833	1907.588867	-197.685028
13270.075319	3909.861833	1906.607422	178.777954
13270.075319	3909.861833	1905.625977	102.210571
13270.075319	3909.861833	1904.644531	-13.234235
13270.075319	3909.861833	1903.662109	-65.298607
13270.075319	3909.861833	1902.680664	-63.750496
13270.075319	3909.861833	1901.698242	-76.756439
13270.075319	3909.861833	1900.715820	-62.947361
13270.075319	3909.861833	1899.733398	16.577494
13270.075319	3909.861833	1898.750000	59.638474
13270.075319	3909.861833	1897.767578	112.457153
13270.075319	3909.861833	1896.784180	-136.154266
13270.075319	3909.861833	1895.800781	179.274429
13270.075319	3909.861833	1894.817383	-22.995892
13270.075319	3909.861833	1893.833984	132.018265
13270.075319	3909.861833	1892.850586	39.232021
13270.075319	3909.861833	1891.866211	-36.477627
13270.075319	3909.861833	1890.881836	-17.414341
13270.075319	3909.861833	1889.897461	-83.295944
13270.075319	3909.861833	1888.913086	-112.703560
13270.075319	3909.861833	1887.927734	-127.502357
13270.075319	3909.861833	1886.943359	-23.359798
13270.075319	3909.861833	1885.958008	-50.230736
13270.075319	3909.861833	1884.972656	-152.252274
13270.075319	3909.861833	1883.987305	-212.976410
13270.075319	3909.861833	1883.001953	-67.545959
13270.075319	3909.861833	1882.015625	-57.900311
13270.075319	3909.861833	1881.029297	72.959915
13270.075319	3909.861833	1880.042969	-87.002716
13270.075319	3909.861833	1879.056641	85.056137
13270.075319	3909.861833	1878.070313	-36.040642
13270.075319	3909.861833	1877.083984	-14.171404
13270.075319	3909.861833	1876.096680	-45.563580
13270.075319	3909.861833	1875.109375	-183.450516
13270.075319	3909.861833	1874.122070	155.595032
13270.075319	3909.861833	1873.134766	37.118519
13270.075319	3909.861833	1872.146484	97.761612
13270.075319	3909.861833	1871.159180	-129.495926
13270.075319	3909.861833	1870.170898	122.268456
13270.075319	3909.861833	1869.182617	-162.925888
13270.075319	3909.861833	1868.194336	-12.780675
13270.075319	3909.861833	1867.205078	59.958065
13270.075319	3909.861833	1866.216797	65.000366
13270.075319	3909.861833	1865.227539	74.878197
13270.075319	3909.861833	1864.238281	-74.705612
13270.075319	3909.861833	1863.249023	55.981731
13270.075319	3909.861833	1862.259766	34.464981
13270.075319	3909.861833	1861.269531	-153.662079
13270.075319	3909.861833	1860.279297	-61.665413
13270.075319	3909.861833	1859.290039	158.224182
13270.075319	3909.861833	1858.298828	-29.833776
13270.075319	3909.861833	1857.308594	-17.557745
13270.075319	3909.861833	1856.318359	91.203636
13270.075319	3909.861833	1855.327148	45.543098
13270.075319	3909.861833	1854.335938	175.931000
13270.075319	3909.861833	1853.344727	19.334425
13270.075319	3909.861833	1852.353516	113.488060
13270.075319	3909.861833	1851.362305	132.872665
13270.075319	3909.861833	1850.370117	24.513502
13270.075319	3909.861833	1849.377930	125.781364
13270.075319	3909.861833	1848.385742	-40.391800
13270.075319	3909.861833	1847.393555	-23.490082
13270.075319	3909.861833	1846.401367	24.683115
13270.075319	3909.861833	1845.408203	-102.936920
13270.075319	3909.861833	1844.415039	17.384995
13270.075319	3909.861833	1843.421875	-42.862560
13270.075319	3909.861833	1842.428711	-4.469308
13270.075319	3909.861833	1841.435547	-7.020876
13270.075319	3909.861833	1840.441406	257.370026
13270.075319	3909.861833	1839.448242	69.529373
13270.075319	3909.861833	1838.454102	64.446236
13270.075319	3909.861833	1837.459961	64.131432
13270.075319	3909.861833	1836.464844	191.154755
13270.075319	3909.861833	1835.470703	65.775078
13270.075319	3909.861833	1834.475586	70.131622
13270.075319	3909.861833	1833.480469	187.334991
13270.075319	3909.861833	1832.485352	-22.172066
13270.075319	3909.861833	1831.490234	37.276867
13270.075319	3909.861833	1830.495117	41.435116
13270.075319	3909.861833	1829.499023	91.141716
13270.075319	3909.861833	1828.502930	239.163818
13270.075319	3909.861833	1827.506836	259.909088
13270.075319	3909.861833	1826.510742	50.295906
13270.075319	3909.861833	1825.513672	85.338936
13270.075319	3909.861833	1824.517578	57.960400
13270.075319	3909.861833	1823.520508	52.106075
13270.075319	3909.861833	1822.523438	-23.326601
13270.075319	3909.861833	1821.526367	320.611115
13270.075319	3909.861833	1820.529297	175.533020
13270.075319	3909.861833	1819.531250	176.577484
13270.075319	3909.861833	1818.533203	-105.090179
13270.075319	3909.861833	1817.535156	70.684875
13270.075319	3909.861833	1816.537109	97.870033
13270.075319	3909.861833	1815.539063	309.300842
13270.075319	3909.861833	1814.540039	226.177872
13270.075319	3909.861833	1813.541992	121.472824
13270.075319	3909.861833	1812.542969	-69.404999
13270.075319	3909.861833	1811.543945	139.188843
13270.075319	3909.861833	1810.543945	295.003479
13270.075319	3909.861833	1809.544922	89.607048
13270.075319	3909.861833	1808.544922	116.104530
13270.075319	3909.861833	1807.544922	152.066544
13270.075319	3909.861833	1806.544922	106.672516
13270.075319	3909.861833	1805.544922	25.367565
13270.075319	3909.861833	1804.544922	-51.218628
13270.075319	3909.861833	1803.543945	321.164581
13270.075319	3909.861833	1802.542969	339.887146
13270.075319	3909.861833	1801.541992	29.022125
13270.075319	3909.861833	1800.541016	92.960052
13270.075319	3909.861833	1799.539063	187.801880
13270.075319	3909.861833	1798.538086	53.436127
13270.075319	3909.861833	1797.536133	145.669250
13270.075319	3909.861833	1796.534180	11.161874
13270.075319	3909.861833	1795.532227	-87.621193
13270.075319	3909.861833	1794.529297	-26.715099
13270.075319	3909.861833	1793.527344	62.676949
13270.075319	3909.861833	1792.524414	125.709183
13270.075319	3909.861833	1791.521484	264.871918
13270.075319	3909.861833	1790.518555	29.805820
13270.075319	3909.861833	1789.514648	128.222443
13270.075319	3909.861833	1788.511719	128.847397
13270.075319	3909.861833	1787.507813	243.661179
13270.075319	3909.861833	1786.503906	67.863663
13270.075319	3909.861833	1785.500000	241.936493
13270.075319	3909.861833	1784.496094	242.098633
13270.075319	3909.861833	1783.491211	225.488815
13270.075319	3909.861833	1782.486328	111.233223
13270.075319	3909.861833	1781.481445	-110.126854
13270.075319	3909.861833	1780.476563	29.955757
13270.075319	3909.861833	1779.471680	67.630783
13270.075319	3909.861833	1778.465820	7.706473
13270.075319	3909.861833	1777.460938	-33.292099
13270.075319	3909.861833	1776.455078	122.836113
13270.075319	3909.861833	1775.449219	143.364655
13270.075319	3909.861833	1774.442383	-92.781372
13270.075319	3909.861833	1773.436523	200.662354
13270.075319	3909.861833	1772.429688	192.309143
13270.075319	3909.861833	1771.422852	112.617683
13270.075319	3909.861833	1770.416016	115.912712
13270.075319	3909.861833	1769.409180	31.278748
13270.075319	3909.861833	1768.402344	-60.561954
13270.075319	3909.861833	1767.394531	39.655865
13270.075319	3909.861833	1766.386719	44.841747
13270.075319	3909.861833	1765.378906	-33.094490
13270.075319	3909.861833	1764.371094	9.792142
13270.075319	3909.861833	1763.362305	24.085871
13270.075319	3909.861833	1762.354492	-118.160072
13270.075319	3909.861833	1761.345703	87.837234
13270.075319	3909.861833	1760.336914	87.522354
13270.075319	3909.861833	1759.328125	20.760305
13270.075319	3909.861833	1758.318359	-41.371986
13270.075319	3909.861833	1757.308594	88.179817
13270.075319	3909.861833	1756.299805	42.386570
13270.075319	3909.861833	1755.290039	145.587555
13270.075319	3909.861833	1754.279297	11.976649
13270.075319	3909.861833	1753.269531	-79.114220
13270.075319	3909.861833	1752.258789	-54.396233
13270.075319	3909.861833	1751.249023	43.509926
13270.075319	3909.861833	1750.238281	8.828201
13270.075319	3909.861833	1749.226563	-231.654633
13270.075319	3909.861833	1748.215820	-39.611221
13270.075319	3909.861833	1747.204102	90.780373
13270.075319	3909.861833	1746.193359	-126.323868
13270.075319	3909.861833	1745.181641	-145.044815
13270.075319	3909.861833	1744.168945	-24.544777
13270.075319	3909.861833	1743.157227	-114.374046
13270.075319	3909.861833	1742.144531	-15.426582
13270.075319	3909.861833	1741.132813	-39.381054
13270.075319	3909.861833	1740.120117	-75.262711
13270.075319	3909.861833	1739.106445	30.311146
13270.075319	3909.861833	1738.093750	5.975122
13270.075319	3909.861833	1737.080078	-44.434372
13270.075319	3909.861833	1736.067383	-151.538071
13270.075319	3909.861833	1735.053711	-100.762703
13270.075319	3909.861833	1734.040039	32.377045
13270.075319	3909.861833	1733.025391	78.124641
13270.075319	3909.861833	1732.011719	-83.627922
13270.075319	3909.861833	1730.997070	-125.297462
13270.075319	3909.861833	1729.982422	-75.206726
13270.075319	3909.861833	1728.967773	-105.332802
13270.075319	3909.861833	1727.952148	0.989194
13270.075319	3909.861833	1726.937500	-123.553558
13270.075319	3909.861833	1725.921875	-52.820313
13270.075319	3909.861833	1724.906250	-139.907562
13270.075319	3909.861833	1723.890625	-109.438774
13270.075319	3909.861833	1722.875000	-95.570610
13270.075319	3909.861833	1721.858398	118.079041
13270.075319	3909.861833	1720.841797	39.937653
13270.075319	3909.861833	1719.825195	25.186512
13270.075319	3909.861833	1718.808594	-48.443256
13270.075319	3909.861833	1717.791992	-51.658020
13270.075319	3909.861833	1716.774414	-101.995056
13270.075319	3909.861833	1715.756836	28.463007
13270.075319	3909.861833	1714.739258	-22.103426
13270.075319	3909.861833	1713.721680	-16.405519
13270.075319	3909.861833	1712.704102	127.702995
13270.075319	3909.861833	1711.685547	74.442215
13270.075319	3909.861833	1710.667969	68.041183
13270.075319	3909.861833	1709.649414	63.863091
13270.075319	3909.861833	1708.630859	57.229485
13270.075319	3909.861833	1707.611328	146.645294
13270.075319	3909.861833	1706.592773	118.669525
13270.075319	3909.861833	1705.573242	191.406845
13270.075319	3909.861833	1704.553711	-101.707466
13270.075319	3909.861833	1703.534180	3.641006
13270.075319	3909.861833	1702.513672	195.534897
13270.075319	3909.861833	1701.494141	-135.219604
13270.075319	3909.861833	1700.473633	-56.025600
13270.075319	3909.861833	1699.453125	-44.886646
13270.075319	3909.861833	1698.432617	22.343752
13270.075319	3909.861833	1697.412109	16.869741
13270.075319	3909.861833	1696.390625	219.605530
13270.075319	3909.861833	1695.369141	157.712051
13270.075319	3909.861833	1694.347656	-117.180740
13270.075319	3909.861833	1693.326172	38.377460
13270.075319	3909.861833	1692.304688	193.779343
13270.075319	3909.861833	1691.282227	-1.762410
13270.075319	3909.861833	1690.260742	22.465826
13270.075319	3909.861833	1689.238281	252.281799
13270.075319	3909.861833	1688.214844	255.199112
13270.075319	3909.861833	1687.192383	47.736629
13270.075319	3909.861833	1686.168945	-56.957310
13270.075319	3909.861833	1685.146484	13.496864
13270.075319	3909.861833	1684.123047	11.423967
13270.075319	3909.861833	1683.099609	-35.097862
13270.075319	3909.861833	1682.075195	-46.687595
13270.075319	3909.861833	1681.051758	-2.327303
13270.075319	3909.861833	1680.027344	-84.094101
13270.075319	3909.861833	1679.002930	270.372742
13270.075319	3909.861833	1677.978516	242.069626
13270.075319	3909.861833	1676.953125	162.373352
13270.075319	3909.861833	1675.928711	126.947174
13270.075319	3909.861833	1674.903320	86.776810
13270.075319	3909.861833	1673.877930	109.479263
13270.075319	3909.861833	1672.852539	208.999207
13270.075319	3909.861833	1671.826172	7.827472
13270.075319	3909.861833	1670.800781	184.054764
13270.075319	3909.861833	1669.774414	315.874207
13270.075319	3909.861833	1668.748047	258.955933
13270.075319	3909.861833	1667.721680	460.414551
13270.075319	3909.861833	1666.694336	121.686996
13270.075319	3909.861833	1665.667969	-58.707691
13270.075319	3909.861833	1664.640625	265.800049
13270.075319	3909.861833	1663.613281	238.840622
13270.075319	3909.861833	1662.585938	183.918411
13270.075319	3909.861833	1661.557617	391.715149
13270.075319	3909.861833	1660.530273	87.891136
13270.075319	3909.861833	1659.501953	242.043762
13270.075319	3909.861833	1658.473633	291.496124
13270.075319	3909.861833	1657.444336	559.279480
13270.075319	3909.861833	1656.416016	582.988037
13270.075319	3909.861833	1655.386719	420.797028
13270.075319	3909.861833	1654.358398	495.509949
13270.075319	3909.861833	1653.328125	307.740540
13270.075319	3909.861833	1652.298828	419.474701
13270.075319	3909.861833	1651.269531	538.081482
13270.075319	3909.861833	1650.239258	554.477600
13270.075319	3909.861833	1649.208984	438.581299
13270.075319	3909.861833	1648.178711	591.761353
13270.075319	3909.861833	1647.148438	278.692108
13270.075319	3909.861833	1646.117188	515.220825
13270.075319	3909.861833	1645.086914	865.232788
13270.075319	3909.861833	1644.055664	579.975708
13270.075319	3909.861833	1643.024414	853.278198
13270.075319	3909.861833	1641.992188	716.332153
13270.075319	3909.861833	1640.960938	621.120789
13270.075319	3909.861833	1639.928711	787.608337
13270.075319	3909.861833	1638.896484	886.852112
13270.075319	3909.861833	1637.864258	886.480713
13270.075319	3909.861833	1636.832031	737.945801
13270.075319	3909.861833	1635.798828	790.763550
13270.075319	3909.861833	1634.766602	859.753113
13270.075319	3909.861833	1633.733398	1067.477417
13270.075319	3909.861833	1632.699219	907.338318
13270.075319	3909.861833	1631.666016	805.071167
13270.075319	3909.861833	1630.632813	885.474304
13270.075319	3909.861833	1629.598633	1236.262939
13270.075319	3909.861833	1628.564453	1136.243652
13270.075319	3909.861833	1627.530273	976.174744
13270.075319	3909.861833	1626.495117	1167.289185
13270.075319	3909.861833	1625.460938	1048.834961
13270.075319	3909.861833	1624.425781	1406.114136
13270.075319	3909.861833	1623.390625	1259.925415
13270.075319	3909.861833	1622.355469	1453.122803
13270.075319	3909.861833	1621.319336	1327.731323
13270.075319	3909.861833	1620.284180	1458.536011
13270.075319	3909.861833	1619.248047	1533.906372
13270.075319	3909.861833	1618.211914	1519.293457
13270.075319	3909.861833	1617.174805	1269.448608
13270.075319	3909.861833	1616.138672	1462.416748
13270.075319	3909.861833	1615.101563	1355.619263
13270.075319	3909.861833	1614.065430	1668.362427
13270.075319	3909.861833	1613.027344	1639.918335
13270.075319	3909.861833	1611.990234	1666.808105
13270.075319	3909.861833	1610.953125	1647.635132
13270.075319	3909.861833	1609.915039	1934.765015
13270.075319	3909.861833	1608.876953	1906.352783
13270.075319	3909.861833	1607.838867	1843.440063
13270.075319	3909.861833	1606.800781	2054.468994
13270.075319	3909.861833	1605.761719	2154.963379
13270.075319	3909.861833	1604.723633	2016.182007
13270.075319	3909.861833	1603.684570	1948.772827
13270.075319	3909.861833	1602.644531	1996.392822
13270.075319	3909.861833	1601.605469	2039.441528
13270.075319	3909.861833	1600.566406	1769.845825
13270.075319	3909.861833	1599.526367	1845.147217
13270.075319	3909.861833	1598.486328	1881.386475
13270.075319	3909.861833	1597.446289	1945.217285
13270.075319	3909.861833	1596.405273	1935.535156
13270.075319	3909.861833	1595.365234	1877.680786
13270.075319	3909.861833	1594.324219	1835.946655
13270.075319	3909.861833	1593.283203	1736.874756
13270.075319	3909.861833	1592.242188	1865.125977
13270.075319	3909.861833	1591.200195	2064.498291
13270.075319	3909.861833	1590.159180	1940.335815
13270.075319	3909.861833	1589.117188	1836.899048
13270.075319	3909.861833	1588.075195	1861.992798
13270.075319	3909.861833	1587.032227	1712.833252
13270.075319	3909.861833	1585.990234	2251.605713
13270.075319	3909.861833	1584.947266	2127.749756
13270.075319	3909.861833	1583.904297	2049.833984
13270.075319	3909.861833	1582.861328	1843.691284
13270.075319	3909.861833	1581.818359	1878.230835
13270.075319	3909.861833	1580.775391	1857.847412
13270.075319	3909.861833	1579.731445	1901.636597
13270.075319	3909.861833	1578.687500	1453.221680
13270.075319	3909.861833	1577.643555	1710.086670
13270.075319	3909.861833	1576.598633	1557.234375
13270.075319	3909.861833	1575.554688	1402.238525
13270.075319	3909.861833	1574.509766	1595.093872
13270.075319	3909.861833	1573.464844	1570.650879
13270.075319	3909.861833	1572.419922	1500.552612
13270.075319	3909.861833	1571.374023	1366.521118
13270.075319	3909.861833	1570.329102	1417.795288
13270.075319	3909.861833	1569.283203	1446.255249
13270.075319	3909.861833	1568.237305	1278.266846
13270.075319	3909.861833	1567.191406	1423.416260
13270.075319	3909.861833	1566.144531	1372.135986
13270.075319	3909.861833	1565.098633	1241.043945
13270.075319	3909.861833	1564.051758	1468.543579
13270.075319	3909.861833	1563.004883	1506.565552
13270.075319	3909.861833	1561.957031	1610.833496
13270.075319	3909.861833	1560.910156	1318.109253
13270.075319	3909.861833	1559.862305	1185.277466
13270.075319	3909.861833	1558.814453	1052.588501
13270.075319	3909.861833	1557.766602	1052.317383
13270.075319	3909.861833	1556.718750	944.973938
13270.075319	3909.861833	1555.669922	1074.838135
13270.075319	3909.861833	1554.621094	1008.735352
13270.075319	3909.861833	1553.573242	938.211243
13270.075319	3909.861833	1552.523438	1416.864136
13270.075319	3909.861833	1551.474609	1355.584473
13270.075319	3909.861833	1550.424805	1021.123779
13270.075319	3909.861833	1549.375000	980.628113
13270.075319	3909.861833	1548.325195	1129.205200
13270.075319	3909.861833	1547.275391	1150.368774
13270.075319	3909.861833	1546.225586	1076.051758
13270.075319	3909.861833	1545.174805	1083.766357
13270.075319	3909.861833	1544.124023	775.396301
13270.075319	3909.861833	1543.073242	983.523865
13270.075319	3909.861833	1542.022461	934.735107
13270.075319	3909.861833	1540.970703	1065.664673
13270.075319	3909.861833	1539.919922	1060.290771
13270.075319	3909.861833	1538.868164	745.960938
13270.075319	3909.861833	1537.815430	840.827820
13270.075319	3909.861833	1536.763672	651.836731
13270.075319	3909.861833	1535.710938	774.174561
13270.075319	3909.861833	1534.659180	653.629944
13270.075319	3909.861833	1533.606445	739.834534
13270.075319	3909.861833	1532.552734	615.022095
13270.075319	3909.861833	1531.500000	742.293884
13270.075319	3909.861833	1530.446289	1008.030396
13270.075319	3909.861833	1529.393555	783.808960
13270.075319	3909.861833	1528.338867	657.304565
13270.075319	3909.861833	1527.285156	662.507141
13270.075319	3909.861833	1526.231445	679.170654
13270.075319	3909.861833	1525.176758	698.212646
13270.075319	3909.861833	1524.122070	676.584839
13270.075319	3909.861833	1523.067383	747.994141
13270.075319	3909.861833	1522.012695	776.464844
13270.075319	3909.861833	1520.957031	723.510742
13270.075319	3909.861833	1519.901367	593.720520
13270.075319	3909.861833	1518.845703	595.428223
13270.075319	3909.861833	1517.790039	642.541748
13270.075319	3909.861833	1516.734375	556.250427
13270.075319	3909.861833	1515.677734	538.000183
13270.075319	3909.861833	1514.621094	544.779480
13270.075319	3909.861833	1513.564453	434.084320
13270.075319	3909.861833	1512.507813	490.909515
13270.075319	3909.861833	1511.450195	430.279572
13270.075319	3909.861833	1510.393555	444.418335
13270.075319	3909.861833	1509.335938	354.726685
13270.075319	3909.861833	1508.278320	312.663055
13270.075319	3909.861833	1507.219727	313.674255
13270.075319	3909.861833	1506.162109	296.770111
13270.075319	3909.861833	1505.103516	293.558594
13270.075319	3909.861833	1504.044922	324.360779
13270.075319	3909.861833	1502.986328	244.691940
13270.075319	3909.861833	1501.926758	111.029823
13270.075319	3909.861833	1500.868164	198.703064
13270.075319	3909.861833	1499.808594	221.061249
13270.075319	3909.861833	1498.749023	218.749832
13270.075319	3909.861833	1497.688477	286.488312
13270.075319	3909.861833	1496.628906	228.103149
13270.075319	3909.861833	1495.568359	287.100281
13270.075319	3909.861833	1494.507813	483.701660
13270.075319	3909.861833	1493.447266	358.164642
13270.075319	3909.861833	1492.386719	239.589325
13270.075319	3909.861833	1491.325195	402.753540
13270.075319	3909.861833	1490.263672	392.610138
13270.075319	3909.861833	1489.202148	492.948578
13270.075319	3909.861833	1488.140625	656.430420
13270.075319	3909.861833	1487.079102	495.924225
13270.075319	3909.861833	1486.016602	551.643066
13270.075319	3909.861833	1484.954102	447.771454
13270.075319	3909.861833	1483.891602	638.747131
13270.075319	3909.861833	1482.829102	688.131042
13270.075319	3909.861833	1481.765625	771.369263
13270.075319	3909.861833	1480.702148	917.671936
13270.075319	3909.861833	1479.638672	861.814697
13270.075319	3909.861833	1478.575195	417.422852
13270.075319	3909.861833	1477.511719	817.995667
13270.075319	3909.861833	1476.447266	621.191833
13270.075319	3909.861833	1475.382813	507.687439
13270.075319	3909.861833	1474.318359	789.419250
13270.075319	3909.861833	1473.253906	559.528015
13270.075319	3909.861833	1472.189453	608.328430
13270.075319	3909.861833	1471.124023	621.100952
13270.075319	3909.861833	1470.058594	519.733704
13270.075319	3909.861833	1468.993164	485.789398
13270.075319	3909.861833	1467.927734	570.939941
13270.075319	3909.861833	1466.861328	806.293518
13270.075319	3909.861833	1465.794922	492.827484
13270.075319	3909.861833	1464.728516	560.427612
13270.075319	3909.861833	1463.662109	480.125275
13270.075319	3909.861833	1462.594727	507.910004
13270.075319	3909.861833	1461.528320	450.745361
13270.075319	3909.861833	1460.460938	657.583191
13270.075319	3909.861833	1459.393555	745.713257
13270.075319	3909.861833	1458.326172	537.099487
13270.075319	3909.861833	1457.257813	628.167603
13270.075319	3909.861833	1456.189453	729.567322
13270.075319	3909.861833	1455.121094	568.505615
13270.075319	3909.861833	1454.052734	615.863220
13270.075319	3909.861833	1452.984375	590.966248
13270.075319	3909.861833	1451.915039	470.831085
13270.075319	3909.861833	1450.845703	464.565460
13270.075319	3909.861833	1449.776367	632.820679
13270.075319	3909.861833	1448.707031	523.549622
13270.075319	3909.861833	1447.636719	1.544678
13270.075319	3909.861833	1446.567383	555.154480
13270.075319	3909.861833	1445.497070	614.403381
13270.075319	3909.861833	1444.425781	507.497681
13270.075319	3909.861833	1443.355469	427.035095
13270.075319	3909.861833	1442.285156	516.330627
13270.075319	3909.861833	1441.213867	272.278961
13270.075319	3909.861833	1440.142578	399.986176
13270.075319	3909.861833	1439.070313	473.119720
13270.075319	3909.861833	1437.999023	496.569672
13270.075319	3909.861833	1436.926758	311.317719
13270.075319	3909.861833	1435.854492	685.213440
13270.075319	3909.861833	1434.782227	358.201874
13270.075319	3909.861833	1433.709961	220.075623
13270.075319	3909.861833	1432.636719	201.557602
13270.075319	3909.861833	1431.563477	72.618805
13270.075319	3909.861833	1430.490234	64.598717
13270.075319	3909.861833	1429.416992	308.443237
13270.075319	3909.861833	1428.343750	23.474209
13270.075319	3909.861833	1427.269531	65.603699
13270.075319	3909.861833	1426.195313	7.337070
13270.075319	3909.861833	1425.121094	-107.932579
13270.075319	3909.861833	1424.046875	-183.705704
13270.075319	3909.861833	1422.971680	21.359983
13270.075319	3909.861833	1421.896484	184.680313
13270.075319	3909.861833	1420.821289	-126.341881
13270.075319	3909.861833	1419.746094	52.937420
13270.075319	3909.861833	1418.669922	-117.365547
13270.075319	3909.861833	1417.594727	-14.947588
13270.075319	3909.861833	1416.518555	-152.304092
13270.075319	3909.861833	1415.442383	-58.155918
13270.075319	3909.861833	1414.365234	64.979927
13270.075319	3909.861833	1413.289063	-45.813332
13270.075319	3909.861833	1412.211914	36.805962
13270.075319	3909.861833	1411.134766	-140.062378
13270.075319	3909.861833	1410.057617	78.638634
13270.075319	3909.861833	1408.979492	2.938532
13270.075319	3909.861833	1407.902344	251.530396
13270.075319	3909.861833	1406.824219	-45.278908
13270.075319	3909.861833	1405.746094	50.478809
13270.075319	3909.861833	1404.666992	200.808182
13270.075319	3909.861833	1403.588867	190.535919
13270.075319	3909.861833	1402.509766	183.145706
13270.075319	3909.861833	1401.430664	123.046555
13270.075319	3909.861833	1400.351563	126.722107
13270.075319	3909.861833	1399.271484	147.011597
13270.075319	3909.861833	1398.192383	238.937576
13270.075319	3909.861833	1397.112305	243.659851
13270.075319	3909.861833	1396.031250	257.333313
13270.075319	3909.861833	1394.951172	382.173035
13270.075319	3909.861833	1393.871094	148.498932
13270.075319	3909.861833	1392.790039	263.986938
13270.075319	3909.861833	1391.708984	229.752701
13270.075319	3909.861833	1390.626953	264.213623
13270.075319	3909.861833	1389.545898	229.444717
13270.075319	3909.861833	1388.463867	133.933990
13270.075319	3909.861833	1387.381836	19.596355
13270.075319	3909.861833	1386.299805	258.848938
13270.075319	3909.861833	1385.217773	371.145935
13270.075319	3909.861833	1384.134766	215.294037
13270.075319	3909.861833	1383.051758	228.815109
13270.075319	3909.861833	1381.968750	246.009003
13270.075319	3909.861833	1380.885742	547.298645
13270.075319	3909.861833	1379.802734	522.137146
13270.075319	3909.861833	1378.718750	432.708832
13270.075319	3909.861833	1377.634766	460.450836
13270.075319	3909.861833	1376.550781	547.716675
13270.075319	3909.861833	1375.465820	526.050293
13270.075319	3909.861833	1374.381836	870.267334
13270.075319	3909.861833	1373.296875	753.041626
13270.075319	3909.861833	1372.211914	682.141785
13270.075319	3909.861833	1371.126953	632.990601
13270.075319	3909.861833	1370.041016	554.277161
13270.075319	3909.861833	1368.955078	671.994141
13270.075319	3909.861833	1367.869141	575.506775
13270.075319	3909.861833	1366.783203	700.109985
13270.075319	3909.861833	1365.697266	764.418884
13270.075319	3909.861833	1364.610352	418.412048
13270.075319	3909.861833	1363.523438	589.488892
13270.075319	3909.861833	1362.436523	470.694336
13270.075319	3909.861833	1361.349609	498.845581
13270.075319	3909.861833	1360.261719	539.074951
13270.075319	3909.861833	1359.174805	645.397949
13270.075319	3909.861833	1358.086914	601.223877
13270.075319	3909.861833	1356.998047	603.922058
13270.075319	3909.861833	1355.910156	208.194794
13270.075319	3909.861833	1354.821289	473.524323
13270.075319	3909.861833	1353.732422	577.603943
13270.075319	3909.861833	1352.643555	447.288940
13270.075319	3909.861833	1351.554688	363.252045
13270.075319	3909.861833	1350.464844	696.268005
13270.075319	3909.861833	1349.375000	543.202576
13270.075319	3909.861833	1348.285156	473.145416
13270.075319	3909.861833	1347.195313	611.072876
13270.075319	3909.861833	1346.105469	599.448730
13270.075319	3909.861833	1345.014648	724.699463
13270.075319	3909.861833	1343.923828	768.153198
13270.075319	3909.861833	1342.833008	822.532410
13270.075319	3909.861833	1341.741211	676.456238
13270.075319	3909.861833	1340.650391	696.223999
13270.075319	3909.861833	1339.558594	681.892578
13270.075319	3909.861833	1338.466797	700.876587
13270.075319	3909.861833	1337.374023	572.967468
13270.075319	3909.861833	1336.282227	618.230164
13270.075319	3909.861833	1335.189453	756.828918
13270.075319	3909.861833	1334.096680	541.912231
13270.075319	3909.861833	1333.003906	578.755310
13270.075319	3909.861833	1331.910156	386.568878
13270.075319	3909.861833	1330.817383	259.293091
13270.075319	3909.861833	1329.723633	398.107544
13270.075319	3909.861833	1328.629883	353.165283
13270.075319	3909.861833	1327.535156	430.632385
13270.075319	3909.861833	1326.441406	356.868317
13270.075319	3909.861833	1325.346680	322.293549
13270.075319	3909.861833	1324.251953	359.493347
13270.075319	3909.861833	1323.156250	441.496368
13270.075319	3909.861833	1322.061523	411.555176
13270.075319	3909.861833	1320.965820	310.324005
13270.075319	3909.861833	1319.870117	385.989532
13270.075319	3909.861833	1318.774414	413.433258
13270.075319	3909.861833	1317.678711	503.852234
13270.075319	3909.861833	1316.582031	259.083038
13270.075319	3909.861833	1315.485352	396.856018
13270.075319	3909.861833	1314.388672	510.761658
13270.075319	3909.861833	1313.291016	471.910217
13270.075319	3909.861833	1312.194336	474.226868
13270.075319	3909.861833	1311.096680	519.725464
13270.075319	3909.861833	1309.999023	526.182800
13270.075319	3909.861833	1308.901367	640.099609
13270.075319	3909.861833	1307.802734	569.567810
13270.075319	3909.861833	1306.705078	798.180969
13270.075319	3909.861833	1305.606445	706.077515
13270.075319	3909.861833	1304.506836	548.526794
13270.075319	3909.861833	1303.408203	745.845581
13270.075319	3909.861833	1302.308594	587.036987
13270.075319	3909.861833	1301.208984	574.206482
13270.075319	3909.861833	1300.109375	534.785278
13270.075319	3909.861833	1299.009766	603.156067
13270.075319	3909.861833	1297.909180	642.365234
13270.075319	3909.861833	1296.808594	568.936096
13270.075319	3909.861833	1295.708008	532.969910
13270.075319	3909.861833	1294.607422	696.022095
13270.075319	3909.861833	1293.506836	554.858887
13270.075319	3909.861833	1292.405273	490.409851
13270.075319	3909.861833	1291.303711	515.591614
13270.075319	3909.861833	1290.202148	429.638214
13270.075319	3909.861833	1289.099609	527.120972
13270.075319	3909.861833	1287.998047	476.898407
13270.075319	3909.861833	1286.895508	445.944489
13270.075319	3909.861833	1285.792969	580.599426
13270.075319	3909.861833	1284.689453	435.954163
13270.075319	3909.861833	1283.586914	576.749878
13270.075319	3909.861833	1282.483398	498.300476
13270.075319	3909.861833	1281.379883	583.502869
13270.075319	3909.861833	1280.276367	467.307831
13270.075319	3909.861833	1279.171875	353.079956
13270.075319	3909.861833	1278.067383	367.552826
13270.075319	3909.861833	1276.962891	163.753510
13270.075319	3909.861833	1275.858398	354.980560
13270.075319	3909.861833	1274.753906	200.033508
13270.075319	3909.861833	1273.648438	224.405914
13270.075319	3909.861833	1272.542969	200.121323
13270.075319	3909.861833	1271.437500	199.212646
13270.075319	3909.861833	1270.331055	205.570984
13270.075319	3909.861833	1269.225586	238.765991
13270.075319	3909.861833	1268.119141	248.053680
13270.075319	3909.861833	1267.012695	167.101105
13270.075319	3909.861833	1265.906250	189.911926
13270.075319	3909.861833	1264.798828	268.613586
13270.075319	3909.861833	1263.691406	123.800873
13270.075319	3909.861833	1262.583984	244.261597
13270.075319	3909.861833	1261.476563	20.546322
13270.075319	3909.861833	1260.368164	26.655628
13270.075319	3909.861833	1259.260742	44.925591
13270.075319	3909.861833	1258.152344	120.748238
13270.075319	3909.861833	1257.043945	158.539536
13270.075319	3909.861833	1255.934570	177.735657
13270.075319	3909.861833	1254.825195	126.263329
13270.075319	3909.861833	1253.716797	71.255318
13270.075319	3909.861833	1252.606445	43.903343
13270.075319	3909.861833	1251.497070	50.132504
13270.075319	3909.861833	1250.387695	94.037186
13270.075319	3909.861833	1249.277344	56.203976
13270.075319	3909.861833	1248.166992	185.236374
13270.075319	3909.861833	1247.055664	39.047123
13270.075319	3909.861833	1245.945313	23.141308
13270.075319	3909.861833	1244.833984	99.065285
13270.075319	3909.861833	1243.722656	53.820072
13270.075319	3909.861833	1242.611328	89.074463
13270.075319	3909.861833	1241.499023	127.150383
13270.075319	3909.861833	1240.387695	70.335243
13270.075319	3909.861833	1239.275391	197.269089
13270.075319	3909.861833	1238.162109	192.673462
13270.075319	3909.861833	1237.049805	-138.292068
13270.075319	3909.861833	1235.936523	29.827917
13270.075319	3909.861833	1234.823242	153.455460
13270.075319	3909.861833	1233.709961	5.792630
13270.075319	3909.861833	1232.596680	-0.739766
13270.075319	3909.861833	1231.482422	42.483829
13270.075319	3909.861833	1230.369141	56.121265
13270.075319	3909.861833	1229.253906	86.801239
13270.075319	3909.861833	1228.139648	92.851006
13270.075319	3909.861833	1227.025391	136.052368
13270.075319	3909.861833	1225.910156	5.550336
13270.075319	3909.861833	1224.794922	-33.088295
13270.075319	3909.861833	1223.679688	-2.759056
13270.075319	3909.861833	1222.563477	9.976958
13270.075319	3909.861833	1221.447266	59.118275
13270.075319	3909.861833	1220.331055	84.513527
13270.075319	3909.861833	1219.214844	-21.550167
13270.075319	3909.861833	1218.098633	159.879364
13270.075319	3909.861833	1216.981445	146.914749
13270.075319	3909.861833	1215.864258	147.000961
13270.075319	3909.861833	1214.747070	276.738678
13270.075319	3909.861833	1213.629883	366.511658
13270.075319	3909.861833	1212.511719	292.973541
13270.075319	3909.861833	1211.393555	214.421951
13270.075319	3909.861833	1210.275391	149.366745
13270.075319	3909.861833	1209.157227	171.450607
13270.075319	3909.861833	1208.038086	186.536911
13270.075319	3909.861833	1206.918945	146.596375
13270.075319	3909.861833	1205.799805	49.791229
13270.075319	3909.861833	1204.680664	68.176270
13270.075319	3909.861833	1203.560547	-26.977013
13270.075319	3909.861833	1202.441406	16.446974
13270.075319	3909.861833	1201.321289	15.130696
13270.075319	3909.861833	1200.200195	-135.953156
13270.075319	3909.861833	1199.080078	-77.894768
13270.075319	3909.861833	1197.958984	-5.643742
13270.075319	3909.861833	1196.837891	-167.906662
13270.075319	3909.861833	1195.716797	-45.271229
13270.075319	3909.861833	1194.594727	52.743736
13270.075319	3909.861833	1193.473633	-59.664368
13270.075319	3909.861833	1192.351563	-9.696496
13270.075319	3909.861833	1191.229492	-129.441788
13270.075319	3909.861833	1190.106445	-172.488571
13270.075319	3909.861833	1188.984375	-28.632164
13270.075319	3909.861833	1187.861328	-35.040688
13270.075319	3909.861833	1186.738281	-40.499336
13270.075319	3909.861833	1185.614258	9.307722
13270.075319	3909.861833	1184.491211	-104.432991
13270.075319	3909.861833	1183.367188	44.138393
13270.075319	3909.861833	1182.243164	-113.613678
13270.075319	3909.861833	1181.119141	-77.698647
13270.075319	3909.861833	1179.994141	3.622936
13270.075319	3909.861833	1178.869141	-42.660275
13270.075319	3909.861833	1177.744141	-138.537186
13270.075319	3909.861833	1176.619141	11.771873
13270.075319	3909.861833	1175.493164	-11.104193
13270.075319	3909.861833	1174.368164	-171.619400
13270.075319	3909.861833	1173.242188	115.175064
13270.075319	3909.861833	1172.115234	45.310707
13270.075319	3909.861833	1170.989258	-63.628052
13270.075319	3909.861833	1169.862305	10.153985
13270.075319	3909.861833	1168.735352	33.944897
13270.075319	3909.861833	1167.608398	-27.048817
13270.075319	3909.861833	1166.481445	-37.432171
13270.075319	3909.861833	1165.353516	-15.485852
13270.075319	3909.861833	1164.225586	-84.187141
13270.075319	3909.861833	1163.097656	61.374615
13270.075319	3909.861833	1161.968750	-8.133191
13270.075319	3909.861833	1160.840820	40.869171
13270.075319	3909.861833	1159.711914	-149.674667
13270.075319	3909.861833	1158.583008	-89.699615
13270.075319	3909.861833	1157.453125	-31.284588
13270.075319	3909.861833	1156.324219	-104.298538
13270.075319	3909.861833	1155.194336	-207.797302
13270.075319	3909.861833	1154.064453	-122.850281
13270.075319	3909.861833	1152.933594	3.598173
13270.075319	3909.861833	1151.803711	-153.867218
13270.075319	3909.861833	1150.672852	-75.429703
13270.075319	3909.861833	1149.541992	-109.525589
13270.075319	3909.861833	1148.411133	-212.242142
13270.075319	3909.861833	1147.279297	-174.995636
13270.075319	3909.861833	1146.147461	-95.971199
13270.075319	3909.861833	1145.015625	-14.494313
13270.075319	3909.861833	1143.883789	74.904427
13270.075319	3909.861833	1142.750977	-26.751072
13270.075319	3909.861833	1141.619141	-1.961716
13270.075319	3909.861833	1140.486328	35.004150
13270.075319	3909.861833	1139.352539	106.592354
13270.075319	3909.861833	1138.219727	96.137375
13270.075319	3909.861833	1137.085938	79.923233
13270.075319	3909.861833	1135.952148	144.408112
13270.075319	3909.861833	1134.818359	117.069344
13270.075319	3909.861833	1133.683594	209.409851
13270.075319	3909.861833	1132.549805	310.646698
13270.075319	3909.861833	1131.415039	434.474426
13270.075319	3909.861833	1130.279297	523.999023
13270.075319	3909.861833	1129.144531	492.341431
13270.075319	3909.861833	1128.008789	643.770874
13270.075319	3909.861833	1126.873047	765.765747
13270.075319	3909.861833	1125.737305	830.940186
13270.075319	3909.861833	1124.601563	661.262756
13270.075319	3909.861833	1123.464844	621.045471
13270.075319	3909.861833	1122.328125	758.515076
13270.075319	3909.861833	1121.191406	805.594299
13270.075319	3909.861833	1120.054688	768.570190
13270.075319	3909.861833	1118.916992	773.558167
13270.075319	3909.861833	1117.779297	458.133881
13270.075319	3909.861833	1116.641602	626.557068
13270.075319	3909.861833	1115.503906	682.241821
13270.075319	3909.861833	1114.365234	364.212372
13270.075319	3909.861833	1113.226563	538.921814
13270.075319	3909.861833	1112.087891	490.716705
13270.075319	3909.861833	1110.949219	480.173279
13270.075319	3909.861833	1109.809570	413.343018
13270.075319	3909.861833	1108.669922	340.306122
13270.075319	3909.861833	1107.530273	379.488403
13270.075319	3909.861833	1106.390625	430.455353
13270.075319	3909.861833	1105.250000	394.264038
13270.075319	3909.861833	1104.109375	393.985260
13270.075319	3909.861833	1102.968750	400.024353
13270.075319	3909.861833	1101.828125	572.161682
13270.075319	3909.861833	1100.686523	653.376892
13270.075319	3909.861833	1099.544922	605.393555
13270.075319	3909.861833	1098.403320	608.573975
13270.075319	3909.861833	1097.261719	504.931946
13270.075319	3909.861833	1096.120117	506.166840
13270.075319	3909.861833	1094.977539	607.117432
13270.075319	3909.861833	1093.834961	468.627686
13270.075319	3909.861833	1092.691406	498.567505
13270.075319	3909.861833	1091.548828	509.862488
13270.075319	3909.861833	1090.405273	607.032532
13270.075319	3909.861833	1089.261719	529.783325
13270.075319	3909.861833	1088.118164	490.266266
13270.075319	3909.861833	1086.973633	423.534668
13270.075319	3909.861833	1085.829102	557.422241
13270.075319	3909.861833	1084.684570	810.703735
13270.075319	3909.861833	1083.540039	608.733704
13270.075319	3909.861833	1082.395508	691.676514
13270.075319	3909.861833	1081.250000	677.268677
13270.075319	3909.861833	1080.104492	621.930298
13270.075319	3909.861833	1078.958984	514.828552
13270.075319	3909.861833	1077.812500	498.540649
13270.075319	3909.861833	1076.666016	546.201721
13270.075319	3909.861833	1075.519531	418.851166
13270.075319	3909.861833	1074.373047	438.424774
13270.075319	3909.861833	1073.226563	465.937469
13270.075319	3909.861833	1072.079102	423.053070
13270.075319	3909.861833	1070.931641	450.466644
13270.075319	3909.861833	1069.784180	453.784973
13270.075319	3909.861833	1068.635742	529.790771
13270.075319	3909.861833	1067.487305	504.019287
13270.075319	3909.861833	1066.338867	480.599701
13270.075319	3909.861833	1065.190430	629.482544
13270.075319	3909.861833	1064.041992	645.143860
13270.075319	3909.861833	1062.892578	710.871826
13270.075319	3909.861833	1061.743164	651.001831
13270.075319	3909.861833	1060.593750	440.079224
13270.075319	3909.861833	1059.443359	539.870605
13270.075319	3909.861833	1058.292969	353.219391
13270.075319	3909.861833	1057.142578	459.137665
13270.075319	3909.861833	1055.992188	427.887573
13270.075319	3909.861833	1054.841797	335.377686
13270.075319	3909.861833	1053.690430	426.361725
13270.075319	3909.861833	1052.539063	255.992981
13270.075319	3909.861833	1051.387695	317.085358
13270.075319	3909.861833	1050.235352	238.461670
13270.075319	3909.861833	1049.083984	462.258759
13270.075319	3909.861833	1047.931641	231.773209
13270.075319	3909.861833	1046.778320	299.575592
13270.075319	3909.861833	1045.625977	284.557007
13270.075319	3909.861833	1044.472656	281.709991
13270.075319	3909.861833	1043.319336	183.269409
13270.075319	3909.861833	1042.166016	200.752365
13270.075319	3909.861833	1041.012695	311.640747
13270.075319	3909.861833	1039.858398	71.292130
13270.075319	3909.861833	1038.704102	274.898651
13270.075319	3909.861833	1037.549805	298.811401
13270.075319	3909.861833	1036.394531	298.906281
13270.075319	3909.861833	1035.239258	231.209686
13270.075319	3909.861833	1034.083984	302.425232
13270.075319	3909.861833	1032.928711	305.594452
13270.075319	3909.861833	1031.773438	297.048889
13270.075319	3909.861833	1030.617188	371.817596
13270.075319	3909.861833	1029.460938	387.998474
13270.075319	3909.861833	1028.304688	298.740479
13270.075319	3909.861833	1027.147461	372.131073
13270.075319	3909.861833	1025.991211	81.945206
13270.075319	3909.861833	1024.833984	242.663788
13270.075319	3909.861833	1023.675781	187.962997
13270.075319	3909.861833	1022.518555	256.741119
13270.075319	3909.861833	1021.360352	124.202477
13270.075319	3909.861833	1020.202148	244.424911
13270.075319	3909.861833	1019.043945	187.724411
13270.075319	3909.861833	1017.884766	120.040604
13270.075319	3909.861833	1016.726563	86.243973
13270.075319	3909.861833	1015.567383	176.970932
13270.075319	3909.861833	1014.407227	193.128159
13270.075319	3909.861833	1013.248047	140.648941
13270.075319	3909.861833	1012.087891	-76.189949
13270.075319	3909.861833	1010.927734	-43.277996
13270.075319	3909.861833	1009.767578	38.011356
13270.075319	3909.861833	1008.606445	154.191589
13270.075319	3909.861833	1007.446289	48.130047
13270.075319	3909.861833	1006.285156	271.759308
13270.075319	3909.861833	1005.123047	129.414780
13270.075319	3909.861833	1003.961914	254.652573
13270.075319	3909.861833	1002.799805	160.361069
13270.075319	3909.861833	1001.637695	179.173599
13270.075319	3909.861833	1000.475586	190.037048
13270.075319	3909.861833	999.312500	216.118881
13270.075319	3909.861833	998.149414	127.372879
13270.075319	3909.861833	996.986328	166.792816
13270.075319	3909.861833	995.823242	-40.366798
13270.075319	3909.861833	994.659180	89.846474
13270.075319	3909.861833	993.496094	-40.318119
13270.075319	3909.861833	992.332031	98.862984
13270.075319	3909.861833	991.166992	-107.643898
13270.075319	3909.861833	990.002930	91.571846
13270.075319	3909.861833	988.837891	83.753082
13270.075319	3909.861833	987.672852	164.783661
13270.075319	3909.861833	986.506836	247.924362
13270.075319	3909.861833	985.341797	138.207169
13270.075319	3909.861833	984.175781	119.277031
13270.075319	3909.861833	983.009766	81.242531
13270.075319	3909.861833	981.843750	353.933380
13270.075319	3909.861833	980.676758	112.143394
13270.075319	3909.861833	979.509766	189.163879
13270.075319	3909.861833	978.342773	170.638031
13270.075319	3909.861833	977.175781	197.280289
13270.075319	3909.861833	976.007813	241.121658
13270.075319	3909.861833	974.839844	193.835419
13270.075319	3909.861833	973.671875	99.793259
13270.075319	3909.861833	972.503906	78.140297
13270.075319	3909.861833	971.334961	287.925934
13270.075319	3909.861833	970.166016	82.325562
13270.075319	3909.861833	968.997070	160.977417
13270.075319	3909.861833	967.828125	25.132118
13270.075319	3909.861833	966.658203	136.570389
13270.075319	3909.861833	965.488281	-83.796967
13270.075319	3909.861833	964.318359	40.134155
13270.075319	3909.861833	963.148438	256.149475
13270.075319	3909.861833	961.977539	243.932968
13270.075319	3909.861833	960.806641	189.739258
13270.075319	3909.861833	959.635742	127.350174
13270.075319	3909.861833	958.463867	205.922226
13270.075319	3909.861833	957.292969	202.575714
13270.075319	3909.861833	956.121094	57.726570
13270.075319	3909.861833	954.948242	241.292282
13270.075319	3909.861833	953.776367	27.231153
13270.075319	3909.861833	952.603516	18.328125
13270.075319	3909.861833	951.430664	24.223761
13270.075319	3909.861833	950.257813	81.830711
13270.075319	3909.861833	949.084961	52.896595
13270.075319	3909.861833	947.911133	145.836472
13270.075319	3909.861833	946.737305	12.262678
13270.075319	3909.861833	945.563477	121.583923
13270.075319	3909.861833	944.388672	292.841187
13270.075319	3909.861833	943.213867	284.225952
13270.075319	3909.861833	942.039063	-5.290560
13270.075319	3909.861833	940.864258	56.981583
13270.075319	3909.861833	939.688477	185.422150
13270.075319	3909.861833	938.513672	264.197906
13270.075319	3909.861833	937.337891	64.182137
13270.075319	3909.861833	936.161133	280.045166
13270.075319	3909.861833	934.985352	139.096420
13270.075319	3909.861833	933.808594	324.067474
13270.075319	3909.861833	932.631836	334.257263
13270.075319	3909.861833	931.454102	235.711487
13270.075319	3909.861833	930.277344	229.338272
13270.075319	3909.861833	929.099609	390.561401
13270.075319	3909.861833	927.921875	152.816620
13270.075319	3909.861833	926.743164	243.118240
13270.075319	3909.861833	925.565430	194.189941
13270.075319	3909.861833	924.386719	225.473923
13270.075319	3909.861833	923.208008	65.656952
13270.075319	3909.861833	922.028320	87.504234
13270.075319	3909.861833	920.849609	191.853760
13270.075319	3909.861833	919.669922	194.377121
13270.075319	3909.861833	919.474609	51.382561
13270.075319	3909.861833	918.309570	193.359406
13270.075319	3909.861833	917.143555	5.341287
13270.075319	3909.861833	915.977539	100.126274
13270.075319	3909.861833	914.810547	-57.192394
13270.075319	3909.861833	913.644531	21.059273
13270.075319	3909.861833	912.477539	207.586884
13270.075319	3909.861833	911.310547	-72.106400
13270.075319	3909.861833	910.143555	-149.274124
13270.075319	3909.861833	908.975586	-0.503802
13270.075319	3909.861833	907.807617	16.441141
13270.075319	3909.861833	906.639648	-88.949715
13270.075319	3909.861833	905.471680	-116.694618
13270.075319	3909.861833	904.303711	-142.084274
13270.075319	3909.861833	903.134766	-176.873276
13270.075319	3909.861833	901.965820	-110.588692
13270.075319	3909.861833	900.796875	-135.984146
13270.075319	3909.861833	899.626953	-57.999813
13270.075319	3909.861833	898.457031	139.743484
13270.075319	3909.861833	897.287109	1.568255
13270.075319	3909.861833	896.117188	-110.729340
13270.075319	3909.861833	894.947266	68.105812
13270.075319	3909.861833	893.776367	239.823929
13270.075319	3909.861833	892.605469	120.492630
13270.075319	3909.861833	891.434570	34.049633
13270.075319	3909.861833	890.262695	210.347656
13270.075319	3909.861833	889.091797	69.974861
13270.075319	3909.861833	887.919922	220.392288
13270.075319	3909.861833	886.748047	30.840425
13270.075319	3909.861833	885.575195	68.701210
13270.075319	3909.861833	884.403320	87.795235
13270.075319	3909.861833	883.230469	142.020996
13270.075319	3909.861833	882.057617	125.952911
13270.075319	3909.861833	880.883789	-30.616947
13270.075319	3909.861833	879.710938	98.509933
13270.075319	3909.861833	878.537109	-6.498478
13270.075319	3909.861833	877.362305	99.165535
13270.075319	3909.861833	876.188477	-45.583691
13270.075319	3909.861833	875.013672	57.699100
13270.075319	3909.861833	873.839844	-37.870598
13270.075319	3909.861833	872.664063	-100.663071
13270.075319	3909.861833	871.489258	-34.847904
13270.075319	3909.861833	870.313477	51.978115
13270.075319	3909.861833	869.138672	-6.130085
13270.075319	3909.861833	867.962891	33.919167
13270.075319	3909.861833	866.786133	13.213799
13270.075319	3909.861833	865.610352	-49.526234
13270.075319	3909.861833	864.433594	-102.900711
13270.075319	3909.861833	863.256836	-186.605804
13270.075319	3909.861833	862.079102	173.204102
13270.075319	3909.861833	860.902344	24.130775
13270.075319	3909.861833	859.724609	29.105639
13270.075319	3909.861833	858.546875	176.369995
13270.075319	3909.861833	857.368164	-126.541145
13270.075319	3909.861833	856.190430	9.031610
13270.075319	3909.861833	855.011719	-6.983314
13270.075319	3909.861833	853.833008	88.882904
13270.075319	3909.861833	852.654297	170.725906
13270.075319	3909.861833	851.474609	68.479103
13270.075319	3909.861833	850.294922	-108.266640
13270.075319	3909.861833	849.115234	-54.386417
13270.075319	3909.861833	847.935547	-123.934998
13270.075319	3909.861833	846.754883	-72.404808
13270.075319	3909.861833	845.575195	58.230686
13270.075319	3909.861833	844.393555	-15.957767
13270.075319	3909.861833	843.212891	-208.769684
13270.075319	3909.861833	842.032227	84.623787
13270.075319	3909.861833	840.850586	47.673500
13270.075319	3909.861833	839.668945	43.284733
13270.075319	3909.861833	838.486328	-84.304550
13270.075319	3909.861833	837.304688	129.790558
13270.075319	3909.861833	836.122070	-0.096436
13270.075319	3909.861833	834.939453	267.317627
13270.075319	3909.861833	833.756836	2.733733
13270.075319	3909.861833	832.573242	77.291161
13270.075319	3909.861833	831.389648	5.546500
13270.075319	3909.861833	830.206055	-107.955536
13270.075319	3909.861833	829.022461	-172.680984
13270.075319	3909.861833	827.838867	-42.484577
13270.075319	3909.861833	826.654297	-123.444878
13270.075319	3909.861833	825.469727	122.640205
13270.075319	3909.861833	824.284180	-132.242477
13270.075319	3909.861833	823.099609	25.634750
13270.075319	3909.861833	821.914063	-120.197548
13270.075319	3909.861833	820.728516	-80.587097
13270.075319	3909.861833	819.542969	-52.585941
13270.075319	3909.861833	818.356445	-17.651648
13270.075319	3909.861833	817.169922	-135.592880
13270.075319	3909.861833	815.983398	-100.673607
13270.075319	3909.861833	814.796875	-100.502548
13270.075319	3909.861833	813.609375	-5.443584
13270.075319	3909.861833	812.422852	-123.325600
13270.075319	3909.861833	811.235352	-192.583084
13270.075319	3909.861833	810.046875	4.183031
13270.075319	3909.861833	808.859375	122.226868
13270.075319	3909.861833	807.670898	-92.730843
13270.075319	3909.861833	806.482422	69.184830
13270.075319	3909.861833	805.293945	-90.228630
13270.075319	3909.861833	804.104492	62.355209
13270.075319	3909.861833	802.915039	-2.296126
13270.075319	3909.861833	801.725586	13.907790
13270.075319	3909.861833	800.536133	76.276138
13270.075319	3909.861833	799.345703	106.283714
13270.075319	3909.861833	798.155273	32.392403
13270.075319	3909.861833	796.964844	-13.789818
13270.075319	3909.861833	795.774414	4.638005
13270.075319	3909.861833	794.583008	-140.742950
13270.075319	3909.861833	793.392578	27.587271
13270.075319	3909.861833	792.200195	-60.121151
13270.075319	3909.861833	791.008789	-67.121208
13270.075319	3909.861833	789.816406	29.588638
13270.075319	3909.861833	788.625000	-23.550655
13270.075319	3909.861833	787.432617	-25.997572
13270.075319	3909.861833	786.239258	141.999344
13270.075319	3909.861833	785.046875	-44.760490
13270.075319	3909.861833	783.853516	10.307316
13270.075319	3909.861833	782.660156	81.445992
13270.075319	3909.861833	781.465820	19.044107
13270.075319	3909.861833	780.272461	-8.838057
13270.075319	3909.861833	779.078125	142.722610
13270.075319	3909.861833	777.883789	119.384407
13270.075319	3909.861833	776.688477	45.442085
13270.075319	3909.861833	775.494141	-99.769531
13270.075319	3909.861833	774.298828	125.153938
13270.075319	3909.861833	773.103516	-114.288307
13270.075319	3909.861833	771.907227	2.501120
13270.075319	3909.861833	770.711914	-16.325441
13270.075319	3909.861833	769.515625	-81.104004
13270.075319	3909.861833	768.318359	157.237122
13270.075319	3909.861833	767.122070	-59.132008
13270.075319	3909.861833	765.924805	9.192677
13270.075319	3909.861833	764.727539	49.921440
13270.075319	3909.861833	763.530273	-79.183540
13270.075319	3909.861833	762.333008	-77.507538
13270.075319	3909.861833	761.134766	8.998740
13270.075319	3909.861833	759.936523	-37.554935
13270.075319	3909.861833	758.738281	-3.881986
13270.075319	3909.861833	757.540039	-34.431171
13270.075319	3909.861833	756.340820	74.788124
13270.075319	3909.861833	755.141602	14.387694
13270.075319	3909.861833	753.942383	-9.369305
13270.075319	3909.861833	752.742188	26.394375
13270.075319	3909.861833	751.541992	135.379486
13270.075319	3909.861833	750.341797	74.884315
13270.075319	3909.861833	749.141602	279.870270
13270.075319	3909.861833	747.941406	180.399323
13270.075319	3909.861833	746.740234	-24.301813
13270.075319	3909.861833	745.539063	201.055649
13270.075319	3909.861833	744.337891	10.082519
13270.075319	3909.861833	743.135742	184.965378
13270.075319	3909.861833	741.933594	195.155228
13270.075319	3909.861833	740.731445	132.170090
13270.075319	3909.861833	739.529297	-40.502258
13270.075319	3909.861833	738.326172	44.996529
13270.075319	3909.861833	737.124023	-31.740294
13270.075319	3909.861833	735.919922	-92.500992
13270.075319	3909.861833	734.716797	61.322979
13270.075319	3909.861833	733.513672	146.565536
13270.075319	3909.861833	732.309570	133.602478
13270.075319	3909.861833	731.105469	150.262009
13270.075319	3909.861833	729.900391	118.968697
13270.075319	3909.861833	728.696289	174.306519
13270.075319	3909.861833	727.491211	28.926792
13270.075319	3909.861833	726.286133	168.518250
13270.075319	3909.861833	725.080078	180.372498
13270.075319	3909.861833	723.874023	107.863907
13270.075319	3909.861833	722.668945	-1.112485
13270.075319	3909.861833	721.461914	47.073753
13270.075319	3909.861833	720.255859	154.401642
13270.075319	3909.861833	719.048828	113.645027
13270.075319	3909.861833	717.841797	-20.472849
13270.075319	3909.861833	716.634766	218.654999
13270.075319	3909.861833	715.427734	-108.932816
13270.075319	3909.861833	714.219727	-1.929338
13270.075319	3909.861833	713.011719	189.130035
13270.075319	3909.861833	711.803711	236.802505
13270.075319	3909.861833	710.594727	259.394928
13270.075319	3909.861833	709.385742	225.101501
13270.075319	3909.861833	708.176758	-25.117182
13270.075319	3909.861833	706.967773	99.599808
13270.075319	3909.861833	705.758789	-14.300622
13270.075319	3909.861833	704.548828	58.021381
13270.075319	3909.861833	703.338867	37.163635
13270.075319	3909.861833	702.127930	-13.250863
13270.075319	3909.861833	700.917969	-174.910583
13270.075319	3909.861833	699.707031	-46.105350
13270.075319	3909.861833	698.496094	80.321457
13270.075319	3909.861833	697.285156	56.937881
13270.075319	3909.861833	696.073242	-109.359802
13270.075319	3909.861833	694.861328	64.444550
13270.075319	3909.861833	693.649414	47.710026
13270.075319	3909.861833	692.436523	21.858189
13270.075319	3909.861833	691.224609	-83.341621
13270.075319	3909.861833	690.011719	90.081863
13270.075319	3909.861833	688.798828	224.870667
13270.075319	3909.861833	687.584961	124.046776
13270.075319	3909.861833	686.372070	177.155334
13270.075319	3909.861833	685.158203	35.524734
13270.075319	3909.861833	683.943359	163.186859
13270.075319	3909.861833	682.729492	-57.685871
13270.075319	3909.861833	681.514648	354.838196
13270.075319	3909.861833	680.299805	357.789551
13270.075319	3909.861833	679.084961	329.025482
13270.075319	3909.861833	677.869141	377.071625
13270.075319	3909.861833	676.653320	434.078796
13270.075319	3909.861833	675.437500	400.615234
13270.075319	3909.861833	674.221680	484.582214
13270.075319	3909.861833	673.004883	663.316772
13270.075319	3909.861833	671.789063	546.091858
13270.075319	3909.861833	670.571289	514.645203
13270.075319	3909.861833	669.354492	523.783936
13270.075319	3909.861833	668.136719	647.952576
13270.075319	3909.861833	666.919922	388.437134
13270.075319	3909.861833	665.701172	456.061737
13270.075319	3909.861833	664.483398	284.531647
13270.075319	3909.861833	663.264648	428.693329
13270.075319	3909.861833	662.045898	428.452240
13270.075319	3909.861833	660.827148	310.945190
13270.075319	3909.861833	659.608398	339.902740
13270.075319	3909.861833	658.388672	271.905670
13270.075319	3909.861833	657.168945	170.090118
13270.075319	3909.861833	655.949219	324.987518
13270.075319	3909.861833	654.728516	178.049606
13270.075319	3909.861833	653.507813	265.224304
13270.075319	3909.861833	652.287109	327.544983
13270.075319	3909.861833	651.066406	74.762856
13270.075319	3909.861833	649.844727	319.197723
13270.075319	3909.861833	648.623047	50.658115
13270.075319	3909.861833	647.401367	308.366913
13270.075319	3909.861833	646.179688	255.653519
13270.075319	3909.861833	644.957031	405.197998
13270.075319	3909.861833	643.734375	170.336426
13270.075319	3909.861833	642.511719	90.545708
13270.075319	3909.861833	641.289063	287.027374
13270.075319	3909.861833	640.065430	54.409641
13270.075319	3909.861833	638.841797	383.174347
13270.075319	3909.861833	637.618164	53.989838
13270.075319	3909.861833	636.393555	171.523346
13270.075319	3909.861833	635.168945	-31.932556
13270.075319	3909.861833	633.944336	63.023960
13270.075319	3909.861833	632.719727	81.621895
13270.075319	3909.861833	631.494141	225.735382
13270.075319	3909.861833	630.269531	129.837372
13270.075319	3909.861833	629.042969	80.992523
13270.075319	3909.861833	627.817383	20.913651
13270.075319	3909.861833	626.590820	117.646233
13270.075319	3909.861833	625.365234	86.601128
13270.075319	3909.861833	624.137695	68.949028
13270.075319	3909.861833	622.911133	91.561516
13270.075319	3909.861833	621.683594	-141.103088
13270.075319	3909.861833	620.456055	-105.130379
13270.075319	3909.861833	619.228516	-147.543091
13270.075319	3909.861833	618.000977	-84.834671
13270.075319	3909.861833	616.772461	120.951805
13270.075319	3909.861833	615.543945	51.534664
13270.075319	3909.861833	614.314453	-69.328430
13270.075319	3909.861833	613.085938	-94.060646
13270.075319	3909.861833	611.856445	-138.945297
13270.075319	3909.861833	610.626953	77.575058
13270.075319	3909.861833	609.397461	-119.324913
13270.075319	3909.861833	608.166992	199.750061
13270.075319	3909.861833	606.936523	-104.364098
13270.075319	3909.861833	605.706055	85.002457
13270.075319	3909.861833	604.474609	37.645359
13270.075319	3909.861833	603.244141	68.378441
13270.075319	3909.861833	602.012695	210.613358
13270.075319	3909.861833	600.780273	118.527763
13270.075319	3909.861833	599.548828	57.672039
13270.075319	3909.861833	598.316406	50.316128
13270.075319	3909.861833	597.083984	279.226990
13270.075319	3909.861833	595.851563	113.518936
13270.075319	3909.861833	594.618164	106.052025
13270.075319	3909.861833	593.384766	49.545475
13270.075319	3909.861833	592.151367	42.034576
13270.075319	3909.861833	590.917969	121.345642
13270.075319	3909.861833	589.683594	51.423664
13270.075319	3909.861833	588.449219	304.260468
13270.075319	3909.861833	587.214844	383.380707
13270.075319	3909.861833	585.979492	291.117004
13270.075319	3909.861833	584.745117	245.588867
13270.075319	3909.861833	583.509766	208.949722
13270.075319	3909.861833	582.273438	194.535706
13270.075319	3909.861833	581.038086	137.875626
13270.075319	3909.861833	579.801758	281.248840
13270.075319	3909.861833	578.565430	113.449211
13270.075319	3909.861833	577.329102	176.756363
13270.075319	3909.861833	576.091797	126.737373
13270.075319	3909.861833	574.854492	263.265259
13270.075319	3909.861833	573.617188	326.455658
13270.075319	3909.861833	572.378906	240.882462
13270.075319	3909.861833	571.141602	157.560074
13270.075319	3909.861833	569.903320	158.574478
13270.075319	3909.861833	568.664063	66.409492
13270.075319	3909.861833	567.425781	189.414490
13270.075319	3909.861833	566.186523	150.490936
13270.075319	3909.861833	564.947266	291.150665
13270.075319	3909.861833	563.708008	238.920517
13270.075319	3909.861833	562.467773	257.619598
13270.075319	3909.861833	561.227539	338.346680
13270.075319	3909.861833	559.987305	405.752655
13270.075319	3909.861833	558.747070	271.612427
13270.075319	3909.861833	557.505859	281.446350
13270.075319	3909.861833	556.264648	231.517258
13270.075319	3909.861833	555.023438	223.667465
13270.075319	3909.861833	553.781250	242.380280
13270.075319	3909.861833	552.539063	170.399002
13270.075319	3909.861833	551.296875	52.016148
13270.075319	3909.861833	550.054688	48.684380
13270.075319	3909.861833	548.811523	122.741562
13270.075319	3909.861833	547.569336	236.576019
13270.075319	3909.861833	546.325195	195.686707
13270.075319	3909.861833	545.082031	66.468292
13270.075319	3909.861833	543.837891	67.645882
13270.075319	3909.861833	542.593750	-65.862511
13270.075319	3909.861833	541.349609	8.255151
13270.075319	3909.861833	540.105469	86.783554
13270.075319	3909.861833	538.860352	-4.632638
13270.075319	3909.861833	537.615234	115.844406
13270.075319	3909.861833	536.369141	141.438507
13270.075319	3909.861833	535.124023	63.399811
13270.075319	3909.861833	533.877930	11.885437
13270.075319	3909.861833	532.631836	238.210617
13270.075319	3909.861833	531.384766	-57.905640
13270.075319	3909.861833	530.138672	-18.896072
13270.075319	3909.861833	528.891602	-23.929523
13270.075319	3909.861833	527.643555	-53.152931
13270.075319	3909.861833	526.396484	10.179418
13270.075319	3909.861833	525.148438	-45.369705
13270.075319	3909.861833	523.900391	-202.108444
13270.075319	3909.861833	522.652344	-17.603821
13270.075319	3909.861833	521.403320	-147.782150
13270.075319	3909.861833	520.154297	71.925217
13270.075319	3909.861833	518.905273	-218.669907
13270.075319	3909.861833	517.656250	-155.060425
13270.075319	3909.861833	516.406250	-190.356140
13270.075319	3909.861833	515.156250	-221.185944
13270.075319	3909.861833	513.906250	-106.909019
13270.075319	3909.861833	512.655273	-111.266960
13270.075319	3909.861833	511.404297	-3.538285
13270.075319	3909.861833	510.153320	-93.443596
13270.075319	3909.861833	508.902344	-273.268951
13270.075319	3909.861833	507.650391	-237.833038
13270.075319	3909.861833	506.398438	-257.215485
13270.075319	3909.861833	505.146484	-136.095978
13270.075319	3909.861833	503.893555	-216.788300
13270.075319	3909.861833	502.641602	57.931488
13270.075319	3909.861833	501.388672	207.608826
13270.075319	3909.861833	500.134766	236.710449
13270.075319	3909.861833	498.881836	-5.919049
13270.075319	3909.861833	497.627930	43.076477
13270.075319	3909.861833	496.374023	26.394945
13270.075319	3909.861833	495.119141	42.645538
13270.075319	3909.861833	493.865234	-50.534866
13270.075319	3909.861833	492.610352	29.364439
13270.075319	3909.861833	491.355469	63.332916
13270.075319	3909.861833	490.099609	-27.389383
13270.075319	3909.861833	488.843750	-26.100351
13270.075319	3909.861833	487.587891	-2.861284
13270.075319	3909.861833	486.332031	75.119972
13270.075319	3909.861833	485.075195	11.006295
13270.075319	3909.861833	483.818359	-122.963593
13270.075319	3909.861833	482.561523	-127.843452
13270.075319	3909.861833	481.304688	-180.723251
13270.075319	3909.861833	480.046875	9.003201
13270.075319	3909.861833	478.789063	-50.289204
13270.075319	3909.861833	477.531250	-37.415279
13270.075319	3909.861833	476.272461	-59.410500
13270.075319	3909.861833	475.013672	123.869125
13270.075319	3909.861833	473.754883	29.974745
13270.075319	3909.861833	472.496094	-55.079712
13270.075319	3909.861833	471.236328	-20.047623
13270.075319	3909.861833	469.976563	134.995651
13270.075319	3909.861833	468.716797	100.334282
13270.075319	3909.861833	467.456055	72.294815
13270.075319	3909.861833	466.196289	124.980553
13270.075319	3909.861833	464.935547	5.556293
13270.075319	3909.861833	463.673828	-126.824928
13270.075319	3909.861833	462.413086	-211.163971
13270.075319	3909.861833	461.151367	231.600418
13270.075319	3909.861833	459.889648	23.236296
13270.075319	3909.861833	458.626953	-26.076693
13270.075319	3909.861833	457.364258	5.210427
13270.075319	3909.861833	456.101563	88.758591
13270.075319	3909.861833	454.838867	33.097759
13270.075319	3909.861833	453.575195	62.331024
13270.075319	3909.861833	452.312500	-8.425056
13270.075319	3909.861833	451.047852	10.024319
13270.075319	3909.861833	449.784180	87.190742
13270.075319	3909.861833	448.519531	173.053909
13270.075319	3909.861833	447.254883	-8.308386
13270.075319	3909.861833	445.990234	92.809570
13270.075319	3909.861833	444.725586	48.415081
13270.075319	3909.861833	443.459961	99.593666
13270.075319	3909.861833	442.194336	-1.176254
13270.075319	3909.861833	440.927734	71.730591
13270.075319	3909.861833	439.662109	289.991150
13270.075319	3909.861833	438.395508	37.435707
13270.075319	3909.861833	437.127930	88.624260
13270.075319	3909.861833	435.861328	157.137482
13270.075319	3909.861833	434.593750	52.186958
13270.075319	3909.861833	433.326172	181.348389
13270.075319	3909.861833	432.058594	-12.431313
13270.075319	3909.861833	430.790039	32.161045
13270.075319	3909.861833	429.521484	152.516006
13270.075319	3909.861833	428.252930	101.710724
13270.075319	3909.861833	426.984375	302.034058
13270.075319	3909.861833	425.714844	26.019920
13270.075319	3909.861833	424.445313	178.564896
13270.075319	3909.861833	423.174805	142.749222
13270.075319	3909.861833	421.905273	232.348007
13270.075319	3909.861833	420.634766	233.164642
13270.075319	3909.861833	419.364258	266.333221
13270.075319	3909.861833	418.092773	184.826355
13270.075319	3909.861833	416.822266	315.066071
13270.075319	3909.861833	415.550781	129.664810
13270.075319	3909.861833	414.278320	147.303345
13270.075319	3909.861833	413.006836	102.176819
13270.075319	3909.861833	411.734375	104.445213
13270.075319	3909.861833	410.461914	134.638718
13270.075319	3909.861833	409.188477	-113.775513
13270.075319	3909.861833	407.916016	11.095615
13270.075319	3909.861833	406.642578	105.535057
13270.075319	3909.861833	405.368164	182.493881
13270.075319	3909.861833	404.094727	54.353378
13270.075319	3909.861833	402.820313	184.800018
13270.075319	3909.861833	401.545898	159.768005
13270.075319	3909.861833	400.270508	151.759399
13270.075319	3909.861833	398.996094	236.172073
13270.075319	3909.861833	397.720703	-58.856052
13270.075319	3909.861833	396.444336	96.120758
13270.075319	3909.861833	395.168945	74.183105
13270.075319	3909.861833	393.892578	-36.305756
13270.075319	3909.861833	392.616211	20.835300
13270.075319	3909.861833	391.339844	99.151741
13270.075319	3909.861833	390.062500	91.037537
13270.075319	3909.861833	388.785156	91.182167
13270.075319	3909.861833	387.507813	116.768631
13270.075319	3909.861833	386.229492	118.308044
13270.075319	3909.861833	384.951172	259.172119
13270.075319	3909.861833	383.672852	201.843399
13270.075319	3909.861833	382.394531	135.514069
13270.075319	3909.861833	381.115234	-10.723709
13270.075319	3909.861833	379.835938	-13.467440
13270.075319	3909.861833	378.556641	17.661243
13270.075319	3909.861833	377.277344	46.126225
13270.075319	3909.861833	375.997070	106.241997
13270.075319	3909.861833	374.716797	0.559138
13270.075319	3909.861833	373.435547	83.142311
13270.075319	3909.861833	372.155273	64.303513
13270.075319	3909.861833	370.874023	51.291161
13270.075319	3909.861833	369.591797	112.685059
13270.075319	3909.861833	368.310547	-184.553085
13270.075319	3909.861833	367.028320	-120.171349
13270.075319	3909.861833	365.746094	35.616798
13270.075319	3909.861833	364.463867	-36.446369
13270.075319	3909.861833	363.180664	-74.970230
13270.075319	3909.861833	361.897461	67.752632
13270.075319	3909.861833	360.614258	-100.784203
13270.075319	3909.861833	359.330078	44.531040
13270.075319	3909.861833	358.045898	-31.463314
13270.075319	3909.861833	356.761719	144.138687
13270.075319	3909.861833	355.477539	-23.455776
13270.075319	3909.861833	354.192383	41.157909
13270.075319	3909.861833	352.907227	14.988219
13270.075319	3909.861833	351.622070	22.037401
13270.075319	3909.861833	350.336914	-89.471214
13270.075319	3909.861833	349.050781	15.920088
13270.075319	3909.861833	347.764648	145.812988
13270.075319	3909.861833	346.477539	-112.031113
13270.075319	3909.861833	345.191406	-110.406815
13270.075319	3909.861833	343.904297	-18.199526
13270.075319	3909.861833	342.616211	-110.817528
13270.075319	3909.861833	341.329102	23.685219
13270.075319	3909.861833	340.041016	-22.381128
13270.075319	3909.861833	338.752930	68.876404
13270.075319	3909.861833	337.463867	-54.530529
13270.075319	3909.861833	336.175781	-47.081535
13270.075319	3909.861833	334.886719	-28.319176
13270.075319	3909.861833	333.596680	3.838803
13270.075319	3909.861833	332.307617	8.927767
13270.075319	3909.861833	331.017578	-28.052990
13270.075319	3909.861833	329.727539	-58.103966
13270.075319	3909.861833	328.436523	-111.117500
13270.075319	3909.861833	327.146484	25.812391
13270.075319	3909.861833	325.855469	-51.906998
13270.075319	3909.861833	324.563477	-186.734756
13270.075319	3909.861833	323.272461	-185.022308
13270.075319	3909.861833	321.980469	-57.623821
13270.075319	3909.861833	320.688477	-15.130572
13270.075319	3909.861833	319.395508	29.576914
13270.075319	3909.861833	318.103516	121.171715
13270.075319	3909.861833	316.810547	-207.998657
13270.075319	3909.861833	315.516602	30.142792
13270.075319	3909.861833	314.223633	79.144844
13270.075319	3909.861833	312.929688	60.011650
13270.075319	3909.861833	311.635742	23.737072
13270.075319	3909.861833	310.340820	-123.173073
13270.075319	3909.861833	309.045898	-77.187462
13270.075319	3909.861833	307.750977	210.306992
13270.075319	3909.861833	306.456055	240.618698
13270.075319	3909.861833	305.160156	130.428543
13270.075319	3909.861833	303.865234	242.461014
13270.075319	3909.861833	302.568359	207.462082
13270.075319	3909.861833	301.272461	212.170380
13270.075319	3909.861833	299.975586	228.808533
13270.075319	3909.861833	298.678711	490.397034
