#X		#Y		#Wave		#Intensity
2932.858404	5610.889667	1999.980469	-44.693851
2932.858404	5610.889667	1999.016602	-68.900299
2932.858404	5610.889667	1998.052734	-64.881981
2932.858404	5610.889667	1997.087891	75.203964
2932.858404	5610.889667	1996.123047	-45.139744
2932.858404	5610.889667	1995.158203	101.885361
2932.858404	5610.889667	1994.193359	40.602962
2932.858404	5610.889667	1993.228516	31.148069
2932.858404	5610.889667	1992.262695	132.919678
2932.858404	5610.889667	1991.297852	-32.870632
2932.858404	5610.889667	1990.332031	-218.572418
2932.858404	5610.889667	1989.366211	196.918320
2932.858404	5610.889667	1988.399414	144.509964
2932.858404	5610.889667	1987.433594	-68.813728
2932.858404	5610.889667	1986.466797	83.810028
2932.858404	5610.889667	1985.500977	110.132347
2932.858404	5610.889667	1984.534180	52.257309
2932.858404	5610.889667	1983.567383	142.577469
2932.858404	5610.889667	1982.599609	94.352409
2932.858404	5610.889667	1981.632813	75.678429
2932.858404	5610.889667	1980.665039	103.837143
2932.858404	5610.889667	1979.697266	-110.166183
2932.858404	5610.889667	1978.729492	6.711142
2932.858404	5610.889667	1977.761719	125.920364
2932.858404	5610.889667	1976.792969	3.083338
2932.858404	5610.889667	1975.825195	-53.153507
2932.858404	5610.889667	1974.856445	80.554352
2932.858404	5610.889667	1973.887695	48.841797
2932.858404	5610.889667	1972.918945	-101.327942
2932.858404	5610.889667	1971.949219	-54.211006
2932.858404	5610.889667	1970.980469	-7.171161
2932.858404	5610.889667	1970.010742	-4.580578
2932.858404	5610.889667	1969.041016	57.113289
2932.858404	5610.889667	1968.071289	-66.091339
2932.858404	5610.889667	1967.101563	180.292908
2932.858404	5610.889667	1966.130859	254.102570
2932.858404	5610.889667	1965.161133	-51.451073
2932.858404	5610.889667	1964.190430	-113.134544
2932.858404	5610.889667	1963.219727	17.218027
2932.858404	5610.889667	1962.249023	-34.663433
2932.858404	5610.889667	1961.277344	38.969517
2932.858404	5610.889667	1960.306641	-84.299583
2932.858404	5610.889667	1959.334961	82.768761
2932.858404	5610.889667	1958.363281	84.955238
2932.858404	5610.889667	1957.391602	87.130333
2932.858404	5610.889667	1956.419922	47.495506
2932.858404	5610.889667	1955.447266	120.955719
2932.858404	5610.889667	1954.474609	-93.195518
2932.858404	5610.889667	1953.501953	88.390396
2932.858404	5610.889667	1952.529297	161.800262
2932.858404	5610.889667	1951.556641	36.202805
2932.858404	5610.889667	1950.583984	-177.762161
2932.858404	5610.889667	1949.610352	-28.200947
2932.858404	5610.889667	1948.636719	3.464537
2932.858404	5610.889667	1947.663086	54.768375
2932.858404	5610.889667	1946.689453	-11.740301
2932.858404	5610.889667	1945.715820	103.376228
2932.858404	5610.889667	1944.741211	117.877014
2932.858404	5610.889667	1943.767578	139.750641
2932.858404	5610.889667	1942.792969	14.486121
2932.858404	5610.889667	1941.818359	9.439182
2932.858404	5610.889667	1940.842773	-123.066422
2932.858404	5610.889667	1939.868164	-17.739355
2932.858404	5610.889667	1938.892578	-81.522873
2932.858404	5610.889667	1937.916992	-12.945908
2932.858404	5610.889667	1936.941406	-118.298988
2932.858404	5610.889667	1935.965820	38.488625
2932.858404	5610.889667	1934.990234	-17.800976
2932.858404	5610.889667	1934.013672	38.583874
2932.858404	5610.889667	1933.037109	68.051743
2932.858404	5610.889667	1932.060547	26.562748
2932.858404	5610.889667	1931.083984	117.259552
2932.858404	5610.889667	1930.107422	-90.524315
2932.858404	5610.889667	1929.129883	-85.388420
2932.858404	5610.889667	1928.153320	73.854515
2932.858404	5610.889667	1927.175781	-119.035202
2932.858404	5610.889667	1926.198242	72.002182
2932.858404	5610.889667	1925.219727	-27.865883
2932.858404	5610.889667	1924.242188	99.612793
2932.858404	5610.889667	1923.263672	9.618991
2932.858404	5610.889667	1922.285156	-87.635544
2932.858404	5610.889667	1921.306641	-18.732828
2932.858404	5610.889667	1920.328125	81.924751
2932.858404	5610.889667	1919.349609	-103.080360
2932.858404	5610.889667	1918.370117	-14.581830
2932.858404	5610.889667	1917.391602	-21.266277
2932.858404	5610.889667	1916.412109	-64.516754
2932.858404	5610.889667	1915.431641	82.579666
2932.858404	5610.889667	1914.452148	-4.513603
2932.858404	5610.889667	1913.472656	110.879402
2932.858404	5610.889667	1912.492188	-78.531563
2932.858404	5610.889667	1911.511719	0.328623
2932.858404	5610.889667	1910.531250	42.629410
2932.858404	5610.889667	1909.550781	82.508957
2932.858404	5610.889667	1908.569336	-21.350367
2932.858404	5610.889667	1907.588867	-78.855484
2932.858404	5610.889667	1906.607422	-26.706568
2932.858404	5610.889667	1905.625977	-11.075479
2932.858404	5610.889667	1904.644531	-46.550304
2932.858404	5610.889667	1903.662109	-106.327110
2932.858404	5610.889667	1902.680664	33.516785
2932.858404	5610.889667	1901.698242	-87.032616
2932.858404	5610.889667	1900.715820	77.136223
2932.858404	5610.889667	1899.733398	49.105946
2932.858404	5610.889667	1898.750000	69.749817
2932.858404	5610.889667	1897.767578	95.271378
2932.858404	5610.889667	1896.784180	40.581047
2932.858404	5610.889667	1895.800781	-94.278740
2932.858404	5610.889667	1894.817383	118.445435
2932.858404	5610.889667	1893.833984	-132.964691
2932.858404	5610.889667	1892.850586	21.422501
2932.858404	5610.889667	1891.866211	-3.961666
2932.858404	5610.889667	1890.881836	-26.891870
2932.858404	5610.889667	1889.897461	-144.485886
2932.858404	5610.889667	1888.913086	-109.093895
2932.858404	5610.889667	1887.927734	86.478569
2932.858404	5610.889667	1886.943359	-171.770157
2932.858404	5610.889667	1885.958008	81.989441
2932.858404	5610.889667	1884.972656	-79.117111
2932.858404	5610.889667	1883.987305	-145.573410
2932.858404	5610.889667	1883.001953	8.650615
2932.858404	5610.889667	1882.015625	51.308018
2932.858404	5610.889667	1881.029297	1.849408
2932.858404	5610.889667	1880.042969	-13.660025
2932.858404	5610.889667	1879.056641	-24.315260
2932.858404	5610.889667	1878.070313	-30.120960
2932.858404	5610.889667	1877.083984	-120.693604
2932.858404	5610.889667	1876.096680	151.995682
2932.858404	5610.889667	1875.109375	34.787556
2932.858404	5610.889667	1874.122070	96.744720
2932.858404	5610.889667	1873.134766	-44.620449
2932.858404	5610.889667	1872.146484	70.551445
2932.858404	5610.889667	1871.159180	13.903952
2932.858404	5610.889667	1870.170898	109.653702
2932.858404	5610.889667	1869.182617	-65.498306
2932.858404	5610.889667	1868.194336	-61.671547
2932.858404	5610.889667	1867.205078	-24.015003
2932.858404	5610.889667	1866.216797	153.798538
2932.858404	5610.889667	1865.227539	80.209709
2932.858404	5610.889667	1864.238281	-15.113662
2932.858404	5610.889667	1863.249023	174.625443
2932.858404	5610.889667	1862.259766	-22.155363
2932.858404	5610.889667	1861.269531	-124.709175
2932.858404	5610.889667	1860.279297	216.980042
2932.858404	5610.889667	1859.290039	58.855656
2932.858404	5610.889667	1858.298828	21.434299
2932.858404	5610.889667	1857.308594	12.955493
2932.858404	5610.889667	1856.318359	96.126045
2932.858404	5610.889667	1855.327148	32.103348
2932.858404	5610.889667	1854.335938	-63.276096
2932.858404	5610.889667	1853.344727	-26.040939
2932.858404	5610.889667	1852.353516	158.197159
2932.858404	5610.889667	1851.362305	-57.761360
2932.858404	5610.889667	1850.370117	-6.193314
2932.858404	5610.889667	1849.377930	129.643723
2932.858404	5610.889667	1848.385742	161.811462
2932.858404	5610.889667	1847.393555	39.790539
2932.858404	5610.889667	1846.401367	9.275491
2932.858404	5610.889667	1845.408203	188.180222
2932.858404	5610.889667	1844.415039	126.271812
2932.858404	5610.889667	1843.421875	6.583666
2932.858404	5610.889667	1842.428711	28.855257
2932.858404	5610.889667	1841.435547	87.156151
2932.858404	5610.889667	1840.441406	167.032883
2932.858404	5610.889667	1839.448242	83.306137
2932.858404	5610.889667	1838.454102	54.858265
2932.858404	5610.889667	1837.459961	88.868820
2932.858404	5610.889667	1836.464844	93.971077
2932.858404	5610.889667	1835.470703	173.509109
2932.858404	5610.889667	1834.475586	171.275055
2932.858404	5610.889667	1833.480469	22.459454
2932.858404	5610.889667	1832.485352	-35.098030
2932.858404	5610.889667	1831.490234	130.612686
2932.858404	5610.889667	1830.495117	-47.098469
2932.858404	5610.889667	1829.499023	116.027916
2932.858404	5610.889667	1828.502930	108.644623
2932.858404	5610.889667	1827.506836	43.615807
2932.858404	5610.889667	1826.510742	271.209412
2932.858404	5610.889667	1825.513672	-43.395874
2932.858404	5610.889667	1824.517578	-82.181244
2932.858404	5610.889667	1823.520508	140.307846
2932.858404	5610.889667	1822.523438	7.876466
2932.858404	5610.889667	1821.526367	4.841497
2932.858404	5610.889667	1820.529297	-72.545135
2932.858404	5610.889667	1819.531250	96.780632
2932.858404	5610.889667	1818.533203	-38.229778
2932.858404	5610.889667	1817.535156	-10.416685
2932.858404	5610.889667	1816.537109	-61.704849
2932.858404	5610.889667	1815.539063	-5.324208
2932.858404	5610.889667	1814.540039	38.987259
2932.858404	5610.889667	1813.541992	257.894623
2932.858404	5610.889667	1812.542969	19.660093
2932.858404	5610.889667	1811.543945	-0.884429
2932.858404	5610.889667	1810.543945	38.285522
2932.858404	5610.889667	1809.544922	29.536877
2932.858404	5610.889667	1808.544922	35.049725
2932.858404	5610.889667	1807.544922	-0.158588
2932.858404	5610.889667	1806.544922	-9.150854
2932.858404	5610.889667	1805.544922	55.845108
2932.858404	5610.889667	1804.544922	-29.773014
2932.858404	5610.889667	1803.543945	23.082747
2932.858404	5610.889667	1802.542969	-2.975535
2932.858404	5610.889667	1801.541992	30.576830
2932.858404	5610.889667	1800.541016	1.960840
2932.858404	5610.889667	1799.539063	9.061547
2932.858404	5610.889667	1798.538086	63.796722
2932.858404	5610.889667	1797.536133	-19.959894
2932.858404	5610.889667	1796.534180	137.140228
2932.858404	5610.889667	1795.532227	24.596508
2932.858404	5610.889667	1794.529297	107.520187
2932.858404	5610.889667	1793.527344	-33.771553
2932.858404	5610.889667	1792.524414	53.708981
2932.858404	5610.889667	1791.521484	21.906549
2932.858404	5610.889667	1790.518555	4.315276
2932.858404	5610.889667	1789.514648	70.005524
2932.858404	5610.889667	1788.511719	-47.814884
2932.858404	5610.889667	1787.507813	34.333107
2932.858404	5610.889667	1786.503906	-124.111053
2932.858404	5610.889667	1785.500000	-56.459793
2932.858404	5610.889667	1784.496094	-96.029922
2932.858404	5610.889667	1783.491211	109.393974
2932.858404	5610.889667	1782.486328	152.867035
2932.858404	5610.889667	1781.481445	65.402092
2932.858404	5610.889667	1780.476563	-38.777550
2932.858404	5610.889667	1779.471680	-43.158524
2932.858404	5610.889667	1778.465820	-0.101009
2932.858404	5610.889667	1777.460938	-33.212749
2932.858404	5610.889667	1776.455078	61.899406
2932.858404	5610.889667	1775.449219	147.369522
2932.858404	5610.889667	1774.442383	52.167679
2932.858404	5610.889667	1773.436523	-88.220253
2932.858404	5610.889667	1772.429688	-140.808075
2932.858404	5610.889667	1771.422852	32.053383
2932.858404	5610.889667	1770.416016	50.461636
2932.858404	5610.889667	1769.409180	97.235893
2932.858404	5610.889667	1768.402344	70.334541
2932.858404	5610.889667	1767.394531	-68.163551
2932.858404	5610.889667	1766.386719	11.490026
2932.858404	5610.889667	1765.378906	-48.900600
2932.858404	5610.889667	1764.371094	-163.904312
2932.858404	5610.889667	1763.362305	-101.193520
2932.858404	5610.889667	1762.354492	-135.775101
2932.858404	5610.889667	1761.345703	-175.194626
2932.858404	5610.889667	1760.336914	26.941053
2932.858404	5610.889667	1759.328125	117.568497
2932.858404	5610.889667	1758.318359	-12.192140
2932.858404	5610.889667	1757.308594	0.054082
2932.858404	5610.889667	1756.299805	61.910538
2932.858404	5610.889667	1755.290039	-75.183586
2932.858404	5610.889667	1754.279297	-75.088799
2932.858404	5610.889667	1753.269531	-82.189911
2932.858404	5610.889667	1752.258789	80.913155
2932.858404	5610.889667	1751.249023	73.574791
2932.858404	5610.889667	1750.238281	-99.395142
2932.858404	5610.889667	1749.226563	68.022331
2932.858404	5610.889667	1748.215820	133.641220
2932.858404	5610.889667	1747.204102	88.050171
2932.858404	5610.889667	1746.193359	-4.874873
2932.858404	5610.889667	1745.181641	135.992447
2932.858404	5610.889667	1744.168945	33.420723
2932.858404	5610.889667	1743.157227	-17.256447
2932.858404	5610.889667	1742.144531	78.353867
2932.858404	5610.889667	1741.132813	93.575935
2932.858404	5610.889667	1740.120117	-23.484293
2932.858404	5610.889667	1739.106445	-27.350157
2932.858404	5610.889667	1738.093750	-54.899395
2932.858404	5610.889667	1737.080078	-11.787818
2932.858404	5610.889667	1736.067383	21.782049
2932.858404	5610.889667	1735.053711	52.870850
2932.858404	5610.889667	1734.040039	-36.379715
2932.858404	5610.889667	1733.025391	98.201241
2932.858404	5610.889667	1732.011719	154.876831
2932.858404	5610.889667	1730.997070	178.436523
2932.858404	5610.889667	1729.982422	29.931620
2932.858404	5610.889667	1728.967773	67.439331
2932.858404	5610.889667	1727.952148	-128.288300
2932.858404	5610.889667	1726.937500	-39.168331
2932.858404	5610.889667	1725.921875	-82.000992
2932.858404	5610.889667	1724.906250	6.871994
2932.858404	5610.889667	1723.890625	154.436600
2932.858404	5610.889667	1722.875000	19.558199
2932.858404	5610.889667	1721.858398	58.671482
2932.858404	5610.889667	1720.841797	210.548447
2932.858404	5610.889667	1719.825195	7.261518
2932.858404	5610.889667	1718.808594	27.267937
2932.858404	5610.889667	1717.791992	63.625031
2932.858404	5610.889667	1716.774414	113.963921
2932.858404	5610.889667	1715.756836	105.459915
2932.858404	5610.889667	1714.739258	85.124016
2932.858404	5610.889667	1713.721680	-102.028404
2932.858404	5610.889667	1712.704102	-56.754383
2932.858404	5610.889667	1711.685547	28.309271
2932.858404	5610.889667	1710.667969	-81.539139
2932.858404	5610.889667	1709.649414	99.530945
2932.858404	5610.889667	1708.630859	-155.933899
2932.858404	5610.889667	1707.611328	50.699287
2932.858404	5610.889667	1706.592773	-103.984390
2932.858404	5610.889667	1705.573242	-178.982590
2932.858404	5610.889667	1704.553711	-179.016907
2932.858404	5610.889667	1703.534180	31.814383
2932.858404	5610.889667	1702.513672	15.159060
2932.858404	5610.889667	1701.494141	-144.480453
2932.858404	5610.889667	1700.473633	-34.760708
2932.858404	5610.889667	1699.453125	39.706493
2932.858404	5610.889667	1698.432617	-159.903137
2932.858404	5610.889667	1697.412109	-153.491013
2932.858404	5610.889667	1696.390625	147.761200
2932.858404	5610.889667	1695.369141	-14.552928
2932.858404	5610.889667	1694.347656	-85.626282
2932.858404	5610.889667	1693.326172	60.815540
2932.858404	5610.889667	1692.304688	-17.408609
2932.858404	5610.889667	1691.282227	-69.965065
2932.858404	5610.889667	1690.260742	132.285461
2932.858404	5610.889667	1689.238281	138.019012
2932.858404	5610.889667	1688.214844	-178.856308
2932.858404	5610.889667	1687.192383	-40.012398
2932.858404	5610.889667	1686.168945	80.007759
2932.858404	5610.889667	1685.146484	-87.372719
2932.858404	5610.889667	1684.123047	67.508995
2932.858404	5610.889667	1683.099609	40.144817
2932.858404	5610.889667	1682.075195	87.416794
2932.858404	5610.889667	1681.051758	73.937988
2932.858404	5610.889667	1680.027344	121.062218
2932.858404	5610.889667	1679.002930	25.789474
2932.858404	5610.889667	1677.978516	147.428452
2932.858404	5610.889667	1676.953125	49.724277
2932.858404	5610.889667	1675.928711	280.788605
2932.858404	5610.889667	1674.903320	131.694504
2932.858404	5610.889667	1673.877930	89.821152
2932.858404	5610.889667	1672.852539	80.535896
2932.858404	5610.889667	1671.826172	82.836578
2932.858404	5610.889667	1670.800781	250.492569
2932.858404	5610.889667	1669.774414	310.883179
2932.858404	5610.889667	1668.748047	285.044067
2932.858404	5610.889667	1667.721680	259.165894
2932.858404	5610.889667	1666.694336	79.609535
2932.858404	5610.889667	1665.667969	332.956390
2932.858404	5610.889667	1664.640625	295.297272
2932.858404	5610.889667	1663.613281	106.397598
2932.858404	5610.889667	1662.585938	366.424561
2932.858404	5610.889667	1661.557617	335.614899
2932.858404	5610.889667	1660.530273	381.516235
2932.858404	5610.889667	1659.501953	278.575439
2932.858404	5610.889667	1658.473633	238.387268
2932.858404	5610.889667	1657.444336	293.431549
2932.858404	5610.889667	1656.416016	202.072479
2932.858404	5610.889667	1655.386719	366.202118
2932.858404	5610.889667	1654.358398	274.797089
2932.858404	5610.889667	1653.328125	315.711304
2932.858404	5610.889667	1652.298828	363.557129
2932.858404	5610.889667	1651.269531	427.601471
2932.858404	5610.889667	1650.239258	510.141388
2932.858404	5610.889667	1649.208984	618.143005
2932.858404	5610.889667	1648.178711	568.343811
2932.858404	5610.889667	1647.148438	560.283142
2932.858404	5610.889667	1646.117188	596.242371
2932.858404	5610.889667	1645.086914	875.596985
2932.858404	5610.889667	1644.055664	867.399780
2932.858404	5610.889667	1643.024414	773.442993
2932.858404	5610.889667	1641.992188	623.883057
2932.858404	5610.889667	1640.960938	789.416870
2932.858404	5610.889667	1639.928711	820.525696
2932.858404	5610.889667	1638.896484	985.911194
2932.858404	5610.889667	1637.864258	1084.079468
2932.858404	5610.889667	1636.832031	1096.554321
2932.858404	5610.889667	1635.798828	870.634460
2932.858404	5610.889667	1634.766602	924.771851
2932.858404	5610.889667	1633.733398	1094.529785
2932.858404	5610.889667	1632.699219	972.778625
2932.858404	5610.889667	1631.666016	1135.510254
2932.858404	5610.889667	1630.632813	1110.903442
2932.858404	5610.889667	1629.598633	1058.549194
2932.858404	5610.889667	1628.564453	1137.942871
2932.858404	5610.889667	1627.530273	1533.860229
2932.858404	5610.889667	1626.495117	1338.203735
2932.858404	5610.889667	1625.460938	1623.060913
2932.858404	5610.889667	1624.425781	1466.723633
2932.858404	5610.889667	1623.390625	1499.773315
2932.858404	5610.889667	1622.355469	1518.965210
2932.858404	5610.889667	1621.319336	1588.914673
2932.858404	5610.889667	1620.284180	1686.548828
2932.858404	5610.889667	1619.248047	1717.234009
2932.858404	5610.889667	1618.211914	1588.761719
2932.858404	5610.889667	1617.174805	1594.091919
2932.858404	5610.889667	1616.138672	1670.923218
2932.858404	5610.889667	1615.101563	1701.617310
2932.858404	5610.889667	1614.065430	1794.557983
2932.858404	5610.889667	1613.027344	1896.666504
2932.858404	5610.889667	1611.990234	2031.020386
2932.858404	5610.889667	1610.953125	2066.292480
2932.858404	5610.889667	1609.915039	2073.918701
2932.858404	5610.889667	1608.876953	1901.964722
2932.858404	5610.889667	1607.838867	2112.246094
2932.858404	5610.889667	1606.800781	2241.911621
2932.858404	5610.889667	1605.761719	2307.102295
2932.858404	5610.889667	1604.723633	2323.990723
2932.858404	5610.889667	1603.684570	2446.699707
2932.858404	5610.889667	1602.644531	2521.075928
2932.858404	5610.889667	1601.605469	2491.993408
2932.858404	5610.889667	1600.566406	2359.498291
2932.858404	5610.889667	1599.526367	2486.804199
2932.858404	5610.889667	1598.486328	2319.939941
2932.858404	5610.889667	1597.446289	2451.864258
2932.858404	5610.889667	1596.405273	2482.682617
2932.858404	5610.889667	1595.365234	2276.976807
2932.858404	5610.889667	1594.324219	2418.111084
2932.858404	5610.889667	1593.283203	2292.912354
2932.858404	5610.889667	1592.242188	2353.727295
2932.858404	5610.889667	1591.200195	2375.531250
2932.858404	5610.889667	1590.159180	2420.327393
2932.858404	5610.889667	1589.117188	2272.436035
2932.858404	5610.889667	1588.075195	2480.150879
2932.858404	5610.889667	1587.032227	2277.345947
2932.858404	5610.889667	1585.990234	2290.192383
2932.858404	5610.889667	1584.947266	2243.468750
2932.858404	5610.889667	1583.904297	2201.394531
2932.858404	5610.889667	1582.861328	2436.639160
2932.858404	5610.889667	1581.818359	2456.498291
2932.858404	5610.889667	1580.775391	2460.367920
2932.858404	5610.889667	1579.731445	2439.085938
2932.858404	5610.889667	1578.687500	2520.894287
2932.858404	5610.889667	1577.643555	2362.371582
2932.858404	5610.889667	1576.598633	2371.025146
2932.858404	5610.889667	1575.554688	2258.470947
2932.858404	5610.889667	1574.509766	2399.945557
2932.858404	5610.889667	1573.464844	2255.511230
2932.858404	5610.889667	1572.419922	2044.875732
2932.858404	5610.889667	1571.374023	2124.743164
2932.858404	5610.889667	1570.329102	1998.919434
2932.858404	5610.889667	1569.283203	1859.481567
2932.858404	5610.889667	1568.237305	2088.057617
2932.858404	5610.889667	1567.191406	1905.379028
2932.858404	5610.889667	1566.144531	1864.444824
2932.858404	5610.889667	1565.098633	1844.159180
2932.858404	5610.889667	1564.051758	1760.005737
2932.858404	5610.889667	1563.004883	1993.266602
2932.858404	5610.889667	1561.957031	1701.549438
2932.858404	5610.889667	1560.910156	1873.258911
2932.858404	5610.889667	1559.862305	1670.800781
2932.858404	5610.889667	1558.814453	1555.173828
2932.858404	5610.889667	1557.766602	1425.982422
2932.858404	5610.889667	1556.718750	1515.809326
2932.858404	5610.889667	1555.669922	1478.003174
2932.858404	5610.889667	1554.621094	1524.620605
2932.858404	5610.889667	1553.573242	1190.752197
2932.858404	5610.889667	1552.523438	1460.828735
2932.858404	5610.889667	1551.474609	1421.098022
2932.858404	5610.889667	1550.424805	1274.412598
2932.858404	5610.889667	1549.375000	1428.427490
2932.858404	5610.889667	1548.325195	1382.130005
2932.858404	5610.889667	1547.275391	1046.869385
2932.858404	5610.889667	1546.225586	957.594727
2932.858404	5610.889667	1545.174805	1125.525269
2932.858404	5610.889667	1544.124023	1159.265625
2932.858404	5610.889667	1543.073242	1106.655640
2932.858404	5610.889667	1542.022461	1270.169556
2932.858404	5610.889667	1540.970703	1108.599121
2932.858404	5610.889667	1539.919922	1079.024170
2932.858404	5610.889667	1538.868164	1063.174194
2932.858404	5610.889667	1537.815430	849.741577
2932.858404	5610.889667	1536.763672	1011.310425
2932.858404	5610.889667	1535.710938	943.510010
2932.858404	5610.889667	1534.659180	896.275696
2932.858404	5610.889667	1533.606445	885.467651
2932.858404	5610.889667	1532.552734	954.191223
2932.858404	5610.889667	1531.500000	1007.106873
2932.858404	5610.889667	1530.446289	883.111267
2932.858404	5610.889667	1529.393555	1015.608521
2932.858404	5610.889667	1528.338867	989.369019
2932.858404	5610.889667	1527.285156	870.276917
2932.858404	5610.889667	1526.231445	665.179565
2932.858404	5610.889667	1525.176758	895.454956
2932.858404	5610.889667	1524.122070	559.180542
2932.858404	5610.889667	1523.067383	755.599060
2932.858404	5610.889667	1522.012695	682.465942
2932.858404	5610.889667	1520.957031	598.129272
2932.858404	5610.889667	1519.901367	545.630859
2932.858404	5610.889667	1518.845703	577.023071
2932.858404	5610.889667	1517.790039	368.571014
2932.858404	5610.889667	1516.734375	305.143341
2932.858404	5610.889667	1515.677734	524.668640
2932.858404	5610.889667	1514.621094	576.808411
2932.858404	5610.889667	1513.564453	468.448761
2932.858404	5610.889667	1512.507813	556.972046
2932.858404	5610.889667	1511.450195	473.732971
2932.858404	5610.889667	1510.393555	288.923859
2932.858404	5610.889667	1509.335938	359.664032
2932.858404	5610.889667	1508.278320	559.275330
2932.858404	5610.889667	1507.219727	639.179321
2932.858404	5610.889667	1506.162109	353.271515
2932.858404	5610.889667	1505.103516	555.344849
2932.858404	5610.889667	1504.044922	651.334045
2932.858404	5610.889667	1502.986328	681.934753
2932.858404	5610.889667	1501.926758	491.458618
2932.858404	5610.889667	1500.868164	756.965149
2932.858404	5610.889667	1499.808594	675.057739
2932.858404	5610.889667	1498.749023	922.594482
2932.858404	5610.889667	1497.688477	694.327759
2932.858404	5610.889667	1496.628906	569.981262
2932.858404	5610.889667	1495.568359	558.498047
2932.858404	5610.889667	1494.507813	567.416321
2932.858404	5610.889667	1493.447266	630.523438
2932.858404	5610.889667	1492.386719	572.067749
2932.858404	5610.889667	1491.325195	482.211395
2932.858404	5610.889667	1490.263672	619.948181
2932.858404	5610.889667	1489.202148	255.670792
2932.858404	5610.889667	1488.140625	294.584595
2932.858404	5610.889667	1487.079102	223.320602
2932.858404	5610.889667	1486.016602	102.693878
2932.858404	5610.889667	1484.954102	119.461220
2932.858404	5610.889667	1483.891602	30.624733
2932.858404	5610.889667	1482.829102	225.285156
2932.858404	5610.889667	1481.765625	64.745247
2932.858404	5610.889667	1480.702148	90.961510
2932.858404	5610.889667	1479.638672	-75.980003
2932.858404	5610.889667	1478.575195	4.408118
2932.858404	5610.889667	1477.511719	-193.646500
2932.858404	5610.889667	1476.447266	-32.198017
2932.858404	5610.889667	1475.382813	-162.579590
2932.858404	5610.889667	1474.318359	70.839684
2932.858404	5610.889667	1473.253906	187.554001
2932.858404	5610.889667	1472.189453	293.263611
2932.858404	5610.889667	1471.124023	138.655060
2932.858404	5610.889667	1470.058594	309.449280
2932.858404	5610.889667	1468.993164	323.441193
2932.858404	5610.889667	1467.927734	483.270477
2932.858404	5610.889667	1466.861328	405.592804
2932.858404	5610.889667	1465.794922	285.387421
2932.858404	5610.889667	1464.728516	487.730469
2932.858404	5610.889667	1463.662109	535.621887
2932.858404	5610.889667	1462.594727	574.898438
2932.858404	5610.889667	1461.528320	425.801575
2932.858404	5610.889667	1460.460938	512.467896
2932.858404	5610.889667	1459.393555	670.735229
2932.858404	5610.889667	1458.326172	645.455994
2932.858404	5610.889667	1457.257813	680.860168
2932.858404	5610.889667	1456.189453	562.100647
2932.858404	5610.889667	1455.121094	575.358887
2932.858404	5610.889667	1454.052734	758.583984
2932.858404	5610.889667	1452.984375	783.432983
2932.858404	5610.889667	1451.915039	936.769226
2932.858404	5610.889667	1450.845703	794.567139
2932.858404	5610.889667	1449.776367	996.093140
2932.858404	5610.889667	1448.707031	863.381348
2932.858404	5610.889667	1447.636719	1054.994507
2932.858404	5610.889667	1446.567383	1104.636597
2932.858404	5610.889667	1445.497070	868.050598
2932.858404	5610.889667	1444.425781	915.774841
2932.858404	5610.889667	1443.355469	1003.510559
2932.858404	5610.889667	1442.285156	1110.490723
2932.858404	5610.889667	1441.213867	849.526672
2932.858404	5610.889667	1440.142578	985.346802
2932.858404	5610.889667	1439.070313	795.569397
2932.858404	5610.889667	1437.999023	905.594727
2932.858404	5610.889667	1436.926758	722.401062
2932.858404	5610.889667	1435.854492	791.527649
2932.858404	5610.889667	1434.782227	651.290649
2932.858404	5610.889667	1433.709961	716.979736
2932.858404	5610.889667	1432.636719	791.860352
2932.858404	5610.889667	1431.563477	648.368652
2932.858404	5610.889667	1430.490234	579.549377
2932.858404	5610.889667	1429.416992	535.087585
2932.858404	5610.889667	1428.343750	653.315002
2932.858404	5610.889667	1427.269531	674.499451
2932.858404	5610.889667	1426.195313	339.164551
2932.858404	5610.889667	1425.121094	349.504211
2932.858404	5610.889667	1424.046875	418.864716
2932.858404	5610.889667	1422.971680	226.309189
2932.858404	5610.889667	1421.896484	578.317810
2932.858404	5610.889667	1420.821289	514.185120
2932.858404	5610.889667	1419.746094	501.710480
2932.858404	5610.889667	1418.669922	722.148743
2932.858404	5610.889667	1417.594727	562.618774
2932.858404	5610.889667	1416.518555	475.026398
2932.858404	5610.889667	1415.442383	523.951721
2932.858404	5610.889667	1414.365234	484.815125
2932.858404	5610.889667	1413.289063	606.869324
2932.858404	5610.889667	1412.211914	483.329498
2932.858404	5610.889667	1411.134766	505.607422
2932.858404	5610.889667	1410.057617	416.956421
2932.858404	5610.889667	1408.979492	493.133270
2932.858404	5610.889667	1407.902344	487.666016
2932.858404	5610.889667	1406.824219	429.127289
2932.858404	5610.889667	1405.746094	661.711487
2932.858404	5610.889667	1404.666992	446.371887
2932.858404	5610.889667	1403.588867	371.060669
2932.858404	5610.889667	1402.509766	468.355042
2932.858404	5610.889667	1401.430664	419.633545
2932.858404	5610.889667	1400.351563	583.329224
2932.858404	5610.889667	1399.271484	501.799164
2932.858404	5610.889667	1398.192383	241.910507
2932.858404	5610.889667	1397.112305	558.339050
2932.858404	5610.889667	1396.031250	584.612793
2932.858404	5610.889667	1394.951172	674.252625
2932.858404	5610.889667	1393.871094	469.673340
2932.858404	5610.889667	1392.790039	614.767761
2932.858404	5610.889667	1391.708984	564.062988
2932.858404	5610.889667	1390.626953	539.225281
2932.858404	5610.889667	1389.545898	691.352783
2932.858404	5610.889667	1388.463867	699.432251
2932.858404	5610.889667	1387.381836	627.860413
2932.858404	5610.889667	1386.299805	621.000000
2932.858404	5610.889667	1385.217773	681.582642
2932.858404	5610.889667	1384.134766	601.600525
2932.858404	5610.889667	1383.051758	775.042725
2932.858404	5610.889667	1381.968750	676.405701
2932.858404	5610.889667	1380.885742	561.777527
2932.858404	5610.889667	1379.802734	770.104919
2932.858404	5610.889667	1378.718750	600.691772
2932.858404	5610.889667	1377.634766	519.339294
2932.858404	5610.889667	1376.550781	767.012695
2932.858404	5610.889667	1375.465820	693.851013
2932.858404	5610.889667	1374.381836	454.945984
2932.858404	5610.889667	1373.296875	544.339417
2932.858404	5610.889667	1372.211914	543.093811
2932.858404	5610.889667	1371.126953	492.728973
2932.858404	5610.889667	1370.041016	452.238892
2932.858404	5610.889667	1368.955078	560.915344
2932.858404	5610.889667	1367.869141	648.914795
2932.858404	5610.889667	1366.783203	296.240356
2932.858404	5610.889667	1365.697266	432.289764
2932.858404	5610.889667	1364.610352	437.124786
2932.858404	5610.889667	1363.523438	494.085571
2932.858404	5610.889667	1362.436523	607.276794
2932.858404	5610.889667	1361.349609	644.225098
2932.858404	5610.889667	1360.261719	612.750305
2932.858404	5610.889667	1359.174805	686.859802
2932.858404	5610.889667	1358.086914	564.455933
2932.858404	5610.889667	1356.998047	701.770508
2932.858404	5610.889667	1355.910156	782.265625
2932.858404	5610.889667	1354.821289	467.911285
2932.858404	5610.889667	1353.732422	697.558777
2932.858404	5610.889667	1352.643555	690.374268
2932.858404	5610.889667	1351.554688	635.025818
2932.858404	5610.889667	1350.464844	478.540039
2932.858404	5610.889667	1349.375000	439.915253
2932.858404	5610.889667	1348.285156	505.766876
2932.858404	5610.889667	1347.195313	356.271790
2932.858404	5610.889667	1346.105469	415.105011
2932.858404	5610.889667	1345.014648	489.123352
2932.858404	5610.889667	1343.923828	369.479218
2932.858404	5610.889667	1342.833008	550.233276
2932.858404	5610.889667	1341.741211	481.602905
2932.858404	5610.889667	1340.650391	262.937988
2932.858404	5610.889667	1339.558594	390.883240
2932.858404	5610.889667	1338.466797	370.665833
2932.858404	5610.889667	1337.374023	641.256348
2932.858404	5610.889667	1336.282227	474.358673
2932.858404	5610.889667	1335.189453	212.359146
2932.858404	5610.889667	1334.096680	460.809937
2932.858404	5610.889667	1333.003906	408.063690
2932.858404	5610.889667	1331.910156	465.705536
2932.858404	5610.889667	1330.817383	400.503204
2932.858404	5610.889667	1329.723633	540.943237
2932.858404	5610.889667	1328.629883	447.690735
2932.858404	5610.889667	1327.535156	405.442413
2932.858404	5610.889667	1326.441406	279.769226
2932.858404	5610.889667	1325.346680	437.794891
2932.858404	5610.889667	1324.251953	409.891327
2932.858404	5610.889667	1323.156250	590.583496
2932.858404	5610.889667	1322.061523	431.122711
2932.858404	5610.889667	1320.965820	561.561707
2932.858404	5610.889667	1319.870117	437.608185
2932.858404	5610.889667	1318.774414	290.154877
2932.858404	5610.889667	1317.678711	513.805420
2932.858404	5610.889667	1316.582031	338.169922
2932.858404	5610.889667	1315.485352	487.063385
2932.858404	5610.889667	1314.388672	386.462494
2932.858404	5610.889667	1313.291016	272.403320
2932.858404	5610.889667	1312.194336	475.463531
2932.858404	5610.889667	1311.096680	261.373352
2932.858404	5610.889667	1309.999023	527.198547
2932.858404	5610.889667	1308.901367	430.418762
2932.858404	5610.889667	1307.802734	503.830963
2932.858404	5610.889667	1306.705078	564.401062
2932.858404	5610.889667	1305.606445	561.680115
2932.858404	5610.889667	1304.506836	334.182922
2932.858404	5610.889667	1303.408203	488.540283
2932.858404	5610.889667	1302.308594	507.803375
2932.858404	5610.889667	1301.208984	561.647034
2932.858404	5610.889667	1300.109375	870.180725
2932.858404	5610.889667	1299.009766	670.595032
2932.858404	5610.889667	1297.909180	791.195007
2932.858404	5610.889667	1296.808594	701.226746
2932.858404	5610.889667	1295.708008	592.278137
2932.858404	5610.889667	1294.607422	692.669739
2932.858404	5610.889667	1293.506836	687.875244
2932.858404	5610.889667	1292.405273	691.017334
2932.858404	5610.889667	1291.303711	742.757813
2932.858404	5610.889667	1290.202148	524.813721
2932.858404	5610.889667	1289.099609	548.524536
2932.858404	5610.889667	1287.998047	589.632507
2932.858404	5610.889667	1286.895508	465.939636
2932.858404	5610.889667	1285.792969	549.874268
2932.858404	5610.889667	1284.689453	615.517273
2932.858404	5610.889667	1283.586914	645.557007
2932.858404	5610.889667	1282.483398	427.676575
2932.858404	5610.889667	1281.379883	419.857849
2932.858404	5610.889667	1280.276367	540.354980
2932.858404	5610.889667	1279.171875	500.290833
2932.858404	5610.889667	1278.067383	356.749878
2932.858404	5610.889667	1276.962891	312.181549
2932.858404	5610.889667	1275.858398	372.238312
2932.858404	5610.889667	1274.753906	394.258209
2932.858404	5610.889667	1273.648438	366.556732
2932.858404	5610.889667	1272.542969	433.935944
2932.858404	5610.889667	1271.437500	315.400970
2932.858404	5610.889667	1270.331055	317.697906
2932.858404	5610.889667	1269.225586	199.635880
2932.858404	5610.889667	1268.119141	347.716705
2932.858404	5610.889667	1267.012695	366.204407
2932.858404	5610.889667	1265.906250	269.439056
2932.858404	5610.889667	1264.798828	29.386534
2932.858404	5610.889667	1263.691406	133.304016
2932.858404	5610.889667	1262.583984	41.229786
2932.858404	5610.889667	1261.476563	47.851570
2932.858404	5610.889667	1260.368164	-44.087349
2932.858404	5610.889667	1259.260742	42.473980
2932.858404	5610.889667	1258.152344	99.697716
2932.858404	5610.889667	1257.043945	141.514847
2932.858404	5610.889667	1255.934570	46.751686
2932.858404	5610.889667	1254.825195	91.029655
2932.858404	5610.889667	1253.716797	-7.423413
2932.858404	5610.889667	1252.606445	8.577099
2932.858404	5610.889667	1251.497070	27.940819
2932.858404	5610.889667	1250.387695	-69.630898
2932.858404	5610.889667	1249.277344	-37.559731
2932.858404	5610.889667	1248.166992	233.892914
2932.858404	5610.889667	1247.055664	187.487015
2932.858404	5610.889667	1245.945313	150.179016
2932.858404	5610.889667	1244.833984	48.237621
2932.858404	5610.889667	1243.722656	12.191484
2932.858404	5610.889667	1242.611328	166.582886
2932.858404	5610.889667	1241.499023	124.864174
2932.858404	5610.889667	1240.387695	194.393234
2932.858404	5610.889667	1239.275391	71.333260
2932.858404	5610.889667	1238.162109	55.765606
2932.858404	5610.889667	1237.049805	163.424179
2932.858404	5610.889667	1235.936523	221.787582
2932.858404	5610.889667	1234.823242	134.158966
2932.858404	5610.889667	1233.709961	1.674409
2932.858404	5610.889667	1232.596680	146.692627
2932.858404	5610.889667	1231.482422	182.379822
2932.858404	5610.889667	1230.369141	91.696602
2932.858404	5610.889667	1229.253906	-49.816204
2932.858404	5610.889667	1228.139648	40.330563
2932.858404	5610.889667	1227.025391	127.869499
2932.858404	5610.889667	1225.910156	-45.569363
2932.858404	5610.889667	1224.794922	-67.040161
2932.858404	5610.889667	1223.679688	110.372528
2932.858404	5610.889667	1222.563477	11.128761
2932.858404	5610.889667	1221.447266	46.770180
2932.858404	5610.889667	1220.331055	-70.989937
2932.858404	5610.889667	1219.214844	99.167160
2932.858404	5610.889667	1218.098633	-12.483715
2932.858404	5610.889667	1216.981445	-42.519653
2932.858404	5610.889667	1215.864258	-19.299305
2932.858404	5610.889667	1214.747070	-111.078110
2932.858404	5610.889667	1213.629883	-136.866394
2932.858404	5610.889667	1212.511719	-166.644623
2932.858404	5610.889667	1211.393555	-107.874863
2932.858404	5610.889667	1210.275391	-94.491249
2932.858404	5610.889667	1209.157227	-57.342937
2932.858404	5610.889667	1208.038086	44.043648
2932.858404	5610.889667	1206.918945	-54.629402
2932.858404	5610.889667	1205.799805	-200.523727
2932.858404	5610.889667	1204.680664	-2.844930
2932.858404	5610.889667	1203.560547	-153.241547
2932.858404	5610.889667	1202.441406	-83.624046
2932.858404	5610.889667	1201.321289	-13.462871
2932.858404	5610.889667	1200.200195	-70.348427
2932.858404	5610.889667	1199.080078	-168.796478
2932.858404	5610.889667	1197.958984	8.145241
2932.858404	5610.889667	1196.837891	-24.937120
2932.858404	5610.889667	1195.716797	32.325119
2932.858404	5610.889667	1194.594727	91.747124
2932.858404	5610.889667	1193.473633	29.663013
2932.858404	5610.889667	1192.351563	-37.734924
2932.858404	5610.889667	1191.229492	-16.191448
2932.858404	5610.889667	1190.106445	-67.030144
2932.858404	5610.889667	1188.984375	-63.248688
2932.858404	5610.889667	1187.861328	-65.496773
2932.858404	5610.889667	1186.738281	71.233894
2932.858404	5610.889667	1185.614258	31.121601
2932.858404	5610.889667	1184.491211	-30.042992
2932.858404	5610.889667	1183.367188	178.353882
2932.858404	5610.889667	1182.243164	69.234734
2932.858404	5610.889667	1181.119141	29.172436
2932.858404	5610.889667	1179.994141	-26.027912
2932.858404	5610.889667	1178.869141	5.091468
2932.858404	5610.889667	1177.744141	-89.663139
2932.858404	5610.889667	1176.619141	45.123940
2932.858404	5610.889667	1175.493164	-36.534286
2932.858404	5610.889667	1174.368164	54.565575
2932.858404	5610.889667	1173.242188	56.817062
2932.858404	5610.889667	1172.115234	142.209991
2932.858404	5610.889667	1170.989258	68.783897
2932.858404	5610.889667	1169.862305	28.607937
2932.858404	5610.889667	1168.735352	130.957596
2932.858404	5610.889667	1167.608398	113.962479
2932.858404	5610.889667	1166.481445	73.962128
2932.858404	5610.889667	1165.353516	91.094322
2932.858404	5610.889667	1164.225586	42.912064
2932.858404	5610.889667	1163.097656	8.813522
2932.858404	5610.889667	1161.968750	25.395369
2932.858404	5610.889667	1160.840820	8.680240
2932.858404	5610.889667	1159.711914	84.653709
2932.858404	5610.889667	1158.583008	-26.330223
2932.858404	5610.889667	1157.453125	58.344524
2932.858404	5610.889667	1156.324219	-41.056915
2932.858404	5610.889667	1155.194336	-84.188873
2932.858404	5610.889667	1154.064453	104.500076
2932.858404	5610.889667	1152.933594	63.938408
2932.858404	5610.889667	1151.803711	-110.826210
2932.858404	5610.889667	1150.672852	-61.653454
2932.858404	5610.889667	1149.541992	-32.350121
2932.858404	5610.889667	1148.411133	-1.706434
2932.858404	5610.889667	1147.279297	-115.413223
2932.858404	5610.889667	1146.147461	-23.100405
2932.858404	5610.889667	1145.015625	-69.257393
2932.858404	5610.889667	1143.883789	24.856853
2932.858404	5610.889667	1142.750977	21.981073
2932.858404	5610.889667	1141.619141	-10.607807
2932.858404	5610.889667	1140.486328	52.141041
2932.858404	5610.889667	1139.352539	-52.529469
2932.858404	5610.889667	1138.219727	-53.913441
2932.858404	5610.889667	1137.085938	-54.965149
2932.858404	5610.889667	1135.952148	-59.637341
2932.858404	5610.889667	1134.818359	-83.131294
2932.858404	5610.889667	1133.683594	39.577583
2932.858404	5610.889667	1132.549805	-182.816101
2932.858404	5610.889667	1131.415039	128.540619
2932.858404	5610.889667	1130.279297	40.471783
2932.858404	5610.889667	1129.144531	2.455431
2932.858404	5610.889667	1128.008789	-119.922264
2932.858404	5610.889667	1126.873047	212.649002
2932.858404	5610.889667	1125.737305	55.096897
2932.858404	5610.889667	1124.601563	214.285629
2932.858404	5610.889667	1123.464844	78.654541
2932.858404	5610.889667	1122.328125	77.391068
2932.858404	5610.889667	1121.191406	209.075241
2932.858404	5610.889667	1120.054688	98.556656
2932.858404	5610.889667	1118.916992	177.092865
2932.858404	5610.889667	1117.779297	62.365631
2932.858404	5610.889667	1116.641602	169.986267
2932.858404	5610.889667	1115.503906	120.057304
2932.858404	5610.889667	1114.365234	126.207260
2932.858404	5610.889667	1113.226563	220.324142
2932.858404	5610.889667	1112.087891	174.417709
2932.858404	5610.889667	1110.949219	99.437202
2932.858404	5610.889667	1109.809570	82.608650
2932.858404	5610.889667	1108.669922	146.290955
2932.858404	5610.889667	1107.530273	175.435303
2932.858404	5610.889667	1106.390625	57.442116
2932.858404	5610.889667	1105.250000	107.316597
2932.858404	5610.889667	1104.109375	172.587738
2932.858404	5610.889667	1102.968750	258.716522
2932.858404	5610.889667	1101.828125	171.203003
2932.858404	5610.889667	1100.686523	156.487793
2932.858404	5610.889667	1099.544922	104.658638
2932.858404	5610.889667	1098.403320	131.615036
2932.858404	5610.889667	1097.261719	254.115845
2932.858404	5610.889667	1096.120117	201.984406
2932.858404	5610.889667	1094.977539	180.087875
2932.858404	5610.889667	1093.834961	195.096283
2932.858404	5610.889667	1092.691406	265.312317
2932.858404	5610.889667	1091.548828	140.445313
2932.858404	5610.889667	1090.405273	239.389557
2932.858404	5610.889667	1089.261719	8.113107
2932.858404	5610.889667	1088.118164	312.448090
2932.858404	5610.889667	1086.973633	133.028061
2932.858404	5610.889667	1085.829102	88.148346
2932.858404	5610.889667	1084.684570	75.921371
2932.858404	5610.889667	1083.540039	97.946884
2932.858404	5610.889667	1082.395508	76.139084
2932.858404	5610.889667	1081.250000	316.160645
2932.858404	5610.889667	1080.104492	-19.953655
2932.858404	5610.889667	1078.958984	153.048309
2932.858404	5610.889667	1077.812500	135.972672
2932.858404	5610.889667	1076.666016	82.517410
2932.858404	5610.889667	1075.519531	86.958107
2932.858404	5610.889667	1074.373047	182.171875
2932.858404	5610.889667	1073.226563	202.889343
2932.858404	5610.889667	1072.079102	168.199677
2932.858404	5610.889667	1070.931641	102.106758
2932.858404	5610.889667	1069.784180	90.267998
2932.858404	5610.889667	1068.635742	156.559555
2932.858404	5610.889667	1067.487305	258.080170
2932.858404	5610.889667	1066.338867	137.916000
2932.858404	5610.889667	1065.190430	262.351379
2932.858404	5610.889667	1064.041992	224.846497
2932.858404	5610.889667	1062.892578	-33.930195
2932.858404	5610.889667	1061.743164	204.002594
2932.858404	5610.889667	1060.593750	114.684601
2932.858404	5610.889667	1059.443359	164.877975
2932.858404	5610.889667	1058.292969	233.407364
2932.858404	5610.889667	1057.142578	101.043472
2932.858404	5610.889667	1055.992188	47.402748
2932.858404	5610.889667	1054.841797	213.420959
2932.858404	5610.889667	1053.690430	134.237030
2932.858404	5610.889667	1052.539063	66.124039
2932.858404	5610.889667	1051.387695	207.663269
2932.858404	5610.889667	1050.235352	175.860260
2932.858404	5610.889667	1049.083984	55.623066
2932.858404	5610.889667	1047.931641	-63.161533
2932.858404	5610.889667	1046.778320	147.434341
2932.858404	5610.889667	1045.625977	107.229607
2932.858404	5610.889667	1044.472656	220.105957
2932.858404	5610.889667	1043.319336	218.458847
2932.858404	5610.889667	1042.166016	112.709900
2932.858404	5610.889667	1041.012695	-36.811024
2932.858404	5610.889667	1039.858398	-43.945366
2932.858404	5610.889667	1038.704102	-18.239920
2932.858404	5610.889667	1037.549805	194.959381
2932.858404	5610.889667	1036.394531	219.092773
2932.858404	5610.889667	1035.239258	146.509537
2932.858404	5610.889667	1034.083984	107.308571
2932.858404	5610.889667	1032.928711	122.522873
2932.858404	5610.889667	1031.773438	46.173206
2932.858404	5610.889667	1030.617188	71.121529
2932.858404	5610.889667	1029.460938	16.980484
2932.858404	5610.889667	1028.304688	-4.728656
2932.858404	5610.889667	1027.147461	-49.948715
2932.858404	5610.889667	1025.991211	-42.408978
2932.858404	5610.889667	1024.833984	85.012917
2932.858404	5610.889667	1023.675781	-31.833248
2932.858404	5610.889667	1022.518555	-99.508591
2932.858404	5610.889667	1021.360352	90.106133
2932.858404	5610.889667	1020.202148	-52.430370
2932.858404	5610.889667	1019.043945	53.190769
2932.858404	5610.889667	1017.884766	20.568008
2932.858404	5610.889667	1016.726563	8.096079
2932.858404	5610.889667	1015.567383	23.912991
2932.858404	5610.889667	1014.407227	-154.758408
2932.858404	5610.889667	1013.248047	-32.783939
2932.858404	5610.889667	1012.087891	-90.566307
2932.858404	5610.889667	1010.927734	-131.451340
2932.858404	5610.889667	1009.767578	-48.470520
2932.858404	5610.889667	1008.606445	-164.972839
2932.858404	5610.889667	1007.446289	-92.363937
2932.858404	5610.889667	1006.285156	-84.186874
2932.858404	5610.889667	1005.123047	64.130821
2932.858404	5610.889667	1003.961914	-74.435455
2932.858404	5610.889667	1002.799805	-114.019753
2932.858404	5610.889667	1001.637695	-51.486763
2932.858404	5610.889667	1000.475586	116.075432
2932.858404	5610.889667	999.312500	68.864487
2932.858404	5610.889667	998.149414	295.056305
2932.858404	5610.889667	996.986328	226.146805
2932.858404	5610.889667	995.823242	10.094748
2932.858404	5610.889667	994.659180	11.023482
2932.858404	5610.889667	993.496094	-191.364105
2932.858404	5610.889667	992.332031	30.853155
2932.858404	5610.889667	991.166992	-85.675591
2932.858404	5610.889667	990.002930	-15.979750
2932.858404	5610.889667	988.837891	-119.771095
2932.858404	5610.889667	987.672852	59.264202
2932.858404	5610.889667	986.506836	-104.943565
2932.858404	5610.889667	985.341797	-281.932404
2932.858404	5610.889667	984.175781	-121.861038
2932.858404	5610.889667	983.009766	-126.858452
2932.858404	5610.889667	981.843750	-93.366257
2932.858404	5610.889667	980.676758	57.155609
2932.858404	5610.889667	979.509766	-140.501343
2932.858404	5610.889667	978.342773	-282.496521
2932.858404	5610.889667	977.175781	-51.273483
2932.858404	5610.889667	976.007813	-10.029574
2932.858404	5610.889667	974.839844	47.007751
2932.858404	5610.889667	973.671875	8.599992
2932.858404	5610.889667	972.503906	-165.935211
2932.858404	5610.889667	971.334961	-73.353355
2932.858404	5610.889667	970.166016	-112.399918
2932.858404	5610.889667	968.997070	14.613845
2932.858404	5610.889667	967.828125	98.811729
2932.858404	5610.889667	966.658203	113.586578
2932.858404	5610.889667	965.488281	25.666147
2932.858404	5610.889667	964.318359	138.788971
2932.858404	5610.889667	963.148438	126.257538
2932.858404	5610.889667	961.977539	90.487572
2932.858404	5610.889667	960.806641	75.702003
2932.858404	5610.889667	959.635742	-69.044724
2932.858404	5610.889667	958.463867	70.253380
2932.858404	5610.889667	957.292969	189.550385
2932.858404	5610.889667	956.121094	262.164642
2932.858404	5610.889667	954.948242	14.208160
2932.858404	5610.889667	953.776367	103.263512
2932.858404	5610.889667	952.603516	-9.730937
2932.858404	5610.889667	951.430664	117.234970
2932.858404	5610.889667	950.257813	-73.678864
2932.858404	5610.889667	949.084961	150.868118
2932.858404	5610.889667	947.911133	47.341690
2932.858404	5610.889667	946.737305	31.548462
2932.858404	5610.889667	945.563477	-150.902466
2932.858404	5610.889667	944.388672	10.777876
2932.858404	5610.889667	943.213867	71.270157
2932.858404	5610.889667	942.039063	-218.741821
2932.858404	5610.889667	940.864258	-99.229057
2932.858404	5610.889667	939.688477	-67.292770
2932.858404	5610.889667	938.513672	72.220291
2932.858404	5610.889667	937.337891	78.613297
2932.858404	5610.889667	936.161133	90.759933
2932.858404	5610.889667	934.985352	71.906784
2932.858404	5610.889667	933.808594	-96.726547
2932.858404	5610.889667	932.631836	203.446442
2932.858404	5610.889667	931.454102	286.134491
2932.858404	5610.889667	930.277344	142.877686
2932.858404	5610.889667	929.099609	169.118210
2932.858404	5610.889667	927.921875	189.653046
2932.858404	5610.889667	926.743164	196.026779
2932.858404	5610.889667	925.565430	281.382172
2932.858404	5610.889667	924.386719	253.893692
2932.858404	5610.889667	923.208008	251.770462
2932.858404	5610.889667	922.028320	29.670311
2932.858404	5610.889667	920.849609	219.299545
2932.858404	5610.889667	919.669922	221.567841
2932.858404	5610.889667	919.474609	268.267761
2932.858404	5610.889667	918.309570	116.687218
2932.858404	5610.889667	917.143555	80.691162
2932.858404	5610.889667	915.977539	19.341339
2932.858404	5610.889667	914.810547	-126.496529
2932.858404	5610.889667	913.644531	198.011429
2932.858404	5610.889667	912.477539	69.065254
2932.858404	5610.889667	911.310547	120.320969
2932.858404	5610.889667	910.143555	-62.055790
2932.858404	5610.889667	908.975586	-58.652489
2932.858404	5610.889667	907.807617	99.469612
2932.858404	5610.889667	906.639648	46.560631
2932.858404	5610.889667	905.471680	-37.272900
2932.858404	5610.889667	904.303711	27.931042
2932.858404	5610.889667	903.134766	-64.318893
2932.858404	5610.889667	901.965820	65.482979
2932.858404	5610.889667	900.796875	60.346497
2932.858404	5610.889667	899.626953	83.295418
2932.858404	5610.889667	898.457031	176.442383
2932.858404	5610.889667	897.287109	249.882660
2932.858404	5610.889667	896.117188	135.173950
2932.858404	5610.889667	894.947266	93.483330
2932.858404	5610.889667	893.776367	68.639160
2932.858404	5610.889667	892.605469	226.175491
2932.858404	5610.889667	891.434570	-45.573639
2932.858404	5610.889667	890.262695	58.612202
2932.858404	5610.889667	889.091797	207.609207
2932.858404	5610.889667	887.919922	258.411377
2932.858404	5610.889667	886.748047	247.515701
2932.858404	5610.889667	885.575195	116.110786
2932.858404	5610.889667	884.403320	105.227684
2932.858404	5610.889667	883.230469	234.404251
2932.858404	5610.889667	882.057617	80.645302
2932.858404	5610.889667	880.883789	33.345470
2932.858404	5610.889667	879.710938	-13.947056
2932.858404	5610.889667	878.537109	53.529621
2932.858404	5610.889667	877.362305	249.697372
2932.858404	5610.889667	876.188477	56.871521
2932.858404	5610.889667	875.013672	227.761658
2932.858404	5610.889667	873.839844	85.338882
2932.858404	5610.889667	872.664063	46.423615
2932.858404	5610.889667	871.489258	287.069000
2932.858404	5610.889667	870.313477	351.522095
2932.858404	5610.889667	869.138672	323.721405
2932.858404	5610.889667	867.962891	125.497971
2932.858404	5610.889667	866.786133	173.154953
2932.858404	5610.889667	865.610352	69.974121
2932.858404	5610.889667	864.433594	-33.173016
2932.858404	5610.889667	863.256836	-10.668780
2932.858404	5610.889667	862.079102	165.321213
2932.858404	5610.889667	860.902344	134.736511
2932.858404	5610.889667	859.724609	132.053024
2932.858404	5610.889667	858.546875	207.459732
2932.858404	5610.889667	857.368164	154.545868
2932.858404	5610.889667	856.190430	121.158257
2932.858404	5610.889667	855.011719	-12.576889
2932.858404	5610.889667	853.833008	-45.937351
2932.858404	5610.889667	852.654297	-40.284992
2932.858404	5610.889667	851.474609	188.222275
2932.858404	5610.889667	850.294922	263.435120
2932.858404	5610.889667	849.115234	101.906189
2932.858404	5610.889667	847.935547	57.365917
2932.858404	5610.889667	846.754883	29.535242
2932.858404	5610.889667	845.575195	-56.739365
2932.858404	5610.889667	844.393555	-17.779327
2932.858404	5610.889667	843.212891	93.479309
2932.858404	5610.889667	842.032227	-31.726402
2932.858404	5610.889667	840.850586	121.177940
2932.858404	5610.889667	839.668945	-193.052658
2932.858404	5610.889667	838.486328	-73.555237
2932.858404	5610.889667	837.304688	-131.974915
2932.858404	5610.889667	836.122070	-151.483673
2932.858404	5610.889667	834.939453	-157.107208
2932.858404	5610.889667	833.756836	-129.413986
2932.858404	5610.889667	832.573242	-18.442986
2932.858404	5610.889667	831.389648	25.843102
2932.858404	5610.889667	830.206055	83.975906
2932.858404	5610.889667	829.022461	64.373306
2932.858404	5610.889667	827.838867	53.088409
2932.858404	5610.889667	826.654297	113.916183
2932.858404	5610.889667	825.469727	66.548729
2932.858404	5610.889667	824.284180	204.958725
2932.858404	5610.889667	823.099609	27.276192
2932.858404	5610.889667	821.914063	71.377693
2932.858404	5610.889667	820.728516	98.821594
2932.858404	5610.889667	819.542969	228.744980
2932.858404	5610.889667	818.356445	-73.490852
2932.858404	5610.889667	817.169922	192.081146
2932.858404	5610.889667	815.983398	31.152779
2932.858404	5610.889667	814.796875	138.782501
2932.858404	5610.889667	813.609375	127.351074
2932.858404	5610.889667	812.422852	52.267986
2932.858404	5610.889667	811.235352	181.915466
2932.858404	5610.889667	810.046875	128.951553
2932.858404	5610.889667	808.859375	106.411308
2932.858404	5610.889667	807.670898	141.924423
2932.858404	5610.889667	806.482422	119.361404
2932.858404	5610.889667	805.293945	77.447212
2932.858404	5610.889667	804.104492	46.587879
2932.858404	5610.889667	802.915039	-3.611192
2932.858404	5610.889667	801.725586	45.620369
2932.858404	5610.889667	800.536133	81.009483
2932.858404	5610.889667	799.345703	160.539764
2932.858404	5610.889667	798.155273	-74.632080
2932.858404	5610.889667	796.964844	-61.364082
2932.858404	5610.889667	795.774414	175.357773
2932.858404	5610.889667	794.583008	25.790495
2932.858404	5610.889667	793.392578	61.041725
2932.858404	5610.889667	792.200195	99.020393
2932.858404	5610.889667	791.008789	-130.432693
2932.858404	5610.889667	789.816406	17.779528
2932.858404	5610.889667	788.625000	-112.397285
2932.858404	5610.889667	787.432617	104.589455
2932.858404	5610.889667	786.239258	150.696121
2932.858404	5610.889667	785.046875	-42.817608
2932.858404	5610.889667	783.853516	25.290730
2932.858404	5610.889667	782.660156	-132.367386
2932.858404	5610.889667	781.465820	-1.005828
2932.858404	5610.889667	780.272461	-166.884293
2932.858404	5610.889667	779.078125	-313.455261
2932.858404	5610.889667	777.883789	46.089050
2932.858404	5610.889667	776.688477	-26.256733
2932.858404	5610.889667	775.494141	-87.595474
2932.858404	5610.889667	774.298828	-157.173248
2932.858404	5610.889667	773.103516	31.581530
2932.858404	5610.889667	771.907227	-128.699432
2932.858404	5610.889667	770.711914	-110.380547
2932.858404	5610.889667	769.515625	-97.581566
2932.858404	5610.889667	768.318359	-40.873444
2932.858404	5610.889667	767.122070	125.600182
2932.858404	5610.889667	765.924805	171.219009
2932.858404	5610.889667	764.727539	19.222202
2932.858404	5610.889667	763.530273	-14.759492
2932.858404	5610.889667	762.333008	-139.265732
2932.858404	5610.889667	761.134766	-66.287483
2932.858404	5610.889667	759.936523	-39.971237
2932.858404	5610.889667	758.738281	38.397251
2932.858404	5610.889667	757.540039	-146.395004
2932.858404	5610.889667	756.340820	-68.079262
2932.858404	5610.889667	755.141602	-77.482613
2932.858404	5610.889667	753.942383	-54.036289
2932.858404	5610.889667	752.742188	15.932698
2932.858404	5610.889667	751.541992	28.355627
2932.858404	5610.889667	750.341797	-38.628918
2932.858404	5610.889667	749.141602	33.964329
2932.858404	5610.889667	747.941406	-120.593231
2932.858404	5610.889667	746.740234	-7.023681
2932.858404	5610.889667	745.539063	5.282083
2932.858404	5610.889667	744.337891	129.671646
2932.858404	5610.889667	743.135742	-22.131325
2932.858404	5610.889667	741.933594	-91.895096
2932.858404	5610.889667	740.731445	10.508193
2932.858404	5610.889667	739.529297	44.542847
2932.858404	5610.889667	738.326172	-68.963524
2932.858404	5610.889667	737.124023	41.495789
2932.858404	5610.889667	735.919922	59.052616
2932.858404	5610.889667	734.716797	-24.425945
2932.858404	5610.889667	733.513672	14.925806
2932.858404	5610.889667	732.309570	54.237663
2932.858404	5610.889667	731.105469	98.967133
2932.858404	5610.889667	729.900391	116.378258
2932.858404	5610.889667	728.696289	180.118652
2932.858404	5610.889667	727.491211	276.526459
2932.858404	5610.889667	726.286133	242.029495
2932.858404	5610.889667	725.080078	117.589027
2932.858404	5610.889667	723.874023	50.396576
2932.858404	5610.889667	722.668945	171.175491
2932.858404	5610.889667	721.461914	169.319214
2932.858404	5610.889667	720.255859	170.163803
2932.858404	5610.889667	719.048828	64.809418
2932.858404	5610.889667	717.841797	133.675720
2932.858404	5610.889667	716.634766	17.441463
2932.858404	5610.889667	715.427734	64.476776
2932.858404	5610.889667	714.219727	163.151489
2932.858404	5610.889667	713.011719	-61.869015
2932.858404	5610.889667	711.803711	104.720474
2932.858404	5610.889667	710.594727	45.585159
2932.858404	5610.889667	709.385742	141.370956
2932.858404	5610.889667	708.176758	218.072052
2932.858404	5610.889667	706.967773	134.430725
2932.858404	5610.889667	705.758789	18.207792
2932.858404	5610.889667	704.548828	92.102066
2932.858404	5610.889667	703.338867	-32.254578
2932.858404	5610.889667	702.127930	71.432365
2932.858404	5610.889667	700.917969	63.784119
2932.858404	5610.889667	699.707031	-22.570374
2932.858404	5610.889667	698.496094	167.789917
2932.858404	5610.889667	697.285156	92.254280
2932.858404	5610.889667	696.073242	195.693802
2932.858404	5610.889667	694.861328	-53.367851
2932.858404	5610.889667	693.649414	134.039642
2932.858404	5610.889667	692.436523	210.239532
2932.858404	5610.889667	691.224609	199.687332
2932.858404	5610.889667	690.011719	218.914108
2932.858404	5610.889667	688.798828	406.019806
2932.858404	5610.889667	687.584961	422.443817
2932.858404	5610.889667	686.372070	349.507507
2932.858404	5610.889667	685.158203	425.437225
2932.858404	5610.889667	683.943359	401.194458
2932.858404	5610.889667	682.729492	482.450409
2932.858404	5610.889667	681.514648	417.593323
2932.858404	5610.889667	680.299805	579.896179
2932.858404	5610.889667	679.084961	293.306488
2932.858404	5610.889667	677.869141	390.653168
2932.858404	5610.889667	676.653320	431.186279
2932.858404	5610.889667	675.437500	463.577454
2932.858404	5610.889667	674.221680	517.546204
2932.858404	5610.889667	673.004883	587.677246
2932.858404	5610.889667	671.789063	433.642120
2932.858404	5610.889667	670.571289	568.514954
2932.858404	5610.889667	669.354492	376.724121
2932.858404	5610.889667	668.136719	408.972076
2932.858404	5610.889667	666.919922	203.769775
2932.858404	5610.889667	665.701172	351.991577
2932.858404	5610.889667	664.483398	211.576218
2932.858404	5610.889667	663.264648	203.317932
2932.858404	5610.889667	662.045898	230.090057
2932.858404	5610.889667	660.827148	281.090698
2932.858404	5610.889667	659.608398	315.886536
2932.858404	5610.889667	658.388672	199.788864
2932.858404	5610.889667	657.168945	283.035889
2932.858404	5610.889667	655.949219	269.291534
2932.858404	5610.889667	654.728516	271.690277
2932.858404	5610.889667	653.507813	136.797501
2932.858404	5610.889667	652.287109	271.060364
2932.858404	5610.889667	651.066406	335.298065
2932.858404	5610.889667	649.844727	394.114380
2932.858404	5610.889667	648.623047	407.172852
2932.858404	5610.889667	647.401367	366.435822
2932.858404	5610.889667	646.179688	204.731781
2932.858404	5610.889667	644.957031	352.169861
2932.858404	5610.889667	643.734375	193.199799
2932.858404	5610.889667	642.511719	257.272247
2932.858404	5610.889667	641.289063	109.111702
2932.858404	5610.889667	640.065430	170.467438
2932.858404	5610.889667	638.841797	153.925507
2932.858404	5610.889667	637.618164	180.330597
2932.858404	5610.889667	636.393555	287.226349
2932.858404	5610.889667	635.168945	80.137863
2932.858404	5610.889667	633.944336	-11.518899
2932.858404	5610.889667	632.719727	205.288757
2932.858404	5610.889667	631.494141	127.035645
2932.858404	5610.889667	630.269531	43.448311
2932.858404	5610.889667	629.042969	166.273056
2932.858404	5610.889667	627.817383	93.418816
2932.858404	5610.889667	626.590820	218.849426
2932.858404	5610.889667	625.365234	154.041016
2932.858404	5610.889667	624.137695	164.238846
2932.858404	5610.889667	622.911133	193.172256
2932.858404	5610.889667	621.683594	53.443264
2932.858404	5610.889667	620.456055	320.575104
2932.858404	5610.889667	619.228516	100.599983
2932.858404	5610.889667	618.000977	57.280663
2932.858404	5610.889667	616.772461	128.986511
2932.858404	5610.889667	615.543945	91.024460
2932.858404	5610.889667	614.314453	-134.068604
2932.858404	5610.889667	613.085938	-54.349731
2932.858404	5610.889667	611.856445	118.868568
2932.858404	5610.889667	610.626953	-52.648247
2932.858404	5610.889667	609.397461	144.540283
2932.858404	5610.889667	608.166992	21.166376
2932.858404	5610.889667	606.936523	-120.843391
2932.858404	5610.889667	605.706055	54.885551
2932.858404	5610.889667	604.474609	-132.436539
2932.858404	5610.889667	603.244141	29.887157
2932.858404	5610.889667	602.012695	-66.634010
2932.858404	5610.889667	600.780273	34.268101
2932.858404	5610.889667	599.548828	79.134041
2932.858404	5610.889667	598.316406	91.993202
2932.858404	5610.889667	597.083984	40.880547
2932.858404	5610.889667	595.851563	-79.492455
2932.858404	5610.889667	594.618164	21.341362
2932.858404	5610.889667	593.384766	-21.707594
2932.858404	5610.889667	592.151367	148.334854
2932.858404	5610.889667	590.917969	44.054230
2932.858404	5610.889667	589.683594	3.719453
2932.858404	5610.889667	588.449219	104.477730
2932.858404	5610.889667	587.214844	-20.982414
2932.858404	5610.889667	585.979492	-16.015060
2932.858404	5610.889667	584.745117	-183.929474
2932.858404	5610.889667	583.509766	-45.936779
2932.858404	5610.889667	582.273438	121.256058
2932.858404	5610.889667	581.038086	-73.120758
2932.858404	5610.889667	579.801758	30.252954
2932.858404	5610.889667	578.565430	-36.453255
2932.858404	5610.889667	577.329102	8.457907
2932.858404	5610.889667	576.091797	69.300880
2932.858404	5610.889667	574.854492	84.994186
2932.858404	5610.889667	573.617188	34.328362
2932.858404	5610.889667	572.378906	153.571976
2932.858404	5610.889667	571.141602	12.725984
2932.858404	5610.889667	569.903320	-56.408798
2932.858404	5610.889667	568.664063	-146.715164
2932.858404	5610.889667	567.425781	-313.868530
2932.858404	5610.889667	566.186523	30.787933
2932.858404	5610.889667	564.947266	51.917210
2932.858404	5610.889667	563.708008	94.261429
2932.858404	5610.889667	562.467773	46.518921
2932.858404	5610.889667	561.227539	49.152390
2932.858404	5610.889667	559.987305	115.373169
2932.858404	5610.889667	558.747070	-104.395012
2932.858404	5610.889667	557.505859	-54.007977
2932.858404	5610.889667	556.264648	28.143816
2932.858404	5610.889667	555.023438	168.503113
2932.858404	5610.889667	553.781250	62.773663
2932.858404	5610.889667	552.539063	-34.950211
2932.858404	5610.889667	551.296875	44.581806
2932.858404	5610.889667	550.054688	108.241104
2932.858404	5610.889667	548.811523	31.794464
2932.858404	5610.889667	547.569336	135.125214
2932.858404	5610.889667	546.325195	-60.147053
2932.858404	5610.889667	545.082031	27.361486
2932.858404	5610.889667	543.837891	96.370659
2932.858404	5610.889667	542.593750	49.189819
2932.858404	5610.889667	541.349609	36.377251
2932.858404	5610.889667	540.105469	126.539070
2932.858404	5610.889667	538.860352	-26.093559
2932.858404	5610.889667	537.615234	-181.270523
2932.858404	5610.889667	536.369141	-220.289978
2932.858404	5610.889667	535.124023	59.843594
2932.858404	5610.889667	533.877930	-37.160538
2932.858404	5610.889667	532.631836	-113.006065
2932.858404	5610.889667	531.384766	14.147062
2932.858404	5610.889667	530.138672	172.894165
2932.858404	5610.889667	528.891602	-45.121326
2932.858404	5610.889667	527.643555	26.709492
2932.858404	5610.889667	526.396484	-69.992905
2932.858404	5610.889667	525.148438	-42.887245
2932.858404	5610.889667	523.900391	21.085121
2932.858404	5610.889667	522.652344	85.057808
2932.858404	5610.889667	521.403320	-90.393326
2932.858404	5610.889667	520.154297	44.653988
2932.858404	5610.889667	518.905273	-67.540260
2932.858404	5610.889667	517.656250	-150.736633
2932.858404	5610.889667	516.406250	26.377995
2932.858404	5610.889667	515.156250	19.468353
2932.858404	5610.889667	513.906250	9.960305
2932.858404	5610.889667	512.655273	21.498476
2932.858404	5610.889667	511.404297	-37.859509
2932.858404	5610.889667	510.153320	189.062103
2932.858404	5610.889667	508.902344	98.237862
2932.858404	5610.889667	507.650391	-66.018738
2932.858404	5610.889667	506.398438	-20.240639
2932.858404	5610.889667	505.146484	-66.289352
2932.858404	5610.889667	503.893555	-91.311417
2932.858404	5610.889667	502.641602	-74.341118
2932.858404	5610.889667	501.388672	144.536148
2932.858404	5610.889667	500.134766	-111.141350
2932.858404	5610.889667	498.881836	52.649471
2932.858404	5610.889667	497.627930	56.548283
2932.858404	5610.889667	496.374023	44.743324
2932.858404	5610.889667	495.119141	260.828552
2932.858404	5610.889667	493.865234	162.600235
2932.858404	5610.889667	492.610352	171.768219
2932.858404	5610.889667	491.355469	141.681641
2932.858404	5610.889667	490.099609	-61.097939
2932.858404	5610.889667	488.843750	94.661797
2932.858404	5610.889667	487.587891	85.566917
2932.858404	5610.889667	486.332031	60.791317
2932.858404	5610.889667	485.075195	12.500372
2932.858404	5610.889667	483.818359	178.590668
2932.858404	5610.889667	482.561523	234.843369
2932.858404	5610.889667	481.304688	168.262177
2932.858404	5610.889667	480.046875	49.459995
2932.858404	5610.889667	478.789063	48.240402
2932.858404	5610.889667	477.531250	44.405273
2932.858404	5610.889667	476.272461	210.263596
2932.858404	5610.889667	475.013672	-10.263600
2932.858404	5610.889667	473.754883	-74.129501
2932.858404	5610.889667	472.496094	94.224350
2932.858404	5610.889667	471.236328	179.019699
2932.858404	5610.889667	469.976563	70.775978
2932.858404	5610.889667	468.716797	-128.698090
2932.858404	5610.889667	467.456055	-30.933458
2932.858404	5610.889667	466.196289	19.852568
2932.858404	5610.889667	464.935547	143.548538
2932.858404	5610.889667	463.673828	261.952057
2932.858404	5610.889667	462.413086	-57.290989
2932.858404	5610.889667	461.151367	180.820831
2932.858404	5610.889667	459.889648	49.106766
2932.858404	5610.889667	458.626953	138.651337
2932.858404	5610.889667	457.364258	220.306366
2932.858404	5610.889667	456.101563	39.104874
2932.858404	5610.889667	454.838867	170.071014
2932.858404	5610.889667	453.575195	243.714111
2932.858404	5610.889667	452.312500	104.064613
2932.858404	5610.889667	451.047852	349.138153
2932.858404	5610.889667	449.784180	219.797348
2932.858404	5610.889667	448.519531	176.190414
2932.858404	5610.889667	447.254883	218.257660
2932.858404	5610.889667	445.990234	0.507896
2932.858404	5610.889667	444.725586	278.737000
2932.858404	5610.889667	443.459961	320.515564
2932.858404	5610.889667	442.194336	175.308609
2932.858404	5610.889667	440.927734	346.660004
2932.858404	5610.889667	439.662109	260.992950
2932.858404	5610.889667	438.395508	387.958282
2932.858404	5610.889667	437.127930	545.880737
2932.858404	5610.889667	435.861328	423.609467
2932.858404	5610.889667	434.593750	345.341797
2932.858404	5610.889667	433.326172	653.137695
2932.858404	5610.889667	432.058594	660.112244
2932.858404	5610.889667	430.790039	633.275024
2932.858404	5610.889667	429.521484	461.276764
2932.858404	5610.889667	428.252930	519.664734
2932.858404	5610.889667	426.984375	474.327484
2932.858404	5610.889667	425.714844	351.207733
2932.858404	5610.889667	424.445313	481.575256
2932.858404	5610.889667	423.174805	459.078308
2932.858404	5610.889667	421.905273	495.912628
2932.858404	5610.889667	420.634766	297.224548
2932.858404	5610.889667	419.364258	232.881393
2932.858404	5610.889667	418.092773	245.919022
2932.858404	5610.889667	416.822266	437.075287
2932.858404	5610.889667	415.550781	426.407349
2932.858404	5610.889667	414.278320	428.445496
2932.858404	5610.889667	413.006836	523.242554
2932.858404	5610.889667	411.734375	372.470947
2932.858404	5610.889667	410.461914	164.737885
2932.858404	5610.889667	409.188477	320.766479
2932.858404	5610.889667	407.916016	334.559570
2932.858404	5610.889667	406.642578	293.909637
2932.858404	5610.889667	405.368164	374.234009
2932.858404	5610.889667	404.094727	304.689026
2932.858404	5610.889667	402.820313	250.356583
2932.858404	5610.889667	401.545898	340.103790
2932.858404	5610.889667	400.270508	352.196106
2932.858404	5610.889667	398.996094	436.122070
2932.858404	5610.889667	397.720703	259.520630
2932.858404	5610.889667	396.444336	355.652557
2932.858404	5610.889667	395.168945	399.916473
2932.858404	5610.889667	393.892578	345.987427
2932.858404	5610.889667	392.616211	356.069458
2932.858404	5610.889667	391.339844	378.646912
2932.858404	5610.889667	390.062500	498.589294
2932.858404	5610.889667	388.785156	522.928894
2932.858404	5610.889667	387.507813	510.861084
2932.858404	5610.889667	386.229492	364.696655
2932.858404	5610.889667	384.951172	362.115265
2932.858404	5610.889667	383.672852	251.174896
2932.858404	5610.889667	382.394531	363.364075
2932.858404	5610.889667	381.115234	439.079865
2932.858404	5610.889667	379.835938	450.096649
2932.858404	5610.889667	378.556641	409.281738
2932.858404	5610.889667	377.277344	303.820557
2932.858404	5610.889667	375.997070	213.292038
2932.858404	5610.889667	374.716797	178.737717
2932.858404	5610.889667	373.435547	413.017548
2932.858404	5610.889667	372.155273	392.757050
2932.858404	5610.889667	370.874023	210.395630
2932.858404	5610.889667	369.591797	240.315460
2932.858404	5610.889667	368.310547	249.150223
2932.858404	5610.889667	367.028320	118.996300
2932.858404	5610.889667	365.746094	144.569916
2932.858404	5610.889667	364.463867	225.860016
2932.858404	5610.889667	363.180664	255.244141
2932.858404	5610.889667	361.897461	237.877655
2932.858404	5610.889667	360.614258	194.252701
2932.858404	5610.889667	359.330078	311.173309
2932.858404	5610.889667	358.045898	317.322937
2932.858404	5610.889667	356.761719	118.109970
2932.858404	5610.889667	355.477539	148.426041
2932.858404	5610.889667	354.192383	52.672596
2932.858404	5610.889667	352.907227	237.397476
2932.858404	5610.889667	351.622070	60.887035
2932.858404	5610.889667	350.336914	54.859020
2932.858404	5610.889667	349.050781	-148.718185
2932.858404	5610.889667	347.764648	-161.480057
2932.858404	5610.889667	346.477539	105.783142
2932.858404	5610.889667	345.191406	160.179886
2932.858404	5610.889667	343.904297	-0.770165
2932.858404	5610.889667	342.616211	90.057274
2932.858404	5610.889667	341.329102	60.025822
2932.858404	5610.889667	340.041016	6.077954
2932.858404	5610.889667	338.752930	-148.275604
2932.858404	5610.889667	337.463867	43.182728
2932.858404	5610.889667	336.175781	55.136578
2932.858404	5610.889667	334.886719	-158.248047
2932.858404	5610.889667	333.596680	-79.596184
2932.858404	5610.889667	332.307617	-152.322021
2932.858404	5610.889667	331.017578	158.444824
2932.858404	5610.889667	329.727539	111.469254
2932.858404	5610.889667	328.436523	30.249235
2932.858404	5610.889667	327.146484	-24.066404
2932.858404	5610.889667	325.855469	111.278366
2932.858404	5610.889667	324.563477	51.965652
2932.858404	5610.889667	323.272461	-89.909966
2932.858404	5610.889667	321.980469	89.950058
2932.858404	5610.889667	320.688477	-44.270515
2932.858404	5610.889667	319.395508	31.202816
2932.858404	5610.889667	318.103516	-72.539841
2932.858404	5610.889667	316.810547	-63.293858
2932.858404	5610.889667	315.516602	13.112457
2932.858404	5610.889667	314.223633	-158.227707
2932.858404	5610.889667	312.929688	-89.749657
2932.858404	5610.889667	311.635742	22.934147
2932.858404	5610.889667	310.340820	-13.168316
2932.858404	5610.889667	309.045898	-109.130981
2932.858404	5610.889667	307.750977	191.703217
2932.858404	5610.889667	306.456055	224.519333
2932.858404	5610.889667	305.160156	146.632782
2932.858404	5610.889667	303.865234	82.418434
2932.858404	5610.889667	302.568359	19.003483
2932.858404	5610.889667	301.272461	-99.231995
2932.858404	5610.889667	299.975586	193.790192
2932.858404	5610.889667	298.678711	300.025055
