#X		#Y		#Wave		#Intensity
13316.271862	3903.360333	1999.980469	119.005058
13316.271862	3903.360333	1999.016602	33.746983
13316.271862	3903.360333	1998.052734	-206.427597
13316.271862	3903.360333	1997.087891	-276.123291
13316.271862	3903.360333	1996.123047	15.356977
13316.271862	3903.360333	1995.158203	21.282999
13316.271862	3903.360333	1994.193359	-0.585688
13316.271862	3903.360333	1993.228516	-97.261505
13316.271862	3903.360333	1992.262695	-97.844360
13316.271862	3903.360333	1991.297852	104.060333
13316.271862	3903.360333	1990.332031	75.260368
13316.271862	3903.360333	1989.366211	85.613739
13316.271862	3903.360333	1988.399414	132.643906
13316.271862	3903.360333	1987.433594	189.134186
13316.271862	3903.360333	1986.466797	81.988640
13316.271862	3903.360333	1985.500977	-191.164871
13316.271862	3903.360333	1984.534180	-153.084839
13316.271862	3903.360333	1983.567383	102.143486
13316.271862	3903.360333	1982.599609	287.753723
13316.271862	3903.360333	1981.632813	332.146484
13316.271862	3903.360333	1980.665039	57.549202
13316.271862	3903.360333	1979.697266	271.804230
13316.271862	3903.360333	1978.729492	-20.521151
13316.271862	3903.360333	1977.761719	131.417343
13316.271862	3903.360333	1976.792969	189.253738
13316.271862	3903.360333	1975.825195	293.731537
13316.271862	3903.360333	1974.856445	195.611877
13316.271862	3903.360333	1973.887695	223.146698
13316.271862	3903.360333	1972.918945	169.080841
13316.271862	3903.360333	1971.949219	260.358093
13316.271862	3903.360333	1970.980469	388.421570
13316.271862	3903.360333	1970.010742	254.958420
13316.271862	3903.360333	1969.041016	163.301971
13316.271862	3903.360333	1968.071289	-88.642456
13316.271862	3903.360333	1967.101563	206.371933
13316.271862	3903.360333	1966.130859	205.545944
13316.271862	3903.360333	1965.161133	372.099823
13316.271862	3903.360333	1964.190430	-50.052208
13316.271862	3903.360333	1963.219727	133.537354
13316.271862	3903.360333	1962.249023	270.209534
13316.271862	3903.360333	1961.277344	32.663296
13316.271862	3903.360333	1960.306641	208.545975
13316.271862	3903.360333	1959.334961	-92.980370
13316.271862	3903.360333	1958.363281	38.483910
13316.271862	3903.360333	1957.391602	174.782364
13316.271862	3903.360333	1956.419922	-60.290577
13316.271862	3903.360333	1955.447266	235.716141
13316.271862	3903.360333	1954.474609	121.117310
13316.271862	3903.360333	1953.501953	95.021088
13316.271862	3903.360333	1952.529297	-66.204865
13316.271862	3903.360333	1951.556641	42.857658
13316.271862	3903.360333	1950.583984	14.345383
13316.271862	3903.360333	1949.610352	12.868069
13316.271862	3903.360333	1948.636719	60.514519
13316.271862	3903.360333	1947.663086	98.348503
13316.271862	3903.360333	1946.689453	-67.505867
13316.271862	3903.360333	1945.715820	112.727615
13316.271862	3903.360333	1944.741211	-35.824615
13316.271862	3903.360333	1943.767578	242.537460
13316.271862	3903.360333	1942.792969	49.964146
13316.271862	3903.360333	1941.818359	-83.635201
13316.271862	3903.360333	1940.842773	-136.232391
13316.271862	3903.360333	1939.868164	348.047150
13316.271862	3903.360333	1938.892578	87.206932
13316.271862	3903.360333	1937.916992	-26.457949
13316.271862	3903.360333	1936.941406	131.908997
13316.271862	3903.360333	1935.965820	-8.523442
13316.271862	3903.360333	1934.990234	2.999319
13316.271862	3903.360333	1934.013672	215.356232
13316.271862	3903.360333	1933.037109	-3.117796
13316.271862	3903.360333	1932.060547	-390.303467
13316.271862	3903.360333	1931.083984	-21.138304
13316.271862	3903.360333	1930.107422	56.836533
13316.271862	3903.360333	1929.129883	183.788681
13316.271862	3903.360333	1928.153320	-70.735352
13316.271862	3903.360333	1927.175781	-60.997822
13316.271862	3903.360333	1926.198242	83.289566
13316.271862	3903.360333	1925.219727	-41.256531
13316.271862	3903.360333	1924.242188	73.830948
13316.271862	3903.360333	1923.263672	181.639542
13316.271862	3903.360333	1922.285156	15.898040
13316.271862	3903.360333	1921.306641	-64.201645
13316.271862	3903.360333	1920.328125	-312.670837
13316.271862	3903.360333	1919.349609	-221.579620
13316.271862	3903.360333	1918.370117	147.856415
13316.271862	3903.360333	1917.391602	19.365761
13316.271862	3903.360333	1916.412109	66.710266
13316.271862	3903.360333	1915.431641	299.550171
13316.271862	3903.360333	1914.452148	239.691162
13316.271862	3903.360333	1913.472656	-20.033899
13316.271862	3903.360333	1912.492188	-160.086823
13316.271862	3903.360333	1911.511719	158.331116
13316.271862	3903.360333	1910.531250	-52.198792
13316.271862	3903.360333	1909.550781	-26.169563
13316.271862	3903.360333	1908.569336	65.726517
13316.271862	3903.360333	1907.588867	28.570467
13316.271862	3903.360333	1906.607422	254.564484
13316.271862	3903.360333	1905.625977	42.232738
13316.271862	3903.360333	1904.644531	139.279007
13316.271862	3903.360333	1903.662109	95.188774
13316.271862	3903.360333	1902.680664	209.395248
13316.271862	3903.360333	1901.698242	231.179230
13316.271862	3903.360333	1900.715820	-211.644974
13316.271862	3903.360333	1899.733398	163.073349
13316.271862	3903.360333	1898.750000	-7.029922
13316.271862	3903.360333	1897.767578	117.221367
13316.271862	3903.360333	1896.784180	47.016693
13316.271862	3903.360333	1895.800781	105.736031
13316.271862	3903.360333	1894.817383	30.844187
13316.271862	3903.360333	1893.833984	19.225828
13316.271862	3903.360333	1892.850586	-53.054741
13316.271862	3903.360333	1891.866211	139.499756
13316.271862	3903.360333	1890.881836	-54.061413
13316.271862	3903.360333	1889.897461	-181.935852
13316.271862	3903.360333	1888.913086	-93.662964
13316.271862	3903.360333	1887.927734	21.334625
13316.271862	3903.360333	1886.943359	112.074745
13316.271862	3903.360333	1885.958008	98.513336
13316.271862	3903.360333	1884.972656	-67.804901
13316.271862	3903.360333	1883.987305	-49.704765
13316.271862	3903.360333	1883.001953	-38.839222
13316.271862	3903.360333	1882.015625	-93.388649
13316.271862	3903.360333	1881.029297	-147.879013
13316.271862	3903.360333	1880.042969	-250.777832
13316.271862	3903.360333	1879.056641	-227.615158
13316.271862	3903.360333	1878.070313	-158.403488
13316.271862	3903.360333	1877.083984	-140.051849
13316.271862	3903.360333	1876.096680	168.905884
13316.271862	3903.360333	1875.109375	-18.550797
13316.271862	3903.360333	1874.122070	-128.455963
13316.271862	3903.360333	1873.134766	146.503922
13316.271862	3903.360333	1872.146484	5.185570
13316.271862	3903.360333	1871.159180	71.986061
13316.271862	3903.360333	1870.170898	221.012299
13316.271862	3903.360333	1869.182617	-50.805286
13316.271862	3903.360333	1868.194336	11.151468
13316.271862	3903.360333	1867.205078	140.776321
13316.271862	3903.360333	1866.216797	45.565842
13316.271862	3903.360333	1865.227539	-97.943436
13316.271862	3903.360333	1864.238281	-33.623863
13316.271862	3903.360333	1863.249023	-206.074142
13316.271862	3903.360333	1862.259766	-28.271896
13316.271862	3903.360333	1861.269531	81.832794
13316.271862	3903.360333	1860.279297	61.506233
13316.271862	3903.360333	1859.290039	-52.979313
13316.271862	3903.360333	1858.298828	230.762161
13316.271862	3903.360333	1857.308594	212.748795
13316.271862	3903.360333	1856.318359	-99.610214
13316.271862	3903.360333	1855.327148	56.043453
13316.271862	3903.360333	1854.335938	-111.551079
13316.271862	3903.360333	1853.344727	-45.246414
13316.271862	3903.360333	1852.353516	-65.795555
13316.271862	3903.360333	1851.362305	-79.154610
13316.271862	3903.360333	1850.370117	25.516962
13316.271862	3903.360333	1849.377930	-36.145008
13316.271862	3903.360333	1848.385742	106.911217
13316.271862	3903.360333	1847.393555	326.919006
13316.271862	3903.360333	1846.401367	4.998474
13316.271862	3903.360333	1845.408203	280.187164
13316.271862	3903.360333	1844.415039	133.972839
13316.271862	3903.360333	1843.421875	40.686565
13316.271862	3903.360333	1842.428711	380.462189
13316.271862	3903.360333	1841.435547	226.869095
13316.271862	3903.360333	1840.441406	150.219940
13316.271862	3903.360333	1839.448242	333.230469
13316.271862	3903.360333	1838.454102	297.294342
13316.271862	3903.360333	1837.459961	191.567963
13316.271862	3903.360333	1836.464844	217.978882
13316.271862	3903.360333	1835.470703	205.835403
13316.271862	3903.360333	1834.475586	443.458344
13316.271862	3903.360333	1833.480469	1.111890
13316.271862	3903.360333	1832.485352	125.605865
13316.271862	3903.360333	1831.490234	341.189575
13316.271862	3903.360333	1830.495117	186.875992
13316.271862	3903.360333	1829.499023	303.734772
13316.271862	3903.360333	1828.502930	156.460403
13316.271862	3903.360333	1827.506836	196.271042
13316.271862	3903.360333	1826.510742	120.800888
13316.271862	3903.360333	1825.513672	405.000061
13316.271862	3903.360333	1824.517578	-32.822479
13316.271862	3903.360333	1823.520508	327.767212
13316.271862	3903.360333	1822.523438	194.294571
13316.271862	3903.360333	1821.526367	281.227905
13316.271862	3903.360333	1820.529297	197.865677
13316.271862	3903.360333	1819.531250	224.600754
13316.271862	3903.360333	1818.533203	291.904541
13316.271862	3903.360333	1817.535156	282.407562
13316.271862	3903.360333	1816.537109	-31.314234
13316.271862	3903.360333	1815.539063	251.018173
13316.271862	3903.360333	1814.540039	293.746399
13316.271862	3903.360333	1813.541992	173.586945
13316.271862	3903.360333	1812.542969	77.242615
13316.271862	3903.360333	1811.543945	33.404755
13316.271862	3903.360333	1810.543945	63.564861
13316.271862	3903.360333	1809.544922	404.411499
13316.271862	3903.360333	1808.544922	317.023346
13316.271862	3903.360333	1807.544922	420.725311
13316.271862	3903.360333	1806.544922	-42.168076
13316.271862	3903.360333	1805.544922	190.255402
13316.271862	3903.360333	1804.544922	35.415813
13316.271862	3903.360333	1803.543945	69.147568
13316.271862	3903.360333	1802.542969	224.485504
13316.271862	3903.360333	1801.541992	116.953331
13316.271862	3903.360333	1800.541016	61.801350
13316.271862	3903.360333	1799.539063	185.490387
13316.271862	3903.360333	1798.538086	237.367279
13316.271862	3903.360333	1797.536133	31.374723
13316.271862	3903.360333	1796.534180	73.351524
13316.271862	3903.360333	1795.532227	72.196617
13316.271862	3903.360333	1794.529297	111.387711
13316.271862	3903.360333	1793.527344	157.531433
13316.271862	3903.360333	1792.524414	425.129425
13316.271862	3903.360333	1791.521484	165.777451
13316.271862	3903.360333	1790.518555	80.261360
13316.271862	3903.360333	1789.514648	80.335480
13316.271862	3903.360333	1788.511719	13.532311
13316.271862	3903.360333	1787.507813	341.840118
13316.271862	3903.360333	1786.503906	86.527657
13316.271862	3903.360333	1785.500000	71.529427
13316.271862	3903.360333	1784.496094	99.174515
13316.271862	3903.360333	1783.491211	290.782715
13316.271862	3903.360333	1782.486328	151.434311
13316.271862	3903.360333	1781.481445	299.739716
13316.271862	3903.360333	1780.476563	36.371906
13316.271862	3903.360333	1779.471680	89.126961
13316.271862	3903.360333	1778.465820	-138.861603
13316.271862	3903.360333	1777.460938	13.316418
13316.271862	3903.360333	1776.455078	-36.764648
13316.271862	3903.360333	1775.449219	-82.284645
13316.271862	3903.360333	1774.442383	-142.259140
13316.271862	3903.360333	1773.436523	-183.410904
13316.271862	3903.360333	1772.429688	124.282143
13316.271862	3903.360333	1771.422852	-88.269028
13316.271862	3903.360333	1770.416016	-144.295319
13316.271862	3903.360333	1769.409180	288.355225
13316.271862	3903.360333	1768.402344	300.660736
13316.271862	3903.360333	1767.394531	106.352615
13316.271862	3903.360333	1766.386719	73.186768
13316.271862	3903.360333	1765.378906	-26.579220
13316.271862	3903.360333	1764.371094	-83.845932
13316.271862	3903.360333	1763.362305	3.277499
13316.271862	3903.360333	1762.354492	130.454025
13316.271862	3903.360333	1761.345703	-57.792389
13316.271862	3903.360333	1760.336914	128.131577
13316.271862	3903.360333	1759.328125	-24.945959
13316.271862	3903.360333	1758.318359	-66.890785
13316.271862	3903.360333	1757.308594	92.223167
13316.271862	3903.360333	1756.299805	359.965424
13316.271862	3903.360333	1755.290039	298.388947
13316.271862	3903.360333	1754.279297	4.700428
13316.271862	3903.360333	1753.269531	-47.755474
13316.271862	3903.360333	1752.258789	103.010658
13316.271862	3903.360333	1751.249023	71.410812
13316.271862	3903.360333	1750.238281	-5.333916
13316.271862	3903.360333	1749.226563	0.463763
13316.271862	3903.360333	1748.215820	133.697647
13316.271862	3903.360333	1747.204102	217.023270
13316.271862	3903.360333	1746.193359	-113.367813
13316.271862	3903.360333	1745.181641	-30.455564
13316.271862	3903.360333	1744.168945	-280.829834
13316.271862	3903.360333	1743.157227	-354.198151
13316.271862	3903.360333	1742.144531	129.423264
13316.271862	3903.360333	1741.132813	8.368807
13316.271862	3903.360333	1740.120117	116.059029
13316.271862	3903.360333	1739.106445	-203.611359
13316.271862	3903.360333	1738.093750	120.701118
13316.271862	3903.360333	1737.080078	62.550713
13316.271862	3903.360333	1736.067383	-38.218246
13316.271862	3903.360333	1735.053711	-132.102982
13316.271862	3903.360333	1734.040039	-39.925854
13316.271862	3903.360333	1733.025391	-178.984436
13316.271862	3903.360333	1732.011719	-7.126119
13316.271862	3903.360333	1730.997070	32.505970
13316.271862	3903.360333	1729.982422	-142.436966
13316.271862	3903.360333	1728.967773	85.208290
13316.271862	3903.360333	1727.952148	-19.462091
13316.271862	3903.360333	1726.937500	-185.484833
13316.271862	3903.360333	1725.921875	-271.633667
13316.271862	3903.360333	1724.906250	-103.791504
13316.271862	3903.360333	1723.890625	-58.560535
13316.271862	3903.360333	1722.875000	132.306625
13316.271862	3903.360333	1721.858398	-208.659210
13316.271862	3903.360333	1720.841797	-112.306839
13316.271862	3903.360333	1719.825195	-253.640701
13316.271862	3903.360333	1718.808594	-28.417185
13316.271862	3903.360333	1717.791992	-113.693436
13316.271862	3903.360333	1716.774414	-34.663975
13316.271862	3903.360333	1715.756836	109.925018
13316.271862	3903.360333	1714.739258	49.926655
13316.271862	3903.360333	1713.721680	137.711639
13316.271862	3903.360333	1712.704102	-25.946928
13316.271862	3903.360333	1711.685547	-142.797012
13316.271862	3903.360333	1710.667969	-149.451248
13316.271862	3903.360333	1709.649414	-1.428747
13316.271862	3903.360333	1708.630859	-71.829796
13316.271862	3903.360333	1707.611328	185.991669
13316.271862	3903.360333	1706.592773	190.277908
13316.271862	3903.360333	1705.573242	105.268402
13316.271862	3903.360333	1704.553711	-15.046533
13316.271862	3903.360333	1703.534180	-154.233414
13316.271862	3903.360333	1702.513672	-7.660518
13316.271862	3903.360333	1701.494141	155.113373
13316.271862	3903.360333	1700.473633	-31.396318
13316.271862	3903.360333	1699.453125	-107.919106
13316.271862	3903.360333	1698.432617	117.496201
13316.271862	3903.360333	1697.412109	-67.037102
13316.271862	3903.360333	1696.390625	-78.468079
13316.271862	3903.360333	1695.369141	108.874847
13316.271862	3903.360333	1694.347656	36.273003
13316.271862	3903.360333	1693.326172	52.445263
13316.271862	3903.360333	1692.304688	45.071449
13316.271862	3903.360333	1691.282227	226.948029
13316.271862	3903.360333	1690.260742	144.437500
13316.271862	3903.360333	1689.238281	239.447006
13316.271862	3903.360333	1688.214844	-149.531418
13316.271862	3903.360333	1687.192383	111.123352
13316.271862	3903.360333	1686.168945	-112.082611
13316.271862	3903.360333	1685.146484	24.398106
13316.271862	3903.360333	1684.123047	158.332870
13316.271862	3903.360333	1683.099609	254.729019
13316.271862	3903.360333	1682.075195	227.210251
13316.271862	3903.360333	1681.051758	120.246834
13316.271862	3903.360333	1680.027344	295.533051
13316.271862	3903.360333	1679.002930	220.990799
13316.271862	3903.360333	1677.978516	195.343124
13316.271862	3903.360333	1676.953125	169.562927
13316.271862	3903.360333	1675.928711	388.535645
13316.271862	3903.360333	1674.903320	73.423340
13316.271862	3903.360333	1673.877930	149.902451
13316.271862	3903.360333	1672.852539	286.834747
13316.271862	3903.360333	1671.826172	388.634125
13316.271862	3903.360333	1670.800781	248.052261
13316.271862	3903.360333	1669.774414	191.242599
13316.271862	3903.360333	1668.748047	122.712151
13316.271862	3903.360333	1667.721680	19.193846
13316.271862	3903.360333	1666.694336	357.855133
13316.271862	3903.360333	1665.667969	614.866577
13316.271862	3903.360333	1664.640625	338.832001
13316.271862	3903.360333	1663.613281	479.231567
13316.271862	3903.360333	1662.585938	591.583374
13316.271862	3903.360333	1661.557617	452.634735
13316.271862	3903.360333	1660.530273	708.939697
13316.271862	3903.360333	1659.501953	448.992096
13316.271862	3903.360333	1658.473633	540.010742
13316.271862	3903.360333	1657.444336	837.701721
13316.271862	3903.360333	1656.416016	879.682068
13316.271862	3903.360333	1655.386719	1177.058472
13316.271862	3903.360333	1654.358398	916.930786
13316.271862	3903.360333	1653.328125	986.491516
13316.271862	3903.360333	1652.298828	956.172424
13316.271862	3903.360333	1651.269531	1403.927490
13316.271862	3903.360333	1650.239258	1238.815918
13316.271862	3903.360333	1649.208984	1277.881348
13316.271862	3903.360333	1648.178711	1272.813965
13316.271862	3903.360333	1647.148438	1353.508789
13316.271862	3903.360333	1646.117188	1582.501709
13316.271862	3903.360333	1645.086914	1523.928223
13316.271862	3903.360333	1644.055664	1534.847412
13316.271862	3903.360333	1643.024414	1904.918335
13316.271862	3903.360333	1641.992188	1994.440430
13316.271862	3903.360333	1640.960938	1650.746460
13316.271862	3903.360333	1639.928711	1997.301880
13316.271862	3903.360333	1638.896484	1968.578125
13316.271862	3903.360333	1637.864258	1726.855347
13316.271862	3903.360333	1636.832031	1996.745361
13316.271862	3903.360333	1635.798828	1984.152954
13316.271862	3903.360333	1634.766602	2351.038574
13316.271862	3903.360333	1633.733398	2486.409668
13316.271862	3903.360333	1632.699219	2415.847656
13316.271862	3903.360333	1631.666016	2627.449219
13316.271862	3903.360333	1630.632813	2792.726318
13316.271862	3903.360333	1629.598633	2840.023193
13316.271862	3903.360333	1628.564453	3116.100830
13316.271862	3903.360333	1627.530273	2879.115967
13316.271862	3903.360333	1626.495117	2831.639404
13316.271862	3903.360333	1625.460938	3123.746582
13316.271862	3903.360333	1624.425781	3113.210938
13316.271862	3903.360333	1623.390625	3098.076660
13316.271862	3903.360333	1622.355469	3082.965576
13316.271862	3903.360333	1621.319336	3074.778320
13316.271862	3903.360333	1620.284180	3096.640869
13316.271862	3903.360333	1619.248047	3298.442627
13316.271862	3903.360333	1618.211914	3274.148926
13316.271862	3903.360333	1617.174805	2800.170654
13316.271862	3903.360333	1616.138672	2879.803467
13316.271862	3903.360333	1615.101563	2627.459961
13316.271862	3903.360333	1614.065430	2852.373291
13316.271862	3903.360333	1613.027344	3021.882568
13316.271862	3903.360333	1611.990234	3189.090820
13316.271862	3903.360333	1610.953125	3169.702637
13316.271862	3903.360333	1609.915039	3348.402100
13316.271862	3903.360333	1608.876953	3398.140869
13316.271862	3903.360333	1607.838867	3427.197021
13316.271862	3903.360333	1606.800781	3700.271973
13316.271862	3903.360333	1605.761719	3692.527588
13316.271862	3903.360333	1604.723633	3730.890381
13316.271862	3903.360333	1603.684570	3780.778564
13316.271862	3903.360333	1602.644531	4056.071777
13316.271862	3903.360333	1601.605469	4289.966309
13316.271862	3903.360333	1600.566406	4160.603516
13316.271862	3903.360333	1599.526367	4709.403320
13316.271862	3903.360333	1598.486328	4745.596191
13316.271862	3903.360333	1597.446289	4850.783691
13316.271862	3903.360333	1596.405273	4848.020020
13316.271862	3903.360333	1595.365234	4967.092773
13316.271862	3903.360333	1594.324219	5111.440430
13316.271862	3903.360333	1593.283203	5306.328125
13316.271862	3903.360333	1592.242188	5239.560059
13316.271862	3903.360333	1591.200195	5308.288086
13316.271862	3903.360333	1590.159180	4865.443359
13316.271862	3903.360333	1589.117188	5161.520996
13316.271862	3903.360333	1588.075195	5292.446777
13316.271862	3903.360333	1587.032227	4914.327637
13316.271862	3903.360333	1585.990234	4933.119629
13316.271862	3903.360333	1584.947266	4871.761719
13316.271862	3903.360333	1583.904297	4789.912598
13316.271862	3903.360333	1582.861328	4474.493164
13316.271862	3903.360333	1581.818359	4553.344238
13316.271862	3903.360333	1580.775391	4391.786621
13316.271862	3903.360333	1579.731445	4269.317871
13316.271862	3903.360333	1578.687500	4602.639648
13316.271862	3903.360333	1577.643555	4585.723633
13316.271862	3903.360333	1576.598633	4406.424805
13316.271862	3903.360333	1575.554688	4195.314941
13316.271862	3903.360333	1574.509766	4775.955078
13316.271862	3903.360333	1573.464844	4965.374512
13316.271862	3903.360333	1572.419922	5022.218750
13316.271862	3903.360333	1571.374023	5495.281738
13316.271862	3903.360333	1570.329102	5597.996094
13316.271862	3903.360333	1569.283203	5255.117188
13316.271862	3903.360333	1568.237305	5047.335938
13316.271862	3903.360333	1567.191406	4789.521973
13316.271862	3903.360333	1566.144531	4203.015625
13316.271862	3903.360333	1565.098633	4660.570801
13316.271862	3903.360333	1564.051758	3901.096191
13316.271862	3903.360333	1563.004883	4288.049805
13316.271862	3903.360333	1561.957031	3956.041016
13316.271862	3903.360333	1560.910156	3418.969971
13316.271862	3903.360333	1559.862305	3365.920898
13316.271862	3903.360333	1558.814453	3616.432861
13316.271862	3903.360333	1557.766602	3235.292480
13316.271862	3903.360333	1556.718750	2822.549072
13316.271862	3903.360333	1555.669922	3125.933105
13316.271862	3903.360333	1554.621094	2825.374268
13316.271862	3903.360333	1553.573242	2971.767090
13316.271862	3903.360333	1552.523438	2990.648438
13316.271862	3903.360333	1551.474609	2836.602295
13316.271862	3903.360333	1550.424805	3256.687988
13316.271862	3903.360333	1549.375000	3041.510986
13316.271862	3903.360333	1548.325195	2612.604736
13316.271862	3903.360333	1547.275391	2634.716553
13316.271862	3903.360333	1546.225586	2515.916748
13316.271862	3903.360333	1545.174805	2294.949463
13316.271862	3903.360333	1544.124023	1967.343262
13316.271862	3903.360333	1543.073242	2144.951416
13316.271862	3903.360333	1542.022461	1724.660400
13316.271862	3903.360333	1540.970703	1607.072388
13316.271862	3903.360333	1539.919922	1482.926636
13316.271862	3903.360333	1538.868164	1370.372070
13316.271862	3903.360333	1537.815430	1514.785645
13316.271862	3903.360333	1536.763672	1350.421143
13316.271862	3903.360333	1535.710938	1343.016235
13316.271862	3903.360333	1534.659180	1208.677368
13316.271862	3903.360333	1533.606445	915.658752
13316.271862	3903.360333	1532.552734	1222.179077
13316.271862	3903.360333	1531.500000	1267.825684
13316.271862	3903.360333	1530.446289	1594.992798
13316.271862	3903.360333	1529.393555	1584.255249
13316.271862	3903.360333	1528.338867	1392.261719
13316.271862	3903.360333	1527.285156	1538.443970
13316.271862	3903.360333	1526.231445	1530.617310
13316.271862	3903.360333	1525.176758	1647.662476
13316.271862	3903.360333	1524.122070	1579.047241
13316.271862	3903.360333	1523.067383	1458.567627
13316.271862	3903.360333	1522.012695	1476.539307
13316.271862	3903.360333	1520.957031	1250.105103
13316.271862	3903.360333	1519.901367	1046.626709
13316.271862	3903.360333	1518.845703	1146.829590
13316.271862	3903.360333	1517.790039	909.949158
13316.271862	3903.360333	1516.734375	1083.010010
13316.271862	3903.360333	1515.677734	1401.025024
13316.271862	3903.360333	1514.621094	1370.764771
13316.271862	3903.360333	1513.564453	1107.784912
13316.271862	3903.360333	1512.507813	768.258179
13316.271862	3903.360333	1511.450195	1120.905396
13316.271862	3903.360333	1510.393555	1161.723145
13316.271862	3903.360333	1509.335938	847.931946
13316.271862	3903.360333	1508.278320	884.724548
13316.271862	3903.360333	1507.219727	1269.625366
13316.271862	3903.360333	1506.162109	1259.361572
13316.271862	3903.360333	1505.103516	1393.852539
13316.271862	3903.360333	1504.044922	1770.104492
13316.271862	3903.360333	1502.986328	1812.370117
13316.271862	3903.360333	1501.926758	1547.921021
13316.271862	3903.360333	1500.868164	1536.544434
13316.271862	3903.360333	1499.808594	2042.009277
13316.271862	3903.360333	1498.749023	1821.252563
13316.271862	3903.360333	1497.688477	2031.529053
13316.271862	3903.360333	1496.628906	1836.151123
13316.271862	3903.360333	1495.568359	1857.483765
13316.271862	3903.360333	1494.507813	1849.755493
13316.271862	3903.360333	1493.447266	1452.464722
13316.271862	3903.360333	1492.386719	1440.807373
13316.271862	3903.360333	1491.325195	1217.672241
13316.271862	3903.360333	1490.263672	1166.019409
13316.271862	3903.360333	1489.202148	1119.140381
13316.271862	3903.360333	1488.140625	939.718811
13316.271862	3903.360333	1487.079102	798.878357
13316.271862	3903.360333	1486.016602	638.084961
13316.271862	3903.360333	1484.954102	709.324768
13316.271862	3903.360333	1483.891602	623.340271
13316.271862	3903.360333	1482.829102	380.229340
13316.271862	3903.360333	1481.765625	357.796814
13316.271862	3903.360333	1480.702148	-55.491779
13316.271862	3903.360333	1479.638672	414.859833
13316.271862	3903.360333	1478.575195	85.402573
13316.271862	3903.360333	1477.511719	-93.146645
13316.271862	3903.360333	1476.447266	108.166542
13316.271862	3903.360333	1475.382813	251.238007
13316.271862	3903.360333	1474.318359	-20.713432
13316.271862	3903.360333	1473.253906	44.308327
13316.271862	3903.360333	1472.189453	-25.042408
13316.271862	3903.360333	1471.124023	-53.747704
13316.271862	3903.360333	1470.058594	-122.723518
13316.271862	3903.360333	1468.993164	98.080856
13316.271862	3903.360333	1467.927734	-176.348328
13316.271862	3903.360333	1466.861328	-38.535252
13316.271862	3903.360333	1465.794922	-1.029722
13316.271862	3903.360333	1464.728516	-86.656120
13316.271862	3903.360333	1463.662109	-251.947815
13316.271862	3903.360333	1462.594727	108.206642
13316.271862	3903.360333	1461.528320	-90.818382
13316.271862	3903.360333	1460.460938	95.499245
13316.271862	3903.360333	1459.393555	88.373779
13316.271862	3903.360333	1458.326172	247.418213
13316.271862	3903.360333	1457.257813	-164.645538
13316.271862	3903.360333	1456.189453	116.737778
13316.271862	3903.360333	1455.121094	31.440882
13316.271862	3903.360333	1454.052734	218.621597
13316.271862	3903.360333	1452.984375	316.121338
13316.271862	3903.360333	1451.915039	77.497063
13316.271862	3903.360333	1450.845703	32.939468
13316.271862	3903.360333	1449.776367	449.912964
13316.271862	3903.360333	1448.707031	27.174868
13316.271862	3903.360333	1447.636719	270.572052
13316.271862	3903.360333	1446.567383	321.128296
13316.271862	3903.360333	1445.497070	108.418831
13316.271862	3903.360333	1444.425781	19.238735
13316.271862	3903.360333	1443.355469	290.541962
13316.271862	3903.360333	1442.285156	158.466721
13316.271862	3903.360333	1441.213867	133.917801
13316.271862	3903.360333	1440.142578	32.042389
13316.271862	3903.360333	1439.070313	439.489807
13316.271862	3903.360333	1437.999023	444.586578
13316.271862	3903.360333	1436.926758	367.981812
13316.271862	3903.360333	1435.854492	326.362732
13316.271862	3903.360333	1434.782227	546.384827
13316.271862	3903.360333	1433.709961	629.883362
13316.271862	3903.360333	1432.636719	976.485352
13316.271862	3903.360333	1431.563477	939.033325
13316.271862	3903.360333	1430.490234	992.465881
13316.271862	3903.360333	1429.416992	959.235413
13316.271862	3903.360333	1428.343750	1033.786255
13316.271862	3903.360333	1427.269531	1004.604187
13316.271862	3903.360333	1426.195313	1004.573242
13316.271862	3903.360333	1425.121094	918.799988
13316.271862	3903.360333	1424.046875	1211.939819
13316.271862	3903.360333	1422.971680	1269.094360
13316.271862	3903.360333	1421.896484	1167.365479
13316.271862	3903.360333	1420.821289	1214.670410
13316.271862	3903.360333	1419.746094	1054.529541
13316.271862	3903.360333	1418.669922	946.402588
13316.271862	3903.360333	1417.594727	1022.945374
13316.271862	3903.360333	1416.518555	1050.754517
13316.271862	3903.360333	1415.442383	1232.692261
13316.271862	3903.360333	1414.365234	1036.719238
13316.271862	3903.360333	1413.289063	982.362427
13316.271862	3903.360333	1412.211914	907.505310
13316.271862	3903.360333	1411.134766	886.606873
13316.271862	3903.360333	1410.057617	1050.988281
13316.271862	3903.360333	1408.979492	506.257538
13316.271862	3903.360333	1407.902344	957.957092
13316.271862	3903.360333	1406.824219	578.206665
13316.271862	3903.360333	1405.746094	788.634216
13316.271862	3903.360333	1404.666992	925.412964
13316.271862	3903.360333	1403.588867	855.774963
13316.271862	3903.360333	1402.509766	1002.357239
13316.271862	3903.360333	1401.430664	828.941040
13316.271862	3903.360333	1400.351563	1062.171631
13316.271862	3903.360333	1399.271484	834.131470
13316.271862	3903.360333	1398.192383	902.706665
13316.271862	3903.360333	1397.112305	916.073364
13316.271862	3903.360333	1396.031250	1125.541260
13316.271862	3903.360333	1394.951172	1083.228027
13316.271862	3903.360333	1393.871094	1058.014893
13316.271862	3903.360333	1392.790039	1027.163330
13316.271862	3903.360333	1391.708984	1179.702759
13316.271862	3903.360333	1390.626953	825.111328
13316.271862	3903.360333	1389.545898	776.848450
13316.271862	3903.360333	1388.463867	775.667297
13316.271862	3903.360333	1387.381836	667.733154
13316.271862	3903.360333	1386.299805	602.915710
13316.271862	3903.360333	1385.217773	912.760376
13316.271862	3903.360333	1384.134766	776.836426
13316.271862	3903.360333	1383.051758	703.206848
13316.271862	3903.360333	1381.968750	947.852539
13316.271862	3903.360333	1380.885742	826.693970
13316.271862	3903.360333	1379.802734	682.245239
13316.271862	3903.360333	1378.718750	833.533386
13316.271862	3903.360333	1377.634766	725.976013
13316.271862	3903.360333	1376.550781	820.997375
13316.271862	3903.360333	1375.465820	473.271423
13316.271862	3903.360333	1374.381836	744.252380
13316.271862	3903.360333	1373.296875	1054.744995
13316.271862	3903.360333	1372.211914	692.898376
13316.271862	3903.360333	1371.126953	856.945374
13316.271862	3903.360333	1370.041016	742.000183
13316.271862	3903.360333	1368.955078	674.336304
13316.271862	3903.360333	1367.869141	720.344788
13316.271862	3903.360333	1366.783203	844.074707
13316.271862	3903.360333	1365.697266	904.536316
13316.271862	3903.360333	1364.610352	876.377747
13316.271862	3903.360333	1363.523438	878.965454
13316.271862	3903.360333	1362.436523	729.536072
13316.271862	3903.360333	1361.349609	899.890686
13316.271862	3903.360333	1360.261719	1054.125366
13316.271862	3903.360333	1359.174805	894.873291
13316.271862	3903.360333	1358.086914	753.644775
13316.271862	3903.360333	1356.998047	689.555786
13316.271862	3903.360333	1355.910156	914.674011
13316.271862	3903.360333	1354.821289	843.444336
13316.271862	3903.360333	1353.732422	914.565735
13316.271862	3903.360333	1352.643555	1079.593140
13316.271862	3903.360333	1351.554688	877.046265
13316.271862	3903.360333	1350.464844	942.465881
13316.271862	3903.360333	1349.375000	906.501465
13316.271862	3903.360333	1348.285156	1069.206055
13316.271862	3903.360333	1347.195313	982.800598
13316.271862	3903.360333	1346.105469	887.410278
13316.271862	3903.360333	1345.014648	784.246277
13316.271862	3903.360333	1343.923828	724.121643
13316.271862	3903.360333	1342.833008	845.610718
13316.271862	3903.360333	1341.741211	518.376282
13316.271862	3903.360333	1340.650391	561.220520
13316.271862	3903.360333	1339.558594	457.869324
13316.271862	3903.360333	1338.466797	422.140717
13316.271862	3903.360333	1337.374023	148.649155
13316.271862	3903.360333	1336.282227	178.760284
13316.271862	3903.360333	1335.189453	89.124702
13316.271862	3903.360333	1334.096680	393.644012
13316.271862	3903.360333	1333.003906	487.802826
13316.271862	3903.360333	1331.910156	407.760956
13316.271862	3903.360333	1330.817383	373.861450
13316.271862	3903.360333	1329.723633	201.310730
13316.271862	3903.360333	1328.629883	206.337936
13316.271862	3903.360333	1327.535156	374.679535
13316.271862	3903.360333	1326.441406	804.755859
13316.271862	3903.360333	1325.346680	684.557251
13316.271862	3903.360333	1324.251953	821.392639
13316.271862	3903.360333	1323.156250	832.490967
13316.271862	3903.360333	1322.061523	678.664307
13316.271862	3903.360333	1320.965820	727.517273
13316.271862	3903.360333	1319.870117	700.471436
13316.271862	3903.360333	1318.774414	507.909851
13316.271862	3903.360333	1317.678711	787.381470
13316.271862	3903.360333	1316.582031	897.981201
13316.271862	3903.360333	1315.485352	620.267029
13316.271862	3903.360333	1314.388672	789.129761
13316.271862	3903.360333	1313.291016	951.145020
13316.271862	3903.360333	1312.194336	800.957153
13316.271862	3903.360333	1311.096680	504.223053
13316.271862	3903.360333	1309.999023	616.103882
13316.271862	3903.360333	1308.901367	631.873291
13316.271862	3903.360333	1307.802734	504.984100
13316.271862	3903.360333	1306.705078	500.937469
13316.271862	3903.360333	1305.606445	290.037476
13316.271862	3903.360333	1304.506836	385.163483
13316.271862	3903.360333	1303.408203	169.474319
13316.271862	3903.360333	1302.308594	242.251129
13316.271862	3903.360333	1301.208984	412.505981
13316.271862	3903.360333	1300.109375	271.256714
13316.271862	3903.360333	1299.009766	227.718353
13316.271862	3903.360333	1297.909180	355.369812
13316.271862	3903.360333	1296.808594	128.844070
13316.271862	3903.360333	1295.708008	296.608093
13316.271862	3903.360333	1294.607422	128.855515
13316.271862	3903.360333	1293.506836	67.904869
13316.271862	3903.360333	1292.405273	52.383873
13316.271862	3903.360333	1291.303711	-43.414680
13316.271862	3903.360333	1290.202148	10.917654
13316.271862	3903.360333	1289.099609	-259.241272
13316.271862	3903.360333	1287.998047	-212.048737
13316.271862	3903.360333	1286.895508	-38.200375
13316.271862	3903.360333	1285.792969	-158.071594
13316.271862	3903.360333	1284.689453	21.797668
13316.271862	3903.360333	1283.586914	-293.843933
13316.271862	3903.360333	1282.483398	-263.004181
13316.271862	3903.360333	1281.379883	-270.175812
13316.271862	3903.360333	1280.276367	85.631660
13316.271862	3903.360333	1279.171875	-174.328461
13316.271862	3903.360333	1278.067383	-414.422089
13316.271862	3903.360333	1276.962891	-32.260269
13316.271862	3903.360333	1275.858398	-67.936417
13316.271862	3903.360333	1274.753906	82.481400
13316.271862	3903.360333	1273.648438	244.240799
13316.271862	3903.360333	1272.542969	105.159332
13316.271862	3903.360333	1271.437500	81.000992
13316.271862	3903.360333	1270.331055	-15.236509
13316.271862	3903.360333	1269.225586	36.909496
13316.271862	3903.360333	1268.119141	-28.386198
13316.271862	3903.360333	1267.012695	35.346199
13316.271862	3903.360333	1265.906250	-97.883179
13316.271862	3903.360333	1264.798828	-97.033516
13316.271862	3903.360333	1263.691406	156.247742
13316.271862	3903.360333	1262.583984	118.644569
13316.271862	3903.360333	1261.476563	-60.471523
13316.271862	3903.360333	1260.368164	154.256760
13316.271862	3903.360333	1259.260742	180.760574
13316.271862	3903.360333	1258.152344	59.951416
13316.271862	3903.360333	1257.043945	134.613449
13316.271862	3903.360333	1255.934570	185.916550
13316.271862	3903.360333	1254.825195	329.197571
13316.271862	3903.360333	1253.716797	559.777832
13316.271862	3903.360333	1252.606445	600.998047
13316.271862	3903.360333	1251.497070	764.811401
13316.271862	3903.360333	1250.387695	575.960022
13316.271862	3903.360333	1249.277344	748.151001
13316.271862	3903.360333	1248.166992	658.437988
13316.271862	3903.360333	1247.055664	609.914856
13316.271862	3903.360333	1245.945313	878.952087
13316.271862	3903.360333	1244.833984	663.365784
13316.271862	3903.360333	1243.722656	773.297546
13316.271862	3903.360333	1242.611328	712.054504
13316.271862	3903.360333	1241.499023	666.314514
13316.271862	3903.360333	1240.387695	776.176697
13316.271862	3903.360333	1239.275391	709.507935
13316.271862	3903.360333	1238.162109	434.084076
13316.271862	3903.360333	1237.049805	392.816986
13316.271862	3903.360333	1235.936523	448.184662
13316.271862	3903.360333	1234.823242	313.606201
13316.271862	3903.360333	1233.709961	220.226822
13316.271862	3903.360333	1232.596680	303.927979
13316.271862	3903.360333	1231.482422	167.684311
13316.271862	3903.360333	1230.369141	122.605156
13316.271862	3903.360333	1229.253906	193.435272
13316.271862	3903.360333	1228.139648	246.167572
13316.271862	3903.360333	1227.025391	209.548172
13316.271862	3903.360333	1225.910156	96.035995
13316.271862	3903.360333	1224.794922	102.991852
13316.271862	3903.360333	1223.679688	103.031685
13316.271862	3903.360333	1222.563477	126.528427
13316.271862	3903.360333	1221.447266	6.337131
13316.271862	3903.360333	1220.331055	-241.982849
13316.271862	3903.360333	1219.214844	-5.971784
13316.271862	3903.360333	1218.098633	-195.697235
13316.271862	3903.360333	1216.981445	-194.210220
13316.271862	3903.360333	1215.864258	90.881645
13316.271862	3903.360333	1214.747070	-29.567326
13316.271862	3903.360333	1213.629883	115.451500
13316.271862	3903.360333	1212.511719	81.814758
13316.271862	3903.360333	1211.393555	118.166954
13316.271862	3903.360333	1210.275391	291.214020
13316.271862	3903.360333	1209.157227	239.021255
13316.271862	3903.360333	1208.038086	333.375366
13316.271862	3903.360333	1206.918945	316.950348
13316.271862	3903.360333	1205.799805	400.342773
13316.271862	3903.360333	1204.680664	340.795776
13316.271862	3903.360333	1203.560547	447.959137
13316.271862	3903.360333	1202.441406	507.186401
13316.271862	3903.360333	1201.321289	358.655151
13316.271862	3903.360333	1200.200195	496.645508
13316.271862	3903.360333	1199.080078	203.360840
13316.271862	3903.360333	1197.958984	247.869186
13316.271862	3903.360333	1196.837891	193.247360
13316.271862	3903.360333	1195.716797	270.871368
13316.271862	3903.360333	1194.594727	68.375137
13316.271862	3903.360333	1193.473633	100.353249
13316.271862	3903.360333	1192.351563	27.494316
13316.271862	3903.360333	1191.229492	-46.032692
13316.271862	3903.360333	1190.106445	-136.060852
13316.271862	3903.360333	1188.984375	-88.795845
13316.271862	3903.360333	1187.861328	-79.221344
13316.271862	3903.360333	1186.738281	-18.052872
13316.271862	3903.360333	1185.614258	-54.490875
13316.271862	3903.360333	1184.491211	29.023130
13316.271862	3903.360333	1183.367188	59.647652
13316.271862	3903.360333	1182.243164	164.671341
13316.271862	3903.360333	1181.119141	318.038727
13316.271862	3903.360333	1179.994141	344.644806
13316.271862	3903.360333	1178.869141	104.165169
13316.271862	3903.360333	1177.744141	99.136177
13316.271862	3903.360333	1176.619141	259.949677
13316.271862	3903.360333	1175.493164	5.252392
13316.271862	3903.360333	1174.368164	194.045471
13316.271862	3903.360333	1173.242188	49.607491
13316.271862	3903.360333	1172.115234	268.752014
13316.271862	3903.360333	1170.989258	52.687592
13316.271862	3903.360333	1169.862305	239.749115
13316.271862	3903.360333	1168.735352	347.462433
13316.271862	3903.360333	1167.608398	26.256617
13316.271862	3903.360333	1166.481445	253.925934
13316.271862	3903.360333	1165.353516	103.507271
13316.271862	3903.360333	1164.225586	-45.650909
13316.271862	3903.360333	1163.097656	-7.445691
13316.271862	3903.360333	1161.968750	-78.500526
13316.271862	3903.360333	1160.840820	-81.390640
13316.271862	3903.360333	1159.711914	-173.897568
13316.271862	3903.360333	1158.583008	-110.850159
13316.271862	3903.360333	1157.453125	-135.999069
13316.271862	3903.360333	1156.324219	-134.170853
13316.271862	3903.360333	1155.194336	-56.421001
13316.271862	3903.360333	1154.064453	67.209061
13316.271862	3903.360333	1152.933594	-53.433914
13316.271862	3903.360333	1151.803711	-46.558647
13316.271862	3903.360333	1150.672852	-13.129396
13316.271862	3903.360333	1149.541992	98.379173
13316.271862	3903.360333	1148.411133	-63.246273
13316.271862	3903.360333	1147.279297	-60.042130
13316.271862	3903.360333	1146.147461	138.737915
13316.271862	3903.360333	1145.015625	204.415695
13316.271862	3903.360333	1143.883789	224.301361
13316.271862	3903.360333	1142.750977	143.116074
13316.271862	3903.360333	1141.619141	223.584229
13316.271862	3903.360333	1140.486328	279.097717
13316.271862	3903.360333	1139.352539	248.958618
13316.271862	3903.360333	1138.219727	548.098938
13316.271862	3903.360333	1137.085938	512.220581
13316.271862	3903.360333	1135.952148	608.264099
13316.271862	3903.360333	1134.818359	432.121704
13316.271862	3903.360333	1133.683594	392.791321
13316.271862	3903.360333	1132.549805	465.039734
13316.271862	3903.360333	1131.415039	717.263489
13316.271862	3903.360333	1130.279297	1019.046082
13316.271862	3903.360333	1129.144531	1082.236816
13316.271862	3903.360333	1128.008789	1091.268799
13316.271862	3903.360333	1126.873047	1090.405640
13316.271862	3903.360333	1125.737305	1000.033752
13316.271862	3903.360333	1124.601563	955.115723
13316.271862	3903.360333	1123.464844	785.852112
13316.271862	3903.360333	1122.328125	785.434326
13316.271862	3903.360333	1121.191406	656.125977
13316.271862	3903.360333	1120.054688	467.592865
13316.271862	3903.360333	1118.916992	490.093628
13316.271862	3903.360333	1117.779297	483.769501
13316.271862	3903.360333	1116.641602	428.837097
13316.271862	3903.360333	1115.503906	364.909546
13316.271862	3903.360333	1114.365234	309.237427
13316.271862	3903.360333	1113.226563	261.778717
13316.271862	3903.360333	1112.087891	214.836029
13316.271862	3903.360333	1110.949219	301.811584
13316.271862	3903.360333	1109.809570	203.484940
13316.271862	3903.360333	1108.669922	264.195313
13316.271862	3903.360333	1107.530273	266.792206
13316.271862	3903.360333	1106.390625	146.047058
13316.271862	3903.360333	1105.250000	411.244965
13316.271862	3903.360333	1104.109375	411.606354
13316.271862	3903.360333	1102.968750	601.107788
13316.271862	3903.360333	1101.828125	699.762756
13316.271862	3903.360333	1100.686523	491.700012
13316.271862	3903.360333	1099.544922	585.448853
13316.271862	3903.360333	1098.403320	649.532654
13316.271862	3903.360333	1097.261719	679.469055
13316.271862	3903.360333	1096.120117	725.047058
13316.271862	3903.360333	1094.977539	704.234741
13316.271862	3903.360333	1093.834961	636.024841
13316.271862	3903.360333	1092.691406	883.730957
13316.271862	3903.360333	1091.548828	641.081299
13316.271862	3903.360333	1090.405273	698.695190
13316.271862	3903.360333	1089.261719	699.591125
13316.271862	3903.360333	1088.118164	829.638245
13316.271862	3903.360333	1086.973633	491.501343
13316.271862	3903.360333	1085.829102	351.904297
13316.271862	3903.360333	1084.684570	248.354965
13316.271862	3903.360333	1083.540039	346.646393
13316.271862	3903.360333	1082.395508	219.862656
13316.271862	3903.360333	1081.250000	402.632935
13316.271862	3903.360333	1080.104492	575.302612
13316.271862	3903.360333	1078.958984	440.191223
13316.271862	3903.360333	1077.812500	547.856384
13316.271862	3903.360333	1076.666016	767.156433
13316.271862	3903.360333	1075.519531	821.475403
13316.271862	3903.360333	1074.373047	716.158997
13316.271862	3903.360333	1073.226563	899.953491
13316.271862	3903.360333	1072.079102	879.249207
13316.271862	3903.360333	1070.931641	845.144165
13316.271862	3903.360333	1069.784180	834.365112
13316.271862	3903.360333	1068.635742	791.960327
13316.271862	3903.360333	1067.487305	866.096497
13316.271862	3903.360333	1066.338867	984.437866
13316.271862	3903.360333	1065.190430	1200.185791
13316.271862	3903.360333	1064.041992	1432.404907
13316.271862	3903.360333	1062.892578	1619.269897
13316.271862	3903.360333	1061.743164	1630.606323
13316.271862	3903.360333	1060.593750	1598.972778
13316.271862	3903.360333	1059.443359	1595.512817
13316.271862	3903.360333	1058.292969	1496.846802
13316.271862	3903.360333	1057.142578	1220.515991
13316.271862	3903.360333	1055.992188	1154.204224
13316.271862	3903.360333	1054.841797	1056.288696
13316.271862	3903.360333	1053.690430	835.360474
13316.271862	3903.360333	1052.539063	722.746704
13316.271862	3903.360333	1051.387695	656.210266
13316.271862	3903.360333	1050.235352	442.300049
13316.271862	3903.360333	1049.083984	500.221588
13316.271862	3903.360333	1047.931641	642.755005
13316.271862	3903.360333	1046.778320	423.164948
13316.271862	3903.360333	1045.625977	747.618347
13316.271862	3903.360333	1044.472656	702.745483
13316.271862	3903.360333	1043.319336	676.946350
13316.271862	3903.360333	1042.166016	649.299316
13316.271862	3903.360333	1041.012695	513.487244
13316.271862	3903.360333	1039.858398	477.893311
13316.271862	3903.360333	1038.704102	402.598602
13316.271862	3903.360333	1037.549805	281.709747
13316.271862	3903.360333	1036.394531	338.827484
13316.271862	3903.360333	1035.239258	422.151245
13316.271862	3903.360333	1034.083984	456.856140
13316.271862	3903.360333	1032.928711	411.260712
13316.271862	3903.360333	1031.773438	373.566467
13316.271862	3903.360333	1030.617188	172.487000
13316.271862	3903.360333	1029.460938	466.554169
13316.271862	3903.360333	1028.304688	494.413757
13316.271862	3903.360333	1027.147461	605.387573
13316.271862	3903.360333	1025.991211	509.746796
13316.271862	3903.360333	1024.833984	417.191345
13316.271862	3903.360333	1023.675781	289.924347
13316.271862	3903.360333	1022.518555	466.106171
13316.271862	3903.360333	1021.360352	368.484100
13316.271862	3903.360333	1020.202148	373.398224
13316.271862	3903.360333	1019.043945	282.982635
13316.271862	3903.360333	1017.884766	130.297745
13316.271862	3903.360333	1016.726563	70.385590
13316.271862	3903.360333	1015.567383	95.271919
13316.271862	3903.360333	1014.407227	-72.051987
13316.271862	3903.360333	1013.248047	-56.399143
13316.271862	3903.360333	1012.087891	-13.236409
13316.271862	3903.360333	1010.927734	75.591415
13316.271862	3903.360333	1009.767578	-102.423195
13316.271862	3903.360333	1008.606445	-216.981171
13316.271862	3903.360333	1007.446289	-43.523659
13316.271862	3903.360333	1006.285156	16.296173
13316.271862	3903.360333	1005.123047	79.302597
13316.271862	3903.360333	1003.961914	90.354721
13316.271862	3903.360333	1002.799805	50.670998
13316.271862	3903.360333	1001.637695	-23.500010
13316.271862	3903.360333	1000.475586	124.225769
13316.271862	3903.360333	999.312500	129.563812
13316.271862	3903.360333	998.149414	262.456268
13316.271862	3903.360333	996.986328	181.203232
13316.271862	3903.360333	995.823242	198.200455
13316.271862	3903.360333	994.659180	-138.441360
13316.271862	3903.360333	993.496094	-81.535622
13316.271862	3903.360333	992.332031	-120.131813
13316.271862	3903.360333	991.166992	13.510354
13316.271862	3903.360333	990.002930	240.776138
13316.271862	3903.360333	988.837891	249.864639
13316.271862	3903.360333	987.672852	-8.842849
13316.271862	3903.360333	986.506836	-238.110184
13316.271862	3903.360333	985.341797	-44.846481
13316.271862	3903.360333	984.175781	169.016937
13316.271862	3903.360333	983.009766	288.087189
13316.271862	3903.360333	981.843750	90.095970
13316.271862	3903.360333	980.676758	224.707794
13316.271862	3903.360333	979.509766	194.488983
13316.271862	3903.360333	978.342773	439.214203
13316.271862	3903.360333	977.175781	13.711810
13316.271862	3903.360333	976.007813	-146.026825
13316.271862	3903.360333	974.839844	248.369583
13316.271862	3903.360333	973.671875	65.143440
13316.271862	3903.360333	972.503906	225.746170
13316.271862	3903.360333	971.334961	388.088776
13316.271862	3903.360333	970.166016	262.512543
13316.271862	3903.360333	968.997070	375.785248
13316.271862	3903.360333	967.828125	478.043823
13316.271862	3903.360333	966.658203	429.351379
13316.271862	3903.360333	965.488281	357.984955
13316.271862	3903.360333	964.318359	669.055176
13316.271862	3903.360333	963.148438	649.900085
13316.271862	3903.360333	961.977539	540.250427
13316.271862	3903.360333	960.806641	682.728333
13316.271862	3903.360333	959.635742	678.007751
13316.271862	3903.360333	958.463867	635.688416
13316.271862	3903.360333	957.292969	658.029541
13316.271862	3903.360333	956.121094	702.140320
13316.271862	3903.360333	954.948242	1008.583252
13316.271862	3903.360333	953.776367	1063.088623
13316.271862	3903.360333	952.603516	1144.695923
13316.271862	3903.360333	951.430664	1014.996399
13316.271862	3903.360333	950.257813	889.529419
13316.271862	3903.360333	949.084961	726.706238
13316.271862	3903.360333	947.911133	667.787048
13316.271862	3903.360333	946.737305	487.617371
13316.271862	3903.360333	945.563477	506.448273
13316.271862	3903.360333	944.388672	97.982178
13316.271862	3903.360333	943.213867	313.548126
13316.271862	3903.360333	942.039063	287.310364
13316.271862	3903.360333	940.864258	89.149887
13316.271862	3903.360333	939.688477	207.370346
13316.271862	3903.360333	938.513672	70.523979
13316.271862	3903.360333	937.337891	148.420044
13316.271862	3903.360333	936.161133	62.250847
13316.271862	3903.360333	934.985352	246.494797
13316.271862	3903.360333	933.808594	284.351379
13316.271862	3903.360333	932.631836	379.602325
13316.271862	3903.360333	931.454102	333.325287
13316.271862	3903.360333	930.277344	671.729553
13316.271862	3903.360333	929.099609	441.613770
13316.271862	3903.360333	927.921875	664.784302
13316.271862	3903.360333	926.743164	569.455200
13316.271862	3903.360333	925.565430	613.331482
13316.271862	3903.360333	924.386719	484.724792
13316.271862	3903.360333	923.208008	420.198669
13316.271862	3903.360333	922.028320	474.935669
13316.271862	3903.360333	920.849609	538.417542
13316.271862	3903.360333	919.669922	545.155762
13316.271862	3903.360333	919.474609	536.651855
13316.271862	3903.360333	918.309570	390.066528
13316.271862	3903.360333	917.143555	391.403381
13316.271862	3903.360333	915.977539	375.007538
13316.271862	3903.360333	914.810547	462.281799
13316.271862	3903.360333	913.644531	443.525146
13316.271862	3903.360333	912.477539	446.770691
13316.271862	3903.360333	911.310547	385.976990
13316.271862	3903.360333	910.143555	113.431267
13316.271862	3903.360333	908.975586	26.130730
13316.271862	3903.360333	907.807617	220.949234
13316.271862	3903.360333	906.639648	212.857529
13316.271862	3903.360333	905.471680	-20.055471
13316.271862	3903.360333	904.303711	4.804035
13316.271862	3903.360333	903.134766	-10.061199
13316.271862	3903.360333	901.965820	-88.854172
13316.271862	3903.360333	900.796875	87.703484
13316.271862	3903.360333	899.626953	103.433647
13316.271862	3903.360333	898.457031	-4.158471
13316.271862	3903.360333	897.287109	218.266022
13316.271862	3903.360333	896.117188	24.753029
13316.271862	3903.360333	894.947266	4.999864
13316.271862	3903.360333	893.776367	136.913055
13316.271862	3903.360333	892.605469	20.268595
13316.271862	3903.360333	891.434570	44.273537
13316.271862	3903.360333	890.262695	63.803947
13316.271862	3903.360333	889.091797	-61.763428
13316.271862	3903.360333	887.919922	-29.185318
13316.271862	3903.360333	886.748047	23.072386
13316.271862	3903.360333	885.575195	343.128662
13316.271862	3903.360333	884.403320	-39.541603
13316.271862	3903.360333	883.230469	16.858072
13316.271862	3903.360333	882.057617	-34.367458
13316.271862	3903.360333	880.883789	173.253067
13316.271862	3903.360333	879.710938	292.967499
13316.271862	3903.360333	878.537109	594.592285
13316.271862	3903.360333	877.362305	615.360657
13316.271862	3903.360333	876.188477	609.735718
13316.271862	3903.360333	875.013672	818.837158
13316.271862	3903.360333	873.839844	556.638184
13316.271862	3903.360333	872.664063	691.028870
13316.271862	3903.360333	871.489258	593.100525
13316.271862	3903.360333	870.313477	661.580872
13316.271862	3903.360333	869.138672	712.438477
13316.271862	3903.360333	867.962891	603.399902
13316.271862	3903.360333	866.786133	459.316559
13316.271862	3903.360333	865.610352	499.022644
13316.271862	3903.360333	864.433594	440.191559
13316.271862	3903.360333	863.256836	409.744354
13316.271862	3903.360333	862.079102	348.622040
13316.271862	3903.360333	860.902344	289.632996
13316.271862	3903.360333	859.724609	195.620972
13316.271862	3903.360333	858.546875	121.240707
13316.271862	3903.360333	857.368164	199.772766
13316.271862	3903.360333	856.190430	-56.050144
13316.271862	3903.360333	855.011719	114.069374
13316.271862	3903.360333	853.833008	80.959145
13316.271862	3903.360333	852.654297	6.304680
13316.271862	3903.360333	851.474609	-136.061035
13316.271862	3903.360333	850.294922	-64.570732
13316.271862	3903.360333	849.115234	-89.190247
13316.271862	3903.360333	847.935547	-107.331703
13316.271862	3903.360333	846.754883	-44.841080
13316.271862	3903.360333	845.575195	-163.442520
13316.271862	3903.360333	844.393555	-146.899719
13316.271862	3903.360333	843.212891	-1.840601
13316.271862	3903.360333	842.032227	-140.216660
13316.271862	3903.360333	840.850586	48.205875
13316.271862	3903.360333	839.668945	-138.198502
13316.271862	3903.360333	838.486328	-198.284012
13316.271862	3903.360333	837.304688	-64.630363
13316.271862	3903.360333	836.122070	-16.009525
13316.271862	3903.360333	834.939453	-139.431534
13316.271862	3903.360333	833.756836	111.408325
13316.271862	3903.360333	832.573242	96.639885
13316.271862	3903.360333	831.389648	-131.368744
13316.271862	3903.360333	830.206055	-296.291382
13316.271862	3903.360333	829.022461	-174.215881
13316.271862	3903.360333	827.838867	-224.001587
13316.271862	3903.360333	826.654297	-65.195732
13316.271862	3903.360333	825.469727	-143.384949
13316.271862	3903.360333	824.284180	-165.133163
13316.271862	3903.360333	823.099609	-69.658173
13316.271862	3903.360333	821.914063	73.476524
13316.271862	3903.360333	820.728516	71.006813
13316.271862	3903.360333	819.542969	18.534313
13316.271862	3903.360333	818.356445	-140.336258
13316.271862	3903.360333	817.169922	13.235682
13316.271862	3903.360333	815.983398	-234.665817
13316.271862	3903.360333	814.796875	107.404617
13316.271862	3903.360333	813.609375	150.007553
13316.271862	3903.360333	812.422852	12.569884
13316.271862	3903.360333	811.235352	185.075882
13316.271862	3903.360333	810.046875	272.915070
13316.271862	3903.360333	808.859375	278.306793
13316.271862	3903.360333	807.670898	175.307175
13316.271862	3903.360333	806.482422	70.108009
13316.271862	3903.360333	805.293945	94.796303
13316.271862	3903.360333	804.104492	108.572777
13316.271862	3903.360333	802.915039	301.915558
13316.271862	3903.360333	801.725586	99.089394
13316.271862	3903.360333	800.536133	153.734085
13316.271862	3903.360333	799.345703	431.079437
13316.271862	3903.360333	798.155273	184.869446
13316.271862	3903.360333	796.964844	87.877701
13316.271862	3903.360333	795.774414	181.084839
13316.271862	3903.360333	794.583008	373.597382
13316.271862	3903.360333	793.392578	330.420502
13316.271862	3903.360333	792.200195	45.216049
13316.271862	3903.360333	791.008789	155.330368
13316.271862	3903.360333	789.816406	153.027817
13316.271862	3903.360333	788.625000	31.901989
13316.271862	3903.360333	787.432617	128.771698
13316.271862	3903.360333	786.239258	-24.824909
13316.271862	3903.360333	785.046875	-12.285098
13316.271862	3903.360333	783.853516	-49.444664
13316.271862	3903.360333	782.660156	10.395392
13316.271862	3903.360333	781.465820	83.071495
13316.271862	3903.360333	780.272461	17.665411
13316.271862	3903.360333	779.078125	23.341885
13316.271862	3903.360333	777.883789	309.098999
13316.271862	3903.360333	776.688477	101.258369
13316.271862	3903.360333	775.494141	108.847542
13316.271862	3903.360333	774.298828	99.129478
13316.271862	3903.360333	773.103516	362.805664
13316.271862	3903.360333	771.907227	331.363495
13316.271862	3903.360333	770.711914	439.767609
13316.271862	3903.360333	769.515625	502.862549
13316.271862	3903.360333	768.318359	419.556641
13316.271862	3903.360333	767.122070	540.563965
13316.271862	3903.360333	765.924805	422.733643
13316.271862	3903.360333	764.727539	266.179718
13316.271862	3903.360333	763.530273	75.224869
13316.271862	3903.360333	762.333008	58.367538
13316.271862	3903.360333	761.134766	88.718735
13316.271862	3903.360333	759.936523	82.467018
13316.271862	3903.360333	758.738281	215.760284
13316.271862	3903.360333	757.540039	-46.198849
13316.271862	3903.360333	756.340820	63.310783
13316.271862	3903.360333	755.141602	104.017067
13316.271862	3903.360333	753.942383	90.985924
13316.271862	3903.360333	752.742188	-61.576241
13316.271862	3903.360333	751.541992	0.379942
13316.271862	3903.360333	750.341797	-34.270988
13316.271862	3903.360333	749.141602	-184.764832
13316.271862	3903.360333	747.941406	-73.709457
13316.271862	3903.360333	746.740234	52.236137
13316.271862	3903.360333	745.539063	-72.662560
13316.271862	3903.360333	744.337891	-15.457705
13316.271862	3903.360333	743.135742	-46.168777
13316.271862	3903.360333	741.933594	-222.559387
13316.271862	3903.360333	740.731445	-86.325226
13316.271862	3903.360333	739.529297	-33.698078
13316.271862	3903.360333	738.326172	-246.554016
13316.271862	3903.360333	737.124023	-316.006226
13316.271862	3903.360333	735.919922	-175.835632
13316.271862	3903.360333	734.716797	-55.029530
13316.271862	3903.360333	733.513672	-193.090912
13316.271862	3903.360333	732.309570	36.590324
13316.271862	3903.360333	731.105469	18.155388
13316.271862	3903.360333	729.900391	-45.211460
13316.271862	3903.360333	728.696289	167.032578
13316.271862	3903.360333	727.491211	116.367577
13316.271862	3903.360333	726.286133	166.054123
13316.271862	3903.360333	725.080078	87.540039
13316.271862	3903.360333	723.874023	254.522522
13316.271862	3903.360333	722.668945	327.471436
13316.271862	3903.360333	721.461914	551.845703
13316.271862	3903.360333	720.255859	300.290497
13316.271862	3903.360333	719.048828	279.165436
13316.271862	3903.360333	717.841797	189.754822
13316.271862	3903.360333	716.634766	187.755859
13316.271862	3903.360333	715.427734	128.152771
13316.271862	3903.360333	714.219727	10.977180
13316.271862	3903.360333	713.011719	164.430634
13316.271862	3903.360333	711.803711	-321.363861
13316.271862	3903.360333	710.594727	17.313663
13316.271862	3903.360333	709.385742	42.760647
13316.271862	3903.360333	708.176758	-142.628418
13316.271862	3903.360333	706.967773	-68.282242
13316.271862	3903.360333	705.758789	-145.110031
13316.271862	3903.360333	704.548828	90.833733
13316.271862	3903.360333	703.338867	156.454086
13316.271862	3903.360333	702.127930	-18.333752
13316.271862	3903.360333	700.917969	87.611572
13316.271862	3903.360333	699.707031	74.417297
13316.271862	3903.360333	698.496094	-151.360962
13316.271862	3903.360333	697.285156	215.826675
13316.271862	3903.360333	696.073242	215.257629
13316.271862	3903.360333	694.861328	51.094101
13316.271862	3903.360333	693.649414	103.593994
13316.271862	3903.360333	692.436523	268.573792
13316.271862	3903.360333	691.224609	129.891159
13316.271862	3903.360333	690.011719	239.558792
13316.271862	3903.360333	688.798828	230.323975
13316.271862	3903.360333	687.584961	282.589111
13316.271862	3903.360333	686.372070	150.279434
13316.271862	3903.360333	685.158203	471.815735
13316.271862	3903.360333	683.943359	699.902344
13316.271862	3903.360333	682.729492	1016.907837
13316.271862	3903.360333	681.514648	994.668213
13316.271862	3903.360333	680.299805	754.177856
13316.271862	3903.360333	679.084961	744.680237
13316.271862	3903.360333	677.869141	582.672424
13316.271862	3903.360333	676.653320	454.600281
13316.271862	3903.360333	675.437500	409.135895
13316.271862	3903.360333	674.221680	272.663330
13316.271862	3903.360333	673.004883	87.562569
13316.271862	3903.360333	671.789063	111.993538
13316.271862	3903.360333	670.571289	98.322014
13316.271862	3903.360333	669.354492	48.702393
13316.271862	3903.360333	668.136719	261.279999
13316.271862	3903.360333	666.919922	-73.744133
13316.271862	3903.360333	665.701172	235.981155
13316.271862	3903.360333	664.483398	89.158127
13316.271862	3903.360333	663.264648	-123.098122
13316.271862	3903.360333	662.045898	127.301895
13316.271862	3903.360333	660.827148	242.450333
13316.271862	3903.360333	659.608398	-41.477604
13316.271862	3903.360333	658.388672	25.113928
13316.271862	3903.360333	657.168945	249.963837
13316.271862	3903.360333	655.949219	59.068611
13316.271862	3903.360333	654.728516	39.129635
13316.271862	3903.360333	653.507813	25.536190
13316.271862	3903.360333	652.287109	163.782822
13316.271862	3903.360333	651.066406	34.247871
13316.271862	3903.360333	649.844727	64.964828
13316.271862	3903.360333	648.623047	83.043648
13316.271862	3903.360333	647.401367	33.714237
13316.271862	3903.360333	646.179688	190.850067
13316.271862	3903.360333	644.957031	307.924164
13316.271862	3903.360333	643.734375	612.359924
13316.271862	3903.360333	642.511719	649.351074
13316.271862	3903.360333	641.289063	616.900085
13316.271862	3903.360333	640.065430	504.527832
13316.271862	3903.360333	638.841797	688.854004
13316.271862	3903.360333	637.618164	772.175781
13316.271862	3903.360333	636.393555	580.020203
13316.271862	3903.360333	635.168945	341.727386
13316.271862	3903.360333	633.944336	334.780243
13316.271862	3903.360333	632.719727	180.768982
13316.271862	3903.360333	631.494141	262.170868
13316.271862	3903.360333	630.269531	49.500504
13316.271862	3903.360333	629.042969	97.367546
13316.271862	3903.360333	627.817383	103.266655
13316.271862	3903.360333	626.590820	-81.830368
13316.271862	3903.360333	625.365234	43.824162
13316.271862	3903.360333	624.137695	47.756363
13316.271862	3903.360333	622.911133	-7.003441
13316.271862	3903.360333	621.683594	64.153549
13316.271862	3903.360333	620.456055	15.798520
13316.271862	3903.360333	619.228516	240.072464
13316.271862	3903.360333	618.000977	-55.538925
13316.271862	3903.360333	616.772461	189.713501
13316.271862	3903.360333	615.543945	380.440735
13316.271862	3903.360333	614.314453	372.134216
13316.271862	3903.360333	613.085938	560.762329
13316.271862	3903.360333	611.856445	1101.143555
13316.271862	3903.360333	610.626953	1279.185425
13316.271862	3903.360333	609.397461	1779.539673
13316.271862	3903.360333	608.166992	2009.798584
13316.271862	3903.360333	606.936523	1606.106689
13316.271862	3903.360333	605.706055	1213.109985
13316.271862	3903.360333	604.474609	799.432739
13316.271862	3903.360333	603.244141	356.731110
13316.271862	3903.360333	602.012695	108.687447
13316.271862	3903.360333	600.780273	161.764023
13316.271862	3903.360333	599.548828	125.046066
13316.271862	3903.360333	598.316406	132.282730
13316.271862	3903.360333	597.083984	-63.000946
13316.271862	3903.360333	595.851563	94.768372
13316.271862	3903.360333	594.618164	-18.855753
13316.271862	3903.360333	593.384766	-146.964737
13316.271862	3903.360333	592.151367	33.907269
13316.271862	3903.360333	590.917969	235.644043
13316.271862	3903.360333	589.683594	118.228996
13316.271862	3903.360333	588.449219	30.142639
13316.271862	3903.360333	587.214844	119.403442
13316.271862	3903.360333	585.979492	217.045715
13316.271862	3903.360333	584.745117	93.815002
13316.271862	3903.360333	583.509766	-29.280500
13316.271862	3903.360333	582.273438	-133.490768
13316.271862	3903.360333	581.038086	-102.184074
13316.271862	3903.360333	579.801758	-104.123344
13316.271862	3903.360333	578.565430	-162.184357
13316.271862	3903.360333	577.329102	-301.308807
13316.271862	3903.360333	576.091797	-325.829285
13316.271862	3903.360333	574.854492	-113.061295
13316.271862	3903.360333	573.617188	-110.387100
13316.271862	3903.360333	572.378906	-213.688950
13316.271862	3903.360333	571.141602	-214.968399
13316.271862	3903.360333	569.903320	-20.748236
13316.271862	3903.360333	568.664063	-169.449722
13316.271862	3903.360333	567.425781	-124.744911
13316.271862	3903.360333	566.186523	-59.191425
13316.271862	3903.360333	564.947266	-3.956289
13316.271862	3903.360333	563.708008	-206.147690
13316.271862	3903.360333	562.467773	-123.726707
13316.271862	3903.360333	561.227539	191.234009
13316.271862	3903.360333	559.987305	255.048965
13316.271862	3903.360333	558.747070	22.233829
13316.271862	3903.360333	557.505859	-31.990730
13316.271862	3903.360333	556.264648	-61.209599
13316.271862	3903.360333	555.023438	98.366158
13316.271862	3903.360333	553.781250	-117.250717
13316.271862	3903.360333	552.539063	-127.493156
13316.271862	3903.360333	551.296875	-29.883919
13316.271862	3903.360333	550.054688	-6.803235
13316.271862	3903.360333	548.811523	136.496094
13316.271862	3903.360333	547.569336	188.711823
13316.271862	3903.360333	546.325195	156.112839
13316.271862	3903.360333	545.082031	-68.883369
13316.271862	3903.360333	543.837891	192.641968
13316.271862	3903.360333	542.593750	195.514603
13316.271862	3903.360333	541.349609	248.124359
13316.271862	3903.360333	540.105469	23.668644
13316.271862	3903.360333	538.860352	434.189667
13316.271862	3903.360333	537.615234	451.839752
13316.271862	3903.360333	536.369141	395.164978
13316.271862	3903.360333	535.124023	429.522156
13316.271862	3903.360333	533.877930	236.696869
13316.271862	3903.360333	532.631836	254.719742
13316.271862	3903.360333	531.384766	144.785309
13316.271862	3903.360333	530.138672	324.025879
13316.271862	3903.360333	528.891602	-208.870392
13316.271862	3903.360333	527.643555	187.222031
13316.271862	3903.360333	526.396484	61.208275
13316.271862	3903.360333	525.148438	36.405537
13316.271862	3903.360333	523.900391	42.622757
13316.271862	3903.360333	522.652344	-17.072634
13316.271862	3903.360333	521.403320	166.587936
13316.271862	3903.360333	520.154297	47.258675
13316.271862	3903.360333	518.905273	-47.225662
13316.271862	3903.360333	517.656250	49.993004
13316.271862	3903.360333	516.406250	239.921387
13316.271862	3903.360333	515.156250	-6.745884
13316.271862	3903.360333	513.906250	142.051178
13316.271862	3903.360333	512.655273	29.420664
13316.271862	3903.360333	511.404297	336.717957
13316.271862	3903.360333	510.153320	164.525146
13316.271862	3903.360333	508.902344	113.820778
13316.271862	3903.360333	507.650391	118.711731
13316.271862	3903.360333	506.398438	251.126038
13316.271862	3903.360333	505.146484	7.313403
13316.271862	3903.360333	503.893555	563.163635
13316.271862	3903.360333	502.641602	300.957336
13316.271862	3903.360333	501.388672	271.044647
13316.271862	3903.360333	500.134766	222.682739
13316.271862	3903.360333	498.881836	219.536423
13316.271862	3903.360333	497.627930	310.852203
13316.271862	3903.360333	496.374023	398.034546
13316.271862	3903.360333	495.119141	306.642578
13316.271862	3903.360333	493.865234	315.828857
13316.271862	3903.360333	492.610352	515.787720
13316.271862	3903.360333	491.355469	485.951447
13316.271862	3903.360333	490.099609	482.775116
13316.271862	3903.360333	488.843750	493.934998
13316.271862	3903.360333	487.587891	302.160614
13316.271862	3903.360333	486.332031	782.563171
13316.271862	3903.360333	485.075195	609.192932
13316.271862	3903.360333	483.818359	485.019531
13316.271862	3903.360333	482.561523	426.389221
13316.271862	3903.360333	481.304688	461.916656
13316.271862	3903.360333	480.046875	607.913086
13316.271862	3903.360333	478.789063	393.604645
13316.271862	3903.360333	477.531250	410.529358
13316.271862	3903.360333	476.272461	652.395447
13316.271862	3903.360333	475.013672	558.671875
13316.271862	3903.360333	473.754883	732.767334
13316.271862	3903.360333	472.496094	751.330750
13316.271862	3903.360333	471.236328	467.302856
13316.271862	3903.360333	469.976563	610.366089
13316.271862	3903.360333	468.716797	593.907227
13316.271862	3903.360333	467.456055	695.805725
13316.271862	3903.360333	466.196289	656.631897
13316.271862	3903.360333	464.935547	566.302673
13316.271862	3903.360333	463.673828	608.552551
13316.271862	3903.360333	462.413086	952.670654
13316.271862	3903.360333	461.151367	884.339539
13316.271862	3903.360333	459.889648	830.155273
13316.271862	3903.360333	458.626953	684.048157
13316.271862	3903.360333	457.364258	894.649475
13316.271862	3903.360333	456.101563	868.499573
13316.271862	3903.360333	454.838867	768.791077
13316.271862	3903.360333	453.575195	695.410095
13316.271862	3903.360333	452.312500	856.129272
13316.271862	3903.360333	451.047852	1055.253296
13316.271862	3903.360333	449.784180	1072.822510
13316.271862	3903.360333	448.519531	1222.474731
13316.271862	3903.360333	447.254883	1160.120117
13316.271862	3903.360333	445.990234	1203.351807
13316.271862	3903.360333	444.725586	1150.665527
13316.271862	3903.360333	443.459961	1130.264893
13316.271862	3903.360333	442.194336	1231.601440
13316.271862	3903.360333	440.927734	1336.655273
13316.271862	3903.360333	439.662109	1238.066406
13316.271862	3903.360333	438.395508	1330.237305
13316.271862	3903.360333	437.127930	1310.270630
13316.271862	3903.360333	435.861328	1318.407104
13316.271862	3903.360333	434.593750	976.832214
13316.271862	3903.360333	433.326172	1207.671753
13316.271862	3903.360333	432.058594	1196.434448
13316.271862	3903.360333	430.790039	1239.604736
13316.271862	3903.360333	429.521484	1158.559570
13316.271862	3903.360333	428.252930	922.933167
13316.271862	3903.360333	426.984375	1301.592041
13316.271862	3903.360333	425.714844	1296.342651
13316.271862	3903.360333	424.445313	1227.780273
13316.271862	3903.360333	423.174805	1292.558716
13316.271862	3903.360333	421.905273	1002.158020
13316.271862	3903.360333	420.634766	1169.307373
13316.271862	3903.360333	419.364258	1293.327148
13316.271862	3903.360333	418.092773	1451.187500
13316.271862	3903.360333	416.822266	1239.908569
13316.271862	3903.360333	415.550781	1429.001953
13316.271862	3903.360333	414.278320	1392.762451
13316.271862	3903.360333	413.006836	1175.859741
13316.271862	3903.360333	411.734375	1320.585205
13316.271862	3903.360333	410.461914	1316.971069
13316.271862	3903.360333	409.188477	1245.976807
13316.271862	3903.360333	407.916016	1427.106934
13316.271862	3903.360333	406.642578	1476.089844
13316.271862	3903.360333	405.368164	1320.236328
13316.271862	3903.360333	404.094727	1440.578979
13316.271862	3903.360333	402.820313	1604.584473
13316.271862	3903.360333	401.545898	1551.681396
13316.271862	3903.360333	400.270508	1661.593750
13316.271862	3903.360333	398.996094	1504.229492
13316.271862	3903.360333	397.720703	1507.599121
13316.271862	3903.360333	396.444336	1423.380859
13316.271862	3903.360333	395.168945	1481.634399
13316.271862	3903.360333	393.892578	1288.896973
13316.271862	3903.360333	392.616211	1373.675781
13316.271862	3903.360333	391.339844	1328.509766
13316.271862	3903.360333	390.062500	1352.999146
13316.271862	3903.360333	388.785156	1289.908203
13316.271862	3903.360333	387.507813	1556.345581
13316.271862	3903.360333	386.229492	1648.455444
13316.271862	3903.360333	384.951172	1419.333984
13316.271862	3903.360333	383.672852	1745.053833
13316.271862	3903.360333	382.394531	1707.265625
13316.271862	3903.360333	381.115234	1767.055176
13316.271862	3903.360333	379.835938	1791.559814
13316.271862	3903.360333	378.556641	1847.169678
13316.271862	3903.360333	377.277344	1507.438965
13316.271862	3903.360333	375.997070	1456.283569
13316.271862	3903.360333	374.716797	1402.003052
13316.271862	3903.360333	373.435547	1231.987671
13316.271862	3903.360333	372.155273	1048.837524
13316.271862	3903.360333	370.874023	780.151123
13316.271862	3903.360333	369.591797	841.761841
13316.271862	3903.360333	368.310547	665.155701
13316.271862	3903.360333	367.028320	834.678833
13316.271862	3903.360333	365.746094	557.192505
13316.271862	3903.360333	364.463867	900.670898
13316.271862	3903.360333	363.180664	813.227478
13316.271862	3903.360333	361.897461	818.747192
13316.271862	3903.360333	360.614258	622.313171
13316.271862	3903.360333	359.330078	542.822205
13316.271862	3903.360333	358.045898	514.056335
13316.271862	3903.360333	356.761719	588.070740
13316.271862	3903.360333	355.477539	686.621582
13316.271862	3903.360333	354.192383	495.079010
13316.271862	3903.360333	352.907227	929.035461
13316.271862	3903.360333	351.622070	686.373474
13316.271862	3903.360333	350.336914	426.219574
13316.271862	3903.360333	349.050781	318.653564
13316.271862	3903.360333	347.764648	421.638855
13316.271862	3903.360333	346.477539	340.791504
13316.271862	3903.360333	345.191406	334.363739
13316.271862	3903.360333	343.904297	142.176727
13316.271862	3903.360333	342.616211	366.184265
13316.271862	3903.360333	341.329102	342.497345
13316.271862	3903.360333	340.041016	288.993439
13316.271862	3903.360333	338.752930	355.587036
13316.271862	3903.360333	337.463867	76.627998
13316.271862	3903.360333	336.175781	125.544228
13316.271862	3903.360333	334.886719	152.512268
13316.271862	3903.360333	333.596680	211.416214
13316.271862	3903.360333	332.307617	296.354156
13316.271862	3903.360333	331.017578	93.833496
13316.271862	3903.360333	329.727539	-80.679413
13316.271862	3903.360333	328.436523	111.806595
13316.271862	3903.360333	327.146484	-70.720085
13316.271862	3903.360333	325.855469	-181.557388
13316.271862	3903.360333	324.563477	26.400316
13316.271862	3903.360333	323.272461	-92.662086
13316.271862	3903.360333	321.980469	178.606003
13316.271862	3903.360333	320.688477	-8.647242
13316.271862	3903.360333	319.395508	-84.606499
13316.271862	3903.360333	318.103516	-33.281231
13316.271862	3903.360333	316.810547	-99.822517
13316.271862	3903.360333	315.516602	-23.444029
13316.271862	3903.360333	314.223633	-158.305405
13316.271862	3903.360333	312.929688	-162.277130
13316.271862	3903.360333	311.635742	-93.070885
13316.271862	3903.360333	310.340820	78.973511
13316.271862	3903.360333	309.045898	-141.215454
13316.271862	3903.360333	307.750977	-51.723511
13316.271862	3903.360333	306.456055	-48.261402
13316.271862	3903.360333	305.160156	-7.717441
13316.271862	3903.360333	303.865234	199.177917
13316.271862	3903.360333	302.568359	69.507439
13316.271862	3903.360333	301.272461	-28.889317
13316.271862	3903.360333	299.975586	215.400406
13316.271862	3903.360333	298.678711	486.652069
