#X		#Y		#Wave		#Intensity
13270.160106	3882.579167	1999.980469	-27.853968
13270.160106	3882.579167	1999.016602	-6.110126
13270.160106	3882.579167	1998.052734	-53.248722
13270.160106	3882.579167	1997.087891	-25.957684
13270.160106	3882.579167	1996.123047	204.563461
13270.160106	3882.579167	1995.158203	110.552589
13270.160106	3882.579167	1994.193359	130.574753
13270.160106	3882.579167	1993.228516	-44.970985
13270.160106	3882.579167	1992.262695	-12.419528
13270.160106	3882.579167	1991.297852	69.694931
13270.160106	3882.579167	1990.332031	60.266487
13270.160106	3882.579167	1989.366211	135.033768
13270.160106	3882.579167	1988.399414	-0.456934
13270.160106	3882.579167	1987.433594	170.881836
13270.160106	3882.579167	1986.466797	18.239704
13270.160106	3882.579167	1985.500977	-151.594925
13270.160106	3882.579167	1984.534180	309.088348
13270.160106	3882.579167	1983.567383	8.370704
13270.160106	3882.579167	1982.599609	-37.644489
13270.160106	3882.579167	1981.632813	-36.643787
13270.160106	3882.579167	1980.665039	58.279045
13270.160106	3882.579167	1979.697266	76.651291
13270.160106	3882.579167	1978.729492	161.740479
13270.160106	3882.579167	1977.761719	232.032913
13270.160106	3882.579167	1976.792969	-21.025795
13270.160106	3882.579167	1975.825195	153.026672
13270.160106	3882.579167	1974.856445	124.717384
13270.160106	3882.579167	1973.887695	69.326309
13270.160106	3882.579167	1972.918945	-99.466797
13270.160106	3882.579167	1971.949219	27.788837
13270.160106	3882.579167	1970.980469	196.958466
13270.160106	3882.579167	1970.010742	72.736656
13270.160106	3882.579167	1969.041016	59.518467
13270.160106	3882.579167	1968.071289	132.597946
13270.160106	3882.579167	1967.101563	15.968359
13270.160106	3882.579167	1966.130859	118.666763
13270.160106	3882.579167	1965.161133	76.048203
13270.160106	3882.579167	1964.190430	139.370300
13270.160106	3882.579167	1963.219727	-97.669365
13270.160106	3882.579167	1962.249023	-103.192673
13270.160106	3882.579167	1961.277344	-20.080341
13270.160106	3882.579167	1960.306641	60.576073
13270.160106	3882.579167	1959.334961	-77.728119
13270.160106	3882.579167	1958.363281	17.730917
13270.160106	3882.579167	1957.391602	59.079353
13270.160106	3882.579167	1956.419922	-0.370103
13270.160106	3882.579167	1955.447266	-40.101433
13270.160106	3882.579167	1954.474609	104.558304
13270.160106	3882.579167	1953.501953	207.414017
13270.160106	3882.579167	1952.529297	59.640732
13270.160106	3882.579167	1951.556641	86.366615
13270.160106	3882.579167	1950.583984	-34.259663
13270.160106	3882.579167	1949.610352	257.737091
13270.160106	3882.579167	1948.636719	105.255287
13270.160106	3882.579167	1947.663086	102.594940
13270.160106	3882.579167	1946.689453	-290.276886
13270.160106	3882.579167	1945.715820	-3.263264
13270.160106	3882.579167	1944.741211	-167.758972
13270.160106	3882.579167	1943.767578	-18.197283
13270.160106	3882.579167	1942.792969	222.071457
13270.160106	3882.579167	1941.818359	143.506027
13270.160106	3882.579167	1940.842773	-104.168144
13270.160106	3882.579167	1939.868164	-143.388397
13270.160106	3882.579167	1938.892578	25.728483
13270.160106	3882.579167	1937.916992	99.242767
13270.160106	3882.579167	1936.941406	138.447708
13270.160106	3882.579167	1935.965820	-15.839072
13270.160106	3882.579167	1934.990234	-54.958099
13270.160106	3882.579167	1934.013672	248.722427
13270.160106	3882.579167	1933.037109	92.094704
13270.160106	3882.579167	1932.060547	45.674637
13270.160106	3882.579167	1931.083984	6.623635
13270.160106	3882.579167	1930.107422	-127.815849
13270.160106	3882.579167	1929.129883	97.379654
13270.160106	3882.579167	1928.153320	112.176735
13270.160106	3882.579167	1927.175781	46.287098
13270.160106	3882.579167	1926.198242	-58.685226
13270.160106	3882.579167	1925.219727	34.374081
13270.160106	3882.579167	1924.242188	-63.211044
13270.160106	3882.579167	1923.263672	293.710632
13270.160106	3882.579167	1922.285156	205.897354
13270.160106	3882.579167	1921.306641	61.944168
13270.160106	3882.579167	1920.328125	-11.132092
13270.160106	3882.579167	1919.349609	42.782120
13270.160106	3882.579167	1918.370117	-135.224243
13270.160106	3882.579167	1917.391602	16.322092
13270.160106	3882.579167	1916.412109	53.126106
13270.160106	3882.579167	1915.431641	-90.622490
13270.160106	3882.579167	1914.452148	-61.130131
13270.160106	3882.579167	1913.472656	26.881578
13270.160106	3882.579167	1912.492188	41.708618
13270.160106	3882.579167	1911.511719	56.527180
13270.160106	3882.579167	1910.531250	68.900009
13270.160106	3882.579167	1909.550781	127.567581
13270.160106	3882.579167	1908.569336	93.619797
13270.160106	3882.579167	1907.588867	-183.926147
13270.160106	3882.579167	1906.607422	145.092697
13270.160106	3882.579167	1905.625977	72.180656
13270.160106	3882.579167	1904.644531	147.804749
13270.160106	3882.579167	1903.662109	43.257954
13270.160106	3882.579167	1902.680664	84.769440
13270.160106	3882.579167	1901.698242	121.388786
13270.160106	3882.579167	1900.715820	-43.946064
13270.160106	3882.579167	1899.733398	-43.824745
13270.160106	3882.579167	1898.750000	257.849365
13270.160106	3882.579167	1897.767578	97.409035
13270.160106	3882.579167	1896.784180	153.379318
13270.160106	3882.579167	1895.800781	104.797798
13270.160106	3882.579167	1894.817383	-55.567753
13270.160106	3882.579167	1893.833984	27.080721
13270.160106	3882.579167	1892.850586	-133.242905
13270.160106	3882.579167	1891.866211	-150.226318
13270.160106	3882.579167	1890.881836	5.191568
13270.160106	3882.579167	1889.897461	-62.834763
13270.160106	3882.579167	1888.913086	-79.878365
13270.160106	3882.579167	1887.927734	51.108353
13270.160106	3882.579167	1886.943359	104.376442
13270.160106	3882.579167	1885.958008	72.688850
13270.160106	3882.579167	1884.972656	72.522751
13270.160106	3882.579167	1883.987305	84.458405
13270.160106	3882.579167	1883.001953	-58.815540
13270.160106	3882.579167	1882.015625	-46.910824
13270.160106	3882.579167	1881.029297	95.848061
13270.160106	3882.579167	1880.042969	30.118507
13270.160106	3882.579167	1879.056641	49.186813
13270.160106	3882.579167	1878.070313	-161.912674
13270.160106	3882.579167	1877.083984	58.150269
13270.160106	3882.579167	1876.096680	157.022522
13270.160106	3882.579167	1875.109375	-3.228655
13270.160106	3882.579167	1874.122070	-100.516197
13270.160106	3882.579167	1873.134766	107.140511
13270.160106	3882.579167	1872.146484	29.158718
13270.160106	3882.579167	1871.159180	84.231705
13270.160106	3882.579167	1870.170898	32.818771
13270.160106	3882.579167	1869.182617	10.409212
13270.160106	3882.579167	1868.194336	-111.163811
13270.160106	3882.579167	1867.205078	-206.137543
13270.160106	3882.579167	1866.216797	17.927750
13270.160106	3882.579167	1865.227539	239.452896
13270.160106	3882.579167	1864.238281	-92.431023
13270.160106	3882.579167	1863.249023	49.232193
13270.160106	3882.579167	1862.259766	-53.133488
13270.160106	3882.579167	1861.269531	-66.161064
13270.160106	3882.579167	1860.279297	-40.599182
13270.160106	3882.579167	1859.290039	62.150368
13270.160106	3882.579167	1858.298828	-119.964302
13270.160106	3882.579167	1857.308594	-89.719147
13270.160106	3882.579167	1856.318359	87.625778
13270.160106	3882.579167	1855.327148	86.365921
13270.160106	3882.579167	1854.335938	12.709922
13270.160106	3882.579167	1853.344727	122.274139
13270.160106	3882.579167	1852.353516	99.161240
13270.160106	3882.579167	1851.362305	-32.454811
13270.160106	3882.579167	1850.370117	-24.311037
13270.160106	3882.579167	1849.377930	-45.136059
13270.160106	3882.579167	1848.385742	117.063431
13270.160106	3882.579167	1847.393555	52.757294
13270.160106	3882.579167	1846.401367	-74.186157
13270.160106	3882.579167	1845.408203	-37.433922
13270.160106	3882.579167	1844.415039	11.281758
13270.160106	3882.579167	1843.421875	71.952232
13270.160106	3882.579167	1842.428711	178.255386
13270.160106	3882.579167	1841.435547	-76.391655
13270.160106	3882.579167	1840.441406	176.492294
13270.160106	3882.579167	1839.448242	207.983353
13270.160106	3882.579167	1838.454102	104.754608
13270.160106	3882.579167	1837.459961	152.943344
13270.160106	3882.579167	1836.464844	215.466034
13270.160106	3882.579167	1835.470703	359.602448
13270.160106	3882.579167	1834.475586	-92.206268
13270.160106	3882.579167	1833.480469	95.032883
13270.160106	3882.579167	1832.485352	214.886475
13270.160106	3882.579167	1831.490234	164.145706
13270.160106	3882.579167	1830.495117	214.180847
13270.160106	3882.579167	1829.499023	16.899157
13270.160106	3882.579167	1828.502930	2.002967
13270.160106	3882.579167	1827.506836	107.005157
13270.160106	3882.579167	1826.510742	180.708649
13270.160106	3882.579167	1825.513672	187.150299
13270.160106	3882.579167	1824.517578	68.822311
13270.160106	3882.579167	1823.520508	48.758102
13270.160106	3882.579167	1822.523438	-146.362976
13270.160106	3882.579167	1821.526367	-87.446968
13270.160106	3882.579167	1820.529297	141.495590
13270.160106	3882.579167	1819.531250	-25.024275
13270.160106	3882.579167	1818.533203	-19.104235
13270.160106	3882.579167	1817.535156	77.735420
13270.160106	3882.579167	1816.537109	219.949005
13270.160106	3882.579167	1815.539063	103.484032
13270.160106	3882.579167	1814.540039	-10.632256
13270.160106	3882.579167	1813.541992	224.593124
13270.160106	3882.579167	1812.542969	206.028839
13270.160106	3882.579167	1811.543945	94.093437
13270.160106	3882.579167	1810.543945	-8.324821
13270.160106	3882.579167	1809.544922	149.852676
13270.160106	3882.579167	1808.544922	107.054527
13270.160106	3882.579167	1807.544922	18.767952
13270.160106	3882.579167	1806.544922	-91.084892
13270.160106	3882.579167	1805.544922	205.209167
13270.160106	3882.579167	1804.544922	154.903351
13270.160106	3882.579167	1803.543945	188.115845
13270.160106	3882.579167	1802.542969	70.776726
13270.160106	3882.579167	1801.541992	225.572815
13270.160106	3882.579167	1800.541016	196.405823
13270.160106	3882.579167	1799.539063	-2.305642
13270.160106	3882.579167	1798.538086	171.219223
13270.160106	3882.579167	1797.536133	206.201065
13270.160106	3882.579167	1796.534180	162.356705
13270.160106	3882.579167	1795.532227	187.590759
13270.160106	3882.579167	1794.529297	-97.263519
13270.160106	3882.579167	1793.527344	32.706478
13270.160106	3882.579167	1792.524414	-111.583176
13270.160106	3882.579167	1791.521484	92.007645
13270.160106	3882.579167	1790.518555	-85.798012
13270.160106	3882.579167	1789.514648	129.410782
13270.160106	3882.579167	1788.511719	113.416779
13270.160106	3882.579167	1787.507813	-47.939114
13270.160106	3882.579167	1786.503906	157.306030
13270.160106	3882.579167	1785.500000	81.486641
13270.160106	3882.579167	1784.496094	172.184174
13270.160106	3882.579167	1783.491211	-32.318878
13270.160106	3882.579167	1782.486328	86.692772
13270.160106	3882.579167	1781.481445	284.044769
13270.160106	3882.579167	1780.476563	-20.565111
13270.160106	3882.579167	1779.471680	-177.754593
13270.160106	3882.579167	1778.465820	-182.859833
13270.160106	3882.579167	1777.460938	11.581932
13270.160106	3882.579167	1776.455078	-122.097313
13270.160106	3882.579167	1775.449219	-25.379738
13270.160106	3882.579167	1774.442383	166.197922
13270.160106	3882.579167	1773.436523	93.980148
13270.160106	3882.579167	1772.429688	-6.824920
13270.160106	3882.579167	1771.422852	41.860580
13270.160106	3882.579167	1770.416016	161.621201
13270.160106	3882.579167	1769.409180	321.565918
13270.160106	3882.579167	1768.402344	111.196259
13270.160106	3882.579167	1767.394531	-37.538822
13270.160106	3882.579167	1766.386719	-25.051136
13270.160106	3882.579167	1765.378906	91.655052
13270.160106	3882.579167	1764.371094	-45.484081
13270.160106	3882.579167	1763.362305	-38.100101
13270.160106	3882.579167	1762.354492	125.592438
13270.160106	3882.579167	1761.345703	-33.161522
13270.160106	3882.579167	1760.336914	99.425179
13270.160106	3882.579167	1759.328125	182.102249
13270.160106	3882.579167	1758.318359	141.472992
13270.160106	3882.579167	1757.308594	216.759491
13270.160106	3882.579167	1756.299805	187.747772
13270.160106	3882.579167	1755.290039	104.180565
13270.160106	3882.579167	1754.279297	131.735016
13270.160106	3882.579167	1753.269531	57.433022
13270.160106	3882.579167	1752.258789	37.435616
13270.160106	3882.579167	1751.249023	50.444855
13270.160106	3882.579167	1750.238281	77.505135
13270.160106	3882.579167	1749.226563	-4.326458
13270.160106	3882.579167	1748.215820	5.944845
13270.160106	3882.579167	1747.204102	51.528809
13270.160106	3882.579167	1746.193359	-125.117424
13270.160106	3882.579167	1745.181641	-13.626301
13270.160106	3882.579167	1744.168945	43.365967
13270.160106	3882.579167	1743.157227	-55.629044
13270.160106	3882.579167	1742.144531	130.956741
13270.160106	3882.579167	1741.132813	24.654902
13270.160106	3882.579167	1740.120117	12.661989
13270.160106	3882.579167	1739.106445	52.449280
13270.160106	3882.579167	1738.093750	174.680923
13270.160106	3882.579167	1737.080078	339.187561
13270.160106	3882.579167	1736.067383	166.286194
13270.160106	3882.579167	1735.053711	-117.503510
13270.160106	3882.579167	1734.040039	-104.278854
13270.160106	3882.579167	1733.025391	-13.418545
13270.160106	3882.579167	1732.011719	-33.458176
13270.160106	3882.579167	1730.997070	14.697254
13270.160106	3882.579167	1729.982422	171.067154
13270.160106	3882.579167	1728.967773	-87.249756
13270.160106	3882.579167	1727.952148	19.369238
13270.160106	3882.579167	1726.937500	74.044052
13270.160106	3882.579167	1725.921875	-33.851101
13270.160106	3882.579167	1724.906250	-54.755169
13270.160106	3882.579167	1723.890625	232.450150
13270.160106	3882.579167	1722.875000	168.910522
13270.160106	3882.579167	1721.858398	142.888672
13270.160106	3882.579167	1720.841797	76.777267
13270.160106	3882.579167	1719.825195	-81.124702
13270.160106	3882.579167	1718.808594	207.527695
13270.160106	3882.579167	1717.791992	-185.604187
13270.160106	3882.579167	1716.774414	60.401081
13270.160106	3882.579167	1715.756836	118.247314
13270.160106	3882.579167	1714.739258	60.855659
13270.160106	3882.579167	1713.721680	-95.268730
13270.160106	3882.579167	1712.704102	-70.666588
13270.160106	3882.579167	1711.685547	61.772488
13270.160106	3882.579167	1710.667969	125.989616
13270.160106	3882.579167	1709.649414	16.398575
13270.160106	3882.579167	1708.630859	35.764603
13270.160106	3882.579167	1707.611328	94.861763
13270.160106	3882.579167	1706.592773	200.734665
13270.160106	3882.579167	1705.573242	200.916382
13270.160106	3882.579167	1704.553711	8.741976
13270.160106	3882.579167	1703.534180	144.663010
13270.160106	3882.579167	1702.513672	39.022438
13270.160106	3882.579167	1701.494141	167.616989
13270.160106	3882.579167	1700.473633	230.434753
13270.160106	3882.579167	1699.453125	229.873932
13270.160106	3882.579167	1698.432617	151.920334
13270.160106	3882.579167	1697.412109	169.866440
13270.160106	3882.579167	1696.390625	342.159119
13270.160106	3882.579167	1695.369141	327.045685
13270.160106	3882.579167	1694.347656	300.122314
13270.160106	3882.579167	1693.326172	284.789032
13270.160106	3882.579167	1692.304688	426.053162
13270.160106	3882.579167	1691.282227	445.530121
13270.160106	3882.579167	1690.260742	186.676315
13270.160106	3882.579167	1689.238281	315.827301
13270.160106	3882.579167	1688.214844	341.963837
13270.160106	3882.579167	1687.192383	218.445404
13270.160106	3882.579167	1686.168945	204.647949
13270.160106	3882.579167	1685.146484	316.892303
13270.160106	3882.579167	1684.123047	207.107773
13270.160106	3882.579167	1683.099609	319.067505
13270.160106	3882.579167	1682.075195	407.511047
13270.160106	3882.579167	1681.051758	313.777618
13270.160106	3882.579167	1680.027344	544.313416
13270.160106	3882.579167	1679.002930	431.688904
13270.160106	3882.579167	1677.978516	734.207520
13270.160106	3882.579167	1676.953125	570.046936
13270.160106	3882.579167	1675.928711	704.323730
13270.160106	3882.579167	1674.903320	593.638489
13270.160106	3882.579167	1673.877930	552.816101
13270.160106	3882.579167	1672.852539	672.700134
13270.160106	3882.579167	1671.826172	599.031372
13270.160106	3882.579167	1670.800781	825.810120
13270.160106	3882.579167	1669.774414	761.250488
13270.160106	3882.579167	1668.748047	608.127014
13270.160106	3882.579167	1667.721680	715.714050
13270.160106	3882.579167	1666.694336	716.065369
13270.160106	3882.579167	1665.667969	641.866028
13270.160106	3882.579167	1664.640625	709.510742
13270.160106	3882.579167	1663.613281	616.514893
13270.160106	3882.579167	1662.585938	758.372620
13270.160106	3882.579167	1661.557617	865.179321
13270.160106	3882.579167	1660.530273	813.769409
13270.160106	3882.579167	1659.501953	1036.561279
13270.160106	3882.579167	1658.473633	1080.219116
13270.160106	3882.579167	1657.444336	947.150757
13270.160106	3882.579167	1656.416016	1218.298584
13270.160106	3882.579167	1655.386719	1215.145752
13270.160106	3882.579167	1654.358398	1295.528809
13270.160106	3882.579167	1653.328125	1433.797974
13270.160106	3882.579167	1652.298828	1509.269043
13270.160106	3882.579167	1651.269531	1788.868164
13270.160106	3882.579167	1650.239258	1529.896118
13270.160106	3882.579167	1649.208984	1776.711304
13270.160106	3882.579167	1648.178711	1740.355957
13270.160106	3882.579167	1647.148438	1567.102661
13270.160106	3882.579167	1646.117188	2031.457886
13270.160106	3882.579167	1645.086914	1994.830933
13270.160106	3882.579167	1644.055664	2104.139893
13270.160106	3882.579167	1643.024414	2139.173584
13270.160106	3882.579167	1641.992188	2377.983154
13270.160106	3882.579167	1640.960938	2220.531006
13270.160106	3882.579167	1639.928711	2523.930420
13270.160106	3882.579167	1638.896484	2537.693848
13270.160106	3882.579167	1637.864258	2528.227783
13270.160106	3882.579167	1636.832031	2553.414551
13270.160106	3882.579167	1635.798828	2446.589844
13270.160106	3882.579167	1634.766602	2723.844238
13270.160106	3882.579167	1633.733398	2570.624756
13270.160106	3882.579167	1632.699219	2692.608887
13270.160106	3882.579167	1631.666016	2784.440186
13270.160106	3882.579167	1630.632813	3135.112305
13270.160106	3882.579167	1629.598633	2909.995361
13270.160106	3882.579167	1628.564453	3119.387939
13270.160106	3882.579167	1627.530273	3698.337646
13270.160106	3882.579167	1626.495117	3616.269775
13270.160106	3882.579167	1625.460938	3591.944092
13270.160106	3882.579167	1624.425781	3696.866943
13270.160106	3882.579167	1623.390625	3785.534180
13270.160106	3882.579167	1622.355469	4109.566406
13270.160106	3882.579167	1621.319336	4128.753418
13270.160106	3882.579167	1620.284180	4175.591797
13270.160106	3882.579167	1619.248047	4413.826172
13270.160106	3882.579167	1618.211914	4340.528320
13270.160106	3882.579167	1617.174805	4354.824219
13270.160106	3882.579167	1616.138672	4758.753906
13270.160106	3882.579167	1615.101563	4874.303711
13270.160106	3882.579167	1614.065430	4902.205078
13270.160106	3882.579167	1613.027344	5116.664063
13270.160106	3882.579167	1611.990234	5344.842285
13270.160106	3882.579167	1610.953125	5123.723633
13270.160106	3882.579167	1609.915039	5303.352539
13270.160106	3882.579167	1608.876953	5556.556641
13270.160106	3882.579167	1607.838867	5567.909180
13270.160106	3882.579167	1606.800781	5365.169434
13270.160106	3882.579167	1605.761719	5659.516113
13270.160106	3882.579167	1604.723633	5702.958008
13270.160106	3882.579167	1603.684570	5847.545410
13270.160106	3882.579167	1602.644531	5973.629395
13270.160106	3882.579167	1601.605469	5814.534180
13270.160106	3882.579167	1600.566406	5894.569336
13270.160106	3882.579167	1599.526367	5873.394043
13270.160106	3882.579167	1598.486328	5624.697754
13270.160106	3882.579167	1597.446289	5575.973633
13270.160106	3882.579167	1596.405273	5603.033203
13270.160106	3882.579167	1595.365234	5405.012207
13270.160106	3882.579167	1594.324219	5324.139160
13270.160106	3882.579167	1593.283203	5364.965332
13270.160106	3882.579167	1592.242188	5146.386719
13270.160106	3882.579167	1591.200195	4996.708984
13270.160106	3882.579167	1590.159180	5028.367188
13270.160106	3882.579167	1589.117188	5062.278809
13270.160106	3882.579167	1588.075195	4662.686523
13270.160106	3882.579167	1587.032227	4882.368652
13270.160106	3882.579167	1585.990234	5014.864258
13270.160106	3882.579167	1584.947266	4842.420410
13270.160106	3882.579167	1583.904297	4802.967285
13270.160106	3882.579167	1582.861328	4756.659668
13270.160106	3882.579167	1581.818359	5097.533691
13270.160106	3882.579167	1580.775391	5087.845215
13270.160106	3882.579167	1579.731445	5002.577148
13270.160106	3882.579167	1578.687500	4926.509766
13270.160106	3882.579167	1577.643555	5106.861328
13270.160106	3882.579167	1576.598633	5470.226563
13270.160106	3882.579167	1575.554688	5179.061523
13270.160106	3882.579167	1574.509766	5256.331543
13270.160106	3882.579167	1573.464844	5425.083984
13270.160106	3882.579167	1572.419922	5424.560547
13270.160106	3882.579167	1571.374023	5483.484863
13270.160106	3882.579167	1570.329102	5453.277832
13270.160106	3882.579167	1569.283203	5084.833008
13270.160106	3882.579167	1568.237305	5228.410156
13270.160106	3882.579167	1567.191406	5042.977539
13270.160106	3882.579167	1566.144531	4958.128418
13270.160106	3882.579167	1565.098633	5204.503906
13270.160106	3882.579167	1564.051758	4832.030762
13270.160106	3882.579167	1563.004883	4868.361816
13270.160106	3882.579167	1561.957031	4763.187500
13270.160106	3882.579167	1560.910156	4596.504395
13270.160106	3882.579167	1559.862305	4530.288086
13270.160106	3882.579167	1558.814453	4457.298828
13270.160106	3882.579167	1557.766602	4559.987305
13270.160106	3882.579167	1556.718750	3978.642334
13270.160106	3882.579167	1555.669922	3680.230225
13270.160106	3882.579167	1554.621094	3746.663086
13270.160106	3882.579167	1553.573242	3870.110596
13270.160106	3882.579167	1552.523438	3576.586182
13270.160106	3882.579167	1551.474609	3381.201172
13270.160106	3882.579167	1550.424805	3347.625000
13270.160106	3882.579167	1549.375000	3364.214844
13270.160106	3882.579167	1548.325195	3128.162109
13270.160106	3882.579167	1547.275391	3345.206787
13270.160106	3882.579167	1546.225586	2870.432129
13270.160106	3882.579167	1545.174805	2923.733398
13270.160106	3882.579167	1544.124023	2965.707520
13270.160106	3882.579167	1543.073242	3039.574707
13270.160106	3882.579167	1542.022461	2988.418701
13270.160106	3882.579167	1540.970703	3087.381104
13270.160106	3882.579167	1539.919922	2981.830811
13270.160106	3882.579167	1538.868164	2776.388184
13270.160106	3882.579167	1537.815430	2768.752930
13270.160106	3882.579167	1536.763672	2581.762451
13270.160106	3882.579167	1535.710938	2844.593994
13270.160106	3882.579167	1534.659180	2653.284668
13270.160106	3882.579167	1533.606445	2682.328369
13270.160106	3882.579167	1532.552734	2700.078857
13270.160106	3882.579167	1531.500000	2722.468506
13270.160106	3882.579167	1530.446289	2803.910156
13270.160106	3882.579167	1529.393555	2631.361328
13270.160106	3882.579167	1528.338867	2556.459473
13270.160106	3882.579167	1527.285156	2635.896729
13270.160106	3882.579167	1526.231445	2858.227051
13270.160106	3882.579167	1525.176758	2779.081055
13270.160106	3882.579167	1524.122070	2423.585693
13270.160106	3882.579167	1523.067383	2639.308594
13270.160106	3882.579167	1522.012695	2633.046875
13270.160106	3882.579167	1520.957031	2511.364502
13270.160106	3882.579167	1519.901367	2364.927490
13270.160106	3882.579167	1518.845703	2612.592773
13270.160106	3882.579167	1517.790039	2615.804932
13270.160106	3882.579167	1516.734375	2458.448730
13270.160106	3882.579167	1515.677734	2432.483887
13270.160106	3882.579167	1514.621094	2512.967529
13270.160106	3882.579167	1513.564453	2629.723877
13270.160106	3882.579167	1512.507813	2561.125244
13270.160106	3882.579167	1511.450195	2759.438477
13270.160106	3882.579167	1510.393555	2526.072510
13270.160106	3882.579167	1509.335938	2358.444336
13270.160106	3882.579167	1508.278320	2455.369873
13270.160106	3882.579167	1507.219727	2552.366943
13270.160106	3882.579167	1506.162109	2303.903564
13270.160106	3882.579167	1505.103516	2206.946289
13270.160106	3882.579167	1504.044922	2191.440186
13270.160106	3882.579167	1502.986328	1993.232178
13270.160106	3882.579167	1501.926758	1862.926392
13270.160106	3882.579167	1500.868164	1865.950562
13270.160106	3882.579167	1499.808594	1654.784302
13270.160106	3882.579167	1498.749023	1687.430420
13270.160106	3882.579167	1497.688477	1427.036255
13270.160106	3882.579167	1496.628906	1527.637939
13270.160106	3882.579167	1495.568359	1019.712158
13270.160106	3882.579167	1494.507813	1046.257202
13270.160106	3882.579167	1493.447266	775.510986
13270.160106	3882.579167	1492.386719	761.841919
13270.160106	3882.579167	1491.325195	800.117065
13270.160106	3882.579167	1490.263672	728.185425
13270.160106	3882.579167	1489.202148	618.161804
13270.160106	3882.579167	1488.140625	589.375610
13270.160106	3882.579167	1487.079102	405.467072
13270.160106	3882.579167	1486.016602	300.530212
13270.160106	3882.579167	1484.954102	477.001343
13270.160106	3882.579167	1483.891602	493.872009
13270.160106	3882.579167	1482.829102	681.809631
13270.160106	3882.579167	1481.765625	460.645264
13270.160106	3882.579167	1480.702148	426.316467
13270.160106	3882.579167	1479.638672	470.840149
13270.160106	3882.579167	1478.575195	531.248901
13270.160106	3882.579167	1477.511719	434.594818
13270.160106	3882.579167	1476.447266	782.842529
13270.160106	3882.579167	1475.382813	473.231415
13270.160106	3882.579167	1474.318359	722.889771
13270.160106	3882.579167	1473.253906	561.973083
13270.160106	3882.579167	1472.189453	417.045135
13270.160106	3882.579167	1471.124023	279.198334
13270.160106	3882.579167	1470.058594	733.469971
13270.160106	3882.579167	1468.993164	761.748047
13270.160106	3882.579167	1467.927734	871.211487
13270.160106	3882.579167	1466.861328	675.882935
13270.160106	3882.579167	1465.794922	583.885010
13270.160106	3882.579167	1464.728516	854.847839
13270.160106	3882.579167	1463.662109	886.422852
13270.160106	3882.579167	1462.594727	1139.715576
13270.160106	3882.579167	1461.528320	1057.204224
13270.160106	3882.579167	1460.460938	1167.536133
13270.160106	3882.579167	1459.393555	884.885437
13270.160106	3882.579167	1458.326172	1165.050293
13270.160106	3882.579167	1457.257813	840.310547
13270.160106	3882.579167	1456.189453	862.099731
13270.160106	3882.579167	1455.121094	756.178528
13270.160106	3882.579167	1454.052734	1072.428833
13270.160106	3882.579167	1452.984375	1243.992432
13270.160106	3882.579167	1451.915039	955.700989
13270.160106	3882.579167	1450.845703	1042.836426
13270.160106	3882.579167	1449.776367	1157.417236
13270.160106	3882.579167	1448.707031	955.846863
13270.160106	3882.579167	1447.636719	923.131531
13270.160106	3882.579167	1446.567383	622.363220
13270.160106	3882.579167	1445.497070	692.208130
13270.160106	3882.579167	1444.425781	980.894165
13270.160106	3882.579167	1443.355469	816.342346
13270.160106	3882.579167	1442.285156	703.188049
13270.160106	3882.579167	1441.213867	583.196533
13270.160106	3882.579167	1440.142578	499.618439
13270.160106	3882.579167	1439.070313	607.613770
13270.160106	3882.579167	1437.999023	419.097443
13270.160106	3882.579167	1436.926758	533.568726
13270.160106	3882.579167	1435.854492	623.617126
13270.160106	3882.579167	1434.782227	209.772766
13270.160106	3882.579167	1433.709961	424.817657
13270.160106	3882.579167	1432.636719	127.159042
13270.160106	3882.579167	1431.563477	233.733337
13270.160106	3882.579167	1430.490234	17.183811
13270.160106	3882.579167	1429.416992	206.186935
13270.160106	3882.579167	1428.343750	184.811752
13270.160106	3882.579167	1427.269531	-20.178017
13270.160106	3882.579167	1426.195313	0.879447
13270.160106	3882.579167	1425.121094	0.404697
13270.160106	3882.579167	1424.046875	-69.062592
13270.160106	3882.579167	1422.971680	-36.379021
13270.160106	3882.579167	1421.896484	278.913208
13270.160106	3882.579167	1420.821289	88.701393
13270.160106	3882.579167	1419.746094	-7.287377
13270.160106	3882.579167	1418.669922	41.960232
13270.160106	3882.579167	1417.594727	22.464273
13270.160106	3882.579167	1416.518555	173.987381
13270.160106	3882.579167	1415.442383	271.017212
13270.160106	3882.579167	1414.365234	363.679260
13270.160106	3882.579167	1413.289063	76.085495
13270.160106	3882.579167	1412.211914	262.576416
13270.160106	3882.579167	1411.134766	189.968811
13270.160106	3882.579167	1410.057617	443.477936
13270.160106	3882.579167	1408.979492	140.521271
13270.160106	3882.579167	1407.902344	72.011299
13270.160106	3882.579167	1406.824219	285.185089
13270.160106	3882.579167	1405.746094	304.014557
13270.160106	3882.579167	1404.666992	350.966766
13270.160106	3882.579167	1403.588867	287.038422
13270.160106	3882.579167	1402.509766	211.612717
13270.160106	3882.579167	1401.430664	204.744644
13270.160106	3882.579167	1400.351563	391.623901
13270.160106	3882.579167	1399.271484	474.365021
13270.160106	3882.579167	1398.192383	264.315948
13270.160106	3882.579167	1397.112305	406.670593
13270.160106	3882.579167	1396.031250	421.209076
13270.160106	3882.579167	1394.951172	480.340454
13270.160106	3882.579167	1393.871094	228.486252
13270.160106	3882.579167	1392.790039	132.873596
13270.160106	3882.579167	1391.708984	109.580704
13270.160106	3882.579167	1390.626953	13.540156
13270.160106	3882.579167	1389.545898	-93.577614
13270.160106	3882.579167	1388.463867	-8.460074
13270.160106	3882.579167	1387.381836	-98.760414
13270.160106	3882.579167	1386.299805	-108.558693
13270.160106	3882.579167	1385.217773	-186.862762
13270.160106	3882.579167	1384.134766	38.675262
13270.160106	3882.579167	1383.051758	96.573097
13270.160106	3882.579167	1381.968750	9.897087
13270.160106	3882.579167	1380.885742	16.973316
13270.160106	3882.579167	1379.802734	11.297771
13270.160106	3882.579167	1378.718750	74.094322
13270.160106	3882.579167	1377.634766	258.113892
13270.160106	3882.579167	1376.550781	206.573105
13270.160106	3882.579167	1375.465820	239.948395
13270.160106	3882.579167	1374.381836	145.204544
13270.160106	3882.579167	1373.296875	245.976410
13270.160106	3882.579167	1372.211914	153.894562
13270.160106	3882.579167	1371.126953	26.556423
13270.160106	3882.579167	1370.041016	228.269501
13270.160106	3882.579167	1368.955078	144.564041
13270.160106	3882.579167	1367.869141	369.453430
13270.160106	3882.579167	1366.783203	346.200989
13270.160106	3882.579167	1365.697266	253.755615
13270.160106	3882.579167	1364.610352	64.771515
13270.160106	3882.579167	1363.523438	136.236740
13270.160106	3882.579167	1362.436523	57.908718
13270.160106	3882.579167	1361.349609	336.525299
13270.160106	3882.579167	1360.261719	292.241516
13270.160106	3882.579167	1359.174805	247.879028
13270.160106	3882.579167	1358.086914	314.562927
13270.160106	3882.579167	1356.998047	373.670349
13270.160106	3882.579167	1355.910156	354.011810
13270.160106	3882.579167	1354.821289	418.930511
13270.160106	3882.579167	1353.732422	508.342010
13270.160106	3882.579167	1352.643555	278.616882
13270.160106	3882.579167	1351.554688	232.565063
13270.160106	3882.579167	1350.464844	342.657806
13270.160106	3882.579167	1349.375000	310.663300
13270.160106	3882.579167	1348.285156	253.030151
13270.160106	3882.579167	1347.195313	79.275284
13270.160106	3882.579167	1346.105469	356.212463
13270.160106	3882.579167	1345.014648	52.116642
13270.160106	3882.579167	1343.923828	261.639648
13270.160106	3882.579167	1342.833008	229.520950
13270.160106	3882.579167	1341.741211	409.557587
13270.160106	3882.579167	1340.650391	384.159363
13270.160106	3882.579167	1339.558594	306.247375
13270.160106	3882.579167	1338.466797	407.228180
13270.160106	3882.579167	1337.374023	438.151428
13270.160106	3882.579167	1336.282227	395.925262
13270.160106	3882.579167	1335.189453	570.851257
13270.160106	3882.579167	1334.096680	482.256866
13270.160106	3882.579167	1333.003906	367.278015
13270.160106	3882.579167	1331.910156	388.039520
13270.160106	3882.579167	1330.817383	350.371185
13270.160106	3882.579167	1329.723633	305.959290
13270.160106	3882.579167	1328.629883	236.565887
13270.160106	3882.579167	1327.535156	172.951233
13270.160106	3882.579167	1326.441406	190.027527
13270.160106	3882.579167	1325.346680	144.517715
13270.160106	3882.579167	1324.251953	-26.945988
13270.160106	3882.579167	1323.156250	232.739273
13270.160106	3882.579167	1322.061523	-121.226952
13270.160106	3882.579167	1320.965820	-2.784231
13270.160106	3882.579167	1319.870117	72.105026
13270.160106	3882.579167	1318.774414	-109.982155
13270.160106	3882.579167	1317.678711	-98.423851
13270.160106	3882.579167	1316.582031	84.383842
13270.160106	3882.579167	1315.485352	9.751115
13270.160106	3882.579167	1314.388672	-63.403271
13270.160106	3882.579167	1313.291016	-326.655579
13270.160106	3882.579167	1312.194336	143.866959
13270.160106	3882.579167	1311.096680	30.881330
13270.160106	3882.579167	1309.999023	12.430108
13270.160106	3882.579167	1308.901367	235.068695
13270.160106	3882.579167	1307.802734	299.343719
13270.160106	3882.579167	1306.705078	344.359436
13270.160106	3882.579167	1305.606445	610.827759
13270.160106	3882.579167	1304.506836	733.765442
13270.160106	3882.579167	1303.408203	604.986633
13270.160106	3882.579167	1302.308594	582.034241
13270.160106	3882.579167	1301.208984	694.252991
13270.160106	3882.579167	1300.109375	896.004822
13270.160106	3882.579167	1299.009766	878.505188
13270.160106	3882.579167	1297.909180	1037.716064
13270.160106	3882.579167	1296.808594	889.235596
13270.160106	3882.579167	1295.708008	1057.066040
13270.160106	3882.579167	1294.607422	991.590698
13270.160106	3882.579167	1293.506836	1104.970337
13270.160106	3882.579167	1292.405273	971.755737
13270.160106	3882.579167	1291.303711	1144.600464
13270.160106	3882.579167	1290.202148	1200.116211
13270.160106	3882.579167	1289.099609	1362.987183
13270.160106	3882.579167	1287.998047	1427.920898
13270.160106	3882.579167	1286.895508	1380.730469
13270.160106	3882.579167	1285.792969	1590.826294
13270.160106	3882.579167	1284.689453	1700.151001
13270.160106	3882.579167	1283.586914	1887.812988
13270.160106	3882.579167	1282.483398	1912.333862
13270.160106	3882.579167	1281.379883	1987.031372
13270.160106	3882.579167	1280.276367	1788.581787
13270.160106	3882.579167	1279.171875	1665.799316
13270.160106	3882.579167	1278.067383	1350.612793
13270.160106	3882.579167	1276.962891	1466.028442
13270.160106	3882.579167	1275.858398	921.110962
13270.160106	3882.579167	1274.753906	1007.452332
13270.160106	3882.579167	1273.648438	643.543274
13270.160106	3882.579167	1272.542969	655.709351
13270.160106	3882.579167	1271.437500	688.319946
13270.160106	3882.579167	1270.331055	499.861115
13270.160106	3882.579167	1269.225586	445.243225
13270.160106	3882.579167	1268.119141	546.946289
13270.160106	3882.579167	1267.012695	413.325348
13270.160106	3882.579167	1265.906250	340.543671
13270.160106	3882.579167	1264.798828	338.689575
13270.160106	3882.579167	1263.691406	43.774918
13270.160106	3882.579167	1262.583984	88.818390
13270.160106	3882.579167	1261.476563	242.105255
13270.160106	3882.579167	1260.368164	337.367859
13270.160106	3882.579167	1259.260742	286.773865
13270.160106	3882.579167	1258.152344	464.427490
13270.160106	3882.579167	1257.043945	411.788086
13270.160106	3882.579167	1255.934570	296.037598
13270.160106	3882.579167	1254.825195	440.828369
13270.160106	3882.579167	1253.716797	272.612183
13270.160106	3882.579167	1252.606445	385.521362
13270.160106	3882.579167	1251.497070	486.351379
13270.160106	3882.579167	1250.387695	572.823425
13270.160106	3882.579167	1249.277344	390.626007
13270.160106	3882.579167	1248.166992	444.608917
13270.160106	3882.579167	1247.055664	498.928619
13270.160106	3882.579167	1245.945313	434.635681
13270.160106	3882.579167	1244.833984	386.017578
13270.160106	3882.579167	1243.722656	512.836853
13270.160106	3882.579167	1242.611328	503.339569
13270.160106	3882.579167	1241.499023	407.321228
13270.160106	3882.579167	1240.387695	412.070679
13270.160106	3882.579167	1239.275391	430.183899
13270.160106	3882.579167	1238.162109	356.132813
13270.160106	3882.579167	1237.049805	405.022095
13270.160106	3882.579167	1235.936523	343.310547
13270.160106	3882.579167	1234.823242	423.977692
13270.160106	3882.579167	1233.709961	441.298828
13270.160106	3882.579167	1232.596680	449.784576
13270.160106	3882.579167	1231.482422	498.065155
13270.160106	3882.579167	1230.369141	458.707092
13270.160106	3882.579167	1229.253906	602.779114
13270.160106	3882.579167	1228.139648	524.703491
13270.160106	3882.579167	1227.025391	473.758881
13270.160106	3882.579167	1225.910156	536.453735
13270.160106	3882.579167	1224.794922	479.494354
13270.160106	3882.579167	1223.679688	461.672546
13270.160106	3882.579167	1222.563477	473.205963
13270.160106	3882.579167	1221.447266	412.475464
13270.160106	3882.579167	1220.331055	472.846100
13270.160106	3882.579167	1219.214844	395.176117
13270.160106	3882.579167	1218.098633	389.096222
13270.160106	3882.579167	1216.981445	442.375061
13270.160106	3882.579167	1215.864258	411.469391
13270.160106	3882.579167	1214.747070	513.422913
13270.160106	3882.579167	1213.629883	580.348755
13270.160106	3882.579167	1212.511719	619.075378
13270.160106	3882.579167	1211.393555	501.926392
13270.160106	3882.579167	1210.275391	660.048157
13270.160106	3882.579167	1209.157227	774.186462
13270.160106	3882.579167	1208.038086	888.359497
13270.160106	3882.579167	1206.918945	936.721619
13270.160106	3882.579167	1205.799805	1049.334351
13270.160106	3882.579167	1204.680664	1216.793945
13270.160106	3882.579167	1203.560547	1347.790649
13270.160106	3882.579167	1202.441406	1438.852905
13270.160106	3882.579167	1201.321289	1411.271240
13270.160106	3882.579167	1200.200195	1423.189941
13270.160106	3882.579167	1199.080078	1357.877686
13270.160106	3882.579167	1197.958984	1503.249146
13270.160106	3882.579167	1196.837891	1407.265137
13270.160106	3882.579167	1195.716797	1454.696045
13270.160106	3882.579167	1194.594727	1594.108887
13270.160106	3882.579167	1193.473633	1564.317993
13270.160106	3882.579167	1192.351563	1458.358521
13270.160106	3882.579167	1191.229492	1558.007324
13270.160106	3882.579167	1190.106445	1675.777100
13270.160106	3882.579167	1188.984375	1830.348267
13270.160106	3882.579167	1187.861328	1812.714722
13270.160106	3882.579167	1186.738281	1735.849976
13270.160106	3882.579167	1185.614258	1722.702148
13270.160106	3882.579167	1184.491211	1639.747437
13270.160106	3882.579167	1183.367188	1785.075684
13270.160106	3882.579167	1182.243164	1793.515625
13270.160106	3882.579167	1181.119141	1793.989014
13270.160106	3882.579167	1179.994141	1616.867798
13270.160106	3882.579167	1178.869141	1806.520874
13270.160106	3882.579167	1177.744141	1645.526245
13270.160106	3882.579167	1176.619141	1798.037964
13270.160106	3882.579167	1175.493164	1880.674927
13270.160106	3882.579167	1174.368164	1877.473145
13270.160106	3882.579167	1173.242188	1929.824219
13270.160106	3882.579167	1172.115234	1857.944458
13270.160106	3882.579167	1170.989258	1956.583008
13270.160106	3882.579167	1169.862305	2040.317627
13270.160106	3882.579167	1168.735352	2194.897217
13270.160106	3882.579167	1167.608398	2126.830566
13270.160106	3882.579167	1166.481445	2315.314697
13270.160106	3882.579167	1165.353516	2085.908691
13270.160106	3882.579167	1164.225586	1963.075806
13270.160106	3882.579167	1163.097656	2099.087158
13270.160106	3882.579167	1161.968750	1993.402344
13270.160106	3882.579167	1160.840820	1855.464233
13270.160106	3882.579167	1159.711914	1803.733032
13270.160106	3882.579167	1158.583008	1648.796753
13270.160106	3882.579167	1157.453125	1739.170654
13270.160106	3882.579167	1156.324219	1729.813354
13270.160106	3882.579167	1155.194336	1498.644653
13270.160106	3882.579167	1154.064453	1568.928955
13270.160106	3882.579167	1152.933594	1529.624146
13270.160106	3882.579167	1151.803711	1502.502075
13270.160106	3882.579167	1150.672852	1514.963745
13270.160106	3882.579167	1149.541992	1625.618164
13270.160106	3882.579167	1148.411133	1651.628418
13270.160106	3882.579167	1147.279297	1569.491333
13270.160106	3882.579167	1146.147461	1684.701294
13270.160106	3882.579167	1145.015625	1753.207153
13270.160106	3882.579167	1143.883789	1880.938843
13270.160106	3882.579167	1142.750977	1835.855957
13270.160106	3882.579167	1141.619141	1856.266602
13270.160106	3882.579167	1140.486328	1753.996460
13270.160106	3882.579167	1139.352539	1652.052124
13270.160106	3882.579167	1138.219727	1704.814453
13270.160106	3882.579167	1137.085938	1753.094971
13270.160106	3882.579167	1135.952148	1588.894165
13270.160106	3882.579167	1134.818359	1419.662476
13270.160106	3882.579167	1133.683594	1364.248535
13270.160106	3882.579167	1132.549805	1345.932617
13270.160106	3882.579167	1131.415039	1278.570313
13270.160106	3882.579167	1130.279297	1169.762085
13270.160106	3882.579167	1129.144531	1224.807251
13270.160106	3882.579167	1128.008789	1141.694580
13270.160106	3882.579167	1126.873047	1060.949951
13270.160106	3882.579167	1125.737305	1131.261963
13270.160106	3882.579167	1124.601563	1151.261719
13270.160106	3882.579167	1123.464844	1110.219116
13270.160106	3882.579167	1122.328125	1093.090088
13270.160106	3882.579167	1121.191406	965.036865
13270.160106	3882.579167	1120.054688	1010.501099
13270.160106	3882.579167	1118.916992	870.909668
13270.160106	3882.579167	1117.779297	948.455200
13270.160106	3882.579167	1116.641602	715.953308
13270.160106	3882.579167	1115.503906	549.273438
13270.160106	3882.579167	1114.365234	500.095123
13270.160106	3882.579167	1113.226563	358.225555
13270.160106	3882.579167	1112.087891	238.196335
13270.160106	3882.579167	1110.949219	283.241180
13270.160106	3882.579167	1109.809570	344.317535
13270.160106	3882.579167	1108.669922	207.516342
13270.160106	3882.579167	1107.530273	165.522522
13270.160106	3882.579167	1106.390625	103.344284
13270.160106	3882.579167	1105.250000	141.802933
13270.160106	3882.579167	1104.109375	215.091461
13270.160106	3882.579167	1102.968750	230.265961
13270.160106	3882.579167	1101.828125	72.286858
13270.160106	3882.579167	1100.686523	72.573654
13270.160106	3882.579167	1099.544922	60.074753
13270.160106	3882.579167	1098.403320	145.497681
13270.160106	3882.579167	1097.261719	33.020702
13270.160106	3882.579167	1096.120117	133.123840
13270.160106	3882.579167	1094.977539	147.100082
13270.160106	3882.579167	1093.834961	188.141678
13270.160106	3882.579167	1092.691406	349.925171
13270.160106	3882.579167	1091.548828	291.640137
13270.160106	3882.579167	1090.405273	432.438782
13270.160106	3882.579167	1089.261719	505.054962
13270.160106	3882.579167	1088.118164	504.218842
13270.160106	3882.579167	1086.973633	602.444214
13270.160106	3882.579167	1085.829102	618.710510
13270.160106	3882.579167	1084.684570	757.823181
13270.160106	3882.579167	1083.540039	587.636414
13270.160106	3882.579167	1082.395508	668.572876
13270.160106	3882.579167	1081.250000	780.555847
13270.160106	3882.579167	1080.104492	701.958191
13270.160106	3882.579167	1078.958984	611.105896
13270.160106	3882.579167	1077.812500	571.056702
13270.160106	3882.579167	1076.666016	596.877258
13270.160106	3882.579167	1075.519531	451.275452
13270.160106	3882.579167	1074.373047	375.677887
13270.160106	3882.579167	1073.226563	332.404785
13270.160106	3882.579167	1072.079102	198.854141
13270.160106	3882.579167	1070.931641	191.942963
13270.160106	3882.579167	1069.784180	79.685875
13270.160106	3882.579167	1068.635742	56.012676
13270.160106	3882.579167	1067.487305	59.289143
13270.160106	3882.579167	1066.338867	145.302399
13270.160106	3882.579167	1065.190430	-69.558838
13270.160106	3882.579167	1064.041992	76.868576
13270.160106	3882.579167	1062.892578	36.703217
13270.160106	3882.579167	1061.743164	53.116409
13270.160106	3882.579167	1060.593750	65.162956
13270.160106	3882.579167	1059.443359	-13.174719
13270.160106	3882.579167	1058.292969	-96.069489
13270.160106	3882.579167	1057.142578	-108.635437
13270.160106	3882.579167	1055.992188	-1.767870
13270.160106	3882.579167	1054.841797	-84.871849
13270.160106	3882.579167	1053.690430	-21.077961
13270.160106	3882.579167	1052.539063	107.825607
13270.160106	3882.579167	1051.387695	-136.384491
13270.160106	3882.579167	1050.235352	68.256416
13270.160106	3882.579167	1049.083984	-42.625599
13270.160106	3882.579167	1047.931641	-27.019550
13270.160106	3882.579167	1046.778320	-85.147255
13270.160106	3882.579167	1045.625977	-23.057384
13270.160106	3882.579167	1044.472656	-69.027969
13270.160106	3882.579167	1043.319336	-152.292984
13270.160106	3882.579167	1042.166016	10.517151
13270.160106	3882.579167	1041.012695	20.002506
13270.160106	3882.579167	1039.858398	67.853996
13270.160106	3882.579167	1038.704102	44.167496
13270.160106	3882.579167	1037.549805	104.173019
13270.160106	3882.579167	1036.394531	161.382324
13270.160106	3882.579167	1035.239258	265.349884
13270.160106	3882.579167	1034.083984	256.455139
13270.160106	3882.579167	1032.928711	352.638214
13270.160106	3882.579167	1031.773438	250.012970
13270.160106	3882.579167	1030.617188	366.446899
13270.160106	3882.579167	1029.460938	263.091125
13270.160106	3882.579167	1028.304688	241.094711
13270.160106	3882.579167	1027.147461	220.205597
13270.160106	3882.579167	1025.991211	229.236649
13270.160106	3882.579167	1024.833984	160.106598
13270.160106	3882.579167	1023.675781	155.017853
13270.160106	3882.579167	1022.518555	24.301018
13270.160106	3882.579167	1021.360352	-53.903496
13270.160106	3882.579167	1020.202148	-18.416679
13270.160106	3882.579167	1019.043945	-41.419296
13270.160106	3882.579167	1017.884766	-99.901031
13270.160106	3882.579167	1016.726563	-136.475708
13270.160106	3882.579167	1015.567383	-119.052429
13270.160106	3882.579167	1014.407227	-5.402220
13270.160106	3882.579167	1013.248047	1.501819
13270.160106	3882.579167	1012.087891	33.581669
13270.160106	3882.579167	1010.927734	79.158531
13270.160106	3882.579167	1009.767578	86.113327
13270.160106	3882.579167	1008.606445	207.386810
13270.160106	3882.579167	1007.446289	209.957932
13270.160106	3882.579167	1006.285156	181.597626
13270.160106	3882.579167	1005.123047	206.448105
13270.160106	3882.579167	1003.961914	421.604645
13270.160106	3882.579167	1002.799805	543.007141
13270.160106	3882.579167	1001.637695	453.889526
13270.160106	3882.579167	1000.475586	600.359375
13270.160106	3882.579167	999.312500	676.861145
13270.160106	3882.579167	998.149414	657.799255
13270.160106	3882.579167	996.986328	589.647644
13270.160106	3882.579167	995.823242	783.806030
13270.160106	3882.579167	994.659180	793.229919
13270.160106	3882.579167	993.496094	735.091125
13270.160106	3882.579167	992.332031	691.731995
13270.160106	3882.579167	991.166992	740.204102
13270.160106	3882.579167	990.002930	747.839600
13270.160106	3882.579167	988.837891	769.861511
13270.160106	3882.579167	987.672852	930.972900
13270.160106	3882.579167	986.506836	952.240601
13270.160106	3882.579167	985.341797	1030.529419
13270.160106	3882.579167	984.175781	1065.643066
13270.160106	3882.579167	983.009766	1002.708374
13270.160106	3882.579167	981.843750	1020.213074
13270.160106	3882.579167	980.676758	985.920593
13270.160106	3882.579167	979.509766	1073.371094
13270.160106	3882.579167	978.342773	977.429565
13270.160106	3882.579167	977.175781	958.945313
13270.160106	3882.579167	976.007813	945.778625
13270.160106	3882.579167	974.839844	901.700073
13270.160106	3882.579167	973.671875	951.808044
13270.160106	3882.579167	972.503906	953.599304
13270.160106	3882.579167	971.334961	921.625183
13270.160106	3882.579167	970.166016	841.007446
13270.160106	3882.579167	968.997070	708.303528
13270.160106	3882.579167	967.828125	732.310120
13270.160106	3882.579167	966.658203	796.483276
13270.160106	3882.579167	965.488281	802.932739
13270.160106	3882.579167	964.318359	826.495361
13270.160106	3882.579167	963.148438	941.324402
13270.160106	3882.579167	961.977539	897.008972
13270.160106	3882.579167	960.806641	960.540588
13270.160106	3882.579167	959.635742	949.701355
13270.160106	3882.579167	958.463867	976.045959
13270.160106	3882.579167	957.292969	910.515747
13270.160106	3882.579167	956.121094	859.527466
13270.160106	3882.579167	954.948242	903.030823
13270.160106	3882.579167	953.776367	838.388184
13270.160106	3882.579167	952.603516	813.387512
13270.160106	3882.579167	951.430664	716.600586
13270.160106	3882.579167	950.257813	783.799194
13270.160106	3882.579167	949.084961	819.544800
13270.160106	3882.579167	947.911133	868.832336
13270.160106	3882.579167	946.737305	901.965759
13270.160106	3882.579167	945.563477	961.198242
13270.160106	3882.579167	944.388672	933.335693
13270.160106	3882.579167	943.213867	974.374023
13270.160106	3882.579167	942.039063	958.115295
13270.160106	3882.579167	940.864258	1103.639893
13270.160106	3882.579167	939.688477	1189.753052
13270.160106	3882.579167	938.513672	1174.755859
13270.160106	3882.579167	937.337891	1191.798706
13270.160106	3882.579167	936.161133	1329.016479
13270.160106	3882.579167	934.985352	1265.493042
13270.160106	3882.579167	933.808594	1202.541260
13270.160106	3882.579167	932.631836	1232.359741
13270.160106	3882.579167	931.454102	1251.146606
13270.160106	3882.579167	930.277344	1286.495850
13270.160106	3882.579167	929.099609	1206.357788
13270.160106	3882.579167	927.921875	1209.809692
13270.160106	3882.579167	926.743164	1067.437866
13270.160106	3882.579167	925.565430	1145.098145
13270.160106	3882.579167	924.386719	1156.416748
13270.160106	3882.579167	923.208008	1045.941040
13270.160106	3882.579167	922.028320	1051.190552
13270.160106	3882.579167	920.849609	1120.826904
13270.160106	3882.579167	919.669922	1121.145264
13270.160106	3882.579167	919.474609	1077.031250
13270.160106	3882.579167	918.309570	1011.547729
13270.160106	3882.579167	917.143555	1092.280884
13270.160106	3882.579167	915.977539	1081.092285
13270.160106	3882.579167	914.810547	887.962708
13270.160106	3882.579167	913.644531	841.842346
13270.160106	3882.579167	912.477539	959.990784
13270.160106	3882.579167	911.310547	985.455750
13270.160106	3882.579167	910.143555	959.583557
13270.160106	3882.579167	908.975586	846.905090
13270.160106	3882.579167	907.807617	801.824951
13270.160106	3882.579167	906.639648	891.143494
13270.160106	3882.579167	905.471680	838.390564
13270.160106	3882.579167	904.303711	898.542419
13270.160106	3882.579167	903.134766	868.650085
13270.160106	3882.579167	901.965820	840.295349
13270.160106	3882.579167	900.796875	813.479919
13270.160106	3882.579167	899.626953	803.038635
13270.160106	3882.579167	898.457031	791.659241
13270.160106	3882.579167	897.287109	743.916504
13270.160106	3882.579167	896.117188	715.024109
13270.160106	3882.579167	894.947266	859.796143
13270.160106	3882.579167	893.776367	960.755615
13270.160106	3882.579167	892.605469	1045.100464
13270.160106	3882.579167	891.434570	1046.175049
13270.160106	3882.579167	890.262695	1196.900757
13270.160106	3882.579167	889.091797	1210.894043
13270.160106	3882.579167	887.919922	1256.031860
13270.160106	3882.579167	886.748047	1207.298706
13270.160106	3882.579167	885.575195	1313.054810
13270.160106	3882.579167	884.403320	1237.002686
13270.160106	3882.579167	883.230469	1321.966675
13270.160106	3882.579167	882.057617	1258.894409
13270.160106	3882.579167	880.883789	1390.452637
13270.160106	3882.579167	879.710938	1387.164917
13270.160106	3882.579167	878.537109	1527.492310
13270.160106	3882.579167	877.362305	1611.839966
13270.160106	3882.579167	876.188477	1649.280396
13270.160106	3882.579167	875.013672	1565.975830
13270.160106	3882.579167	873.839844	1509.702271
13270.160106	3882.579167	872.664063	1299.136597
13270.160106	3882.579167	871.489258	1255.895630
13270.160106	3882.579167	870.313477	1129.768799
13270.160106	3882.579167	869.138672	1032.314941
13270.160106	3882.579167	867.962891	993.018799
13270.160106	3882.579167	866.786133	1059.376953
13270.160106	3882.579167	865.610352	1083.033691
13270.160106	3882.579167	864.433594	1009.125488
13270.160106	3882.579167	863.256836	1017.897339
13270.160106	3882.579167	862.079102	1015.950500
13270.160106	3882.579167	860.902344	1115.457886
13270.160106	3882.579167	859.724609	1023.327087
13270.160106	3882.579167	858.546875	979.454651
13270.160106	3882.579167	857.368164	969.080322
13270.160106	3882.579167	856.190430	898.124451
13270.160106	3882.579167	855.011719	845.129211
13270.160106	3882.579167	853.833008	880.408081
13270.160106	3882.579167	852.654297	844.497192
13270.160106	3882.579167	851.474609	785.660339
13270.160106	3882.579167	850.294922	792.987793
13270.160106	3882.579167	849.115234	756.963684
13270.160106	3882.579167	847.935547	814.842712
13270.160106	3882.579167	846.754883	936.348633
13270.160106	3882.579167	845.575195	860.993408
13270.160106	3882.579167	844.393555	779.087097
13270.160106	3882.579167	843.212891	686.571228
13270.160106	3882.579167	842.032227	822.530762
13270.160106	3882.579167	840.850586	913.524292
13270.160106	3882.579167	839.668945	839.685181
13270.160106	3882.579167	838.486328	803.352173
13270.160106	3882.579167	837.304688	846.093262
13270.160106	3882.579167	836.122070	873.295105
13270.160106	3882.579167	834.939453	763.542419
13270.160106	3882.579167	833.756836	725.513550
13270.160106	3882.579167	832.573242	665.476013
13270.160106	3882.579167	831.389648	703.992920
13270.160106	3882.579167	830.206055	579.611938
13270.160106	3882.579167	829.022461	645.772217
13270.160106	3882.579167	827.838867	676.887695
13270.160106	3882.579167	826.654297	685.183533
13270.160106	3882.579167	825.469727	551.890015
13270.160106	3882.579167	824.284180	412.127838
13270.160106	3882.579167	823.099609	456.223145
13270.160106	3882.579167	821.914063	269.357086
13270.160106	3882.579167	820.728516	194.750168
13270.160106	3882.579167	819.542969	153.494843
13270.160106	3882.579167	818.356445	76.491104
13270.160106	3882.579167	817.169922	108.387169
13270.160106	3882.579167	815.983398	90.720810
13270.160106	3882.579167	814.796875	129.911606
13270.160106	3882.579167	813.609375	58.657364
13270.160106	3882.579167	812.422852	32.903229
13270.160106	3882.579167	811.235352	91.569565
13270.160106	3882.579167	810.046875	30.118908
13270.160106	3882.579167	808.859375	24.686752
13270.160106	3882.579167	807.670898	-29.404167
13270.160106	3882.579167	806.482422	-51.022362
13270.160106	3882.579167	805.293945	-40.997353
13270.160106	3882.579167	804.104492	19.293486
13270.160106	3882.579167	802.915039	-26.593626
13270.160106	3882.579167	801.725586	-66.769493
13270.160106	3882.579167	800.536133	14.607220
13270.160106	3882.579167	799.345703	102.446266
13270.160106	3882.579167	798.155273	42.893593
13270.160106	3882.579167	796.964844	19.821754
13270.160106	3882.579167	795.774414	-7.260989
13270.160106	3882.579167	794.583008	-91.769051
13270.160106	3882.579167	793.392578	-110.670105
13270.160106	3882.579167	792.200195	-174.843979
13270.160106	3882.579167	791.008789	-110.359245
13270.160106	3882.579167	789.816406	-140.479675
13270.160106	3882.579167	788.625000	16.200811
13270.160106	3882.579167	787.432617	184.162674
13270.160106	3882.579167	786.239258	167.840912
13270.160106	3882.579167	785.046875	164.495880
13270.160106	3882.579167	783.853516	47.291756
13270.160106	3882.579167	782.660156	-55.285210
13270.160106	3882.579167	781.465820	132.086105
13270.160106	3882.579167	780.272461	7.824869
13270.160106	3882.579167	779.078125	48.302536
13270.160106	3882.579167	777.883789	53.304943
13270.160106	3882.579167	776.688477	185.009750
13270.160106	3882.579167	775.494141	62.636524
13270.160106	3882.579167	774.298828	165.351898
13270.160106	3882.579167	773.103516	118.918045
13270.160106	3882.579167	771.907227	62.878948
13270.160106	3882.579167	770.711914	-37.405643
13270.160106	3882.579167	769.515625	132.330826
13270.160106	3882.579167	768.318359	-66.911430
13270.160106	3882.579167	767.122070	10.248514
13270.160106	3882.579167	765.924805	126.888947
13270.160106	3882.579167	764.727539	130.827255
13270.160106	3882.579167	763.530273	150.921860
13270.160106	3882.579167	762.333008	22.190308
13270.160106	3882.579167	761.134766	-37.235226
13270.160106	3882.579167	759.936523	-79.680222
13270.160106	3882.579167	758.738281	-27.946505
13270.160106	3882.579167	757.540039	-8.332982
13270.160106	3882.579167	756.340820	-69.860687
13270.160106	3882.579167	755.141602	126.706146
13270.160106	3882.579167	753.942383	98.257011
13270.160106	3882.579167	752.742188	212.892090
13270.160106	3882.579167	751.541992	223.929916
13270.160106	3882.579167	750.341797	242.261887
13270.160106	3882.579167	749.141602	227.737366
13270.160106	3882.579167	747.941406	333.701843
13270.160106	3882.579167	746.740234	338.566223
13270.160106	3882.579167	745.539063	212.711105
13270.160106	3882.579167	744.337891	150.357910
13270.160106	3882.579167	743.135742	72.863937
13270.160106	3882.579167	741.933594	83.686737
13270.160106	3882.579167	740.731445	29.641346
13270.160106	3882.579167	739.529297	75.890457
13270.160106	3882.579167	738.326172	175.889236
13270.160106	3882.579167	737.124023	86.033745
13270.160106	3882.579167	735.919922	323.125031
13270.160106	3882.579167	734.716797	446.471436
13270.160106	3882.579167	733.513672	585.058411
13270.160106	3882.579167	732.309570	665.225098
13270.160106	3882.579167	731.105469	676.604004
13270.160106	3882.579167	729.900391	682.455261
13270.160106	3882.579167	728.696289	518.773560
13270.160106	3882.579167	727.491211	452.828796
13270.160106	3882.579167	726.286133	534.942566
13270.160106	3882.579167	725.080078	463.587128
13270.160106	3882.579167	723.874023	496.266571
13270.160106	3882.579167	722.668945	688.062744
13270.160106	3882.579167	721.461914	687.285706
13270.160106	3882.579167	720.255859	663.426697
13270.160106	3882.579167	719.048828	612.503418
13270.160106	3882.579167	717.841797	520.161133
13270.160106	3882.579167	716.634766	579.636292
13270.160106	3882.579167	715.427734	398.106812
13270.160106	3882.579167	714.219727	251.055038
13270.160106	3882.579167	713.011719	301.227386
13270.160106	3882.579167	711.803711	179.954025
13270.160106	3882.579167	710.594727	129.798538
13270.160106	3882.579167	709.385742	86.925987
13270.160106	3882.579167	708.176758	185.265076
13270.160106	3882.579167	706.967773	146.555008
13270.160106	3882.579167	705.758789	-45.852722
13270.160106	3882.579167	704.548828	-103.449921
13270.160106	3882.579167	703.338867	-78.891335
13270.160106	3882.579167	702.127930	-20.810284
13270.160106	3882.579167	700.917969	-43.086975
13270.160106	3882.579167	699.707031	-114.623642
13270.160106	3882.579167	698.496094	-49.153511
13270.160106	3882.579167	697.285156	-37.734440
13270.160106	3882.579167	696.073242	-92.267097
13270.160106	3882.579167	694.861328	-8.294572
13270.160106	3882.579167	693.649414	66.978737
13270.160106	3882.579167	692.436523	69.955025
13270.160106	3882.579167	691.224609	75.398300
13270.160106	3882.579167	690.011719	25.293972
13270.160106	3882.579167	688.798828	84.145370
13270.160106	3882.579167	687.584961	160.531631
13270.160106	3882.579167	686.372070	157.547180
13270.160106	3882.579167	685.158203	148.293121
13270.160106	3882.579167	683.943359	140.713486
13270.160106	3882.579167	682.729492	183.221588
13270.160106	3882.579167	681.514648	190.082901
13270.160106	3882.579167	680.299805	187.501297
13270.160106	3882.579167	679.084961	238.939102
13270.160106	3882.579167	677.869141	310.260956
13270.160106	3882.579167	676.653320	371.323761
13270.160106	3882.579167	675.437500	496.648407
13270.160106	3882.579167	674.221680	576.823120
13270.160106	3882.579167	673.004883	562.748718
13270.160106	3882.579167	671.789063	563.015015
13270.160106	3882.579167	670.571289	448.513702
13270.160106	3882.579167	669.354492	581.198242
13270.160106	3882.579167	668.136719	436.805054
13270.160106	3882.579167	666.919922	539.505188
13270.160106	3882.579167	665.701172	544.899109
13270.160106	3882.579167	664.483398	596.250977
13270.160106	3882.579167	663.264648	724.384399
13270.160106	3882.579167	662.045898	855.697388
13270.160106	3882.579167	660.827148	830.464417
13270.160106	3882.579167	659.608398	874.087952
13270.160106	3882.579167	658.388672	807.109863
13270.160106	3882.579167	657.168945	811.345825
13270.160106	3882.579167	655.949219	725.582031
13270.160106	3882.579167	654.728516	817.641846
13270.160106	3882.579167	653.507813	705.193054
13270.160106	3882.579167	652.287109	678.914490
13270.160106	3882.579167	651.066406	681.127319
13270.160106	3882.579167	649.844727	844.399109
13270.160106	3882.579167	648.623047	880.627075
13270.160106	3882.579167	647.401367	961.076721
13270.160106	3882.579167	646.179688	1029.718628
13270.160106	3882.579167	644.957031	1155.165405
13270.160106	3882.579167	643.734375	1159.994629
13270.160106	3882.579167	642.511719	1387.149414
13270.160106	3882.579167	641.289063	1351.057495
13270.160106	3882.579167	640.065430	1533.275757
13270.160106	3882.579167	638.841797	1774.545776
13270.160106	3882.579167	637.618164	1846.443237
13270.160106	3882.579167	636.393555	1961.667114
13270.160106	3882.579167	635.168945	2126.483887
13270.160106	3882.579167	633.944336	2282.620117
13270.160106	3882.579167	632.719727	2089.365234
13270.160106	3882.579167	631.494141	2084.259766
13270.160106	3882.579167	630.269531	2026.499268
13270.160106	3882.579167	629.042969	1795.808594
13270.160106	3882.579167	627.817383	1801.114380
13270.160106	3882.579167	626.590820	1557.285522
13270.160106	3882.579167	625.365234	1541.497070
13270.160106	3882.579167	624.137695	1480.186646
13270.160106	3882.579167	622.911133	1434.644531
13270.160106	3882.579167	621.683594	1469.266113
13270.160106	3882.579167	620.456055	1483.490234
13270.160106	3882.579167	619.228516	1455.346802
13270.160106	3882.579167	618.000977	1431.168335
13270.160106	3882.579167	616.772461	1307.374634
13270.160106	3882.579167	615.543945	1437.065552
13270.160106	3882.579167	614.314453	1300.043701
13270.160106	3882.579167	613.085938	1357.582520
13270.160106	3882.579167	611.856445	1186.968140
13270.160106	3882.579167	610.626953	1105.808350
13270.160106	3882.579167	609.397461	1197.900269
13270.160106	3882.579167	608.166992	1015.737183
13270.160106	3882.579167	606.936523	1079.646240
13270.160106	3882.579167	605.706055	935.994080
13270.160106	3882.579167	604.474609	951.376343
13270.160106	3882.579167	603.244141	1017.647217
13270.160106	3882.579167	602.012695	1106.602783
13270.160106	3882.579167	600.780273	1031.198853
13270.160106	3882.579167	599.548828	1025.463013
13270.160106	3882.579167	598.316406	953.252136
13270.160106	3882.579167	597.083984	1100.046875
13270.160106	3882.579167	595.851563	1081.025146
13270.160106	3882.579167	594.618164	1167.546387
13270.160106	3882.579167	593.384766	1117.261841
13270.160106	3882.579167	592.151367	1168.575439
13270.160106	3882.579167	590.917969	1161.274536
13270.160106	3882.579167	589.683594	1150.850342
13270.160106	3882.579167	588.449219	1175.563477
13270.160106	3882.579167	587.214844	1298.628418
13270.160106	3882.579167	585.979492	1423.196167
13270.160106	3882.579167	584.745117	1404.108276
13270.160106	3882.579167	583.509766	1673.696045
13270.160106	3882.579167	582.273438	1678.724487
13270.160106	3882.579167	581.038086	1780.436523
13270.160106	3882.579167	579.801758	1773.711182
13270.160106	3882.579167	578.565430	1825.437256
13270.160106	3882.579167	577.329102	1591.869019
13270.160106	3882.579167	576.091797	1440.978027
13270.160106	3882.579167	574.854492	1321.290649
13270.160106	3882.579167	573.617188	988.216736
13270.160106	3882.579167	572.378906	1015.806580
13270.160106	3882.579167	571.141602	849.495850
13270.160106	3882.579167	569.903320	755.620361
13270.160106	3882.579167	568.664063	636.076111
13270.160106	3882.579167	567.425781	506.433472
13270.160106	3882.579167	566.186523	454.604431
13270.160106	3882.579167	564.947266	384.097137
13270.160106	3882.579167	563.708008	289.480469
13270.160106	3882.579167	562.467773	275.716919
13270.160106	3882.579167	561.227539	381.611603
13270.160106	3882.579167	559.987305	391.843781
13270.160106	3882.579167	558.747070	385.714813
13270.160106	3882.579167	557.505859	422.267120
13270.160106	3882.579167	556.264648	528.648865
13270.160106	3882.579167	555.023438	513.822449
13270.160106	3882.579167	553.781250	568.818542
13270.160106	3882.579167	552.539063	444.471954
13270.160106	3882.579167	551.296875	545.136780
13270.160106	3882.579167	550.054688	677.511963
13270.160106	3882.579167	548.811523	750.836975
13270.160106	3882.579167	547.569336	886.105408
13270.160106	3882.579167	546.325195	852.265869
13270.160106	3882.579167	545.082031	751.725647
13270.160106	3882.579167	543.837891	692.243225
13270.160106	3882.579167	542.593750	707.874512
13270.160106	3882.579167	541.349609	683.161255
13270.160106	3882.579167	540.105469	600.316162
13270.160106	3882.579167	538.860352	741.972900
13270.160106	3882.579167	537.615234	692.310852
13270.160106	3882.579167	536.369141	640.284851
13270.160106	3882.579167	535.124023	695.760803
13270.160106	3882.579167	533.877930	602.621521
13270.160106	3882.579167	532.631836	633.971252
13270.160106	3882.579167	531.384766	659.052979
13270.160106	3882.579167	530.138672	593.601135
13270.160106	3882.579167	528.891602	586.075378
13270.160106	3882.579167	527.643555	557.616028
13270.160106	3882.579167	526.396484	678.199158
13270.160106	3882.579167	525.148438	671.208984
13270.160106	3882.579167	523.900391	634.800049
13270.160106	3882.579167	522.652344	681.713623
13270.160106	3882.579167	521.403320	524.744934
13270.160106	3882.579167	520.154297	374.710114
13270.160106	3882.579167	518.905273	454.588654
13270.160106	3882.579167	517.656250	311.413849
13270.160106	3882.579167	516.406250	270.022919
13270.160106	3882.579167	515.156250	153.771164
13270.160106	3882.579167	513.906250	145.413666
13270.160106	3882.579167	512.655273	76.086258
13270.160106	3882.579167	511.404297	87.613312
13270.160106	3882.579167	510.153320	13.533133
13270.160106	3882.579167	508.902344	-109.129623
13270.160106	3882.579167	507.650391	-38.535198
13270.160106	3882.579167	506.398438	-125.125481
13270.160106	3882.579167	505.146484	-2.393342
13270.160106	3882.579167	503.893555	-6.017718
13270.160106	3882.579167	502.641602	94.909012
13270.160106	3882.579167	501.388672	179.546188
13270.160106	3882.579167	500.134766	227.138107
13270.160106	3882.579167	498.881836	441.472778
13270.160106	3882.579167	497.627930	456.512878
13270.160106	3882.579167	496.374023	448.392395
13270.160106	3882.579167	495.119141	523.939819
13270.160106	3882.579167	493.865234	461.838379
13270.160106	3882.579167	492.610352	532.549255
13270.160106	3882.579167	491.355469	569.343506
13270.160106	3882.579167	490.099609	696.619690
13270.160106	3882.579167	488.843750	712.441162
13270.160106	3882.579167	487.587891	613.808350
13270.160106	3882.579167	486.332031	578.035461
13270.160106	3882.579167	485.075195	534.506104
13270.160106	3882.579167	483.818359	625.878601
13270.160106	3882.579167	482.561523	648.099915
13270.160106	3882.579167	481.304688	661.779053
13270.160106	3882.579167	480.046875	561.914673
13270.160106	3882.579167	478.789063	634.405823
13270.160106	3882.579167	477.531250	792.568481
13270.160106	3882.579167	476.272461	821.113037
13270.160106	3882.579167	475.013672	746.927124
13270.160106	3882.579167	473.754883	577.731995
13270.160106	3882.579167	472.496094	660.341919
13270.160106	3882.579167	471.236328	620.364502
13270.160106	3882.579167	469.976563	574.178711
13270.160106	3882.579167	468.716797	542.442566
13270.160106	3882.579167	467.456055	683.456726
13270.160106	3882.579167	466.196289	702.730408
13270.160106	3882.579167	464.935547	768.521301
13270.160106	3882.579167	463.673828	784.495056
13270.160106	3882.579167	462.413086	980.694458
13270.160106	3882.579167	461.151367	1059.048828
13270.160106	3882.579167	459.889648	1054.007935
13270.160106	3882.579167	458.626953	1086.277466
13270.160106	3882.579167	457.364258	861.897400
13270.160106	3882.579167	456.101563	732.157532
13270.160106	3882.579167	454.838867	754.230408
13270.160106	3882.579167	453.575195	570.178589
13270.160106	3882.579167	452.312500	650.797119
13270.160106	3882.579167	451.047852	594.751282
13270.160106	3882.579167	449.784180	578.271667
13270.160106	3882.579167	448.519531	601.326904
13270.160106	3882.579167	447.254883	666.942871
13270.160106	3882.579167	445.990234	596.785339
13270.160106	3882.579167	444.725586	571.494568
13270.160106	3882.579167	443.459961	576.565796
13270.160106	3882.579167	442.194336	537.355408
13270.160106	3882.579167	440.927734	639.653320
13270.160106	3882.579167	439.662109	529.432007
13270.160106	3882.579167	438.395508	623.850708
13270.160106	3882.579167	437.127930	462.468353
13270.160106	3882.579167	435.861328	428.076996
13270.160106	3882.579167	434.593750	503.854889
13270.160106	3882.579167	433.326172	460.868744
13270.160106	3882.579167	432.058594	490.762421
13270.160106	3882.579167	430.790039	410.318115
13270.160106	3882.579167	429.521484	398.176849
13270.160106	3882.579167	428.252930	344.137634
13270.160106	3882.579167	426.984375	457.855865
13270.160106	3882.579167	425.714844	373.205963
13270.160106	3882.579167	424.445313	403.868195
13270.160106	3882.579167	423.174805	397.953888
13270.160106	3882.579167	421.905273	488.298645
13270.160106	3882.579167	420.634766	467.702240
13270.160106	3882.579167	419.364258	622.968079
13270.160106	3882.579167	418.092773	709.020325
13270.160106	3882.579167	416.822266	709.233154
13270.160106	3882.579167	415.550781	786.628845
13270.160106	3882.579167	414.278320	892.651062
13270.160106	3882.579167	413.006836	937.122314
13270.160106	3882.579167	411.734375	1026.885620
13270.160106	3882.579167	410.461914	1053.607544
13270.160106	3882.579167	409.188477	940.842896
13270.160106	3882.579167	407.916016	1073.276245
13270.160106	3882.579167	406.642578	983.731567
13270.160106	3882.579167	405.368164	1011.365540
13270.160106	3882.579167	404.094727	1011.607056
13270.160106	3882.579167	402.820313	796.116028
13270.160106	3882.579167	401.545898	965.487000
13270.160106	3882.579167	400.270508	867.727295
13270.160106	3882.579167	398.996094	842.423401
13270.160106	3882.579167	397.720703	719.469238
13270.160106	3882.579167	396.444336	769.421021
13270.160106	3882.579167	395.168945	731.560791
13270.160106	3882.579167	393.892578	726.766724
13270.160106	3882.579167	392.616211	594.943604
13270.160106	3882.579167	391.339844	620.019531
13270.160106	3882.579167	390.062500	632.062073
13270.160106	3882.579167	388.785156	585.806091
13270.160106	3882.579167	387.507813	522.024719
13270.160106	3882.579167	386.229492	522.931274
13270.160106	3882.579167	384.951172	573.405823
13270.160106	3882.579167	383.672852	522.623474
13270.160106	3882.579167	382.394531	620.143738
13270.160106	3882.579167	381.115234	654.091431
13270.160106	3882.579167	379.835938	583.826050
13270.160106	3882.579167	378.556641	544.245483
13270.160106	3882.579167	377.277344	615.156372
13270.160106	3882.579167	375.997070	514.865601
13270.160106	3882.579167	374.716797	599.555786
13270.160106	3882.579167	373.435547	547.720276
13270.160106	3882.579167	372.155273	488.131714
13270.160106	3882.579167	370.874023	360.583496
13270.160106	3882.579167	369.591797	292.975037
13270.160106	3882.579167	368.310547	281.520660
13270.160106	3882.579167	367.028320	214.885818
13270.160106	3882.579167	365.746094	160.759415
13270.160106	3882.579167	364.463867	88.310806
13270.160106	3882.579167	363.180664	74.920135
13270.160106	3882.579167	361.897461	65.714531
13270.160106	3882.579167	360.614258	55.424919
13270.160106	3882.579167	359.330078	-70.844688
13270.160106	3882.579167	358.045898	18.773773
13270.160106	3882.579167	356.761719	-34.608925
13270.160106	3882.579167	355.477539	39.210430
13270.160106	3882.579167	354.192383	-7.432302
13270.160106	3882.579167	352.907227	-79.956535
13270.160106	3882.579167	351.622070	-71.129921
13270.160106	3882.579167	350.336914	-30.496840
13270.160106	3882.579167	349.050781	89.113647
13270.160106	3882.579167	347.764648	10.391108
13270.160106	3882.579167	346.477539	25.619209
13270.160106	3882.579167	345.191406	-79.468575
13270.160106	3882.579167	343.904297	-49.477322
13270.160106	3882.579167	342.616211	-37.994183
13270.160106	3882.579167	341.329102	-58.463539
13270.160106	3882.579167	340.041016	-193.984390
13270.160106	3882.579167	338.752930	-107.786804
13270.160106	3882.579167	337.463867	-9.504288
13270.160106	3882.579167	336.175781	5.893720
13270.160106	3882.579167	334.886719	-48.882706
13270.160106	3882.579167	333.596680	27.284529
13270.160106	3882.579167	332.307617	13.848007
13270.160106	3882.579167	331.017578	96.120773
13270.160106	3882.579167	329.727539	94.743149
13270.160106	3882.579167	328.436523	76.201340
13270.160106	3882.579167	327.146484	112.962364
13270.160106	3882.579167	325.855469	97.416725
13270.160106	3882.579167	324.563477	-19.690052
13270.160106	3882.579167	323.272461	113.963081
13270.160106	3882.579167	321.980469	91.521980
13270.160106	3882.579167	320.688477	9.310947
13270.160106	3882.579167	319.395508	26.910992
13270.160106	3882.579167	318.103516	-119.659218
13270.160106	3882.579167	316.810547	22.107441
13270.160106	3882.579167	315.516602	-131.557449
13270.160106	3882.579167	314.223633	-14.147924
13270.160106	3882.579167	312.929688	77.582756
13270.160106	3882.579167	311.635742	2.139102
13270.160106	3882.579167	310.340820	-90.016663
13270.160106	3882.579167	309.045898	-56.682880
13270.160106	3882.579167	307.750977	-52.045601
13270.160106	3882.579167	306.456055	-136.394257
13270.160106	3882.579167	305.160156	-0.245082
13270.160106	3882.579167	303.865234	13.392929
13270.160106	3882.579167	302.568359	68.803749
13270.160106	3882.579167	301.272461	154.133072
13270.160106	3882.579167	299.975586	248.438828
13270.160106	3882.579167	298.678711	93.833733
