#X		#Y		#Wave		#Intensity
13287.669096	3905.699667	1999.980469	-72.898170
13287.669096	3905.699667	1999.016602	-137.210663
13287.669096	3905.699667	1998.052734	-116.261009
13287.669096	3905.699667	1997.087891	-120.371574
13287.669096	3905.699667	1996.123047	-33.074085
13287.669096	3905.699667	1995.158203	-12.952556
13287.669096	3905.699667	1994.193359	26.725708
13287.669096	3905.699667	1993.228516	21.574078
13287.669096	3905.699667	1992.262695	-50.653835
13287.669096	3905.699667	1991.297852	74.945709
13287.669096	3905.699667	1990.332031	-39.783134
13287.669096	3905.699667	1989.366211	82.867271
13287.669096	3905.699667	1988.399414	37.039639
13287.669096	3905.699667	1987.433594	33.080200
13287.669096	3905.699667	1986.466797	41.300999
13287.669096	3905.699667	1985.500977	22.136120
13287.669096	3905.699667	1984.534180	136.300827
13287.669096	3905.699667	1983.567383	92.066025
13287.669096	3905.699667	1982.599609	35.330715
13287.669096	3905.699667	1981.632813	74.819336
13287.669096	3905.699667	1980.665039	116.615318
13287.669096	3905.699667	1979.697266	-110.963455
13287.669096	3905.699667	1978.729492	54.040688
13287.669096	3905.699667	1977.761719	53.431492
13287.669096	3905.699667	1976.792969	104.535446
13287.669096	3905.699667	1975.825195	-17.263472
13287.669096	3905.699667	1974.856445	-5.882843
13287.669096	3905.699667	1973.887695	15.251554
13287.669096	3905.699667	1972.918945	95.473045
13287.669096	3905.699667	1971.949219	67.051750
13287.669096	3905.699667	1970.980469	139.641129
13287.669096	3905.699667	1970.010742	71.591919
13287.669096	3905.699667	1969.041016	-90.180946
13287.669096	3905.699667	1968.071289	221.183075
13287.669096	3905.699667	1967.101563	133.201126
13287.669096	3905.699667	1966.130859	168.351547
13287.669096	3905.699667	1965.161133	3.918451
13287.669096	3905.699667	1964.190430	46.333916
13287.669096	3905.699667	1963.219727	-17.195841
13287.669096	3905.699667	1962.249023	81.708542
13287.669096	3905.699667	1961.277344	59.924950
13287.669096	3905.699667	1960.306641	79.932854
13287.669096	3905.699667	1959.334961	-0.983292
13287.669096	3905.699667	1958.363281	117.330742
13287.669096	3905.699667	1957.391602	43.734238
13287.669096	3905.699667	1956.419922	161.920868
13287.669096	3905.699667	1955.447266	44.022041
13287.669096	3905.699667	1954.474609	58.866547
13287.669096	3905.699667	1953.501953	-142.581253
13287.669096	3905.699667	1952.529297	95.832863
13287.669096	3905.699667	1951.556641	27.063282
13287.669096	3905.699667	1950.583984	103.212280
13287.669096	3905.699667	1949.610352	-44.150955
13287.669096	3905.699667	1948.636719	36.862511
13287.669096	3905.699667	1947.663086	-105.549133
13287.669096	3905.699667	1946.689453	49.054394
13287.669096	3905.699667	1945.715820	53.908707
13287.669096	3905.699667	1944.741211	-144.876450
13287.669096	3905.699667	1943.767578	-117.919060
13287.669096	3905.699667	1942.792969	-235.669891
13287.669096	3905.699667	1941.818359	-88.556938
13287.669096	3905.699667	1940.842773	-81.236389
13287.669096	3905.699667	1939.868164	-120.484268
13287.669096	3905.699667	1938.892578	68.199066
13287.669096	3905.699667	1937.916992	19.150429
13287.669096	3905.699667	1936.941406	11.775635
13287.669096	3905.699667	1935.965820	38.704048
13287.669096	3905.699667	1934.990234	-54.357883
13287.669096	3905.699667	1934.013672	21.565050
13287.669096	3905.699667	1933.037109	48.516308
13287.669096	3905.699667	1932.060547	11.839834
13287.669096	3905.699667	1931.083984	53.497662
13287.669096	3905.699667	1930.107422	4.636339
13287.669096	3905.699667	1929.129883	129.483276
13287.669096	3905.699667	1928.153320	-14.714735
13287.669096	3905.699667	1927.175781	107.685509
13287.669096	3905.699667	1926.198242	129.828476
13287.669096	3905.699667	1925.219727	27.326683
13287.669096	3905.699667	1924.242188	69.072014
13287.669096	3905.699667	1923.263672	57.071411
13287.669096	3905.699667	1922.285156	-40.402069
13287.669096	3905.699667	1921.306641	60.023670
13287.669096	3905.699667	1920.328125	-91.087425
13287.669096	3905.699667	1919.349609	-183.519623
13287.669096	3905.699667	1918.370117	26.802332
13287.669096	3905.699667	1917.391602	100.397980
13287.669096	3905.699667	1916.412109	10.501333
13287.669096	3905.699667	1915.431641	91.444237
13287.669096	3905.699667	1914.452148	13.833355
13287.669096	3905.699667	1913.472656	-171.028229
13287.669096	3905.699667	1912.492188	31.902842
13287.669096	3905.699667	1911.511719	37.317287
13287.669096	3905.699667	1910.531250	-30.365952
13287.669096	3905.699667	1909.550781	-63.878841
13287.669096	3905.699667	1908.569336	87.823898
13287.669096	3905.699667	1907.588867	-33.341702
13287.669096	3905.699667	1906.607422	1.444450
13287.669096	3905.699667	1905.625977	-83.078529
13287.669096	3905.699667	1904.644531	-70.154030
13287.669096	3905.699667	1903.662109	-32.866203
13287.669096	3905.699667	1902.680664	53.111172
13287.669096	3905.699667	1901.698242	143.948868
13287.669096	3905.699667	1900.715820	-81.497124
13287.669096	3905.699667	1899.733398	140.734238
13287.669096	3905.699667	1898.750000	151.325378
13287.669096	3905.699667	1897.767578	-22.858358
13287.669096	3905.699667	1896.784180	-77.830666
13287.669096	3905.699667	1895.800781	-52.548317
13287.669096	3905.699667	1894.817383	101.546257
13287.669096	3905.699667	1893.833984	-67.545052
13287.669096	3905.699667	1892.850586	42.812904
13287.669096	3905.699667	1891.866211	36.568630
13287.669096	3905.699667	1890.881836	-44.930698
13287.669096	3905.699667	1889.897461	55.712208
13287.669096	3905.699667	1888.913086	-100.971092
13287.669096	3905.699667	1887.927734	82.200294
13287.669096	3905.699667	1886.943359	-18.582354
13287.669096	3905.699667	1885.958008	-14.988299
13287.669096	3905.699667	1884.972656	8.025681
13287.669096	3905.699667	1883.987305	62.574043
13287.669096	3905.699667	1883.001953	-8.967543
13287.669096	3905.699667	1882.015625	23.775169
13287.669096	3905.699667	1881.029297	204.370651
13287.669096	3905.699667	1880.042969	-2.823545
13287.669096	3905.699667	1879.056641	-113.013359
13287.669096	3905.699667	1878.070313	4.558627
13287.669096	3905.699667	1877.083984	30.061453
13287.669096	3905.699667	1876.096680	4.711628
13287.669096	3905.699667	1875.109375	-8.514824
13287.669096	3905.699667	1874.122070	-36.253113
13287.669096	3905.699667	1873.134766	-199.503677
13287.669096	3905.699667	1872.146484	22.047115
13287.669096	3905.699667	1871.159180	16.108955
13287.669096	3905.699667	1870.170898	-64.806610
13287.669096	3905.699667	1869.182617	-29.607943
13287.669096	3905.699667	1868.194336	-81.465469
13287.669096	3905.699667	1867.205078	14.161493
13287.669096	3905.699667	1866.216797	-35.267464
13287.669096	3905.699667	1865.227539	24.065342
13287.669096	3905.699667	1864.238281	-25.351038
13287.669096	3905.699667	1863.249023	-53.011280
13287.669096	3905.699667	1862.259766	-80.665436
13287.669096	3905.699667	1861.269531	89.692932
13287.669096	3905.699667	1860.279297	-51.460804
13287.669096	3905.699667	1859.290039	82.606544
13287.669096	3905.699667	1858.298828	76.639450
13287.669096	3905.699667	1857.308594	85.142334
13287.669096	3905.699667	1856.318359	-39.053696
13287.669096	3905.699667	1855.327148	-73.970589
13287.669096	3905.699667	1854.335938	69.567230
13287.669096	3905.699667	1853.344727	-11.194700
13287.669096	3905.699667	1852.353516	-132.922974
13287.669096	3905.699667	1851.362305	-105.188942
13287.669096	3905.699667	1850.370117	-2.780760
13287.669096	3905.699667	1849.377930	193.533371
13287.669096	3905.699667	1848.385742	-10.112831
13287.669096	3905.699667	1847.393555	-139.042694
13287.669096	3905.699667	1846.401367	-22.336843
13287.669096	3905.699667	1845.408203	-95.888023
13287.669096	3905.699667	1844.415039	-68.340302
13287.669096	3905.699667	1843.421875	40.996197
13287.669096	3905.699667	1842.428711	-8.538268
13287.669096	3905.699667	1841.435547	11.683694
13287.669096	3905.699667	1840.441406	113.647171
13287.669096	3905.699667	1839.448242	49.615192
13287.669096	3905.699667	1838.454102	55.302116
13287.669096	3905.699667	1837.459961	27.301859
13287.669096	3905.699667	1836.464844	13.700481
13287.669096	3905.699667	1835.470703	38.518597
13287.669096	3905.699667	1834.475586	-1.574096
13287.669096	3905.699667	1833.480469	20.765972
13287.669096	3905.699667	1832.485352	31.053928
13287.669096	3905.699667	1831.490234	-18.727812
13287.669096	3905.699667	1830.495117	75.512558
13287.669096	3905.699667	1829.499023	59.267139
13287.669096	3905.699667	1828.502930	66.985191
13287.669096	3905.699667	1827.506836	125.045639
13287.669096	3905.699667	1826.510742	-18.464081
13287.669096	3905.699667	1825.513672	171.418228
13287.669096	3905.699667	1824.517578	-0.908477
13287.669096	3905.699667	1823.520508	83.319473
13287.669096	3905.699667	1822.523438	18.850927
13287.669096	3905.699667	1821.526367	-79.192444
13287.669096	3905.699667	1820.529297	67.162109
13287.669096	3905.699667	1819.531250	38.524998
13287.669096	3905.699667	1818.533203	91.288361
13287.669096	3905.699667	1817.535156	88.900078
13287.669096	3905.699667	1816.537109	50.546791
13287.669096	3905.699667	1815.539063	69.609016
13287.669096	3905.699667	1814.540039	-52.603790
13287.669096	3905.699667	1813.541992	107.551605
13287.669096	3905.699667	1812.542969	167.103088
13287.669096	3905.699667	1811.543945	-36.554325
13287.669096	3905.699667	1810.543945	161.603943
13287.669096	3905.699667	1809.544922	32.038048
13287.669096	3905.699667	1808.544922	112.847252
13287.669096	3905.699667	1807.544922	107.516159
13287.669096	3905.699667	1806.544922	157.094360
13287.669096	3905.699667	1805.544922	22.610399
13287.669096	3905.699667	1804.544922	260.790161
13287.669096	3905.699667	1803.543945	18.731169
13287.669096	3905.699667	1802.542969	29.832451
13287.669096	3905.699667	1801.541992	21.765699
13287.669096	3905.699667	1800.541016	35.122551
13287.669096	3905.699667	1799.539063	120.007668
13287.669096	3905.699667	1798.538086	18.672152
13287.669096	3905.699667	1797.536133	79.539322
13287.669096	3905.699667	1796.534180	49.674660
13287.669096	3905.699667	1795.532227	239.162048
13287.669096	3905.699667	1794.529297	173.374939
13287.669096	3905.699667	1793.527344	-116.546654
13287.669096	3905.699667	1792.524414	70.273605
13287.669096	3905.699667	1791.521484	35.327862
13287.669096	3905.699667	1790.518555	7.473507
13287.669096	3905.699667	1789.514648	72.460205
13287.669096	3905.699667	1788.511719	82.574677
13287.669096	3905.699667	1787.507813	16.410448
13287.669096	3905.699667	1786.503906	193.041122
13287.669096	3905.699667	1785.500000	-39.889694
13287.669096	3905.699667	1784.496094	38.962772
13287.669096	3905.699667	1783.491211	46.324421
13287.669096	3905.699667	1782.486328	115.463524
13287.669096	3905.699667	1781.481445	41.787895
13287.669096	3905.699667	1780.476563	60.811321
13287.669096	3905.699667	1779.471680	6.045176
13287.669096	3905.699667	1778.465820	181.808319
13287.669096	3905.699667	1777.460938	-41.861790
13287.669096	3905.699667	1776.455078	-96.809540
13287.669096	3905.699667	1775.449219	-33.021919
13287.669096	3905.699667	1774.442383	-66.730583
13287.669096	3905.699667	1773.436523	-114.749481
13287.669096	3905.699667	1772.429688	65.118950
13287.669096	3905.699667	1771.422852	-51.914661
13287.669096	3905.699667	1770.416016	-50.303165
13287.669096	3905.699667	1769.409180	65.140236
13287.669096	3905.699667	1768.402344	16.744946
13287.669096	3905.699667	1767.394531	101.129967
13287.669096	3905.699667	1766.386719	40.723660
13287.669096	3905.699667	1765.378906	-17.367676
13287.669096	3905.699667	1764.371094	-92.112923
13287.669096	3905.699667	1763.362305	1.386472
13287.669096	3905.699667	1762.354492	182.463852
13287.669096	3905.699667	1761.345703	178.563858
13287.669096	3905.699667	1760.336914	44.284824
13287.669096	3905.699667	1759.328125	-2.384551
13287.669096	3905.699667	1758.318359	45.605843
13287.669096	3905.699667	1757.308594	-46.199593
13287.669096	3905.699667	1756.299805	1.624242
13287.669096	3905.699667	1755.290039	-16.928066
13287.669096	3905.699667	1754.279297	227.109085
13287.669096	3905.699667	1753.269531	-73.186752
13287.669096	3905.699667	1752.258789	-44.652973
13287.669096	3905.699667	1751.249023	83.125694
13287.669096	3905.699667	1750.238281	45.248142
13287.669096	3905.699667	1749.226563	-42.347794
13287.669096	3905.699667	1748.215820	146.564209
13287.669096	3905.699667	1747.204102	207.703217
13287.669096	3905.699667	1746.193359	134.065887
13287.669096	3905.699667	1745.181641	93.442314
13287.669096	3905.699667	1744.168945	227.526276
13287.669096	3905.699667	1743.157227	257.581543
13287.669096	3905.699667	1742.144531	275.734222
13287.669096	3905.699667	1741.132813	256.037445
13287.669096	3905.699667	1740.120117	108.817726
13287.669096	3905.699667	1739.106445	254.161041
13287.669096	3905.699667	1738.093750	227.156143
13287.669096	3905.699667	1737.080078	216.586212
13287.669096	3905.699667	1736.067383	290.845032
13287.669096	3905.699667	1735.053711	152.786285
13287.669096	3905.699667	1734.040039	238.651260
13287.669096	3905.699667	1733.025391	116.989029
13287.669096	3905.699667	1732.011719	146.115417
13287.669096	3905.699667	1730.997070	201.062286
13287.669096	3905.699667	1729.982422	93.375946
13287.669096	3905.699667	1728.967773	115.184708
13287.669096	3905.699667	1727.952148	33.295158
13287.669096	3905.699667	1726.937500	12.577124
13287.669096	3905.699667	1725.921875	-12.924514
13287.669096	3905.699667	1724.906250	6.220782
13287.669096	3905.699667	1723.890625	-115.889397
13287.669096	3905.699667	1722.875000	-63.949425
13287.669096	3905.699667	1721.858398	-30.927483
13287.669096	3905.699667	1720.841797	119.583374
13287.669096	3905.699667	1719.825195	-186.145874
13287.669096	3905.699667	1718.808594	-78.122055
13287.669096	3905.699667	1717.791992	-127.674751
13287.669096	3905.699667	1716.774414	-116.196236
13287.669096	3905.699667	1715.756836	57.305305
13287.669096	3905.699667	1714.739258	-13.609053
13287.669096	3905.699667	1713.721680	7.018761
13287.669096	3905.699667	1712.704102	27.567722
13287.669096	3905.699667	1711.685547	38.639919
13287.669096	3905.699667	1710.667969	12.094844
13287.669096	3905.699667	1709.649414	1.907544
13287.669096	3905.699667	1708.630859	40.924370
13287.669096	3905.699667	1707.611328	-11.632193
13287.669096	3905.699667	1706.592773	-45.465584
13287.669096	3905.699667	1705.573242	0.360706
13287.669096	3905.699667	1704.553711	-73.458046
13287.669096	3905.699667	1703.534180	73.009956
13287.669096	3905.699667	1702.513672	120.923981
13287.669096	3905.699667	1701.494141	77.387871
13287.669096	3905.699667	1700.473633	-95.043274
13287.669096	3905.699667	1699.453125	-96.499992
13287.669096	3905.699667	1698.432617	-112.068993
13287.669096	3905.699667	1697.412109	-62.140667
13287.669096	3905.699667	1696.390625	-169.130753
13287.669096	3905.699667	1695.369141	-124.022568
13287.669096	3905.699667	1694.347656	-18.156675
13287.669096	3905.699667	1693.326172	80.591698
13287.669096	3905.699667	1692.304688	-106.105309
13287.669096	3905.699667	1691.282227	-5.165588
13287.669096	3905.699667	1690.260742	102.702034
13287.669096	3905.699667	1689.238281	18.780588
13287.669096	3905.699667	1688.214844	35.323158
13287.669096	3905.699667	1687.192383	23.773596
13287.669096	3905.699667	1686.168945	77.579208
13287.669096	3905.699667	1685.146484	-120.943382
13287.669096	3905.699667	1684.123047	-1.847052
13287.669096	3905.699667	1683.099609	124.156113
13287.669096	3905.699667	1682.075195	14.272367
13287.669096	3905.699667	1681.051758	39.762081
13287.669096	3905.699667	1680.027344	34.846474
13287.669096	3905.699667	1679.002930	97.543648
13287.669096	3905.699667	1677.978516	36.539513
13287.669096	3905.699667	1676.953125	96.775520
13287.669096	3905.699667	1675.928711	-31.918182
13287.669096	3905.699667	1674.903320	126.130913
13287.669096	3905.699667	1673.877930	265.427460
13287.669096	3905.699667	1672.852539	145.954330
13287.669096	3905.699667	1671.826172	103.362709
13287.669096	3905.699667	1670.800781	153.935349
13287.669096	3905.699667	1669.774414	297.598785
13287.669096	3905.699667	1668.748047	331.723145
13287.669096	3905.699667	1667.721680	200.497360
13287.669096	3905.699667	1666.694336	388.167725
13287.669096	3905.699667	1665.667969	403.522675
13287.669096	3905.699667	1664.640625	346.694550
13287.669096	3905.699667	1663.613281	368.948181
13287.669096	3905.699667	1662.585938	507.454437
13287.669096	3905.699667	1661.557617	392.388702
13287.669096	3905.699667	1660.530273	374.995331
13287.669096	3905.699667	1659.501953	531.907349
13287.669096	3905.699667	1658.473633	391.244202
13287.669096	3905.699667	1657.444336	403.955231
13287.669096	3905.699667	1656.416016	695.427002
13287.669096	3905.699667	1655.386719	654.595093
13287.669096	3905.699667	1654.358398	551.059631
13287.669096	3905.699667	1653.328125	786.507996
13287.669096	3905.699667	1652.298828	782.746094
13287.669096	3905.699667	1651.269531	783.603821
13287.669096	3905.699667	1650.239258	758.901489
13287.669096	3905.699667	1649.208984	655.305176
13287.669096	3905.699667	1648.178711	792.966309
13287.669096	3905.699667	1647.148438	682.405334
13287.669096	3905.699667	1646.117188	653.010925
13287.669096	3905.699667	1645.086914	813.718872
13287.669096	3905.699667	1644.055664	823.678345
13287.669096	3905.699667	1643.024414	805.809387
13287.669096	3905.699667	1641.992188	850.478149
13287.669096	3905.699667	1640.960938	927.557068
13287.669096	3905.699667	1639.928711	835.513550
13287.669096	3905.699667	1638.896484	907.898621
13287.669096	3905.699667	1637.864258	760.308044
13287.669096	3905.699667	1636.832031	980.796509
13287.669096	3905.699667	1635.798828	1060.013306
13287.669096	3905.699667	1634.766602	801.391541
13287.669096	3905.699667	1633.733398	1033.275513
13287.669096	3905.699667	1632.699219	1052.268677
13287.669096	3905.699667	1631.666016	1006.512390
13287.669096	3905.699667	1630.632813	1011.634277
13287.669096	3905.699667	1629.598633	986.689758
13287.669096	3905.699667	1628.564453	1005.663635
13287.669096	3905.699667	1627.530273	1036.181763
13287.669096	3905.699667	1626.495117	1226.080078
13287.669096	3905.699667	1625.460938	1141.059204
13287.669096	3905.699667	1624.425781	1222.330566
13287.669096	3905.699667	1623.390625	1238.926880
13287.669096	3905.699667	1622.355469	1262.445679
13287.669096	3905.699667	1621.319336	1315.953247
13287.669096	3905.699667	1620.284180	1461.755615
13287.669096	3905.699667	1619.248047	1307.584106
13287.669096	3905.699667	1618.211914	1354.153687
13287.669096	3905.699667	1617.174805	1218.517944
13287.669096	3905.699667	1616.138672	1285.857788
13287.669096	3905.699667	1615.101563	1546.811890
13287.669096	3905.699667	1614.065430	1272.976074
13287.669096	3905.699667	1613.027344	1561.498535
13287.669096	3905.699667	1611.990234	1469.791748
13287.669096	3905.699667	1610.953125	1541.679810
13287.669096	3905.699667	1609.915039	1562.880615
13287.669096	3905.699667	1608.876953	1429.819824
13287.669096	3905.699667	1607.838867	1416.538696
13287.669096	3905.699667	1606.800781	1499.951172
13287.669096	3905.699667	1605.761719	1544.220581
13287.669096	3905.699667	1604.723633	1551.693237
13287.669096	3905.699667	1603.684570	1609.781616
13287.669096	3905.699667	1602.644531	1598.863770
13287.669096	3905.699667	1601.605469	1652.369995
13287.669096	3905.699667	1600.566406	1701.282837
13287.669096	3905.699667	1599.526367	1724.908325
13287.669096	3905.699667	1598.486328	1755.447266
13287.669096	3905.699667	1597.446289	1779.109741
13287.669096	3905.699667	1596.405273	1998.040527
13287.669096	3905.699667	1595.365234	1870.122803
13287.669096	3905.699667	1594.324219	1930.570068
13287.669096	3905.699667	1593.283203	2103.521729
13287.669096	3905.699667	1592.242188	2067.560791
13287.669096	3905.699667	1591.200195	2199.166992
13287.669096	3905.699667	1590.159180	1819.099365
13287.669096	3905.699667	1589.117188	1820.015015
13287.669096	3905.699667	1588.075195	1869.133179
13287.669096	3905.699667	1587.032227	1932.018799
13287.669096	3905.699667	1585.990234	1905.514404
13287.669096	3905.699667	1584.947266	1752.977661
13287.669096	3905.699667	1583.904297	1765.550537
13287.669096	3905.699667	1582.861328	1853.774902
13287.669096	3905.699667	1581.818359	1696.882080
13287.669096	3905.699667	1580.775391	1732.492188
13287.669096	3905.699667	1579.731445	1509.354004
13287.669096	3905.699667	1578.687500	1549.646484
13287.669096	3905.699667	1577.643555	1670.088013
13287.669096	3905.699667	1576.598633	1630.314697
13287.669096	3905.699667	1575.554688	1455.612915
13287.669096	3905.699667	1574.509766	1619.605225
13287.669096	3905.699667	1573.464844	1529.692749
13287.669096	3905.699667	1572.419922	1492.465942
13287.669096	3905.699667	1571.374023	1551.323730
13287.669096	3905.699667	1570.329102	1262.757324
13287.669096	3905.699667	1569.283203	1113.763550
13287.669096	3905.699667	1568.237305	1140.832153
13287.669096	3905.699667	1567.191406	1147.384644
13287.669096	3905.699667	1566.144531	1046.626831
13287.669096	3905.699667	1565.098633	1057.876465
13287.669096	3905.699667	1564.051758	1039.488403
13287.669096	3905.699667	1563.004883	913.873779
13287.669096	3905.699667	1561.957031	925.301941
13287.669096	3905.699667	1560.910156	1146.731812
13287.669096	3905.699667	1559.862305	920.958984
13287.669096	3905.699667	1558.814453	779.735413
13287.669096	3905.699667	1557.766602	784.586121
13287.669096	3905.699667	1556.718750	650.412292
13287.669096	3905.699667	1555.669922	735.196411
13287.669096	3905.699667	1554.621094	706.050415
13287.669096	3905.699667	1553.573242	756.748962
13287.669096	3905.699667	1552.523438	686.725769
13287.669096	3905.699667	1551.474609	673.753601
13287.669096	3905.699667	1550.424805	731.446594
13287.669096	3905.699667	1549.375000	693.554016
13287.669096	3905.699667	1548.325195	560.131104
13287.669096	3905.699667	1547.275391	501.942291
13287.669096	3905.699667	1546.225586	448.400360
13287.669096	3905.699667	1545.174805	642.938599
13287.669096	3905.699667	1544.124023	471.240479
13287.669096	3905.699667	1543.073242	411.123901
13287.669096	3905.699667	1542.022461	189.661850
13287.669096	3905.699667	1540.970703	241.162903
13287.669096	3905.699667	1539.919922	381.372162
13287.669096	3905.699667	1538.868164	432.967804
13287.669096	3905.699667	1537.815430	261.950653
13287.669096	3905.699667	1536.763672	222.839752
13287.669096	3905.699667	1535.710938	383.677948
13287.669096	3905.699667	1534.659180	251.616776
13287.669096	3905.699667	1533.606445	267.247223
13287.669096	3905.699667	1532.552734	233.009521
13287.669096	3905.699667	1531.500000	291.918030
13287.669096	3905.699667	1530.446289	232.893265
13287.669096	3905.699667	1529.393555	142.222656
13287.669096	3905.699667	1528.338867	242.171082
13287.669096	3905.699667	1527.285156	-7.036986
13287.669096	3905.699667	1526.231445	136.150940
13287.669096	3905.699667	1525.176758	181.893112
13287.669096	3905.699667	1524.122070	121.189682
13287.669096	3905.699667	1523.067383	182.948334
13287.669096	3905.699667	1522.012695	0.111949
13287.669096	3905.699667	1520.957031	136.778534
13287.669096	3905.699667	1519.901367	128.554291
13287.669096	3905.699667	1518.845703	145.324448
13287.669096	3905.699667	1517.790039	-37.016048
13287.669096	3905.699667	1516.734375	38.798882
13287.669096	3905.699667	1515.677734	-9.778854
13287.669096	3905.699667	1514.621094	371.570343
13287.669096	3905.699667	1513.564453	198.729691
13287.669096	3905.699667	1512.507813	204.690796
13287.669096	3905.699667	1511.450195	154.214478
13287.669096	3905.699667	1510.393555	228.177795
13287.669096	3905.699667	1509.335938	209.540543
13287.669096	3905.699667	1508.278320	39.614922
13287.669096	3905.699667	1507.219727	-188.890686
13287.669096	3905.699667	1506.162109	86.464508
13287.669096	3905.699667	1505.103516	34.365566
13287.669096	3905.699667	1504.044922	-53.742893
13287.669096	3905.699667	1502.986328	45.631630
13287.669096	3905.699667	1501.926758	77.353210
13287.669096	3905.699667	1500.868164	55.008160
13287.669096	3905.699667	1499.808594	-1.075017
13287.669096	3905.699667	1498.749023	26.413033
13287.669096	3905.699667	1497.688477	-103.870323
13287.669096	3905.699667	1496.628906	-62.653008
13287.669096	3905.699667	1495.568359	-269.313843
13287.669096	3905.699667	1494.507813	15.509847
13287.669096	3905.699667	1493.447266	129.071213
13287.669096	3905.699667	1492.386719	-126.773094
13287.669096	3905.699667	1491.325195	-109.886688
13287.669096	3905.699667	1490.263672	199.838791
13287.669096	3905.699667	1489.202148	-10.546678
13287.669096	3905.699667	1488.140625	186.683655
13287.669096	3905.699667	1487.079102	104.864914
13287.669096	3905.699667	1486.016602	205.433716
13287.669096	3905.699667	1484.954102	216.076981
13287.669096	3905.699667	1483.891602	226.814392
13287.669096	3905.699667	1482.829102	226.404861
13287.669096	3905.699667	1481.765625	127.164238
13287.669096	3905.699667	1480.702148	214.631607
13287.669096	3905.699667	1479.638672	23.487707
13287.669096	3905.699667	1478.575195	79.684799
13287.669096	3905.699667	1477.511719	95.529602
13287.669096	3905.699667	1476.447266	-25.524893
13287.669096	3905.699667	1475.382813	100.512985
13287.669096	3905.699667	1474.318359	170.518295
13287.669096	3905.699667	1473.253906	-35.414192
13287.669096	3905.699667	1472.189453	-113.330338
13287.669096	3905.699667	1471.124023	-108.037468
13287.669096	3905.699667	1470.058594	-113.976074
13287.669096	3905.699667	1468.993164	34.887070
13287.669096	3905.699667	1467.927734	47.277542
13287.669096	3905.699667	1466.861328	-108.359695
13287.669096	3905.699667	1465.794922	-19.720415
13287.669096	3905.699667	1464.728516	191.936554
13287.669096	3905.699667	1463.662109	-39.328266
13287.669096	3905.699667	1462.594727	244.253662
13287.669096	3905.699667	1461.528320	174.160828
13287.669096	3905.699667	1460.460938	-108.009018
13287.669096	3905.699667	1459.393555	329.752808
13287.669096	3905.699667	1458.326172	224.246994
13287.669096	3905.699667	1457.257813	313.583344
13287.669096	3905.699667	1456.189453	220.060287
13287.669096	3905.699667	1455.121094	224.498947
13287.669096	3905.699667	1454.052734	336.262543
13287.669096	3905.699667	1452.984375	399.478821
13287.669096	3905.699667	1451.915039	418.828369
13287.669096	3905.699667	1450.845703	467.113922
13287.669096	3905.699667	1449.776367	367.562866
13287.669096	3905.699667	1448.707031	668.431885
13287.669096	3905.699667	1447.636719	596.578613
13287.669096	3905.699667	1446.567383	582.800049
13287.669096	3905.699667	1445.497070	540.440613
13287.669096	3905.699667	1444.425781	277.380249
13287.669096	3905.699667	1443.355469	224.784531
13287.669096	3905.699667	1442.285156	294.477051
13287.669096	3905.699667	1441.213867	335.826691
13287.669096	3905.699667	1440.142578	333.965271
13287.669096	3905.699667	1439.070313	300.784332
13287.669096	3905.699667	1437.999023	185.747253
13287.669096	3905.699667	1436.926758	163.571945
13287.669096	3905.699667	1435.854492	315.197449
13287.669096	3905.699667	1434.782227	279.683075
13287.669096	3905.699667	1433.709961	195.694519
13287.669096	3905.699667	1432.636719	206.182434
13287.669096	3905.699667	1431.563477	242.517075
13287.669096	3905.699667	1430.490234	358.703003
13287.669096	3905.699667	1429.416992	314.859070
13287.669096	3905.699667	1428.343750	187.141205
13287.669096	3905.699667	1427.269531	325.285553
13287.669096	3905.699667	1426.195313	200.651184
13287.669096	3905.699667	1425.121094	408.649872
13287.669096	3905.699667	1424.046875	207.078094
13287.669096	3905.699667	1422.971680	400.274902
13287.669096	3905.699667	1421.896484	194.289413
13287.669096	3905.699667	1420.821289	401.304810
13287.669096	3905.699667	1419.746094	212.462341
13287.669096	3905.699667	1418.669922	389.993896
13287.669096	3905.699667	1417.594727	-22.592783
13287.669096	3905.699667	1416.518555	96.350197
13287.669096	3905.699667	1415.442383	117.135033
13287.669096	3905.699667	1414.365234	93.848465
13287.669096	3905.699667	1413.289063	15.375394
13287.669096	3905.699667	1412.211914	15.587067
13287.669096	3905.699667	1411.134766	53.177128
13287.669096	3905.699667	1410.057617	86.483017
13287.669096	3905.699667	1408.979492	-35.736256
13287.669096	3905.699667	1407.902344	46.112312
13287.669096	3905.699667	1406.824219	-15.244736
13287.669096	3905.699667	1405.746094	99.434616
13287.669096	3905.699667	1404.666992	82.781754
13287.669096	3905.699667	1403.588867	13.555007
13287.669096	3905.699667	1402.509766	94.550880
13287.669096	3905.699667	1401.430664	187.361633
13287.669096	3905.699667	1400.351563	146.671310
13287.669096	3905.699667	1399.271484	46.947620
13287.669096	3905.699667	1398.192383	97.079880
13287.669096	3905.699667	1397.112305	89.905411
13287.669096	3905.699667	1396.031250	56.712978
13287.669096	3905.699667	1394.951172	154.505692
13287.669096	3905.699667	1393.871094	64.290405
13287.669096	3905.699667	1392.790039	126.742287
13287.669096	3905.699667	1391.708984	25.600266
13287.669096	3905.699667	1390.626953	73.317955
13287.669096	3905.699667	1389.545898	18.714062
13287.669096	3905.699667	1388.463867	180.717911
13287.669096	3905.699667	1387.381836	31.812250
13287.669096	3905.699667	1386.299805	22.363688
13287.669096	3905.699667	1385.217773	153.981979
13287.669096	3905.699667	1384.134766	143.217834
13287.669096	3905.699667	1383.051758	205.090790
13287.669096	3905.699667	1381.968750	151.099258
13287.669096	3905.699667	1380.885742	231.597122
13287.669096	3905.699667	1379.802734	256.243927
13287.669096	3905.699667	1378.718750	346.720612
13287.669096	3905.699667	1377.634766	393.208374
13287.669096	3905.699667	1376.550781	160.075790
13287.669096	3905.699667	1375.465820	306.237335
13287.669096	3905.699667	1374.381836	425.182465
13287.669096	3905.699667	1373.296875	245.263382
13287.669096	3905.699667	1372.211914	204.124802
13287.669096	3905.699667	1371.126953	288.897919
13287.669096	3905.699667	1370.041016	165.764175
13287.669096	3905.699667	1368.955078	135.678635
13287.669096	3905.699667	1367.869141	-74.581047
13287.669096	3905.699667	1366.783203	244.392685
13287.669096	3905.699667	1365.697266	84.396988
13287.669096	3905.699667	1364.610352	-39.544613
13287.669096	3905.699667	1363.523438	61.481613
13287.669096	3905.699667	1362.436523	-8.413696
13287.669096	3905.699667	1361.349609	-47.186306
13287.669096	3905.699667	1360.261719	52.236359
13287.669096	3905.699667	1359.174805	54.840923
13287.669096	3905.699667	1358.086914	151.167801
13287.669096	3905.699667	1356.998047	95.432304
13287.669096	3905.699667	1355.910156	57.009350
13287.669096	3905.699667	1354.821289	146.215088
13287.669096	3905.699667	1353.732422	160.053513
13287.669096	3905.699667	1352.643555	106.106880
13287.669096	3905.699667	1351.554688	99.958488
13287.669096	3905.699667	1350.464844	296.333710
13287.669096	3905.699667	1349.375000	94.835938
13287.669096	3905.699667	1348.285156	121.916534
13287.669096	3905.699667	1347.195313	335.483002
13287.669096	3905.699667	1346.105469	202.138138
13287.669096	3905.699667	1345.014648	332.306793
13287.669096	3905.699667	1343.923828	112.063705
13287.669096	3905.699667	1342.833008	380.465759
13287.669096	3905.699667	1341.741211	312.212402
13287.669096	3905.699667	1340.650391	349.928925
13287.669096	3905.699667	1339.558594	507.125366
13287.669096	3905.699667	1338.466797	324.734589
13287.669096	3905.699667	1337.374023	384.500122
13287.669096	3905.699667	1336.282227	373.945374
13287.669096	3905.699667	1335.189453	311.225220
13287.669096	3905.699667	1334.096680	338.166901
13287.669096	3905.699667	1333.003906	326.768646
13287.669096	3905.699667	1331.910156	378.019379
13287.669096	3905.699667	1330.817383	317.974213
13287.669096	3905.699667	1329.723633	269.110779
13287.669096	3905.699667	1328.629883	276.012878
13287.669096	3905.699667	1327.535156	184.882431
13287.669096	3905.699667	1326.441406	208.587753
13287.669096	3905.699667	1325.346680	161.809875
13287.669096	3905.699667	1324.251953	239.344360
13287.669096	3905.699667	1323.156250	212.691147
13287.669096	3905.699667	1322.061523	292.083435
13287.669096	3905.699667	1320.965820	289.408661
13287.669096	3905.699667	1319.870117	235.036407
13287.669096	3905.699667	1318.774414	313.560638
13287.669096	3905.699667	1317.678711	217.114380
13287.669096	3905.699667	1316.582031	249.912628
13287.669096	3905.699667	1315.485352	232.990875
13287.669096	3905.699667	1314.388672	316.228241
13287.669096	3905.699667	1313.291016	373.339783
13287.669096	3905.699667	1312.194336	262.930176
13287.669096	3905.699667	1311.096680	266.915771
13287.669096	3905.699667	1309.999023	351.904114
13287.669096	3905.699667	1308.901367	283.537048
13287.669096	3905.699667	1307.802734	378.061066
13287.669096	3905.699667	1306.705078	423.668365
13287.669096	3905.699667	1305.606445	324.444580
13287.669096	3905.699667	1304.506836	132.945618
13287.669096	3905.699667	1303.408203	316.449524
13287.669096	3905.699667	1302.308594	390.761719
13287.669096	3905.699667	1301.208984	343.481812
13287.669096	3905.699667	1300.109375	343.361938
13287.669096	3905.699667	1299.009766	212.869095
13287.669096	3905.699667	1297.909180	467.440460
13287.669096	3905.699667	1296.808594	362.842438
13287.669096	3905.699667	1295.708008	316.328217
13287.669096	3905.699667	1294.607422	226.665573
13287.669096	3905.699667	1293.506836	315.818604
13287.669096	3905.699667	1292.405273	149.318314
13287.669096	3905.699667	1291.303711	248.873413
13287.669096	3905.699667	1290.202148	95.600357
13287.669096	3905.699667	1289.099609	20.390564
13287.669096	3905.699667	1287.998047	99.078079
13287.669096	3905.699667	1286.895508	102.338135
13287.669096	3905.699667	1285.792969	60.007286
13287.669096	3905.699667	1284.689453	52.211418
13287.669096	3905.699667	1283.586914	31.951441
13287.669096	3905.699667	1282.483398	98.914436
13287.669096	3905.699667	1281.379883	-31.924419
13287.669096	3905.699667	1280.276367	-14.829530
13287.669096	3905.699667	1279.171875	-52.692532
13287.669096	3905.699667	1278.067383	160.112122
13287.669096	3905.699667	1276.962891	-127.354797
13287.669096	3905.699667	1275.858398	-6.020751
13287.669096	3905.699667	1274.753906	19.486570
13287.669096	3905.699667	1273.648438	35.181843
13287.669096	3905.699667	1272.542969	-17.926132
13287.669096	3905.699667	1271.437500	-99.319519
13287.669096	3905.699667	1270.331055	-39.373260
13287.669096	3905.699667	1269.225586	-207.475830
13287.669096	3905.699667	1268.119141	25.514709
13287.669096	3905.699667	1267.012695	41.454311
13287.669096	3905.699667	1265.906250	-106.774422
13287.669096	3905.699667	1264.798828	38.089333
13287.669096	3905.699667	1263.691406	-59.284512
13287.669096	3905.699667	1262.583984	-72.438156
13287.669096	3905.699667	1261.476563	-65.727280
13287.669096	3905.699667	1260.368164	-3.093167
13287.669096	3905.699667	1259.260742	-117.182144
13287.669096	3905.699667	1258.152344	5.255238
13287.669096	3905.699667	1257.043945	54.689186
13287.669096	3905.699667	1255.934570	-36.359184
13287.669096	3905.699667	1254.825195	23.276142
13287.669096	3905.699667	1253.716797	6.383256
13287.669096	3905.699667	1252.606445	-40.747559
13287.669096	3905.699667	1251.497070	-38.234570
13287.669096	3905.699667	1250.387695	-52.820309
13287.669096	3905.699667	1249.277344	-50.852318
13287.669096	3905.699667	1248.166992	-104.474113
13287.669096	3905.699667	1247.055664	-149.957062
13287.669096	3905.699667	1245.945313	-98.638779
13287.669096	3905.699667	1244.833984	-86.903145
13287.669096	3905.699667	1243.722656	-129.667099
13287.669096	3905.699667	1242.611328	-52.556236
13287.669096	3905.699667	1241.499023	-19.388842
13287.669096	3905.699667	1240.387695	76.347191
13287.669096	3905.699667	1239.275391	-56.357590
13287.669096	3905.699667	1238.162109	21.373142
13287.669096	3905.699667	1237.049805	-55.663292
13287.669096	3905.699667	1235.936523	87.447441
13287.669096	3905.699667	1234.823242	25.186979
13287.669096	3905.699667	1233.709961	-6.336880
13287.669096	3905.699667	1232.596680	96.048134
13287.669096	3905.699667	1231.482422	-58.786369
13287.669096	3905.699667	1230.369141	67.618736
13287.669096	3905.699667	1229.253906	-31.107885
13287.669096	3905.699667	1228.139648	-114.702972
13287.669096	3905.699667	1227.025391	-87.522446
13287.669096	3905.699667	1225.910156	-71.409584
13287.669096	3905.699667	1224.794922	-170.804962
13287.669096	3905.699667	1223.679688	-19.651510
13287.669096	3905.699667	1222.563477	-170.787659
13287.669096	3905.699667	1221.447266	-125.493294
13287.669096	3905.699667	1220.331055	14.298945
13287.669096	3905.699667	1219.214844	-86.599464
13287.669096	3905.699667	1218.098633	-69.584061
13287.669096	3905.699667	1216.981445	-29.533880
13287.669096	3905.699667	1215.864258	-3.179354
13287.669096	3905.699667	1214.747070	-38.211903
13287.669096	3905.699667	1213.629883	18.202930
13287.669096	3905.699667	1212.511719	-86.115707
13287.669096	3905.699667	1211.393555	-90.066605
13287.669096	3905.699667	1210.275391	42.825836
13287.669096	3905.699667	1209.157227	-53.281155
13287.669096	3905.699667	1208.038086	-42.217911
13287.669096	3905.699667	1206.918945	-93.439758
13287.669096	3905.699667	1205.799805	9.376583
13287.669096	3905.699667	1204.680664	-13.552065
13287.669096	3905.699667	1203.560547	35.565468
13287.669096	3905.699667	1202.441406	9.978971
13287.669096	3905.699667	1201.321289	-28.392845
13287.669096	3905.699667	1200.200195	-37.827351
13287.669096	3905.699667	1199.080078	-37.295773
13287.669096	3905.699667	1197.958984	22.233742
13287.669096	3905.699667	1196.837891	-104.133308
13287.669096	3905.699667	1195.716797	2.935677
13287.669096	3905.699667	1194.594727	-17.749750
13287.669096	3905.699667	1193.473633	27.901985
13287.669096	3905.699667	1192.351563	80.082642
13287.669096	3905.699667	1191.229492	117.563904
13287.669096	3905.699667	1190.106445	52.187454
13287.669096	3905.699667	1188.984375	56.732143
13287.669096	3905.699667	1187.861328	34.114120
13287.669096	3905.699667	1186.738281	54.624748
13287.669096	3905.699667	1185.614258	134.748184
13287.669096	3905.699667	1184.491211	74.099495
13287.669096	3905.699667	1183.367188	79.922226
13287.669096	3905.699667	1182.243164	98.209068
13287.669096	3905.699667	1181.119141	-21.604767
13287.669096	3905.699667	1179.994141	41.454990
13287.669096	3905.699667	1178.869141	17.517365
13287.669096	3905.699667	1177.744141	107.934570
13287.669096	3905.699667	1176.619141	-62.381580
13287.669096	3905.699667	1175.493164	5.419533
13287.669096	3905.699667	1174.368164	36.272438
13287.669096	3905.699667	1173.242188	-11.083727
13287.669096	3905.699667	1172.115234	100.741760
13287.669096	3905.699667	1170.989258	-41.167419
13287.669096	3905.699667	1169.862305	88.355896
13287.669096	3905.699667	1168.735352	-8.203930
13287.669096	3905.699667	1167.608398	176.824219
13287.669096	3905.699667	1166.481445	118.110023
13287.669096	3905.699667	1165.353516	64.438904
13287.669096	3905.699667	1164.225586	50.221645
13287.669096	3905.699667	1163.097656	-3.061025
13287.669096	3905.699667	1161.968750	137.103775
13287.669096	3905.699667	1160.840820	146.201767
13287.669096	3905.699667	1159.711914	-18.356812
13287.669096	3905.699667	1158.583008	4.327330
13287.669096	3905.699667	1157.453125	22.205908
13287.669096	3905.699667	1156.324219	107.844559
13287.669096	3905.699667	1155.194336	-4.946844
13287.669096	3905.699667	1154.064453	93.372749
13287.669096	3905.699667	1152.933594	48.450737
13287.669096	3905.699667	1151.803711	-23.185982
13287.669096	3905.699667	1150.672852	-19.030546
13287.669096	3905.699667	1149.541992	-12.415756
13287.669096	3905.699667	1148.411133	-213.653290
13287.669096	3905.699667	1147.279297	2.046180
13287.669096	3905.699667	1146.147461	15.255260
13287.669096	3905.699667	1145.015625	-129.435852
13287.669096	3905.699667	1143.883789	-9.658167
13287.669096	3905.699667	1142.750977	30.484467
13287.669096	3905.699667	1141.619141	-43.077000
13287.669096	3905.699667	1140.486328	-97.331940
13287.669096	3905.699667	1139.352539	-111.080391
13287.669096	3905.699667	1138.219727	-154.099625
13287.669096	3905.699667	1137.085938	-136.816757
13287.669096	3905.699667	1135.952148	-91.390213
13287.669096	3905.699667	1134.818359	-107.583260
13287.669096	3905.699667	1133.683594	-14.029330
13287.669096	3905.699667	1132.549805	43.195393
13287.669096	3905.699667	1131.415039	-47.448364
13287.669096	3905.699667	1130.279297	117.067047
13287.669096	3905.699667	1129.144531	49.078308
13287.669096	3905.699667	1128.008789	120.323746
13287.669096	3905.699667	1126.873047	140.640411
13287.669096	3905.699667	1125.737305	62.565361
13287.669096	3905.699667	1124.601563	228.307556
13287.669096	3905.699667	1123.464844	79.932961
13287.669096	3905.699667	1122.328125	85.514153
13287.669096	3905.699667	1121.191406	121.219086
13287.669096	3905.699667	1120.054688	32.149311
13287.669096	3905.699667	1118.916992	59.024456
13287.669096	3905.699667	1117.779297	256.089661
13287.669096	3905.699667	1116.641602	132.548523
13287.669096	3905.699667	1115.503906	24.765322
13287.669096	3905.699667	1114.365234	-8.860756
13287.669096	3905.699667	1113.226563	93.796455
13287.669096	3905.699667	1112.087891	53.281895
13287.669096	3905.699667	1110.949219	131.301666
13287.669096	3905.699667	1109.809570	132.127838
13287.669096	3905.699667	1108.669922	152.665588
13287.669096	3905.699667	1107.530273	96.030678
13287.669096	3905.699667	1106.390625	253.459488
13287.669096	3905.699667	1105.250000	310.200043
13287.669096	3905.699667	1104.109375	137.763153
13287.669096	3905.699667	1102.968750	241.172333
13287.669096	3905.699667	1101.828125	163.597549
13287.669096	3905.699667	1100.686523	141.816010
13287.669096	3905.699667	1099.544922	147.912918
13287.669096	3905.699667	1098.403320	139.928879
13287.669096	3905.699667	1097.261719	126.629623
13287.669096	3905.699667	1096.120117	154.728119
13287.669096	3905.699667	1094.977539	112.908142
13287.669096	3905.699667	1093.834961	115.134491
13287.669096	3905.699667	1092.691406	230.923874
13287.669096	3905.699667	1091.548828	244.377960
13287.669096	3905.699667	1090.405273	98.892296
13287.669096	3905.699667	1089.261719	179.794678
13287.669096	3905.699667	1088.118164	133.252701
13287.669096	3905.699667	1086.973633	202.008972
13287.669096	3905.699667	1085.829102	109.372856
13287.669096	3905.699667	1084.684570	221.063232
13287.669096	3905.699667	1083.540039	278.237000
13287.669096	3905.699667	1082.395508	299.097443
13287.669096	3905.699667	1081.250000	138.740463
13287.669096	3905.699667	1080.104492	200.045013
13287.669096	3905.699667	1078.958984	78.954590
13287.669096	3905.699667	1077.812500	33.443947
13287.669096	3905.699667	1076.666016	144.728561
13287.669096	3905.699667	1075.519531	40.757801
13287.669096	3905.699667	1074.373047	201.126602
13287.669096	3905.699667	1073.226563	156.924484
13287.669096	3905.699667	1072.079102	333.219299
13287.669096	3905.699667	1070.931641	182.334106
13287.669096	3905.699667	1069.784180	91.884872
13287.669096	3905.699667	1068.635742	180.570175
13287.669096	3905.699667	1067.487305	239.673676
13287.669096	3905.699667	1066.338867	149.693146
13287.669096	3905.699667	1065.190430	172.669312
13287.669096	3905.699667	1064.041992	255.821136
13287.669096	3905.699667	1062.892578	271.125885
13287.669096	3905.699667	1061.743164	94.775604
13287.669096	3905.699667	1060.593750	191.650894
13287.669096	3905.699667	1059.443359	116.197655
13287.669096	3905.699667	1058.292969	60.024574
13287.669096	3905.699667	1057.142578	69.488327
13287.669096	3905.699667	1055.992188	210.100372
13287.669096	3905.699667	1054.841797	147.005005
13287.669096	3905.699667	1053.690430	28.760756
13287.669096	3905.699667	1052.539063	-27.610418
13287.669096	3905.699667	1051.387695	190.576294
13287.669096	3905.699667	1050.235352	139.812958
13287.669096	3905.699667	1049.083984	-46.514683
13287.669096	3905.699667	1047.931641	197.308640
13287.669096	3905.699667	1046.778320	40.321659
13287.669096	3905.699667	1045.625977	67.591995
13287.669096	3905.699667	1044.472656	-81.271736
13287.669096	3905.699667	1043.319336	2.375267
13287.669096	3905.699667	1042.166016	-65.854424
13287.669096	3905.699667	1041.012695	-2.386802
13287.669096	3905.699667	1039.858398	43.139034
13287.669096	3905.699667	1038.704102	16.943712
13287.669096	3905.699667	1037.549805	80.919601
13287.669096	3905.699667	1036.394531	175.715607
13287.669096	3905.699667	1035.239258	119.317596
13287.669096	3905.699667	1034.083984	18.018818
13287.669096	3905.699667	1032.928711	86.447975
13287.669096	3905.699667	1031.773438	34.130737
13287.669096	3905.699667	1030.617188	80.927299
13287.669096	3905.699667	1029.460938	30.868130
13287.669096	3905.699667	1028.304688	91.664932
13287.669096	3905.699667	1027.147461	11.097741
13287.669096	3905.699667	1025.991211	-31.425373
13287.669096	3905.699667	1024.833984	-15.034120
13287.669096	3905.699667	1023.675781	180.461655
13287.669096	3905.699667	1022.518555	63.204563
13287.669096	3905.699667	1021.360352	46.524700
13287.669096	3905.699667	1020.202148	83.348755
13287.669096	3905.699667	1019.043945	-26.313683
13287.669096	3905.699667	1017.884766	155.694153
13287.669096	3905.699667	1016.726563	99.343277
13287.669096	3905.699667	1015.567383	67.931290
13287.669096	3905.699667	1014.407227	-39.517662
13287.669096	3905.699667	1013.248047	16.414881
13287.669096	3905.699667	1012.087891	-14.125999
13287.669096	3905.699667	1010.927734	125.291016
13287.669096	3905.699667	1009.767578	33.016827
13287.669096	3905.699667	1008.606445	45.095196
13287.669096	3905.699667	1007.446289	96.877457
13287.669096	3905.699667	1006.285156	97.013336
13287.669096	3905.699667	1005.123047	95.553360
13287.669096	3905.699667	1003.961914	197.145386
13287.669096	3905.699667	1002.799805	161.589874
13287.669096	3905.699667	1001.637695	62.174782
13287.669096	3905.699667	1000.475586	-19.542933
13287.669096	3905.699667	999.312500	109.446625
13287.669096	3905.699667	998.149414	184.760574
13287.669096	3905.699667	996.986328	253.120926
13287.669096	3905.699667	995.823242	177.230621
13287.669096	3905.699667	994.659180	-6.978196
13287.669096	3905.699667	993.496094	97.989937
13287.669096	3905.699667	992.332031	32.508797
13287.669096	3905.699667	991.166992	22.358891
13287.669096	3905.699667	990.002930	18.377586
13287.669096	3905.699667	988.837891	9.985408
13287.669096	3905.699667	987.672852	111.897827
13287.669096	3905.699667	986.506836	139.255371
13287.669096	3905.699667	985.341797	9.496624
13287.669096	3905.699667	984.175781	17.792933
13287.669096	3905.699667	983.009766	-125.040054
13287.669096	3905.699667	981.843750	68.886627
13287.669096	3905.699667	980.676758	55.898457
13287.669096	3905.699667	979.509766	2.063576
13287.669096	3905.699667	978.342773	-67.372597
13287.669096	3905.699667	977.175781	-100.985947
13287.669096	3905.699667	976.007813	3.772072
13287.669096	3905.699667	974.839844	-122.717827
13287.669096	3905.699667	973.671875	84.756554
13287.669096	3905.699667	972.503906	-23.559856
13287.669096	3905.699667	971.334961	-23.397413
13287.669096	3905.699667	970.166016	62.364418
13287.669096	3905.699667	968.997070	-140.668121
13287.669096	3905.699667	967.828125	48.685898
13287.669096	3905.699667	966.658203	-15.098358
13287.669096	3905.699667	965.488281	-118.631264
13287.669096	3905.699667	964.318359	-8.381289
13287.669096	3905.699667	963.148438	-43.415062
13287.669096	3905.699667	961.977539	40.429512
13287.669096	3905.699667	960.806641	123.504036
13287.669096	3905.699667	959.635742	122.690117
13287.669096	3905.699667	958.463867	108.946190
13287.669096	3905.699667	957.292969	27.946026
13287.669096	3905.699667	956.121094	-50.511490
13287.669096	3905.699667	954.948242	127.026009
13287.669096	3905.699667	953.776367	26.705511
13287.669096	3905.699667	952.603516	-34.063824
13287.669096	3905.699667	951.430664	-139.154907
13287.669096	3905.699667	950.257813	11.261614
13287.669096	3905.699667	949.084961	-116.522026
13287.669096	3905.699667	947.911133	68.295715
13287.669096	3905.699667	946.737305	7.624694
13287.669096	3905.699667	945.563477	-90.458687
13287.669096	3905.699667	944.388672	-211.230072
13287.669096	3905.699667	943.213867	-16.466106
13287.669096	3905.699667	942.039063	-7.825253
13287.669096	3905.699667	940.864258	124.950523
13287.669096	3905.699667	939.688477	115.897049
13287.669096	3905.699667	938.513672	171.500473
13287.669096	3905.699667	937.337891	38.597790
13287.669096	3905.699667	936.161133	-34.963139
13287.669096	3905.699667	934.985352	-4.176089
13287.669096	3905.699667	933.808594	140.794891
13287.669096	3905.699667	932.631836	57.339764
13287.669096	3905.699667	931.454102	172.397049
13287.669096	3905.699667	930.277344	-44.928288
13287.669096	3905.699667	929.099609	102.295296
13287.669096	3905.699667	927.921875	118.084251
13287.669096	3905.699667	926.743164	86.724228
13287.669096	3905.699667	925.565430	5.793380
13287.669096	3905.699667	924.386719	108.334023
13287.669096	3905.699667	923.208008	-44.496758
13287.669096	3905.699667	922.028320	-222.043243
13287.669096	3905.699667	920.849609	-62.575352
13287.669096	3905.699667	919.669922	-60.479092
13287.669096	3905.699667	919.474609	62.488625
13287.669096	3905.699667	918.309570	45.949272
13287.669096	3905.699667	917.143555	-54.779991
13287.669096	3905.699667	915.977539	79.708435
13287.669096	3905.699667	914.810547	90.377319
13287.669096	3905.699667	913.644531	133.201431
13287.669096	3905.699667	912.477539	10.233630
13287.669096	3905.699667	911.310547	-45.905109
13287.669096	3905.699667	910.143555	-223.213181
13287.669096	3905.699667	908.975586	-64.179039
13287.669096	3905.699667	907.807617	-112.876495
13287.669096	3905.699667	906.639648	93.013901
13287.669096	3905.699667	905.471680	-59.499432
13287.669096	3905.699667	904.303711	-39.016472
13287.669096	3905.699667	903.134766	-85.240578
13287.669096	3905.699667	901.965820	21.660709
13287.669096	3905.699667	900.796875	12.463367
13287.669096	3905.699667	899.626953	40.292141
13287.669096	3905.699667	898.457031	-5.940918
13287.669096	3905.699667	897.287109	-29.954958
13287.669096	3905.699667	896.117188	150.801865
13287.669096	3905.699667	894.947266	151.416550
13287.669096	3905.699667	893.776367	-57.592186
13287.669096	3905.699667	892.605469	108.245361
13287.669096	3905.699667	891.434570	128.568420
13287.669096	3905.699667	890.262695	136.553879
13287.669096	3905.699667	889.091797	-23.028824
13287.669096	3905.699667	887.919922	-61.837681
13287.669096	3905.699667	886.748047	116.112144
13287.669096	3905.699667	885.575195	158.542435
13287.669096	3905.699667	884.403320	40.913563
13287.669096	3905.699667	883.230469	-108.673241
13287.669096	3905.699667	882.057617	-41.633526
13287.669096	3905.699667	880.883789	-63.206482
13287.669096	3905.699667	879.710938	124.325127
13287.669096	3905.699667	878.537109	43.684048
13287.669096	3905.699667	877.362305	-7.420727
13287.669096	3905.699667	876.188477	64.414093
13287.669096	3905.699667	875.013672	-33.390545
13287.669096	3905.699667	873.839844	80.183907
13287.669096	3905.699667	872.664063	65.942619
13287.669096	3905.699667	871.489258	-122.714493
13287.669096	3905.699667	870.313477	49.735981
13287.669096	3905.699667	869.138672	-65.188843
13287.669096	3905.699667	867.962891	-209.532471
13287.669096	3905.699667	866.786133	-74.007347
13287.669096	3905.699667	865.610352	-24.437138
13287.669096	3905.699667	864.433594	113.433899
13287.669096	3905.699667	863.256836	40.283035
13287.669096	3905.699667	862.079102	-50.011414
13287.669096	3905.699667	860.902344	-81.429344
13287.669096	3905.699667	859.724609	-93.227745
13287.669096	3905.699667	858.546875	-87.871948
13287.669096	3905.699667	857.368164	76.758041
13287.669096	3905.699667	856.190430	8.562246
13287.669096	3905.699667	855.011719	-54.712009
13287.669096	3905.699667	853.833008	104.889893
13287.669096	3905.699667	852.654297	102.818581
13287.669096	3905.699667	851.474609	-95.096054
13287.669096	3905.699667	850.294922	-84.901825
13287.669096	3905.699667	849.115234	-64.931328
13287.669096	3905.699667	847.935547	-47.423882
13287.669096	3905.699667	846.754883	-10.361655
13287.669096	3905.699667	845.575195	60.911804
13287.669096	3905.699667	844.393555	110.146446
13287.669096	3905.699667	843.212891	17.572620
13287.669096	3905.699667	842.032227	78.997696
13287.669096	3905.699667	840.850586	86.634285
13287.669096	3905.699667	839.668945	177.319855
13287.669096	3905.699667	838.486328	-93.521561
13287.669096	3905.699667	837.304688	-7.737365
13287.669096	3905.699667	836.122070	31.616776
13287.669096	3905.699667	834.939453	78.267990
13287.669096	3905.699667	833.756836	-63.022614
13287.669096	3905.699667	832.573242	25.091303
13287.669096	3905.699667	831.389648	5.824672
13287.669096	3905.699667	830.206055	-1.249391
13287.669096	3905.699667	829.022461	20.931486
13287.669096	3905.699667	827.838867	-144.626968
13287.669096	3905.699667	826.654297	-27.384634
13287.669096	3905.699667	825.469727	45.934483
13287.669096	3905.699667	824.284180	146.015503
13287.669096	3905.699667	823.099609	-85.241241
13287.669096	3905.699667	821.914063	143.881775
13287.669096	3905.699667	820.728516	126.973061
13287.669096	3905.699667	819.542969	183.093018
13287.669096	3905.699667	818.356445	56.636681
13287.669096	3905.699667	817.169922	68.925964
13287.669096	3905.699667	815.983398	25.241972
13287.669096	3905.699667	814.796875	61.834045
13287.669096	3905.699667	813.609375	195.675766
13287.669096	3905.699667	812.422852	54.701801
13287.669096	3905.699667	811.235352	-54.622971
13287.669096	3905.699667	810.046875	42.669521
13287.669096	3905.699667	808.859375	118.039368
13287.669096	3905.699667	807.670898	-115.165306
13287.669096	3905.699667	806.482422	42.763744
13287.669096	3905.699667	805.293945	79.195953
13287.669096	3905.699667	804.104492	118.028160
13287.669096	3905.699667	802.915039	113.139015
13287.669096	3905.699667	801.725586	154.348663
13287.669096	3905.699667	800.536133	-34.978352
13287.669096	3905.699667	799.345703	25.625553
13287.669096	3905.699667	798.155273	-127.242661
13287.669096	3905.699667	796.964844	-13.326350
13287.669096	3905.699667	795.774414	76.284447
13287.669096	3905.699667	794.583008	248.255981
13287.669096	3905.699667	793.392578	-42.721886
13287.669096	3905.699667	792.200195	87.985672
13287.669096	3905.699667	791.008789	-137.464584
13287.669096	3905.699667	789.816406	-23.775669
13287.669096	3905.699667	788.625000	-26.375809
13287.669096	3905.699667	787.432617	-48.356251
13287.669096	3905.699667	786.239258	26.470263
13287.669096	3905.699667	785.046875	21.394337
13287.669096	3905.699667	783.853516	130.013596
13287.669096	3905.699667	782.660156	105.534546
13287.669096	3905.699667	781.465820	180.201385
13287.669096	3905.699667	780.272461	80.734528
13287.669096	3905.699667	779.078125	7.882846
13287.669096	3905.699667	777.883789	75.220566
13287.669096	3905.699667	776.688477	-31.463234
13287.669096	3905.699667	775.494141	88.966515
13287.669096	3905.699667	774.298828	86.147240
13287.669096	3905.699667	773.103516	-44.675873
13287.669096	3905.699667	771.907227	218.072815
13287.669096	3905.699667	770.711914	-86.556969
13287.669096	3905.699667	769.515625	-58.039707
13287.669096	3905.699667	768.318359	64.547188
13287.669096	3905.699667	767.122070	8.550418
13287.669096	3905.699667	765.924805	0.794228
13287.669096	3905.699667	764.727539	-35.914581
13287.669096	3905.699667	763.530273	-19.590864
13287.669096	3905.699667	762.333008	-212.991653
13287.669096	3905.699667	761.134766	32.253948
13287.669096	3905.699667	759.936523	-98.476372
13287.669096	3905.699667	758.738281	-31.651573
13287.669096	3905.699667	757.540039	-109.373901
13287.669096	3905.699667	756.340820	3.131296
13287.669096	3905.699667	755.141602	-55.351006
13287.669096	3905.699667	753.942383	11.323036
13287.669096	3905.699667	752.742188	-51.993355
13287.669096	3905.699667	751.541992	-122.522964
13287.669096	3905.699667	750.341797	13.809701
13287.669096	3905.699667	749.141602	-13.463811
13287.669096	3905.699667	747.941406	168.424866
13287.669096	3905.699667	746.740234	40.124771
13287.669096	3905.699667	745.539063	226.686157
13287.669096	3905.699667	744.337891	88.769020
13287.669096	3905.699667	743.135742	63.793327
13287.669096	3905.699667	741.933594	-95.696449
13287.669096	3905.699667	740.731445	145.871292
13287.669096	3905.699667	739.529297	24.794710
13287.669096	3905.699667	738.326172	21.357990
13287.669096	3905.699667	737.124023	118.688553
13287.669096	3905.699667	735.919922	-52.766090
13287.669096	3905.699667	734.716797	109.256676
13287.669096	3905.699667	733.513672	69.729973
13287.669096	3905.699667	732.309570	90.139053
13287.669096	3905.699667	731.105469	91.335236
13287.669096	3905.699667	729.900391	22.998562
13287.669096	3905.699667	728.696289	-69.298416
13287.669096	3905.699667	727.491211	32.474449
13287.669096	3905.699667	726.286133	19.205675
13287.669096	3905.699667	725.080078	123.258827
13287.669096	3905.699667	723.874023	-0.213853
13287.669096	3905.699667	722.668945	-54.242168
13287.669096	3905.699667	721.461914	143.018158
13287.669096	3905.699667	720.255859	53.036079
13287.669096	3905.699667	719.048828	-91.957840
13287.669096	3905.699667	717.841797	-50.360554
13287.669096	3905.699667	716.634766	-23.156050
13287.669096	3905.699667	715.427734	6.400196
13287.669096	3905.699667	714.219727	-107.500282
13287.669096	3905.699667	713.011719	-3.912044
13287.669096	3905.699667	711.803711	106.772247
13287.669096	3905.699667	710.594727	112.276291
13287.669096	3905.699667	709.385742	46.101284
13287.669096	3905.699667	708.176758	-63.053635
13287.669096	3905.699667	706.967773	109.505310
13287.669096	3905.699667	705.758789	136.371323
13287.669096	3905.699667	704.548828	-22.931671
13287.669096	3905.699667	703.338867	142.266571
13287.669096	3905.699667	702.127930	42.602745
13287.669096	3905.699667	700.917969	76.498650
13287.669096	3905.699667	699.707031	115.119751
13287.669096	3905.699667	698.496094	227.592010
13287.669096	3905.699667	697.285156	163.626801
13287.669096	3905.699667	696.073242	-17.096291
13287.669096	3905.699667	694.861328	-66.748611
13287.669096	3905.699667	693.649414	26.496494
13287.669096	3905.699667	692.436523	-32.727856
13287.669096	3905.699667	691.224609	62.793041
13287.669096	3905.699667	690.011719	48.752174
13287.669096	3905.699667	688.798828	51.346512
13287.669096	3905.699667	687.584961	22.979134
13287.669096	3905.699667	686.372070	175.381058
13287.669096	3905.699667	685.158203	327.688477
13287.669096	3905.699667	683.943359	144.638657
13287.669096	3905.699667	682.729492	289.698639
13287.669096	3905.699667	681.514648	123.313072
13287.669096	3905.699667	680.299805	282.514587
13287.669096	3905.699667	679.084961	337.087463
13287.669096	3905.699667	677.869141	315.599152
13287.669096	3905.699667	676.653320	218.098984
13287.669096	3905.699667	675.437500	191.838547
13287.669096	3905.699667	674.221680	215.408737
13287.669096	3905.699667	673.004883	298.271027
13287.669096	3905.699667	671.789063	226.842148
13287.669096	3905.699667	670.571289	202.857315
13287.669096	3905.699667	669.354492	278.469238
13287.669096	3905.699667	668.136719	197.517181
13287.669096	3905.699667	666.919922	194.807236
13287.669096	3905.699667	665.701172	201.548508
13287.669096	3905.699667	664.483398	137.168411
13287.669096	3905.699667	663.264648	333.403564
13287.669096	3905.699667	662.045898	373.190796
13287.669096	3905.699667	660.827148	320.571838
13287.669096	3905.699667	659.608398	360.290497
13287.669096	3905.699667	658.388672	220.052719
13287.669096	3905.699667	657.168945	219.485458
13287.669096	3905.699667	655.949219	282.780823
13287.669096	3905.699667	654.728516	201.710602
13287.669096	3905.699667	653.507813	139.569809
13287.669096	3905.699667	652.287109	299.716095
13287.669096	3905.699667	651.066406	386.477356
13287.669096	3905.699667	649.844727	272.255219
13287.669096	3905.699667	648.623047	136.787186
13287.669096	3905.699667	647.401367	242.351837
13287.669096	3905.699667	646.179688	326.586670
13287.669096	3905.699667	644.957031	221.819534
13287.669096	3905.699667	643.734375	268.192352
13287.669096	3905.699667	642.511719	170.515442
13287.669096	3905.699667	641.289063	6.768650
13287.669096	3905.699667	640.065430	189.950195
13287.669096	3905.699667	638.841797	106.435478
13287.669096	3905.699667	637.618164	79.542694
13287.669096	3905.699667	636.393555	227.148499
13287.669096	3905.699667	635.168945	87.022881
13287.669096	3905.699667	633.944336	41.225281
13287.669096	3905.699667	632.719727	87.338577
13287.669096	3905.699667	631.494141	27.378050
13287.669096	3905.699667	630.269531	78.144318
13287.669096	3905.699667	629.042969	39.365059
13287.669096	3905.699667	627.817383	90.065323
13287.669096	3905.699667	626.590820	41.843121
13287.669096	3905.699667	625.365234	50.113968
13287.669096	3905.699667	624.137695	-38.125069
13287.669096	3905.699667	622.911133	-18.116312
13287.669096	3905.699667	621.683594	84.193733
13287.669096	3905.699667	620.456055	165.276520
13287.669096	3905.699667	619.228516	48.800938
13287.669096	3905.699667	618.000977	132.173218
13287.669096	3905.699667	616.772461	79.176125
13287.669096	3905.699667	615.543945	171.871536
13287.669096	3905.699667	614.314453	-0.957782
13287.669096	3905.699667	613.085938	58.801773
13287.669096	3905.699667	611.856445	-106.914612
13287.669096	3905.699667	610.626953	-40.145569
13287.669096	3905.699667	609.397461	162.724136
13287.669096	3905.699667	608.166992	130.814651
13287.669096	3905.699667	606.936523	-25.446770
13287.669096	3905.699667	605.706055	78.727478
13287.669096	3905.699667	604.474609	51.508331
13287.669096	3905.699667	603.244141	-15.569505
13287.669096	3905.699667	602.012695	11.140002
13287.669096	3905.699667	600.780273	14.387861
13287.669096	3905.699667	599.548828	-94.850739
13287.669096	3905.699667	598.316406	-37.715424
13287.669096	3905.699667	597.083984	35.782661
13287.669096	3905.699667	595.851563	8.544957
13287.669096	3905.699667	594.618164	84.326378
13287.669096	3905.699667	593.384766	12.598727
13287.669096	3905.699667	592.151367	-2.937224
13287.669096	3905.699667	590.917969	107.876823
13287.669096	3905.699667	589.683594	113.368050
13287.669096	3905.699667	588.449219	165.628891
13287.669096	3905.699667	587.214844	28.460743
13287.669096	3905.699667	585.979492	-50.209122
13287.669096	3905.699667	584.745117	86.186920
13287.669096	3905.699667	583.509766	152.415955
13287.669096	3905.699667	582.273438	22.363342
13287.669096	3905.699667	581.038086	-35.222610
13287.669096	3905.699667	579.801758	166.433960
13287.669096	3905.699667	578.565430	157.871353
13287.669096	3905.699667	577.329102	-30.429363
13287.669096	3905.699667	576.091797	84.747223
13287.669096	3905.699667	574.854492	-45.122139
13287.669096	3905.699667	573.617188	-13.968460
13287.669096	3905.699667	572.378906	56.823093
13287.669096	3905.699667	571.141602	6.335758
13287.669096	3905.699667	569.903320	-20.814203
13287.669096	3905.699667	568.664063	206.112137
13287.669096	3905.699667	567.425781	76.407928
13287.669096	3905.699667	566.186523	91.213409
13287.669096	3905.699667	564.947266	57.104427
13287.669096	3905.699667	563.708008	-18.901800
13287.669096	3905.699667	562.467773	89.070847
13287.669096	3905.699667	561.227539	8.450728
13287.669096	3905.699667	559.987305	32.605652
13287.669096	3905.699667	558.747070	3.243266
13287.669096	3905.699667	557.505859	148.379364
13287.669096	3905.699667	556.264648	-34.481571
13287.669096	3905.699667	555.023438	-10.294004
13287.669096	3905.699667	553.781250	-74.451294
13287.669096	3905.699667	552.539063	10.192598
13287.669096	3905.699667	551.296875	-30.675200
13287.669096	3905.699667	550.054688	-32.013084
13287.669096	3905.699667	548.811523	-135.543488
13287.669096	3905.699667	547.569336	167.404800
13287.669096	3905.699667	546.325195	59.262989
13287.669096	3905.699667	545.082031	-85.956108
13287.669096	3905.699667	543.837891	158.812851
13287.669096	3905.699667	542.593750	201.620544
13287.669096	3905.699667	541.349609	40.278564
13287.669096	3905.699667	540.105469	-25.880049
13287.669096	3905.699667	538.860352	160.768051
13287.669096	3905.699667	537.615234	90.013672
13287.669096	3905.699667	536.369141	167.655472
13287.669096	3905.699667	535.124023	78.433121
13287.669096	3905.699667	533.877930	33.290577
13287.669096	3905.699667	532.631836	62.315426
13287.669096	3905.699667	531.384766	149.247253
13287.669096	3905.699667	530.138672	-60.207645
13287.669096	3905.699667	528.891602	-12.593023
13287.669096	3905.699667	527.643555	238.693161
13287.669096	3905.699667	526.396484	71.076279
13287.669096	3905.699667	525.148438	-87.191437
13287.669096	3905.699667	523.900391	2.118960
13287.669096	3905.699667	522.652344	-162.952118
13287.669096	3905.699667	521.403320	-59.741219
13287.669096	3905.699667	520.154297	-21.268505
13287.669096	3905.699667	518.905273	-54.425278
13287.669096	3905.699667	517.656250	-59.814762
13287.669096	3905.699667	516.406250	-162.194366
13287.669096	3905.699667	515.156250	26.490747
13287.669096	3905.699667	513.906250	-138.149796
13287.669096	3905.699667	512.655273	-18.749401
13287.669096	3905.699667	511.404297	-95.550690
13287.669096	3905.699667	510.153320	-243.822067
13287.669096	3905.699667	508.902344	-82.864166
13287.669096	3905.699667	507.650391	-143.370911
13287.669096	3905.699667	506.398438	-97.746765
13287.669096	3905.699667	505.146484	-75.167435
13287.669096	3905.699667	503.893555	-80.230179
13287.669096	3905.699667	502.641602	-69.128555
13287.669096	3905.699667	501.388672	-69.523453
13287.669096	3905.699667	500.134766	-81.407516
13287.669096	3905.699667	498.881836	-95.559013
13287.669096	3905.699667	497.627930	-220.197372
13287.669096	3905.699667	496.374023	-167.496994
13287.669096	3905.699667	495.119141	-31.935528
13287.669096	3905.699667	493.865234	39.167900
13287.669096	3905.699667	492.610352	-138.190247
13287.669096	3905.699667	491.355469	-78.538605
13287.669096	3905.699667	490.099609	-78.673729
13287.669096	3905.699667	488.843750	6.284317
13287.669096	3905.699667	487.587891	-97.249313
13287.669096	3905.699667	486.332031	-49.038704
13287.669096	3905.699667	485.075195	107.162971
13287.669096	3905.699667	483.818359	56.585995
13287.669096	3905.699667	482.561523	-30.688622
13287.669096	3905.699667	481.304688	38.233559
13287.669096	3905.699667	480.046875	134.696457
13287.669096	3905.699667	478.789063	38.353916
13287.669096	3905.699667	477.531250	26.975746
13287.669096	3905.699667	476.272461	116.565445
13287.669096	3905.699667	475.013672	-87.445015
13287.669096	3905.699667	473.754883	93.898117
13287.669096	3905.699667	472.496094	139.917175
13287.669096	3905.699667	471.236328	144.677032
13287.669096	3905.699667	469.976563	62.370174
13287.669096	3905.699667	468.716797	135.913498
13287.669096	3905.699667	467.456055	191.115417
13287.669096	3905.699667	466.196289	138.671158
13287.669096	3905.699667	464.935547	219.062317
13287.669096	3905.699667	463.673828	180.394623
13287.669096	3905.699667	462.413086	210.414749
13287.669096	3905.699667	461.151367	0.172121
13287.669096	3905.699667	459.889648	87.426971
13287.669096	3905.699667	458.626953	71.727142
13287.669096	3905.699667	457.364258	28.598352
13287.669096	3905.699667	456.101563	33.501850
13287.669096	3905.699667	454.838867	61.261608
13287.669096	3905.699667	453.575195	68.441780
13287.669096	3905.699667	452.312500	192.137634
13287.669096	3905.699667	451.047852	174.153473
13287.669096	3905.699667	449.784180	71.673256
13287.669096	3905.699667	448.519531	-85.568703
13287.669096	3905.699667	447.254883	-28.175171
13287.669096	3905.699667	445.990234	24.616779
13287.669096	3905.699667	444.725586	159.513840
13287.669096	3905.699667	443.459961	2.333922
13287.669096	3905.699667	442.194336	77.840698
13287.669096	3905.699667	440.927734	-24.569510
13287.669096	3905.699667	439.662109	80.500214
13287.669096	3905.699667	438.395508	142.190079
13287.669096	3905.699667	437.127930	226.610535
13287.669096	3905.699667	435.861328	80.853172
13287.669096	3905.699667	434.593750	92.290726
13287.669096	3905.699667	433.326172	99.129730
13287.669096	3905.699667	432.058594	-42.070438
13287.669096	3905.699667	430.790039	67.140312
13287.669096	3905.699667	429.521484	89.772530
13287.669096	3905.699667	428.252930	87.314003
13287.669096	3905.699667	426.984375	109.823700
13287.669096	3905.699667	425.714844	118.616898
13287.669096	3905.699667	424.445313	31.840124
13287.669096	3905.699667	423.174805	63.248276
13287.669096	3905.699667	421.905273	196.851166
13287.669096	3905.699667	420.634766	187.159698
13287.669096	3905.699667	419.364258	166.033081
13287.669096	3905.699667	418.092773	346.984314
13287.669096	3905.699667	416.822266	221.198074
13287.669096	3905.699667	415.550781	342.846436
13287.669096	3905.699667	414.278320	221.461670
13287.669096	3905.699667	413.006836	252.080078
13287.669096	3905.699667	411.734375	248.541901
13287.669096	3905.699667	410.461914	229.013611
13287.669096	3905.699667	409.188477	200.302216
13287.669096	3905.699667	407.916016	223.633682
13287.669096	3905.699667	406.642578	296.698090
13287.669096	3905.699667	405.368164	346.929657
13287.669096	3905.699667	404.094727	190.797134
13287.669096	3905.699667	402.820313	172.779709
13287.669096	3905.699667	401.545898	93.463501
13287.669096	3905.699667	400.270508	215.563065
13287.669096	3905.699667	398.996094	174.438644
13287.669096	3905.699667	397.720703	33.563553
13287.669096	3905.699667	396.444336	80.402138
13287.669096	3905.699667	395.168945	120.251564
13287.669096	3905.699667	393.892578	121.435402
13287.669096	3905.699667	392.616211	140.513275
13287.669096	3905.699667	391.339844	218.166183
13287.669096	3905.699667	390.062500	87.596565
13287.669096	3905.699667	388.785156	47.267853
13287.669096	3905.699667	387.507813	187.496292
13287.669096	3905.699667	386.229492	169.287552
13287.669096	3905.699667	384.951172	94.378479
13287.669096	3905.699667	383.672852	125.382217
13287.669096	3905.699667	382.394531	0.336543
13287.669096	3905.699667	381.115234	73.700760
13287.669096	3905.699667	379.835938	61.003284
13287.669096	3905.699667	378.556641	169.858047
13287.669096	3905.699667	377.277344	73.105835
13287.669096	3905.699667	375.997070	9.913375
13287.669096	3905.699667	374.716797	133.573364
13287.669096	3905.699667	373.435547	105.819542
13287.669096	3905.699667	372.155273	57.468456
13287.669096	3905.699667	370.874023	152.994339
13287.669096	3905.699667	369.591797	13.835210
13287.669096	3905.699667	368.310547	153.656769
13287.669096	3905.699667	367.028320	-33.465931
13287.669096	3905.699667	365.746094	51.508762
13287.669096	3905.699667	364.463867	-28.254557
13287.669096	3905.699667	363.180664	26.617104
13287.669096	3905.699667	361.897461	-40.441792
13287.669096	3905.699667	360.614258	105.780586
13287.669096	3905.699667	359.330078	64.837257
13287.669096	3905.699667	358.045898	5.470601
13287.669096	3905.699667	356.761719	210.905960
13287.669096	3905.699667	355.477539	26.984697
13287.669096	3905.699667	354.192383	-60.745419
13287.669096	3905.699667	352.907227	-5.176272
13287.669096	3905.699667	351.622070	-26.508703
13287.669096	3905.699667	350.336914	25.733973
13287.669096	3905.699667	349.050781	23.518431
13287.669096	3905.699667	347.764648	-10.677491
13287.669096	3905.699667	346.477539	-23.006622
13287.669096	3905.699667	345.191406	44.857689
13287.669096	3905.699667	343.904297	-53.901302
13287.669096	3905.699667	342.616211	-108.401527
13287.669096	3905.699667	341.329102	-13.286541
13287.669096	3905.699667	340.041016	139.400238
13287.669096	3905.699667	338.752930	-76.163284
13287.669096	3905.699667	337.463867	-124.294228
13287.669096	3905.699667	336.175781	-79.005310
13287.669096	3905.699667	334.886719	-267.375763
13287.669096	3905.699667	333.596680	9.301089
13287.669096	3905.699667	332.307617	-169.292679
13287.669096	3905.699667	331.017578	36.348949
13287.669096	3905.699667	329.727539	-190.729645
13287.669096	3905.699667	328.436523	-15.860683
13287.669096	3905.699667	327.146484	-9.610057
13287.669096	3905.699667	325.855469	-104.845749
13287.669096	3905.699667	324.563477	-80.198265
13287.669096	3905.699667	323.272461	-29.594376
13287.669096	3905.699667	321.980469	-76.021042
13287.669096	3905.699667	320.688477	53.151840
13287.669096	3905.699667	319.395508	-8.552829
13287.669096	3905.699667	318.103516	-55.530254
13287.669096	3905.699667	316.810547	-74.466995
13287.669096	3905.699667	315.516602	-112.279663
13287.669096	3905.699667	314.223633	78.794739
13287.669096	3905.699667	312.929688	45.594517
13287.669096	3905.699667	311.635742	-26.579020
13287.669096	3905.699667	310.340820	-12.859936
13287.669096	3905.699667	309.045898	37.646721
13287.669096	3905.699667	307.750977	-71.279129
13287.669096	3905.699667	306.456055	90.594276
13287.669096	3905.699667	305.160156	436.128571
13287.669096	3905.699667	303.865234	196.659256
13287.669096	3905.699667	302.568359	361.363098
13287.669096	3905.699667	301.272461	297.639648
13287.669096	3905.699667	299.975586	455.258514
13287.669096	3905.699667	298.678711	506.887299
