#X		#Y		#Wave		#Intensity
-13827.153351	17609.371500	2000.043945	51.197937
-13827.153351	17609.371500	1999.080078	13.505017
-13827.153351	17609.371500	1998.116211	216.058670
-13827.153351	17609.371500	1997.151367	91.531372
-13827.153351	17609.371500	1996.186523	-223.620361
-13827.153351	17609.371500	1995.222656	-60.437534
-13827.153351	17609.371500	1994.256836	107.739838
-13827.153351	17609.371500	1993.291992	335.392456
-13827.153351	17609.371500	1992.327148	223.869949
-13827.153351	17609.371500	1991.361328	110.009682
-13827.153351	17609.371500	1990.395508	11.139765
-13827.153351	17609.371500	1989.429688	60.870243
-13827.153351	17609.371500	1988.463867	-193.630234
-13827.153351	17609.371500	1987.497070	7.189115
-13827.153351	17609.371500	1986.531250	143.723175
-13827.153351	17609.371500	1985.564453	107.206703
-13827.153351	17609.371500	1984.597656	-151.709335
-13827.153351	17609.371500	1983.630859	140.749329
-13827.153351	17609.371500	1982.664063	121.799408
-13827.153351	17609.371500	1981.696289	36.221832
-13827.153351	17609.371500	1980.728516	-111.005508
-13827.153351	17609.371500	1979.761719	156.839111
-13827.153351	17609.371500	1978.792969	34.484016
-13827.153351	17609.371500	1977.825195	-292.678955
-13827.153351	17609.371500	1976.857422	-9.927161
-13827.153351	17609.371500	1975.888672	-67.805199
-13827.153351	17609.371500	1974.919922	-24.426323
-13827.153351	17609.371500	1973.951172	-111.757179
-13827.153351	17609.371500	1972.982422	-282.861084
-13827.153351	17609.371500	1972.013672	-81.441925
-13827.153351	17609.371500	1971.043945	-35.381786
-13827.153351	17609.371500	1970.075195	124.122299
-13827.153351	17609.371500	1969.105469	-155.121643
-13827.153351	17609.371500	1968.135742	61.134182
-13827.153351	17609.371500	1967.165039	112.278549
-13827.153351	17609.371500	1966.195313	99.404106
-13827.153351	17609.371500	1965.224609	313.180725
-13827.153351	17609.371500	1964.253906	192.017212
-13827.153351	17609.371500	1963.283203	-44.774494
-13827.153351	17609.371500	1962.312500	141.969131
-13827.153351	17609.371500	1961.341797	107.179192
-13827.153351	17609.371500	1960.370117	158.570129
-13827.153351	17609.371500	1959.399414	-65.570602
-13827.153351	17609.371500	1958.427734	202.375916
-13827.153351	17609.371500	1957.455078	25.115396
-13827.153351	17609.371500	1956.483398	-31.558025
-13827.153351	17609.371500	1955.511719	-36.547901
-13827.153351	17609.371500	1954.539063	78.938675
-13827.153351	17609.371500	1953.566406	-161.927032
-13827.153351	17609.371500	1952.593750	81.370255
-13827.153351	17609.371500	1951.621094	-4.580903
-13827.153351	17609.371500	1950.647461	-80.645622
-13827.153351	17609.371500	1949.674805	17.698429
-13827.153351	17609.371500	1948.701172	69.381546
-13827.153351	17609.371500	1947.727539	79.339584
-13827.153351	17609.371500	1946.753906	101.587936
-13827.153351	17609.371500	1945.780273	106.673264
-13827.153351	17609.371500	1944.805664	104.417236
-13827.153351	17609.371500	1943.831055	97.276169
-13827.153351	17609.371500	1942.856445	41.106358
-13827.153351	17609.371500	1941.881836	-179.313049
-13827.153351	17609.371500	1940.907227	142.169189
-13827.153351	17609.371500	1939.932617	-14.425566
-13827.153351	17609.371500	1938.957031	47.164024
-13827.153351	17609.371500	1937.981445	-207.336212
-13827.153351	17609.371500	1937.005859	8.627386
-13827.153351	17609.371500	1936.030273	-3.265557
-13827.153351	17609.371500	1935.054688	-269.823669
-13827.153351	17609.371500	1934.078125	-98.010086
-13827.153351	17609.371500	1933.101563	56.612938
-13827.153351	17609.371500	1932.125000	125.522957
-13827.153351	17609.371500	1931.148438	10.886009
-13827.153351	17609.371500	1930.171875	94.469719
-13827.153351	17609.371500	1929.194336	168.242676
-13827.153351	17609.371500	1928.217773	158.839157
-13827.153351	17609.371500	1927.240234	-51.065372
-13827.153351	17609.371500	1926.262695	32.480545
-13827.153351	17609.371500	1925.284180	-47.770248
-13827.153351	17609.371500	1924.306641	-86.447098
-13827.153351	17609.371500	1923.328125	-186.193848
-13827.153351	17609.371500	1922.350586	-151.545090
-13827.153351	17609.371500	1921.372070	-163.318436
-13827.153351	17609.371500	1920.392578	-26.126068
-13827.153351	17609.371500	1919.414063	-67.224190
-13827.153351	17609.371500	1918.434570	-66.812248
-13827.153351	17609.371500	1917.456055	92.236366
-13827.153351	17609.371500	1916.476563	36.481979
-13827.153351	17609.371500	1915.497070	-124.167725
-13827.153351	17609.371500	1914.516602	-74.986191
-13827.153351	17609.371500	1913.537109	30.260723
-13827.153351	17609.371500	1912.556641	172.035675
-13827.153351	17609.371500	1911.576172	-29.998716
-13827.153351	17609.371500	1910.595703	-85.721054
-13827.153351	17609.371500	1909.615234	-138.997238
-13827.153351	17609.371500	1908.633789	104.994965
-13827.153351	17609.371500	1907.653320	-43.329422
-13827.153351	17609.371500	1906.671875	78.745102
-13827.153351	17609.371500	1905.690430	5.945763
-13827.153351	17609.371500	1904.708984	50.024857
-13827.153351	17609.371500	1903.727539	-103.103188
-13827.153351	17609.371500	1902.745117	172.163177
-13827.153351	17609.371500	1901.762695	31.203585
-13827.153351	17609.371500	1900.780273	160.332886
-13827.153351	17609.371500	1899.797852	-51.147720
-13827.153351	17609.371500	1898.815430	287.065857
-13827.153351	17609.371500	1897.832031	141.255829
-13827.153351	17609.371500	1896.849609	292.073914
-13827.153351	17609.371500	1895.866211	114.679741
-13827.153351	17609.371500	1894.882813	170.628937
-13827.153351	17609.371500	1893.898438	-191.377441
-13827.153351	17609.371500	1892.915039	-147.580994
-13827.153351	17609.371500	1891.930664	250.785187
-13827.153351	17609.371500	1890.947266	68.599724
-13827.153351	17609.371500	1889.962891	-16.424244
-13827.153351	17609.371500	1888.977539	17.506674
-13827.153351	17609.371500	1887.993164	36.837666
-13827.153351	17609.371500	1887.007813	-14.232898
-13827.153351	17609.371500	1886.023438	216.117233
-13827.153351	17609.371500	1885.038086	213.494537
-13827.153351	17609.371500	1884.051758	339.382904
-13827.153351	17609.371500	1883.066406	-36.724369
-13827.153351	17609.371500	1882.081055	110.928375
-13827.153351	17609.371500	1881.094727	132.458984
-13827.153351	17609.371500	1880.108398	146.683319
-13827.153351	17609.371500	1879.122070	274.752319
-13827.153351	17609.371500	1878.135742	-101.129288
-13827.153351	17609.371500	1877.148438	-45.780285
-13827.153351	17609.371500	1876.162109	-14.697147
-13827.153351	17609.371500	1875.174805	-133.763092
-13827.153351	17609.371500	1874.187500	-15.591762
-13827.153351	17609.371500	1873.199219	-33.026402
-13827.153351	17609.371500	1872.211914	-14.189221
-13827.153351	17609.371500	1871.223633	159.444565
-13827.153351	17609.371500	1870.236328	1.600525
-13827.153351	17609.371500	1869.248047	131.570923
-13827.153351	17609.371500	1868.258789	145.400269
-13827.153351	17609.371500	1867.270508	200.288940
-13827.153351	17609.371500	1866.282227	11.003995
-13827.153351	17609.371500	1865.292969	-108.162285
-13827.153351	17609.371500	1864.303711	-178.996017
-13827.153351	17609.371500	1863.314453	112.513245
-13827.153351	17609.371500	1862.324219	-187.849106
-13827.153351	17609.371500	1861.334961	-292.536530
-13827.153351	17609.371500	1860.344727	10.796375
-13827.153351	17609.371500	1859.354492	43.629341
-13827.153351	17609.371500	1858.364258	1.599799
-13827.153351	17609.371500	1857.374023	-9.082544
-13827.153351	17609.371500	1856.383789	-12.558557
-13827.153351	17609.371500	1855.392578	34.582932
-13827.153351	17609.371500	1854.401367	286.653839
-13827.153351	17609.371500	1853.410156	-102.766953
-13827.153351	17609.371500	1852.418945	-31.638645
-13827.153351	17609.371500	1851.426758	97.269135
-13827.153351	17609.371500	1850.435547	-2.836097
-13827.153351	17609.371500	1849.443359	101.850357
-13827.153351	17609.371500	1848.451172	-92.240181
-13827.153351	17609.371500	1847.458984	120.725098
-13827.153351	17609.371500	1846.466797	-92.635826
-13827.153351	17609.371500	1845.473633	-26.685528
-13827.153351	17609.371500	1844.480469	24.758450
-13827.153351	17609.371500	1843.487305	172.407852
-13827.153351	17609.371500	1842.494141	88.972473
-13827.153351	17609.371500	1841.500977	118.596687
-13827.153351	17609.371500	1840.506836	112.090614
-13827.153351	17609.371500	1839.513672	144.024918
-13827.153351	17609.371500	1838.519531	236.014130
-13827.153351	17609.371500	1837.525391	152.445068
-13827.153351	17609.371500	1836.530273	73.673653
-13827.153351	17609.371500	1835.536133	127.056023
-13827.153351	17609.371500	1834.541016	12.198586
-13827.153351	17609.371500	1833.545898	-90.644440
-13827.153351	17609.371500	1832.550781	113.917458
-13827.153351	17609.371500	1831.555664	44.627338
-13827.153351	17609.371500	1830.560547	138.571030
-13827.153351	17609.371500	1829.564453	71.619820
-13827.153351	17609.371500	1828.568359	-28.946482
-13827.153351	17609.371500	1827.572266	91.225563
-13827.153351	17609.371500	1826.576172	216.108521
-13827.153351	17609.371500	1825.580078	187.401550
-13827.153351	17609.371500	1824.583008	151.467911
-13827.153351	17609.371500	1823.585938	328.887482
-13827.153351	17609.371500	1822.588867	-69.105438
-13827.153351	17609.371500	1821.591797	67.460770
-13827.153351	17609.371500	1820.594727	29.012810
-13827.153351	17609.371500	1819.596680	-2.278578
-13827.153351	17609.371500	1818.599609	-50.365398
-13827.153351	17609.371500	1817.601563	105.082115
-13827.153351	17609.371500	1816.603516	68.878502
-13827.153351	17609.371500	1815.604492	-65.508781
-13827.153351	17609.371500	1814.606445	147.170761
-13827.153351	17609.371500	1813.607422	70.167488
-13827.153351	17609.371500	1812.608398	43.394745
-13827.153351	17609.371500	1811.609375	-57.566422
-13827.153351	17609.371500	1810.610352	54.325970
-13827.153351	17609.371500	1809.610352	113.524521
-13827.153351	17609.371500	1808.611328	258.728485
-13827.153351	17609.371500	1807.611328	35.722893
-13827.153351	17609.371500	1806.611328	116.270996
-13827.153351	17609.371500	1805.610352	-221.404236
-13827.153351	17609.371500	1804.610352	301.035431
-13827.153351	17609.371500	1803.609375	407.630646
-13827.153351	17609.371500	1802.608398	34.141827
-13827.153351	17609.371500	1801.607422	150.210648
-13827.153351	17609.371500	1800.606445	-282.852295
-13827.153351	17609.371500	1799.605469	-14.103651
-13827.153351	17609.371500	1798.603516	190.068985
-13827.153351	17609.371500	1797.601563	219.957550
-13827.153351	17609.371500	1796.599609	-7.826569
-13827.153351	17609.371500	1795.597656	243.798706
-13827.153351	17609.371500	1794.595703	-10.218321
-13827.153351	17609.371500	1793.592773	-44.856270
-13827.153351	17609.371500	1792.589844	87.323502
-13827.153351	17609.371500	1791.587891	90.726593
-13827.153351	17609.371500	1790.583984	94.079865
-13827.153351	17609.371500	1789.581055	40.219120
-13827.153351	17609.371500	1788.577148	-108.936256
-13827.153351	17609.371500	1787.574219	-219.974335
-13827.153351	17609.371500	1786.570313	42.776073
-13827.153351	17609.371500	1785.566406	-123.084961
-13827.153351	17609.371500	1784.561523	-219.911362
-13827.153351	17609.371500	1783.557617	18.767708
-13827.153351	17609.371500	1782.552734	2.754007
-13827.153351	17609.371500	1781.547852	-34.702797
-13827.153351	17609.371500	1780.542969	-126.883835
-13827.153351	17609.371500	1779.538086	-5.081953
-13827.153351	17609.371500	1778.532227	54.821358
-13827.153351	17609.371500	1777.527344	86.142166
-13827.153351	17609.371500	1776.521484	-96.463722
-13827.153351	17609.371500	1775.515625	276.913757
-13827.153351	17609.371500	1774.508789	-55.397026
-13827.153351	17609.371500	1773.502930	61.250359
-13827.153351	17609.371500	1772.496094	-344.586212
-13827.153351	17609.371500	1771.489258	21.263262
-13827.153351	17609.371500	1770.482422	-118.648308
-13827.153351	17609.371500	1769.475586	-92.425262
-13827.153351	17609.371500	1768.467773	-101.847870
-13827.153351	17609.371500	1767.460938	38.149769
-13827.153351	17609.371500	1766.453125	268.178802
-13827.153351	17609.371500	1765.445313	173.203400
-13827.153351	17609.371500	1764.437500	40.289215
-13827.153351	17609.371500	1763.428711	-42.839317
-13827.153351	17609.371500	1762.420898	120.510056
-13827.153351	17609.371500	1761.412109	58.644417
-13827.153351	17609.371500	1760.403320	67.836777
-13827.153351	17609.371500	1759.393555	-200.150467
-13827.153351	17609.371500	1758.384766	-153.099350
-13827.153351	17609.371500	1757.375000	220.641647
-13827.153351	17609.371500	1756.366211	-7.091217
-13827.153351	17609.371500	1755.356445	-104.601601
-13827.153351	17609.371500	1754.345703	-3.340561
-13827.153351	17609.371500	1753.335938	-15.716748
-13827.153351	17609.371500	1752.325195	149.281418
-13827.153351	17609.371500	1751.315430	94.233688
-13827.153351	17609.371500	1750.304688	-145.274246
-13827.153351	17609.371500	1749.292969	142.473557
-13827.153351	17609.371500	1748.282227	23.521936
-13827.153351	17609.371500	1747.270508	306.327454
-13827.153351	17609.371500	1746.259766	-74.954567
-13827.153351	17609.371500	1745.248047	-104.141113
-13827.153351	17609.371500	1744.235352	-128.634384
-13827.153351	17609.371500	1743.223633	-56.330589
-13827.153351	17609.371500	1742.211914	105.628937
-13827.153351	17609.371500	1741.199219	-119.644318
-13827.153351	17609.371500	1740.186523	35.109734
-13827.153351	17609.371500	1739.173828	-55.634029
-13827.153351	17609.371500	1738.160156	-292.653839
-13827.153351	17609.371500	1737.147461	-102.678566
-13827.153351	17609.371500	1736.133789	-16.580393
-13827.153351	17609.371500	1735.120117	151.976120
-13827.153351	17609.371500	1734.106445	49.333042
-13827.153351	17609.371500	1733.091797	-27.382702
-13827.153351	17609.371500	1732.078125	-113.523674
-13827.153351	17609.371500	1731.063477	-140.768036
-13827.153351	17609.371500	1730.048828	-14.920788
-13827.153351	17609.371500	1729.034180	-105.827332
-13827.153351	17609.371500	1728.019531	-76.641655
-13827.153351	17609.371500	1727.003906	277.382141
-13827.153351	17609.371500	1725.988281	94.572945
-13827.153351	17609.371500	1724.972656	20.056101
-13827.153351	17609.371500	1723.957031	110.240120
-13827.153351	17609.371500	1722.941406	101.556976
-13827.153351	17609.371500	1721.924805	123.416512
-13827.153351	17609.371500	1720.909180	131.134766
-13827.153351	17609.371500	1719.892578	-89.242348
-13827.153351	17609.371500	1718.875977	-210.836899
-13827.153351	17609.371500	1717.858398	161.122192
-13827.153351	17609.371500	1716.841797	-14.575168
-13827.153351	17609.371500	1715.824219	253.777847
-13827.153351	17609.371500	1714.806641	-67.560806
-13827.153351	17609.371500	1713.789063	10.422888
-13827.153351	17609.371500	1712.770508	3.818263
-13827.153351	17609.371500	1711.752930	4.237744
-13827.153351	17609.371500	1710.734375	21.053967
-13827.153351	17609.371500	1709.715820	145.780853
-13827.153351	17609.371500	1708.697266	155.472504
-13827.153351	17609.371500	1707.678711	298.840210
-13827.153351	17609.371500	1706.659180	52.810101
-13827.153351	17609.371500	1705.640625	325.056427
-13827.153351	17609.371500	1704.621094	25.145903
-13827.153351	17609.371500	1703.600586	226.915771
-13827.153351	17609.371500	1702.581055	109.880226
-13827.153351	17609.371500	1701.561523	145.162659
-13827.153351	17609.371500	1700.541016	304.556274
-13827.153351	17609.371500	1699.520508	330.367249
-13827.153351	17609.371500	1698.500000	681.635010
-13827.153351	17609.371500	1697.478516	335.061981
-13827.153351	17609.371500	1696.458008	409.942810
-13827.153351	17609.371500	1695.436523	353.710144
-13827.153351	17609.371500	1694.415039	479.986664
-13827.153351	17609.371500	1693.393555	697.430969
-13827.153351	17609.371500	1692.372070	563.929260
-13827.153351	17609.371500	1691.349609	589.470886
-13827.153351	17609.371500	1690.327148	678.111145
-13827.153351	17609.371500	1689.304688	577.353516
-13827.153351	17609.371500	1688.282227	642.552856
-13827.153351	17609.371500	1687.259766	707.710510
-13827.153351	17609.371500	1686.236328	684.041504
-13827.153351	17609.371500	1685.213867	590.295959
-13827.153351	17609.371500	1684.190430	594.649292
-13827.153351	17609.371500	1683.166016	699.379333
-13827.153351	17609.371500	1682.142578	850.748962
-13827.153351	17609.371500	1681.119141	528.239685
-13827.153351	17609.371500	1680.094727	903.568359
-13827.153351	17609.371500	1679.070313	991.767029
-13827.153351	17609.371500	1678.045898	935.291260
-13827.153351	17609.371500	1677.020508	822.844177
-13827.153351	17609.371500	1675.996094	941.278625
-13827.153351	17609.371500	1674.970703	1003.695801
-13827.153351	17609.371500	1673.945313	972.842651
-13827.153351	17609.371500	1672.919922	706.618042
-13827.153351	17609.371500	1671.893555	932.100098
-13827.153351	17609.371500	1670.868164	1117.889893
-13827.153351	17609.371500	1669.841797	900.662659
-13827.153351	17609.371500	1668.815430	911.712341
-13827.153351	17609.371500	1667.789063	1069.424072
-13827.153351	17609.371500	1666.761719	1047.825317
-13827.153351	17609.371500	1665.735352	1158.886230
-13827.153351	17609.371500	1664.708008	1002.305359
-13827.153351	17609.371500	1663.680664	1003.970642
-13827.153351	17609.371500	1662.653320	898.636292
-13827.153351	17609.371500	1661.625000	1058.431152
-13827.153351	17609.371500	1660.597656	899.638184
-13827.153351	17609.371500	1659.569336	982.649231
-13827.153351	17609.371500	1658.541016	840.184082
-13827.153351	17609.371500	1657.512695	876.690491
-13827.153351	17609.371500	1656.483398	922.465271
-13827.153351	17609.371500	1655.455078	1075.072510
-13827.153351	17609.371500	1654.425781	1048.792847
-13827.153351	17609.371500	1653.396484	894.814941
-13827.153351	17609.371500	1652.366211	1058.925659
-13827.153351	17609.371500	1651.336914	1137.099243
-13827.153351	17609.371500	1650.306641	985.503235
-13827.153351	17609.371500	1649.276367	1212.138550
-13827.153351	17609.371500	1648.246094	1262.394409
-13827.153351	17609.371500	1647.215820	1333.501709
-13827.153351	17609.371500	1646.185547	1272.414185
-13827.153351	17609.371500	1645.154297	1120.932495
-13827.153351	17609.371500	1644.123047	1203.612427
-13827.153351	17609.371500	1643.091797	1147.219971
-13827.153351	17609.371500	1642.060547	1176.576172
-13827.153351	17609.371500	1641.028320	1226.768799
-13827.153351	17609.371500	1639.997070	1232.945801
-13827.153351	17609.371500	1638.964844	1574.878174
-13827.153351	17609.371500	1637.931641	1335.576416
-13827.153351	17609.371500	1636.899414	1198.225342
-13827.153351	17609.371500	1635.867188	1475.182495
-13827.153351	17609.371500	1634.833984	1215.233032
-13827.153351	17609.371500	1633.800781	1172.842896
-13827.153351	17609.371500	1632.767578	1528.297729
-13827.153351	17609.371500	1631.734375	1515.939697
-13827.153351	17609.371500	1630.700195	1794.901855
-13827.153351	17609.371500	1629.666016	1907.333618
-13827.153351	17609.371500	1628.631836	1663.821289
-13827.153351	17609.371500	1627.597656	1974.967163
-13827.153351	17609.371500	1626.563477	1946.404297
-13827.153351	17609.371500	1625.528320	1705.361450
-13827.153351	17609.371500	1624.493164	1843.146362
-13827.153351	17609.371500	1623.458008	1918.552246
-13827.153351	17609.371500	1622.422852	1788.491821
-13827.153351	17609.371500	1621.387695	1665.420776
-13827.153351	17609.371500	1620.351563	1669.315796
-13827.153351	17609.371500	1619.315430	1527.878906
-13827.153351	17609.371500	1618.279297	1568.733765
-13827.153351	17609.371500	1617.243164	1436.624878
-13827.153351	17609.371500	1616.207031	1419.869263
-13827.153351	17609.371500	1615.169922	1557.584351
-13827.153351	17609.371500	1614.132813	1386.415527
-13827.153351	17609.371500	1613.095703	1567.898438
-13827.153351	17609.371500	1612.058594	1417.564697
-13827.153351	17609.371500	1611.020508	1435.453979
-13827.153351	17609.371500	1609.983398	1582.330688
-13827.153351	17609.371500	1608.945313	1298.583618
-13827.153351	17609.371500	1607.907227	1362.586670
-13827.153351	17609.371500	1606.868164	1617.617554
-13827.153351	17609.371500	1605.830078	1479.065674
-13827.153351	17609.371500	1604.791016	1637.384399
-13827.153351	17609.371500	1603.751953	1880.775635
-13827.153351	17609.371500	1602.712891	1735.415527
-13827.153351	17609.371500	1601.673828	1541.845703
-13827.153351	17609.371500	1600.633789	1603.555054
-13827.153351	17609.371500	1599.594727	1623.897461
-13827.153351	17609.371500	1598.554688	1908.531860
-13827.153351	17609.371500	1597.513672	1885.189209
-13827.153351	17609.371500	1596.473633	1825.133423
-13827.153351	17609.371500	1595.433594	1666.367188
-13827.153351	17609.371500	1594.392578	1617.904785
-13827.153351	17609.371500	1593.351563	1482.246704
-13827.153351	17609.371500	1592.310547	1381.100220
-13827.153351	17609.371500	1591.268555	1355.749756
-13827.153351	17609.371500	1590.227539	1601.194824
-13827.153351	17609.371500	1589.185547	1300.583252
-13827.153351	17609.371500	1588.143555	1330.397705
-13827.153351	17609.371500	1587.100586	1571.195679
-13827.153351	17609.371500	1586.058594	1614.761963
-13827.153351	17609.371500	1585.015625	1429.113647
-13827.153351	17609.371500	1583.972656	1520.875732
-13827.153351	17609.371500	1582.929688	1658.464844
-13827.153351	17609.371500	1581.886719	1653.994507
-13827.153351	17609.371500	1580.843750	1445.707642
-13827.153351	17609.371500	1579.799805	1752.787109
-13827.153351	17609.371500	1578.755859	1837.689575
-13827.153351	17609.371500	1577.711914	1835.609131
-13827.153351	17609.371500	1576.666992	1950.283203
-13827.153351	17609.371500	1575.623047	1783.499878
-13827.153351	17609.371500	1574.578125	2056.067871
-13827.153351	17609.371500	1573.533203	1996.902832
-13827.153351	17609.371500	1572.488281	2155.052246
-13827.153351	17609.371500	1571.443359	2041.092651
-13827.153351	17609.371500	1570.397461	1966.072632
-13827.153351	17609.371500	1569.351563	2060.251221
-13827.153351	17609.371500	1568.305664	2076.738281
-13827.153351	17609.371500	1567.259766	1995.020874
-13827.153351	17609.371500	1566.213867	1876.829712
-13827.153351	17609.371500	1565.166992	1678.789551
-13827.153351	17609.371500	1564.120117	1757.147827
-13827.153351	17609.371500	1563.073242	1865.194092
-13827.153351	17609.371500	1562.026367	1578.385742
-13827.153351	17609.371500	1560.978516	1709.324341
-13827.153351	17609.371500	1559.930664	1596.135864
-13827.153351	17609.371500	1558.883789	1649.555664
-13827.153351	17609.371500	1557.834961	1630.012695
-13827.153351	17609.371500	1556.787109	1206.940063
-13827.153351	17609.371500	1555.739258	1167.068359
-13827.153351	17609.371500	1554.690430	1314.153809
-13827.153351	17609.371500	1553.641602	1495.409912
-13827.153351	17609.371500	1552.592773	1535.382080
-13827.153351	17609.371500	1551.542969	1267.865601
-13827.153351	17609.371500	1550.494141	1651.860962
-13827.153351	17609.371500	1549.444336	1527.974243
-13827.153351	17609.371500	1548.394531	1087.742920
-13827.153351	17609.371500	1547.344727	1025.569702
-13827.153351	17609.371500	1546.293945	1145.521606
-13827.153351	17609.371500	1545.244141	842.288330
-13827.153351	17609.371500	1544.193359	1007.825623
-13827.153351	17609.371500	1543.142578	611.588928
-13827.153351	17609.371500	1542.090820	590.746887
-13827.153351	17609.371500	1541.040039	588.156738
-13827.153351	17609.371500	1539.988281	501.516907
-13827.153351	17609.371500	1538.936523	574.040344
-13827.153351	17609.371500	1537.884766	519.352356
-13827.153351	17609.371500	1536.833008	460.197601
-13827.153351	17609.371500	1535.780273	496.506805
-13827.153351	17609.371500	1534.727539	678.184082
-13827.153351	17609.371500	1533.674805	428.487579
-13827.153351	17609.371500	1532.622070	419.550568
-13827.153351	17609.371500	1531.569336	580.877319
-13827.153351	17609.371500	1530.515625	456.307037
-13827.153351	17609.371500	1529.461914	449.804108
-13827.153351	17609.371500	1528.408203	411.609131
-13827.153351	17609.371500	1527.354492	536.753723
-13827.153351	17609.371500	1526.299805	321.831299
-13827.153351	17609.371500	1525.246094	209.058563
-13827.153351	17609.371500	1524.191406	-25.993301
-13827.153351	17609.371500	1523.136719	-50.170826
-13827.153351	17609.371500	1522.081055	-121.855057
-13827.153351	17609.371500	1521.026367	159.879318
-13827.153351	17609.371500	1519.970703	-52.095337
-13827.153351	17609.371500	1518.915039	195.673035
-13827.153351	17609.371500	1517.859375	318.907440
-13827.153351	17609.371500	1516.802734	127.578651
-13827.153351	17609.371500	1515.747070	22.373100
-13827.153351	17609.371500	1514.690430	-39.750332
-13827.153351	17609.371500	1513.633789	63.324158
-13827.153351	17609.371500	1512.577148	-141.117950
-13827.153351	17609.371500	1511.519531	-51.504044
-13827.153351	17609.371500	1510.461914	47.179951
-13827.153351	17609.371500	1509.405273	-163.727951
-13827.153351	17609.371500	1508.346680	81.937134
-13827.153351	17609.371500	1507.289063	128.772629
-13827.153351	17609.371500	1506.231445	-228.643814
-13827.153351	17609.371500	1505.172852	-95.826172
-13827.153351	17609.371500	1504.114258	-32.984398
-13827.153351	17609.371500	1503.055664	36.671829
-13827.153351	17609.371500	1501.996094	88.309410
-13827.153351	17609.371500	1500.937500	218.970428
-13827.153351	17609.371500	1499.877930	20.273630
-13827.153351	17609.371500	1498.818359	94.642487
-13827.153351	17609.371500	1497.757813	47.275410
-13827.153351	17609.371500	1496.698242	157.817444
-13827.153351	17609.371500	1495.637695	430.684723
-13827.153351	17609.371500	1494.577148	221.218430
-13827.153351	17609.371500	1493.516602	198.924637
-13827.153351	17609.371500	1492.456055	244.293854
-13827.153351	17609.371500	1491.394531	447.380280
-13827.153351	17609.371500	1490.333008	337.438873
-13827.153351	17609.371500	1489.271484	198.340973
-13827.153351	17609.371500	1488.209961	185.428589
-13827.153351	17609.371500	1487.148438	190.596466
-13827.153351	17609.371500	1486.085938	153.078827
-13827.153351	17609.371500	1485.023438	230.384201
-13827.153351	17609.371500	1483.960938	318.975647
-13827.153351	17609.371500	1482.898438	81.531128
-13827.153351	17609.371500	1481.834961	181.505814
-13827.153351	17609.371500	1480.772461	90.448959
-13827.153351	17609.371500	1479.708984	147.817688
-13827.153351	17609.371500	1478.644531	79.430710
-13827.153351	17609.371500	1477.581055	94.272438
-13827.153351	17609.371500	1476.517578	48.526669
-13827.153351	17609.371500	1475.453125	-64.501419
-13827.153351	17609.371500	1474.388672	300.813141
-13827.153351	17609.371500	1473.323242	313.703400
-13827.153351	17609.371500	1472.258789	104.533867
-13827.153351	17609.371500	1471.193359	220.754913
-13827.153351	17609.371500	1470.127930	327.961914
-13827.153351	17609.371500	1469.062500	383.686249
-13827.153351	17609.371500	1467.997070	450.746399
-13827.153351	17609.371500	1466.930664	284.774261
-13827.153351	17609.371500	1465.865234	742.002625
-13827.153351	17609.371500	1464.798828	544.755676
-13827.153351	17609.371500	1463.731445	367.838409
-13827.153351	17609.371500	1462.665039	544.483215
-13827.153351	17609.371500	1461.597656	556.085083
-13827.153351	17609.371500	1460.530273	446.916382
-13827.153351	17609.371500	1459.462891	469.996704
-13827.153351	17609.371500	1458.395508	669.123108
-13827.153351	17609.371500	1457.327148	685.465027
-13827.153351	17609.371500	1456.259766	542.687683
-13827.153351	17609.371500	1455.191406	568.212097
-13827.153351	17609.371500	1454.123047	655.853271
-13827.153351	17609.371500	1453.053711	1007.042786
-13827.153351	17609.371500	1451.985352	950.152100
-13827.153351	17609.371500	1450.916016	687.739685
-13827.153351	17609.371500	1449.846680	931.399414
-13827.153351	17609.371500	1448.776367	872.928345
-13827.153351	17609.371500	1447.707031	765.248230
-13827.153351	17609.371500	1446.636719	917.189514
-13827.153351	17609.371500	1445.566406	939.572327
-13827.153351	17609.371500	1444.496094	927.234619
-13827.153351	17609.371500	1443.425781	721.649109
-13827.153351	17609.371500	1442.354492	602.618958
-13827.153351	17609.371500	1441.283203	700.917358
-13827.153351	17609.371500	1440.211914	612.936768
-13827.153351	17609.371500	1439.140625	710.921326
-13827.153351	17609.371500	1438.069336	421.642548
-13827.153351	17609.371500	1436.997070	561.751648
-13827.153351	17609.371500	1435.924805	566.870972
-13827.153351	17609.371500	1434.852539	431.418335
-13827.153351	17609.371500	1433.780273	388.022705
-13827.153351	17609.371500	1432.707031	482.741821
-13827.153351	17609.371500	1431.633789	511.445709
-13827.153351	17609.371500	1430.560547	416.864746
-13827.153351	17609.371500	1429.487305	244.420792
-13827.153351	17609.371500	1428.413086	314.822266
-13827.153351	17609.371500	1427.339844	438.290802
-13827.153351	17609.371500	1426.265625	300.600891
-13827.153351	17609.371500	1425.191406	111.082939
-13827.153351	17609.371500	1424.116211	-40.556244
-13827.153351	17609.371500	1423.041992	282.668030
-13827.153351	17609.371500	1421.966797	236.899948
-13827.153351	17609.371500	1420.891602	60.901253
-13827.153351	17609.371500	1419.816406	-101.457039
-13827.153351	17609.371500	1418.740234	-186.315506
-13827.153351	17609.371500	1417.665039	-8.049535
-13827.153351	17609.371500	1416.588867	293.729828
-13827.153351	17609.371500	1415.512695	-8.143710
-13827.153351	17609.371500	1414.435547	176.205139
-13827.153351	17609.371500	1413.359375	128.720734
-13827.153351	17609.371500	1412.282227	16.892174
-13827.153351	17609.371500	1411.205078	131.529404
-13827.153351	17609.371500	1410.127930	265.190857
-13827.153351	17609.371500	1409.049805	118.312737
-13827.153351	17609.371500	1407.972656	398.194092
-13827.153351	17609.371500	1406.894531	183.965378
-13827.153351	17609.371500	1405.816406	263.701752
-13827.153351	17609.371500	1404.737305	241.599426
-13827.153351	17609.371500	1403.659180	28.845573
-13827.153351	17609.371500	1402.580078	110.051613
-13827.153351	17609.371500	1401.500977	-3.406783
-13827.153351	17609.371500	1400.421875	7.788538
-13827.153351	17609.371500	1399.341797	-14.040896
-13827.153351	17609.371500	1398.262695	4.644889
-13827.153351	17609.371500	1397.182617	56.692341
-13827.153351	17609.371500	1396.102539	115.601761
-13827.153351	17609.371500	1395.021484	-52.189838
-13827.153351	17609.371500	1393.941406	169.409683
-13827.153351	17609.371500	1392.860352	16.905512
-13827.153351	17609.371500	1391.779297	-141.807831
-13827.153351	17609.371500	1390.698242	-215.166122
-13827.153351	17609.371500	1389.616211	-1.762331
-13827.153351	17609.371500	1388.535156	-303.152466
-13827.153351	17609.371500	1387.453125	-211.866837
-13827.153351	17609.371500	1386.371094	-258.578644
-13827.153351	17609.371500	1385.288086	20.825422
-13827.153351	17609.371500	1384.206055	-308.415253
-13827.153351	17609.371500	1383.123047	-127.265083
-13827.153351	17609.371500	1382.040039	-215.267654
-13827.153351	17609.371500	1380.957031	-67.799240
-13827.153351	17609.371500	1379.873047	-206.434692
-13827.153351	17609.371500	1378.789063	-199.042999
-13827.153351	17609.371500	1377.705078	-9.687945
-13827.153351	17609.371500	1376.621094	-172.737045
-13827.153351	17609.371500	1375.537109	-25.745306
-13827.153351	17609.371500	1374.452148	-99.890785
-13827.153351	17609.371500	1373.367188	274.006012
-13827.153351	17609.371500	1372.282227	362.744507
-13827.153351	17609.371500	1371.197266	630.096863
-13827.153351	17609.371500	1370.112305	731.793213
-13827.153351	17609.371500	1369.026367	604.043457
-13827.153351	17609.371500	1367.940430	510.637085
-13827.153351	17609.371500	1366.854492	535.134338
-13827.153351	17609.371500	1365.767578	716.336975
-13827.153351	17609.371500	1364.681641	727.595398
-13827.153351	17609.371500	1363.594727	348.890686
-13827.153351	17609.371500	1362.507813	387.664368
-13827.153351	17609.371500	1361.419922	514.917786
-13827.153351	17609.371500	1360.333008	461.651031
-13827.153351	17609.371500	1359.245117	329.761810
-13827.153351	17609.371500	1358.157227	429.292877
-13827.153351	17609.371500	1357.069336	432.169617
-13827.153351	17609.371500	1355.981445	396.909241
-13827.153351	17609.371500	1354.892578	619.616882
-13827.153351	17609.371500	1353.803711	527.231567
-13827.153351	17609.371500	1352.714844	345.157227
-13827.153351	17609.371500	1351.625000	498.905426
-13827.153351	17609.371500	1350.536133	337.484985
-13827.153351	17609.371500	1349.446289	397.003479
-13827.153351	17609.371500	1348.356445	325.078400
-13827.153351	17609.371500	1347.266602	290.076508
-13827.153351	17609.371500	1346.175781	466.435364
-13827.153351	17609.371500	1345.085938	504.639862
-13827.153351	17609.371500	1343.995117	383.189636
-13827.153351	17609.371500	1342.903320	344.274902
-13827.153351	17609.371500	1341.812500	419.754181
-13827.153351	17609.371500	1340.720703	524.025879
-13827.153351	17609.371500	1339.629883	415.363434
-13827.153351	17609.371500	1338.538086	524.757202
-13827.153351	17609.371500	1337.445313	738.733337
-13827.153351	17609.371500	1336.353516	710.063843
-13827.153351	17609.371500	1335.260742	637.009949
-13827.153351	17609.371500	1334.167969	291.155182
-13827.153351	17609.371500	1333.075195	278.032318
-13827.153351	17609.371500	1331.981445	466.877350
-13827.153351	17609.371500	1330.888672	458.940399
-13827.153351	17609.371500	1329.794922	355.237030
-13827.153351	17609.371500	1328.701172	561.288086
-13827.153351	17609.371500	1327.606445	385.479126
-13827.153351	17609.371500	1326.512695	353.411438
-13827.153351	17609.371500	1325.417969	691.818787
-13827.153351	17609.371500	1324.323242	576.879883
-13827.153351	17609.371500	1323.227539	572.858521
-13827.153351	17609.371500	1322.132813	560.431763
-13827.153351	17609.371500	1321.037109	819.386353
-13827.153351	17609.371500	1319.941406	706.779846
-13827.153351	17609.371500	1318.845703	579.349976
-13827.153351	17609.371500	1317.750000	768.591248
-13827.153351	17609.371500	1316.653320	451.158386
-13827.153351	17609.371500	1315.556641	398.061737
-13827.153351	17609.371500	1314.459961	365.173798
-13827.153351	17609.371500	1313.363281	310.055511
-13827.153351	17609.371500	1312.265625	381.607819
-13827.153351	17609.371500	1311.167969	306.041077
-13827.153351	17609.371500	1310.070313	144.222900
-13827.153351	17609.371500	1308.972656	269.284576
-13827.153351	17609.371500	1307.874023	344.175934
-13827.153351	17609.371500	1306.776367	369.939972
-13827.153351	17609.371500	1305.677734	319.349060
-13827.153351	17609.371500	1304.579102	195.837936
-13827.153351	17609.371500	1303.479492	222.957184
-13827.153351	17609.371500	1302.380859	181.044418
-13827.153351	17609.371500	1301.281250	213.528503
-13827.153351	17609.371500	1300.181641	98.794266
-13827.153351	17609.371500	1299.081055	28.262499
-13827.153351	17609.371500	1297.981445	17.175806
-13827.153351	17609.371500	1296.880859	145.650833
-13827.153351	17609.371500	1295.780273	-144.578140
-13827.153351	17609.371500	1294.679688	65.048828
-13827.153351	17609.371500	1293.578125	40.770081
-13827.153351	17609.371500	1292.476563	176.574677
-13827.153351	17609.371500	1291.375000	155.745193
-13827.153351	17609.371500	1290.273438	65.881653
-13827.153351	17609.371500	1289.171875	142.805695
-13827.153351	17609.371500	1288.069336	55.693310
-13827.153351	17609.371500	1286.966797	132.179871
-13827.153351	17609.371500	1285.864258	145.183701
-13827.153351	17609.371500	1284.761719	154.636826
-13827.153351	17609.371500	1283.658203	144.236801
-13827.153351	17609.371500	1282.554688	160.906982
-13827.153351	17609.371500	1281.451172	117.860588
-13827.153351	17609.371500	1280.347656	70.961288
-13827.153351	17609.371500	1279.244141	14.201626
-13827.153351	17609.371500	1278.139648	-17.841799
-13827.153351	17609.371500	1277.035156	69.432915
-13827.153351	17609.371500	1275.930664	8.594477
-13827.153351	17609.371500	1274.825195	-34.161297
-13827.153351	17609.371500	1273.720703	75.740883
-13827.153351	17609.371500	1272.615234	37.240154
-13827.153351	17609.371500	1271.508789	24.736345
-13827.153351	17609.371500	1270.403320	4.967696
-13827.153351	17609.371500	1269.297852	168.477722
-13827.153351	17609.371500	1268.191406	102.471123
-13827.153351	17609.371500	1267.084961	131.053497
-13827.153351	17609.371500	1265.977539	199.954025
-13827.153351	17609.371500	1264.871094	158.809174
-13827.153351	17609.371500	1263.763672	204.438293
-13827.153351	17609.371500	1262.656250	220.360916
-13827.153351	17609.371500	1261.548828	223.538376
-13827.153351	17609.371500	1260.440430	250.143250
-13827.153351	17609.371500	1259.333008	251.036453
-13827.153351	17609.371500	1258.224609	21.194727
-13827.153351	17609.371500	1257.115234	95.213165
-13827.153351	17609.371500	1256.006836	132.693817
-13827.153351	17609.371500	1254.897461	131.960175
-13827.153351	17609.371500	1253.788086	14.424244
-13827.153351	17609.371500	1252.678711	131.319778
-13827.153351	17609.371500	1251.569336	238.079727
-13827.153351	17609.371500	1250.458984	66.441292
-13827.153351	17609.371500	1249.349609	146.264160
-13827.153351	17609.371500	1248.239258	143.542847
-13827.153351	17609.371500	1247.127930	82.458405
-13827.153351	17609.371500	1246.017578	-2.711558
-13827.153351	17609.371500	1244.906250	179.646683
-13827.153351	17609.371500	1243.794922	275.178436
-13827.153351	17609.371500	1242.683594	-105.718445
-13827.153351	17609.371500	1241.571289	122.518425
-13827.153351	17609.371500	1240.459961	53.348263
-13827.153351	17609.371500	1239.347656	176.053787
-13827.153351	17609.371500	1238.234375	135.881470
-13827.153351	17609.371500	1237.122070	126.279716
-13827.153351	17609.371500	1236.008789	61.555706
-13827.153351	17609.371500	1234.896484	81.858040
-13827.153351	17609.371500	1233.782227	134.051147
-13827.153351	17609.371500	1232.668945	203.742004
-13827.153351	17609.371500	1231.555664	64.778252
-13827.153351	17609.371500	1230.441406	51.921566
-13827.153351	17609.371500	1229.327148	-138.540192
-13827.153351	17609.371500	1228.211914	101.491600
-13827.153351	17609.371500	1227.097656	123.239723
-13827.153351	17609.371500	1225.982422	-234.307922
-13827.153351	17609.371500	1224.867188	-67.032448
-13827.153351	17609.371500	1223.751953	-57.538937
-13827.153351	17609.371500	1222.635742	131.214569
-13827.153351	17609.371500	1221.520508	-64.722939
-13827.153351	17609.371500	1220.404297	-102.294243
-13827.153351	17609.371500	1219.287109	-19.595673
-13827.153351	17609.371500	1218.170898	-210.298904
-13827.153351	17609.371500	1217.053711	-40.417057
-13827.153351	17609.371500	1215.936523	-109.470848
-13827.153351	17609.371500	1214.819336	11.816469
-13827.153351	17609.371500	1213.702148	120.638641
-13827.153351	17609.371500	1212.583984	-123.808105
-13827.153351	17609.371500	1211.465820	-111.000488
-13827.153351	17609.371500	1210.347656	64.079445
-13827.153351	17609.371500	1209.229492	0.328580
-13827.153351	17609.371500	1208.110352	-67.675049
-13827.153351	17609.371500	1206.992188	-70.023849
-13827.153351	17609.371500	1205.873047	1.686888
-13827.153351	17609.371500	1204.752930	-196.291504
-13827.153351	17609.371500	1203.633789	-33.607990
-13827.153351	17609.371500	1202.513672	-231.906769
-13827.153351	17609.371500	1201.393555	-90.456436
-13827.153351	17609.371500	1200.273438	-57.324955
-13827.153351	17609.371500	1199.152344	-11.256624
-13827.153351	17609.371500	1198.032227	-171.954971
-13827.153351	17609.371500	1196.911133	-157.500809
-13827.153351	17609.371500	1195.790039	10.555092
-13827.153351	17609.371500	1194.667969	-209.485733
-13827.153351	17609.371500	1193.545898	-214.146637
-13827.153351	17609.371500	1192.424805	-294.257599
-13827.153351	17609.371500	1191.301758	-201.747925
-13827.153351	17609.371500	1190.179688	-179.385681
-13827.153351	17609.371500	1189.056641	-79.594658
-13827.153351	17609.371500	1187.933594	-155.718460
-13827.153351	17609.371500	1186.810547	-135.383575
-13827.153351	17609.371500	1185.687500	-135.167709
-13827.153351	17609.371500	1184.563477	-103.828033
-13827.153351	17609.371500	1183.440430	-10.024612
-13827.153351	17609.371500	1182.316406	62.584164
-13827.153351	17609.371500	1181.191406	-58.611660
-13827.153351	17609.371500	1180.067383	-90.483925
-13827.153351	17609.371500	1178.942383	-200.296616
-13827.153351	17609.371500	1177.817383	-20.986864
-13827.153351	17609.371500	1176.692383	10.004406
-13827.153351	17609.371500	1175.566406	145.205994
-13827.153351	17609.371500	1174.440430	296.302887
-13827.153351	17609.371500	1173.314453	4.219458
-13827.153351	17609.371500	1172.188477	334.720795
-13827.153351	17609.371500	1171.062500	418.782043
-13827.153351	17609.371500	1169.935547	384.530518
-13827.153351	17609.371500	1168.808594	208.610352
-13827.153351	17609.371500	1167.681641	351.923401
-13827.153351	17609.371500	1166.553711	442.683899
-13827.153351	17609.371500	1165.426758	353.681763
-13827.153351	17609.371500	1164.298828	415.080200
-13827.153351	17609.371500	1163.170898	298.517609
-13827.153351	17609.371500	1162.041992	456.218811
-13827.153351	17609.371500	1160.914063	574.114685
-13827.153351	17609.371500	1159.785156	432.667908
-13827.153351	17609.371500	1158.656250	315.176300
-13827.153351	17609.371500	1157.526367	170.823547
-13827.153351	17609.371500	1156.397461	128.910843
-13827.153351	17609.371500	1155.267578	113.294281
-13827.153351	17609.371500	1154.137695	173.938751
-13827.153351	17609.371500	1153.006836	123.917480
-13827.153351	17609.371500	1151.876953	4.255588
-13827.153351	17609.371500	1150.746094	-14.667629
-13827.153351	17609.371500	1149.615234	-80.123489
-13827.153351	17609.371500	1148.484375	84.703056
-13827.153351	17609.371500	1147.352539	77.928085
-13827.153351	17609.371500	1146.220703	-78.987198
-13827.153351	17609.371500	1145.088867	-63.970886
-13827.153351	17609.371500	1143.957031	-83.792892
-13827.153351	17609.371500	1142.825195	-149.499466
-13827.153351	17609.371500	1141.692383	-130.811600
-13827.153351	17609.371500	1140.559570	-312.968079
-13827.153351	17609.371500	1139.426758	-22.653816
-13827.153351	17609.371500	1138.292969	-111.154335
-13827.153351	17609.371500	1137.159180	-25.875305
-13827.153351	17609.371500	1136.025391	-146.027985
-13827.153351	17609.371500	1134.891602	-80.991615
-13827.153351	17609.371500	1133.757813	-20.574139
-13827.153351	17609.371500	1132.623047	-135.654007
-13827.153351	17609.371500	1131.488281	117.113335
-13827.153351	17609.371500	1130.353516	83.334991
-13827.153351	17609.371500	1129.217773	31.800386
-13827.153351	17609.371500	1128.083008	-40.608337
-13827.153351	17609.371500	1126.947266	202.353943
-13827.153351	17609.371500	1125.811523	-37.363529
-13827.153351	17609.371500	1124.674805	-22.865007
-13827.153351	17609.371500	1123.539063	96.833542
-13827.153351	17609.371500	1122.402344	-88.251572
-13827.153351	17609.371500	1121.265625	84.019524
-13827.153351	17609.371500	1120.127930	67.675224
-13827.153351	17609.371500	1118.990234	-127.402321
-13827.153351	17609.371500	1117.853516	-28.656990
-13827.153351	17609.371500	1116.714844	46.432278
-13827.153351	17609.371500	1115.577148	147.421097
-13827.153351	17609.371500	1114.439453	25.731386
-13827.153351	17609.371500	1113.300781	518.455811
-13827.153351	17609.371500	1112.162109	340.364410
-13827.153351	17609.371500	1111.022461	364.530304
-13827.153351	17609.371500	1109.883789	174.545944
-13827.153351	17609.371500	1108.744141	207.068375
-13827.153351	17609.371500	1107.604492	170.476273
-13827.153351	17609.371500	1106.463867	146.369904
-13827.153351	17609.371500	1105.324219	108.095032
-13827.153351	17609.371500	1104.183594	171.677505
-13827.153351	17609.371500	1103.042969	96.722786
-13827.153351	17609.371500	1101.902344	69.640854
-13827.153351	17609.371500	1100.760742	243.144073
-13827.153351	17609.371500	1099.619141	227.639801
-13827.153351	17609.371500	1098.477539	-15.590869
-13827.153351	17609.371500	1097.335938	192.883575
-13827.153351	17609.371500	1096.193359	350.755829
-13827.153351	17609.371500	1095.051758	399.895905
-13827.153351	17609.371500	1093.909180	127.059418
-13827.153351	17609.371500	1092.765625	236.530289
-13827.153351	17609.371500	1091.623047	409.563629
-13827.153351	17609.371500	1090.479492	310.345428
-13827.153351	17609.371500	1089.335938	344.585236
-13827.153351	17609.371500	1088.192383	209.653107
-13827.153351	17609.371500	1087.047852	332.498230
-13827.153351	17609.371500	1085.903320	323.622284
-13827.153351	17609.371500	1084.758789	311.417816
-13827.153351	17609.371500	1083.614258	128.456039
-13827.153351	17609.371500	1082.469727	130.509338
-13827.153351	17609.371500	1081.324219	-124.161751
-13827.153351	17609.371500	1080.178711	215.030685
-13827.153351	17609.371500	1079.033203	121.311180
-13827.153351	17609.371500	1077.886719	72.461662
-13827.153351	17609.371500	1076.740234	41.913933
-13827.153351	17609.371500	1075.593750	114.995102
-13827.153351	17609.371500	1074.447266	115.431709
-13827.153351	17609.371500	1073.300781	156.153427
-13827.153351	17609.371500	1072.153320	305.991791
-13827.153351	17609.371500	1071.005859	298.586823
-13827.153351	17609.371500	1069.858398	247.904373
-13827.153351	17609.371500	1068.709961	269.516083
-13827.153351	17609.371500	1067.561523	308.867798
-13827.153351	17609.371500	1066.413086	-7.775780
-13827.153351	17609.371500	1065.264648	234.126358
-13827.153351	17609.371500	1064.116211	254.794968
-13827.153351	17609.371500	1062.966797	104.892311
-13827.153351	17609.371500	1061.817383	214.918213
-13827.153351	17609.371500	1060.667969	168.092453
-13827.153351	17609.371500	1059.517578	100.014687
-13827.153351	17609.371500	1058.368164	358.277740
-13827.153351	17609.371500	1057.217773	272.109100
-13827.153351	17609.371500	1056.067383	343.694458
-13827.153351	17609.371500	1054.916016	331.452606
-13827.153351	17609.371500	1053.764648	184.279266
-13827.153351	17609.371500	1052.613281	77.925491
-13827.153351	17609.371500	1051.461914	239.607193
-13827.153351	17609.371500	1050.310547	330.382080
-13827.153351	17609.371500	1049.158203	262.314331
-13827.153351	17609.371500	1048.005859	110.966858
-13827.153351	17609.371500	1046.853516	252.917908
-13827.153351	17609.371500	1045.700195	382.785217
-13827.153351	17609.371500	1044.547852	326.628571
-13827.153351	17609.371500	1043.394531	331.450867
-13827.153351	17609.371500	1042.240234	323.602692
-13827.153351	17609.371500	1041.086914	361.326721
-13827.153351	17609.371500	1039.932617	459.238861
-13827.153351	17609.371500	1038.778320	412.166199
-13827.153351	17609.371500	1037.624023	290.063904
-13827.153351	17609.371500	1036.469727	556.708496
-13827.153351	17609.371500	1035.314453	553.088562
-13827.153351	17609.371500	1034.159180	667.659119
-13827.153351	17609.371500	1033.003906	800.947815
-13827.153351	17609.371500	1031.847656	782.315918
-13827.153351	17609.371500	1030.692383	913.973877
-13827.153351	17609.371500	1029.536133	890.112976
-13827.153351	17609.371500	1028.378906	907.559509
-13827.153351	17609.371500	1027.222656	771.348206
-13827.153351	17609.371500	1026.065430	798.280640
-13827.153351	17609.371500	1024.908203	686.074951
-13827.153351	17609.371500	1023.750977	700.260681
-13827.153351	17609.371500	1022.593750	422.887909
-13827.153351	17609.371500	1021.435547	577.896729
-13827.153351	17609.371500	1020.277344	321.117950
-13827.153351	17609.371500	1019.119141	259.400391
-13827.153351	17609.371500	1017.959961	187.479050
-13827.153351	17609.371500	1016.800781	-28.704855
-13827.153351	17609.371500	1015.641602	-82.949905
-13827.153351	17609.371500	1014.482422	151.440460
-13827.153351	17609.371500	1013.323242	209.603210
-13827.153351	17609.371500	1012.163086	282.061249
-13827.153351	17609.371500	1011.002930	189.732605
-13827.153351	17609.371500	1009.842773	375.842133
-13827.153351	17609.371500	1008.681641	139.500534
-13827.153351	17609.371500	1007.520508	344.592712
-13827.153351	17609.371500	1006.359375	87.868019
-13827.153351	17609.371500	1005.198242	269.707581
-13827.153351	17609.371500	1004.037109	412.015015
-13827.153351	17609.371500	1002.875000	533.516052
-13827.153351	17609.371500	1001.712891	525.063721
-13827.153351	17609.371500	1000.550781	344.360321
-13827.153351	17609.371500	999.387695	387.490021
-13827.153351	17609.371500	998.224609	212.039215
-13827.153351	17609.371500	997.061523	35.596096
-13827.153351	17609.371500	995.898438	71.213745
-13827.153351	17609.371500	994.734375	68.990753
-13827.153351	17609.371500	993.571289	259.358826
-13827.153351	17609.371500	992.407227	363.015747
-13827.153351	17609.371500	991.242188	254.170792
-13827.153351	17609.371500	990.078125	25.662077
-13827.153351	17609.371500	988.913086	45.962627
-13827.153351	17609.371500	987.748047	37.224632
-13827.153351	17609.371500	986.583008	-47.506626
-13827.153351	17609.371500	985.416992	-97.856438
-13827.153351	17609.371500	984.250977	-128.044571
-13827.153351	17609.371500	983.084961	44.872715
-13827.153351	17609.371500	981.918945	105.814720
-13827.153351	17609.371500	980.751953	215.443161
-13827.153351	17609.371500	979.584961	-9.089532
-13827.153351	17609.371500	978.417969	-24.758547
-13827.153351	17609.371500	977.250977	46.155239
-13827.153351	17609.371500	976.083008	303.691345
-13827.153351	17609.371500	974.915039	172.480881
-13827.153351	17609.371500	973.747070	-58.431820
-13827.153351	17609.371500	972.579102	-81.173325
-13827.153351	17609.371500	971.410156	-28.505981
-13827.153351	17609.371500	970.242188	58.212265
-13827.153351	17609.371500	969.072266	59.966949
-13827.153351	17609.371500	967.903320	62.246964
-13827.153351	17609.371500	966.733398	17.122795
-13827.153351	17609.371500	965.563477	14.901587
-13827.153351	17609.371500	964.393555	228.306396
-13827.153351	17609.371500	963.223633	66.232178
-13827.153351	17609.371500	962.052734	0.272799
-13827.153351	17609.371500	960.881836	247.313660
-13827.153351	17609.371500	959.710938	272.559296
-13827.153351	17609.371500	958.540039	200.096985
-13827.153351	17609.371500	957.368164	195.905334
-13827.153351	17609.371500	956.196289	180.722366
-13827.153351	17609.371500	955.024414	351.958649
-13827.153351	17609.371500	953.851563	297.258728
-13827.153351	17609.371500	952.679688	81.189255
-13827.153351	17609.371500	951.506836	218.070084
-13827.153351	17609.371500	950.333984	259.452881
-13827.153351	17609.371500	949.160156	110.460541
-13827.153351	17609.371500	947.986328	143.991470
-13827.153351	17609.371500	946.812500	134.113464
-13827.153351	17609.371500	945.638672	218.940231
-13827.153351	17609.371500	944.464844	44.109905
-13827.153351	17609.371500	943.290039	122.350769
-13827.153351	17609.371500	942.115234	276.257599
-13827.153351	17609.371500	940.940430	-148.641800
-13827.153351	17609.371500	939.764648	58.767494
-13827.153351	17609.371500	938.588867	-44.266342
-13827.153351	17609.371500	937.413086	14.978802
-13827.153351	17609.371500	936.237305	50.858826
-13827.153351	17609.371500	935.060547	28.904621
-13827.153351	17609.371500	933.883789	13.715999
-13827.153351	17609.371500	932.707031	177.204529
-13827.153351	17609.371500	931.530273	13.789568
-13827.153351	17609.371500	930.352539	-66.139648
-13827.153351	17609.371500	929.175781	-62.664009
-13827.153351	17609.371500	927.998047	37.969090
-13827.153351	17609.371500	926.819336	46.022717
-13827.153351	17609.371500	925.641602	-121.908127
-13827.153351	17609.371500	924.462891	131.455429
-13827.153351	17609.371500	923.284180	-8.720238
-13827.153351	17609.371500	922.104492	8.496931
-13827.153351	17609.371500	920.924805	69.644440
-13827.153351	17609.371500	919.746094	73.157303
-13827.153351	17609.371500	919.551758	279.365845
-13827.153351	17609.371500	918.386719	178.481567
-13827.153351	17609.371500	917.220703	47.568378
-13827.153351	17609.371500	916.054688	-60.190681
-13827.153351	17609.371500	914.887695	-73.160522
-13827.153351	17609.371500	913.721680	-26.065208
-13827.153351	17609.371500	912.554688	-66.788292
-13827.153351	17609.371500	911.387695	44.934364
-13827.153351	17609.371500	910.220703	191.237930
-13827.153351	17609.371500	909.052734	-43.481831
-13827.153351	17609.371500	907.885742	208.937851
-13827.153351	17609.371500	906.717773	147.375000
-13827.153351	17609.371500	905.548828	48.910046
-13827.153351	17609.371500	904.380859	155.786896
-13827.153351	17609.371500	903.211914	-157.163391
-13827.153351	17609.371500	902.042969	5.037293
-13827.153351	17609.371500	900.874023	-210.944656
-13827.153351	17609.371500	899.704102	-205.560257
-13827.153351	17609.371500	898.535156	-239.368271
-13827.153351	17609.371500	897.365234	-185.613876
-13827.153351	17609.371500	896.194336	4.028442
-13827.153351	17609.371500	895.024414	-43.645535
-13827.153351	17609.371500	893.853516	109.030083
-13827.153351	17609.371500	892.682617	-21.538826
-13827.153351	17609.371500	891.511719	200.107071
-13827.153351	17609.371500	890.340820	-52.410755
-13827.153351	17609.371500	889.168945	146.131378
-13827.153351	17609.371500	887.997070	15.636451
-13827.153351	17609.371500	886.825195	-91.813171
-13827.153351	17609.371500	885.653320	-61.260105
-13827.153351	17609.371500	884.480469	-72.102753
-13827.153351	17609.371500	883.307617	-158.796539
-13827.153351	17609.371500	882.134766	-188.009109
-13827.153351	17609.371500	880.961914	-5.840694
-13827.153351	17609.371500	879.788086	-94.802048
-13827.153351	17609.371500	878.614258	73.487350
-13827.153351	17609.371500	877.440430	-208.335464
-13827.153351	17609.371500	876.266602	168.806000
-13827.153351	17609.371500	875.091797	-21.116589
-13827.153351	17609.371500	873.916992	264.040955
-13827.153351	17609.371500	872.742188	390.776947
-13827.153351	17609.371500	871.567383	255.968689
-13827.153351	17609.371500	870.391602	589.050659
-13827.153351	17609.371500	869.215820	789.010864
-13827.153351	17609.371500	868.040039	555.629761
-13827.153351	17609.371500	866.864258	537.782776
-13827.153351	17609.371500	865.687500	586.395447
-13827.153351	17609.371500	864.510742	554.805420
-13827.153351	17609.371500	863.333984	239.206314
-13827.153351	17609.371500	862.157227	292.431366
-13827.153351	17609.371500	860.979492	178.499084
-13827.153351	17609.371500	859.802734	201.958237
-13827.153351	17609.371500	858.625000	543.527161
-13827.153351	17609.371500	857.446289	331.229492
-13827.153351	17609.371500	856.268555	240.265411
-13827.153351	17609.371500	855.089844	119.608109
-13827.153351	17609.371500	853.911133	44.737644
-13827.153351	17609.371500	852.731445	116.223244
-13827.153351	17609.371500	851.552734	-47.757454
-13827.153351	17609.371500	850.373047	-49.407036
-13827.153351	17609.371500	849.193359	81.468391
-13827.153351	17609.371500	848.013672	-16.145603
-13827.153351	17609.371500	846.833008	39.309441
-13827.153351	17609.371500	845.652344	151.830139
-13827.153351	17609.371500	844.471680	-274.473938
-13827.153351	17609.371500	843.291016	111.974541
-13827.153351	17609.371500	842.110352	78.373016
-13827.153351	17609.371500	840.928711	6.004550
-13827.153351	17609.371500	839.747070	81.942871
-13827.153351	17609.371500	838.564453	-65.646133
-13827.153351	17609.371500	837.382813	53.608391
-13827.153351	17609.371500	836.200195	15.521443
-13827.153351	17609.371500	835.017578	-134.226852
-13827.153351	17609.371500	833.834961	-83.377563
-13827.153351	17609.371500	832.651367	-310.492371
-13827.153351	17609.371500	831.467773	-97.890175
-13827.153351	17609.371500	830.284180	119.185959
-13827.153351	17609.371500	829.100586	-53.169125
-13827.153351	17609.371500	827.916992	-193.576401
-13827.153351	17609.371500	826.732422	-10.734278
-13827.153351	17609.371500	825.547852	-78.263481
-13827.153351	17609.371500	824.363281	63.541161
-13827.153351	17609.371500	823.177734	62.000771
-13827.153351	17609.371500	821.992188	10.437951
-13827.153351	17609.371500	820.806641	-43.370861
-13827.153351	17609.371500	819.621094	-190.348450
-13827.153351	17609.371500	818.434570	-112.264519
-13827.153351	17609.371500	817.249023	29.413673
-13827.153351	17609.371500	816.062500	-62.945129
-13827.153351	17609.371500	814.875000	42.341743
-13827.153351	17609.371500	813.688477	-15.906890
-13827.153351	17609.371500	812.500977	-99.094734
-13827.153351	17609.371500	811.313477	15.234491
-13827.153351	17609.371500	810.125977	213.489990
-13827.153351	17609.371500	808.937500	48.648140
-13827.153351	17609.371500	807.749023	-45.796711
-13827.153351	17609.371500	806.560547	18.561674
-13827.153351	17609.371500	805.372070	-3.264991
-13827.153351	17609.371500	804.182617	-2.402862
-13827.153351	17609.371500	802.994141	-182.861404
-13827.153351	17609.371500	801.803711	-14.255361
-13827.153351	17609.371500	800.614258	120.300453
-13827.153351	17609.371500	799.424805	46.413265
-13827.153351	17609.371500	798.234375	106.182503
-13827.153351	17609.371500	797.043945	122.913925
-13827.153351	17609.371500	795.852539	-7.497161
-13827.153351	17609.371500	794.662109	22.842997
-13827.153351	17609.371500	793.470703	164.058105
-13827.153351	17609.371500	792.279297	-40.918213
-13827.153351	17609.371500	791.087891	57.287994
-13827.153351	17609.371500	789.895508	-109.122299
-13827.153351	17609.371500	788.703125	-261.891266
-13827.153351	17609.371500	787.510742	-186.283676
-13827.153351	17609.371500	786.318359	142.417160
-13827.153351	17609.371500	785.125000	141.099716
-13827.153351	17609.371500	783.931641	-9.309280
-13827.153351	17609.371500	782.738281	41.363865
-13827.153351	17609.371500	781.544922	-138.307755
-13827.153351	17609.371500	780.350586	-107.934677
-13827.153351	17609.371500	779.156250	-52.739655
-13827.153351	17609.371500	777.961914	-99.114441
-13827.153351	17609.371500	776.767578	-147.722275
-13827.153351	17609.371500	775.572266	-11.328049
-13827.153351	17609.371500	774.376953	176.885529
-13827.153351	17609.371500	773.181641	60.621387
-13827.153351	17609.371500	771.986328	50.365677
-13827.153351	17609.371500	770.790039	-90.605476
-13827.153351	17609.371500	769.593750	-184.192612
-13827.153351	17609.371500	768.397461	1.630442
-13827.153351	17609.371500	767.201172	36.463070
-13827.153351	17609.371500	766.003906	251.448578
-13827.153351	17609.371500	764.806641	-130.316513
-13827.153351	17609.371500	763.609375	-5.423294
-13827.153351	17609.371500	762.412109	51.901470
-13827.153351	17609.371500	761.213867	16.950472
-13827.153351	17609.371500	760.015625	40.507679
-13827.153351	17609.371500	758.817383	124.786705
-13827.153351	17609.371500	757.618164	-47.324051
-13827.153351	17609.371500	756.419922	39.187889
-13827.153351	17609.371500	755.220703	-36.174862
-13827.153351	17609.371500	754.021484	3.109916
-13827.153351	17609.371500	752.821289	150.231369
-13827.153351	17609.371500	751.621094	-37.425007
-13827.153351	17609.371500	750.420898	-34.096817
-13827.153351	17609.371500	749.220703	92.730301
-13827.153351	17609.371500	748.020508	26.433002
-13827.153351	17609.371500	746.819336	110.549049
-13827.153351	17609.371500	745.618164	205.848663
-13827.153351	17609.371500	744.416992	150.785629
-13827.153351	17609.371500	743.214844	452.405518
-13827.153351	17609.371500	742.012695	361.429688
-13827.153351	17609.371500	740.810547	371.388092
-13827.153351	17609.371500	739.608398	215.451324
-13827.153351	17609.371500	738.406250	146.985260
-13827.153351	17609.371500	737.203125	329.515839
-13827.153351	17609.371500	736.000000	397.709808
-13827.153351	17609.371500	734.795898	141.094086
-13827.153351	17609.371500	733.592773	256.316864
-13827.153351	17609.371500	732.388672	275.215576
-13827.153351	17609.371500	731.184570	296.338745
-13827.153351	17609.371500	729.979492	391.304077
-13827.153351	17609.371500	728.775391	535.446350
-13827.153351	17609.371500	727.570313	341.729858
-13827.153351	17609.371500	726.365234	311.357452
-13827.153351	17609.371500	725.160156	5.947872
-13827.153351	17609.371500	723.954102	22.595381
-13827.153351	17609.371500	722.748047	193.454956
-13827.153351	17609.371500	721.541992	-205.617325
-13827.153351	17609.371500	720.334961	208.736404
-13827.153351	17609.371500	719.128906	73.394928
-13827.153351	17609.371500	717.921875	-59.662937
-13827.153351	17609.371500	716.714844	-143.552673
-13827.153351	17609.371500	715.506836	127.532768
-13827.153351	17609.371500	714.298828	-70.206657
-13827.153351	17609.371500	713.090820	84.692497
-13827.153351	17609.371500	711.882813	56.575558
-13827.153351	17609.371500	710.674805	95.372772
-13827.153351	17609.371500	709.465820	243.416519
-13827.153351	17609.371500	708.256836	179.575760
-13827.153351	17609.371500	707.047852	140.268997
-13827.153351	17609.371500	705.837891	98.738747
-13827.153351	17609.371500	704.627930	181.988739
-13827.153351	17609.371500	703.417969	160.487305
-13827.153351	17609.371500	702.208008	96.661774
-13827.153351	17609.371500	700.998047	188.721680
-13827.153351	17609.371500	699.787109	260.693665
-13827.153351	17609.371500	698.576172	65.518990
-13827.153351	17609.371500	697.364258	315.484009
-13827.153351	17609.371500	696.153320	291.663208
-13827.153351	17609.371500	694.941406	270.060333
-13827.153351	17609.371500	693.729492	348.527893
-13827.153351	17609.371500	692.516602	146.785736
-13827.153351	17609.371500	691.304688	494.194611
-13827.153351	17609.371500	690.091797	454.715179
-13827.153351	17609.371500	688.878906	377.457794
-13827.153351	17609.371500	687.665039	253.560272
-13827.153351	17609.371500	686.451172	338.482574
-13827.153351	17609.371500	685.237305	449.996735
-13827.153351	17609.371500	684.023438	303.897278
-13827.153351	17609.371500	682.809570	197.792221
-13827.153351	17609.371500	681.594727	395.754791
-13827.153351	17609.371500	680.379883	373.948242
-13827.153351	17609.371500	679.165039	292.231476
-13827.153351	17609.371500	677.949219	305.897461
-13827.153351	17609.371500	676.733398	441.491333
-13827.153351	17609.371500	675.517578	211.206970
-13827.153351	17609.371500	674.301758	419.858459
-13827.153351	17609.371500	673.084961	269.403717
-13827.153351	17609.371500	671.869141	294.013641
-13827.153351	17609.371500	670.651367	77.147614
-13827.153351	17609.371500	669.434570	254.545670
-13827.153351	17609.371500	668.216797	148.433487
-13827.153351	17609.371500	667.000000	228.285873
-13827.153351	17609.371500	665.781250	334.639099
-13827.153351	17609.371500	664.563477	246.196396
-13827.153351	17609.371500	663.344727	270.590485
-13827.153351	17609.371500	662.125977	310.428284
-13827.153351	17609.371500	660.907227	339.163544
-13827.153351	17609.371500	659.688477	416.497070
-13827.153351	17609.371500	658.468750	392.089661
-13827.153351	17609.371500	657.249023	307.994690
-13827.153351	17609.371500	656.029297	581.839661
-13827.153351	17609.371500	654.808594	756.135010
-13827.153351	17609.371500	653.587891	550.454590
-13827.153351	17609.371500	652.367188	647.337158
-13827.153351	17609.371500	651.146484	598.443542
-13827.153351	17609.371500	649.924805	540.711792
-13827.153351	17609.371500	648.704102	562.410400
-13827.153351	17609.371500	647.482422	553.182251
-13827.153351	17609.371500	646.259766	652.006531
-13827.153351	17609.371500	645.037109	450.838226
-13827.153351	17609.371500	643.815430	401.851166
-13827.153351	17609.371500	642.591797	291.132080
-13827.153351	17609.371500	641.369141	605.773376
-13827.153351	17609.371500	640.145508	627.194092
-13827.153351	17609.371500	638.921875	415.057373
-13827.153351	17609.371500	637.698242	559.778015
-13827.153351	17609.371500	636.474609	332.261017
-13827.153351	17609.371500	635.250000	331.565277
-13827.153351	17609.371500	634.025391	293.415619
-13827.153351	17609.371500	632.800781	191.427094
-13827.153351	17609.371500	631.575195	148.850815
-13827.153351	17609.371500	630.349609	68.861954
-13827.153351	17609.371500	629.124023	265.971069
-13827.153351	17609.371500	627.898438	243.084213
-13827.153351	17609.371500	626.671875	239.955414
-13827.153351	17609.371500	625.445313	377.451355
-13827.153351	17609.371500	624.218750	448.930298
-13827.153351	17609.371500	622.992188	274.289581
-13827.153351	17609.371500	621.764648	593.880737
-13827.153351	17609.371500	620.537109	480.694672
-13827.153351	17609.371500	619.309570	420.209778
-13827.153351	17609.371500	618.081055	201.671143
-13827.153351	17609.371500	616.852539	200.448639
-13827.153351	17609.371500	615.624023	372.520721
-13827.153351	17609.371500	614.395508	204.468369
-13827.153351	17609.371500	613.166992	159.266098
-13827.153351	17609.371500	611.937500	199.559296
-13827.153351	17609.371500	610.708008	342.831329
-13827.153351	17609.371500	609.477539	152.856430
-13827.153351	17609.371500	608.248047	63.720764
-13827.153351	17609.371500	607.017578	-47.323063
-13827.153351	17609.371500	605.787109	154.862778
-13827.153351	17609.371500	604.555664	61.287773
-13827.153351	17609.371500	603.325195	142.867493
-13827.153351	17609.371500	602.093750	211.240082
-13827.153351	17609.371500	600.861328	80.389824
-13827.153351	17609.371500	599.629883	21.760841
-13827.153351	17609.371500	598.397461	63.746956
-13827.153351	17609.371500	597.165039	37.874966
-13827.153351	17609.371500	595.932617	130.054123
-13827.153351	17609.371500	594.699219	-7.394704
-13827.153351	17609.371500	593.465820	36.591534
-13827.153351	17609.371500	592.232422	-151.117920
-13827.153351	17609.371500	590.999023	-2.328602
-13827.153351	17609.371500	589.764648	-113.576180
-13827.153351	17609.371500	588.530273	2.306076
-13827.153351	17609.371500	587.295898	-167.923874
-13827.153351	17609.371500	586.061523	56.990009
-13827.153351	17609.371500	584.826172	59.158447
-13827.153351	17609.371500	583.590820	-63.085640
-13827.153351	17609.371500	582.355469	-6.430540
-13827.153351	17609.371500	581.119141	-130.865173
-13827.153351	17609.371500	579.882813	-102.643425
-13827.153351	17609.371500	578.646484	60.696838
-13827.153351	17609.371500	577.410156	-7.113678
-13827.153351	17609.371500	576.172852	199.645996
-13827.153351	17609.371500	574.935547	173.155701
-13827.153351	17609.371500	573.698242	15.944057
-13827.153351	17609.371500	572.460938	-41.058025
-13827.153351	17609.371500	571.222656	12.972888
-13827.153351	17609.371500	569.984375	45.175800
-13827.153351	17609.371500	568.746094	260.147705
-13827.153351	17609.371500	567.506836	129.016632
-13827.153351	17609.371500	566.267578	176.295746
-13827.153351	17609.371500	565.028320	14.718757
-13827.153351	17609.371500	563.789063	27.140503
-13827.153351	17609.371500	562.548828	78.655769
-13827.153351	17609.371500	561.309570	208.366028
-13827.153351	17609.371500	560.068359	190.211136
-13827.153351	17609.371500	558.828125	-19.165987
-13827.153351	17609.371500	557.586914	19.148380
-13827.153351	17609.371500	556.345703	-157.592117
-13827.153351	17609.371500	555.104492	-95.444687
-13827.153351	17609.371500	553.863281	114.260963
-13827.153351	17609.371500	552.621094	48.207378
-13827.153351	17609.371500	551.378906	-78.606552
-13827.153351	17609.371500	550.136719	-12.316156
-13827.153351	17609.371500	548.893555	10.535459
-13827.153351	17609.371500	547.650391	42.021488
-13827.153351	17609.371500	546.407227	-152.012924
-13827.153351	17609.371500	545.164063	-23.022402
-13827.153351	17609.371500	543.919922	-141.168304
-13827.153351	17609.371500	542.675781	124.207634
-13827.153351	17609.371500	541.431641	174.987701
-13827.153351	17609.371500	540.186523	-57.993427
-13827.153351	17609.371500	538.941406	-225.942627
-13827.153351	17609.371500	537.696289	6.642478
-13827.153351	17609.371500	536.451172	35.652977
-13827.153351	17609.371500	535.205078	-17.601902
-13827.153351	17609.371500	533.959961	-29.753960
-13827.153351	17609.371500	532.712891	-44.090298
-13827.153351	17609.371500	531.466797	6.429999
-13827.153351	17609.371500	530.219727	-159.297791
-13827.153351	17609.371500	528.972656	-180.153259
-13827.153351	17609.371500	527.725586	-6.524651
-13827.153351	17609.371500	526.478516	-141.963303
-13827.153351	17609.371500	525.230469	-329.211853
-13827.153351	17609.371500	523.982422	125.031723
-13827.153351	17609.371500	522.734375	-226.339539
-13827.153351	17609.371500	521.485352	139.132797
-13827.153351	17609.371500	520.236328	72.764496
-13827.153351	17609.371500	518.987305	138.033493
-13827.153351	17609.371500	517.737305	39.291721
-13827.153351	17609.371500	516.488281	18.223179
-13827.153351	17609.371500	515.238281	169.660187
-13827.153351	17609.371500	513.988281	180.873642
-13827.153351	17609.371500	512.737305	73.507355
-13827.153351	17609.371500	511.486328	-35.985176
-13827.153351	17609.371500	510.235352	-26.946411
-13827.153351	17609.371500	508.984375	-108.402420
-13827.153351	17609.371500	507.732422	57.831509
-13827.153351	17609.371500	506.480469	25.879768
-13827.153351	17609.371500	505.228516	-143.851151
-13827.153351	17609.371500	503.976563	-264.023132
-13827.153351	17609.371500	502.723633	-132.396881
-13827.153351	17609.371500	501.470703	-164.347092
-13827.153351	17609.371500	500.217773	-80.151909
-13827.153351	17609.371500	498.963867	154.521576
-13827.153351	17609.371500	497.709961	-6.518703
-13827.153351	17609.371500	496.456055	-79.376190
-13827.153351	17609.371500	495.202148	-49.062553
-13827.153351	17609.371500	493.947266	-205.706940
-13827.153351	17609.371500	492.692383	-42.229034
-13827.153351	17609.371500	491.437500	-127.966782
-13827.153351	17609.371500	490.181641	-155.709610
-13827.153351	17609.371500	488.926758	-71.826180
-13827.153351	17609.371500	487.670898	-181.160995
-13827.153351	17609.371500	486.414063	5.656793
-13827.153351	17609.371500	485.158203	91.545609
-13827.153351	17609.371500	483.901367	67.989845
-13827.153351	17609.371500	482.644531	29.416292
-13827.153351	17609.371500	481.386719	7.991201
-13827.153351	17609.371500	480.128906	80.872734
-13827.153351	17609.371500	478.871094	-75.602654
-13827.153351	17609.371500	477.613281	5.796975
-13827.153351	17609.371500	476.355469	168.541763
-13827.153351	17609.371500	475.096680	-5.045118
-13827.153351	17609.371500	473.837891	-37.258831
-13827.153351	17609.371500	472.578125	1.161140
-13827.153351	17609.371500	471.319336	90.911263
-13827.153351	17609.371500	470.059570	-41.942902
-13827.153351	17609.371500	468.799805	-112.724037
-13827.153351	17609.371500	467.539063	32.527279
-13827.153351	17609.371500	466.278320	96.428680
-13827.153351	17609.371500	465.017578	-68.486748
-13827.153351	17609.371500	463.756836	168.490753
-13827.153351	17609.371500	462.495117	89.051682
-13827.153351	17609.371500	461.233398	48.075176
-13827.153351	17609.371500	459.971680	173.699478
-13827.153351	17609.371500	458.709961	175.367447
-13827.153351	17609.371500	457.447266	-8.764051
-13827.153351	17609.371500	456.184570	3.541306
-13827.153351	17609.371500	454.921875	0.861854
-13827.153351	17609.371500	453.658203	-125.620506
-13827.153351	17609.371500	452.394531	234.312790
-13827.153351	17609.371500	451.130859	-45.821754
-13827.153351	17609.371500	449.867188	177.370239
-13827.153351	17609.371500	448.602539	176.558395
-13827.153351	17609.371500	447.337891	-122.716728
-13827.153351	17609.371500	446.073242	112.975037
-13827.153351	17609.371500	444.807617	288.849762
-13827.153351	17609.371500	443.542969	230.276062
-13827.153351	17609.371500	442.276367	192.958649
-13827.153351	17609.371500	441.010742	4.419512
-13827.153351	17609.371500	439.744141	388.522339
-13827.153351	17609.371500	438.478516	131.777222
-13827.153351	17609.371500	437.210938	145.295975
-13827.153351	17609.371500	435.944336	345.939575
-13827.153351	17609.371500	434.676758	359.244507
-13827.153351	17609.371500	433.409180	102.399902
-13827.153351	17609.371500	432.141602	70.929237
-13827.153351	17609.371500	430.873047	92.514275
-13827.153351	17609.371500	429.604492	143.741333
-13827.153351	17609.371500	428.335938	192.718369
-13827.153351	17609.371500	427.067383	330.780792
-13827.153351	17609.371500	425.797852	14.201183
-13827.153351	17609.371500	424.528320	86.190506
-13827.153351	17609.371500	423.258789	327.846313
-13827.153351	17609.371500	421.988281	149.052719
-13827.153351	17609.371500	420.717773	2.031160
-13827.153351	17609.371500	419.447266	151.926483
-13827.153351	17609.371500	418.175781	337.664917
-13827.153351	17609.371500	416.905273	37.592434
-13827.153351	17609.371500	415.633789	239.927979
-13827.153351	17609.371500	414.362305	189.788025
-13827.153351	17609.371500	413.089844	-4.601732
-13827.153351	17609.371500	411.817383	264.893555
-13827.153351	17609.371500	410.544922	118.930031
-13827.153351	17609.371500	409.272461	224.844299
-13827.153351	17609.371500	407.999023	209.827393
-13827.153351	17609.371500	406.725586	294.098755
-13827.153351	17609.371500	405.452148	278.651489
-13827.153351	17609.371500	404.177734	309.532898
-13827.153351	17609.371500	402.903320	147.668167
-13827.153351	17609.371500	401.628906	203.472549
-13827.153351	17609.371500	400.354492	182.882507
-13827.153351	17609.371500	399.079102	187.405411
-13827.153351	17609.371500	397.803711	119.797234
-13827.153351	17609.371500	396.528320	100.542435
-13827.153351	17609.371500	395.251953	93.676247
-13827.153351	17609.371500	393.976563	16.819565
-13827.153351	17609.371500	392.700195	214.205307
-13827.153351	17609.371500	391.422852	-59.635109
-13827.153351	17609.371500	390.145508	109.580147
-13827.153351	17609.371500	388.869141	63.131618
-13827.153351	17609.371500	387.590820	81.737991
-13827.153351	17609.371500	386.313477	-37.137203
-13827.153351	17609.371500	385.035156	141.016220
-13827.153351	17609.371500	383.756836	238.575424
-13827.153351	17609.371500	382.478516	-35.334011
-13827.153351	17609.371500	381.199219	-6.060320
-13827.153351	17609.371500	379.919922	98.622116
-13827.153351	17609.371500	378.640625	93.262596
-13827.153351	17609.371500	377.360352	123.235367
-13827.153351	17609.371500	376.080078	251.686783
-13827.153351	17609.371500	374.799805	91.158142
-13827.153351	17609.371500	373.519531	106.996063
-13827.153351	17609.371500	372.238281	103.346092
-13827.153351	17609.371500	370.957031	101.256767
-13827.153351	17609.371500	369.675781	130.157440
-13827.153351	17609.371500	368.394531	206.834457
-13827.153351	17609.371500	367.112305	34.763897
-13827.153351	17609.371500	365.830078	53.441513
-13827.153351	17609.371500	364.546875	153.422592
-13827.153351	17609.371500	363.264648	-89.773987
-13827.153351	17609.371500	361.981445	-211.715683
-13827.153351	17609.371500	360.698242	-54.964397
-13827.153351	17609.371500	359.414063	-119.499092
-13827.153351	17609.371500	358.129883	-86.075974
-13827.153351	17609.371500	356.845703	95.591934
-13827.153351	17609.371500	355.561523	41.369225
-13827.153351	17609.371500	354.276367	-53.519455
-13827.153351	17609.371500	352.991211	75.235268
-13827.153351	17609.371500	351.706055	-86.319054
-13827.153351	17609.371500	350.420898	-53.699852
-13827.153351	17609.371500	349.134766	36.668159
-13827.153351	17609.371500	347.848633	-158.952255
-13827.153351	17609.371500	346.561523	-116.613449
-13827.153351	17609.371500	345.275391	-16.604502
-13827.153351	17609.371500	343.988281	-185.754105
-13827.153351	17609.371500	342.700195	-83.696892
-13827.153351	17609.371500	341.413086	-60.188969
-13827.153351	17609.371500	340.125000	52.173641
-13827.153351	17609.371500	338.836914	-62.637489
-13827.153351	17609.371500	337.548828	-368.940826
-13827.153351	17609.371500	336.259766	-174.357056
-13827.153351	17609.371500	334.970703	-194.386749
-13827.153351	17609.371500	333.681641	-44.236187
-13827.153351	17609.371500	332.391602	-135.858139
-13827.153351	17609.371500	331.101563	-21.888390
-13827.153351	17609.371500	329.811523	7.088650
-13827.153351	17609.371500	328.521484	-105.306122
-13827.153351	17609.371500	327.230469	98.304298
-13827.153351	17609.371500	325.939453	-175.707047
-13827.153351	17609.371500	324.648438	-179.746979
-13827.153351	17609.371500	323.356445	202.801804
-13827.153351	17609.371500	322.064453	93.237022
-13827.153351	17609.371500	320.772461	199.032227
-13827.153351	17609.371500	319.480469	-24.351542
-13827.153351	17609.371500	318.187500	-40.890289
-13827.153351	17609.371500	316.894531	324.397736
-13827.153351	17609.371500	315.601563	-131.417740
-13827.153351	17609.371500	314.307617	121.641479
-13827.153351	17609.371500	313.013672	199.757568
-13827.153351	17609.371500	311.719727	23.847122
-13827.153351	17609.371500	310.425781	56.335609
-13827.153351	17609.371500	309.130859	257.423950
-13827.153351	17609.371500	307.835938	189.874359
-13827.153351	17609.371500	306.541016	20.301750
-13827.153351	17609.371500	305.245117	295.870880
-13827.153351	17609.371500	303.949219	57.322140
-13827.153351	17609.371500	302.653320	290.736115
-13827.153351	17609.371500	301.356445	367.737000
-13827.153351	17609.371500	300.060547	282.263489
-13827.153351	17609.371500	298.763672	533.041870
