#X		#Y		#Wave		#Intensity
2930.930319	5610.889667	1999.980469	58.996330
2930.930319	5610.889667	1999.016602	-54.282589
2930.930319	5610.889667	1998.052734	44.321507
2930.930319	5610.889667	1997.087891	-45.616943
2930.930319	5610.889667	1996.123047	-39.058926
2930.930319	5610.889667	1995.158203	-0.459454
2930.930319	5610.889667	1994.193359	45.401623
2930.930319	5610.889667	1993.228516	-97.101387
2930.930319	5610.889667	1992.262695	2.939512
2930.930319	5610.889667	1991.297852	60.721241
2930.930319	5610.889667	1990.332031	-2.919280
2930.930319	5610.889667	1989.366211	-133.474548
2930.930319	5610.889667	1988.399414	55.042957
2930.930319	5610.889667	1987.433594	-26.244915
2930.930319	5610.889667	1986.466797	20.986019
2930.930319	5610.889667	1985.500977	68.089745
2930.930319	5610.889667	1984.534180	221.375626
2930.930319	5610.889667	1983.567383	45.768661
2930.930319	5610.889667	1982.599609	107.371788
2930.930319	5610.889667	1981.632813	74.970520
2930.930319	5610.889667	1980.665039	54.845642
2930.930319	5610.889667	1979.697266	-17.221409
2930.930319	5610.889667	1978.729492	-39.953270
2930.930319	5610.889667	1977.761719	-28.187428
2930.930319	5610.889667	1976.792969	-31.307915
2930.930319	5610.889667	1975.825195	-24.624063
2930.930319	5610.889667	1974.856445	-62.423542
2930.930319	5610.889667	1973.887695	0.881602
2930.930319	5610.889667	1972.918945	-98.695045
2930.930319	5610.889667	1971.949219	11.337669
2930.930319	5610.889667	1970.980469	59.633942
2930.930319	5610.889667	1970.010742	14.182384
2930.930319	5610.889667	1969.041016	62.365227
2930.930319	5610.889667	1968.071289	-69.411827
2930.930319	5610.889667	1967.101563	-23.778807
2930.930319	5610.889667	1966.130859	7.018325
2930.930319	5610.889667	1965.161133	210.179169
2930.930319	5610.889667	1964.190430	26.613216
2930.930319	5610.889667	1963.219727	-68.279999
2930.930319	5610.889667	1962.249023	41.148376
2930.930319	5610.889667	1961.277344	79.136696
2930.930319	5610.889667	1960.306641	-37.936337
2930.930319	5610.889667	1959.334961	76.275581
2930.930319	5610.889667	1958.363281	138.769897
2930.930319	5610.889667	1957.391602	166.793228
2930.930319	5610.889667	1956.419922	57.093578
2930.930319	5610.889667	1955.447266	-42.745544
2930.930319	5610.889667	1954.474609	73.741356
2930.930319	5610.889667	1953.501953	62.384594
2930.930319	5610.889667	1952.529297	-116.055397
2930.930319	5610.889667	1951.556641	214.078217
2930.930319	5610.889667	1950.583984	33.207359
2930.930319	5610.889667	1949.610352	-159.878387
2930.930319	5610.889667	1948.636719	91.499542
2930.930319	5610.889667	1947.663086	43.301418
2930.930319	5610.889667	1946.689453	147.288269
2930.930319	5610.889667	1945.715820	23.029663
2930.930319	5610.889667	1944.741211	102.451111
2930.930319	5610.889667	1943.767578	61.652168
2930.930319	5610.889667	1942.792969	148.401596
2930.930319	5610.889667	1941.818359	-49.310459
2930.930319	5610.889667	1940.842773	30.083910
2930.930319	5610.889667	1939.868164	-30.256927
2930.930319	5610.889667	1938.892578	-14.597577
2930.930319	5610.889667	1937.916992	133.375107
2930.930319	5610.889667	1936.941406	21.630106
2930.930319	5610.889667	1935.965820	-55.773842
2930.930319	5610.889667	1934.990234	-15.594420
2930.930319	5610.889667	1934.013672	46.616360
2930.930319	5610.889667	1933.037109	79.440895
2930.930319	5610.889667	1932.060547	29.051521
2930.930319	5610.889667	1931.083984	-21.306219
2930.930319	5610.889667	1930.107422	72.714241
2930.930319	5610.889667	1929.129883	0.378614
2930.930319	5610.889667	1928.153320	-0.992961
2930.930319	5610.889667	1927.175781	58.779461
2930.930319	5610.889667	1926.198242	3.641164
2930.930319	5610.889667	1925.219727	19.421722
2930.930319	5610.889667	1924.242188	8.329187
2930.930319	5610.889667	1923.263672	75.442879
2930.930319	5610.889667	1922.285156	74.144882
2930.930319	5610.889667	1921.306641	31.340508
2930.930319	5610.889667	1920.328125	193.693802
2930.930319	5610.889667	1919.349609	-137.188843
2930.930319	5610.889667	1918.370117	-48.067818
2930.930319	5610.889667	1917.391602	-39.505562
2930.930319	5610.889667	1916.412109	-67.535080
2930.930319	5610.889667	1915.431641	-58.944592
2930.930319	5610.889667	1914.452148	59.424015
2930.930319	5610.889667	1913.472656	-51.485214
2930.930319	5610.889667	1912.492188	59.549633
2930.930319	5610.889667	1911.511719	-17.161154
2930.930319	5610.889667	1910.531250	-67.018280
2930.930319	5610.889667	1909.550781	43.996479
2930.930319	5610.889667	1908.569336	13.664052
2930.930319	5610.889667	1907.588867	-6.901288
2930.930319	5610.889667	1906.607422	43.185417
2930.930319	5610.889667	1905.625977	8.034029
2930.930319	5610.889667	1904.644531	-24.658642
2930.930319	5610.889667	1903.662109	81.423439
2930.930319	5610.889667	1902.680664	-150.822006
2930.930319	5610.889667	1901.698242	-151.804428
2930.930319	5610.889667	1900.715820	75.913971
2930.930319	5610.889667	1899.733398	94.365852
2930.930319	5610.889667	1898.750000	10.675781
2930.930319	5610.889667	1897.767578	-92.428619
2930.930319	5610.889667	1896.784180	-88.520889
2930.930319	5610.889667	1895.800781	-91.900650
2930.930319	5610.889667	1894.817383	21.373358
2930.930319	5610.889667	1893.833984	112.742355
2930.930319	5610.889667	1892.850586	-50.990616
2930.930319	5610.889667	1891.866211	-61.645405
2930.930319	5610.889667	1890.881836	24.840586
2930.930319	5610.889667	1889.897461	-48.944984
2930.930319	5610.889667	1888.913086	71.492264
2930.930319	5610.889667	1887.927734	165.188416
2930.930319	5610.889667	1886.943359	-97.850853
2930.930319	5610.889667	1885.958008	114.717346
2930.930319	5610.889667	1884.972656	70.088341
2930.930319	5610.889667	1883.987305	23.047958
2930.930319	5610.889667	1883.001953	-101.569633
2930.930319	5610.889667	1882.015625	-95.234802
2930.930319	5610.889667	1881.029297	131.657913
2930.930319	5610.889667	1880.042969	28.884548
2930.930319	5610.889667	1879.056641	-18.130442
2930.930319	5610.889667	1878.070313	7.536914
2930.930319	5610.889667	1877.083984	166.395050
2930.930319	5610.889667	1876.096680	-4.143656
2930.930319	5610.889667	1875.109375	-31.785784
2930.930319	5610.889667	1874.122070	18.031288
2930.930319	5610.889667	1873.134766	94.439507
2930.930319	5610.889667	1872.146484	-8.252830
2930.930319	5610.889667	1871.159180	-9.311905
2930.930319	5610.889667	1870.170898	-73.274094
2930.930319	5610.889667	1869.182617	-42.912323
2930.930319	5610.889667	1868.194336	-0.489199
2930.930319	5610.889667	1867.205078	82.997330
2930.930319	5610.889667	1866.216797	-5.172389
2930.930319	5610.889667	1865.227539	-107.827385
2930.930319	5610.889667	1864.238281	-92.076462
2930.930319	5610.889667	1863.249023	104.820717
2930.930319	5610.889667	1862.259766	45.612267
2930.930319	5610.889667	1861.269531	5.721025
2930.930319	5610.889667	1860.279297	-41.421703
2930.930319	5610.889667	1859.290039	155.224380
2930.930319	5610.889667	1858.298828	23.552914
2930.930319	5610.889667	1857.308594	215.234894
2930.930319	5610.889667	1856.318359	126.971909
2930.930319	5610.889667	1855.327148	62.833603
2930.930319	5610.889667	1854.335938	222.964828
2930.930319	5610.889667	1853.344727	16.518036
2930.930319	5610.889667	1852.353516	188.589508
2930.930319	5610.889667	1851.362305	105.084152
2930.930319	5610.889667	1850.370117	-0.111147
2930.930319	5610.889667	1849.377930	-28.202944
2930.930319	5610.889667	1848.385742	76.166794
2930.930319	5610.889667	1847.393555	-89.276718
2930.930319	5610.889667	1846.401367	190.772812
2930.930319	5610.889667	1845.408203	-68.596222
2930.930319	5610.889667	1844.415039	52.404453
2930.930319	5610.889667	1843.421875	62.618229
2930.930319	5610.889667	1842.428711	144.972031
2930.930319	5610.889667	1841.435547	191.169128
2930.930319	5610.889667	1840.441406	90.588768
2930.930319	5610.889667	1839.448242	165.552017
2930.930319	5610.889667	1838.454102	62.524715
2930.930319	5610.889667	1837.459961	14.780283
2930.930319	5610.889667	1836.464844	87.178795
2930.930319	5610.889667	1835.470703	58.581219
2930.930319	5610.889667	1834.475586	152.474075
2930.930319	5610.889667	1833.480469	147.800903
2930.930319	5610.889667	1832.485352	92.647896
2930.930319	5610.889667	1831.490234	13.455197
2930.930319	5610.889667	1830.495117	61.479408
2930.930319	5610.889667	1829.499023	-123.388924
2930.930319	5610.889667	1828.502930	42.129986
2930.930319	5610.889667	1827.506836	130.756119
2930.930319	5610.889667	1826.510742	60.969734
2930.930319	5610.889667	1825.513672	-16.039953
2930.930319	5610.889667	1824.517578	201.877747
2930.930319	5610.889667	1823.520508	-7.102151
2930.930319	5610.889667	1822.523438	126.722336
2930.930319	5610.889667	1821.526367	104.660126
2930.930319	5610.889667	1820.529297	-104.351913
2930.930319	5610.889667	1819.531250	-21.067219
2930.930319	5610.889667	1818.533203	150.753098
2930.930319	5610.889667	1817.535156	3.939458
2930.930319	5610.889667	1816.537109	139.656326
2930.930319	5610.889667	1815.539063	40.658943
2930.930319	5610.889667	1814.540039	-41.609550
2930.930319	5610.889667	1813.541992	132.144943
2930.930319	5610.889667	1812.542969	83.262337
2930.930319	5610.889667	1811.543945	-42.211395
2930.930319	5610.889667	1810.543945	112.119316
2930.930319	5610.889667	1809.544922	235.245392
2930.930319	5610.889667	1808.544922	176.560989
2930.930319	5610.889667	1807.544922	7.880930
2930.930319	5610.889667	1806.544922	171.387344
2930.930319	5610.889667	1805.544922	24.145199
2930.930319	5610.889667	1804.544922	-20.383093
2930.930319	5610.889667	1803.543945	83.121506
2930.930319	5610.889667	1802.542969	24.133369
2930.930319	5610.889667	1801.541992	-70.713638
2930.930319	5610.889667	1800.541016	3.892552
2930.930319	5610.889667	1799.539063	159.546158
2930.930319	5610.889667	1798.538086	62.134651
2930.930319	5610.889667	1797.536133	186.564575
2930.930319	5610.889667	1796.534180	-13.527108
2930.930319	5610.889667	1795.532227	65.416862
2930.930319	5610.889667	1794.529297	249.171082
2930.930319	5610.889667	1793.527344	-8.246840
2930.930319	5610.889667	1792.524414	91.885918
2930.930319	5610.889667	1791.521484	134.715027
2930.930319	5610.889667	1790.518555	208.429626
2930.930319	5610.889667	1789.514648	189.135117
2930.930319	5610.889667	1788.511719	5.440639
2930.930319	5610.889667	1787.507813	64.627991
2930.930319	5610.889667	1786.503906	116.576149
2930.930319	5610.889667	1785.500000	8.946981
2930.930319	5610.889667	1784.496094	36.939018
2930.930319	5610.889667	1783.491211	24.391661
2930.930319	5610.889667	1782.486328	52.217419
2930.930319	5610.889667	1781.481445	75.200294
2930.930319	5610.889667	1780.476563	48.159470
2930.930319	5610.889667	1779.471680	47.207581
2930.930319	5610.889667	1778.465820	72.325836
2930.930319	5610.889667	1777.460938	142.521088
2930.930319	5610.889667	1776.455078	122.310532
2930.930319	5610.889667	1775.449219	6.997391
2930.930319	5610.889667	1774.442383	133.937637
2930.930319	5610.889667	1773.436523	75.512283
2930.930319	5610.889667	1772.429688	-96.947556
2930.930319	5610.889667	1771.422852	105.680542
2930.930319	5610.889667	1770.416016	23.324274
2930.930319	5610.889667	1769.409180	33.474838
2930.930319	5610.889667	1768.402344	126.589264
2930.930319	5610.889667	1767.394531	167.396637
2930.930319	5610.889667	1766.386719	39.715099
2930.930319	5610.889667	1765.378906	21.086697
2930.930319	5610.889667	1764.371094	251.331772
2930.930319	5610.889667	1763.362305	-59.052738
2930.930319	5610.889667	1762.354492	-32.852081
2930.930319	5610.889667	1761.345703	149.645264
2930.930319	5610.889667	1760.336914	-4.413436
2930.930319	5610.889667	1759.328125	-92.168205
2930.930319	5610.889667	1758.318359	-44.986183
2930.930319	5610.889667	1757.308594	-73.665649
2930.930319	5610.889667	1756.299805	27.795229
2930.930319	5610.889667	1755.290039	131.502686
2930.930319	5610.889667	1754.279297	41.044571
2930.930319	5610.889667	1753.269531	-32.887363
2930.930319	5610.889667	1752.258789	44.517319
2930.930319	5610.889667	1751.249023	-65.014664
2930.930319	5610.889667	1750.238281	-115.471947
2930.930319	5610.889667	1749.226563	115.338844
2930.930319	5610.889667	1748.215820	83.624870
2930.930319	5610.889667	1747.204102	-52.140991
2930.930319	5610.889667	1746.193359	-86.323532
2930.930319	5610.889667	1745.181641	-18.995045
2930.930319	5610.889667	1744.168945	102.550110
2930.930319	5610.889667	1743.157227	68.127274
2930.930319	5610.889667	1742.144531	33.636921
2930.930319	5610.889667	1741.132813	84.071930
2930.930319	5610.889667	1740.120117	42.364254
2930.930319	5610.889667	1739.106445	-41.881458
2930.930319	5610.889667	1738.093750	-62.462425
2930.930319	5610.889667	1737.080078	-59.528595
2930.930319	5610.889667	1736.067383	-63.734798
2930.930319	5610.889667	1735.053711	52.229710
2930.930319	5610.889667	1734.040039	45.495274
2930.930319	5610.889667	1733.025391	-121.585968
2930.930319	5610.889667	1732.011719	-27.097965
2930.930319	5610.889667	1730.997070	-137.698227
2930.930319	5610.889667	1729.982422	-41.035885
2930.930319	5610.889667	1728.967773	-29.264294
2930.930319	5610.889667	1727.952148	-121.180023
2930.930319	5610.889667	1726.937500	1.112684
2930.930319	5610.889667	1725.921875	127.989899
2930.930319	5610.889667	1724.906250	94.725235
2930.930319	5610.889667	1723.890625	47.287941
2930.930319	5610.889667	1722.875000	-42.541191
2930.930319	5610.889667	1721.858398	126.306198
2930.930319	5610.889667	1720.841797	64.573715
2930.930319	5610.889667	1719.825195	-25.413864
2930.930319	5610.889667	1718.808594	-47.263412
2930.930319	5610.889667	1717.791992	3.685787
2930.930319	5610.889667	1716.774414	-15.948346
2930.930319	5610.889667	1715.756836	-84.973122
2930.930319	5610.889667	1714.739258	-69.476814
2930.930319	5610.889667	1713.721680	-25.868492
2930.930319	5610.889667	1712.704102	-12.861418
2930.930319	5610.889667	1711.685547	-42.184097
2930.930319	5610.889667	1710.667969	-127.875755
2930.930319	5610.889667	1709.649414	-105.661156
2930.930319	5610.889667	1708.630859	-3.746080
2930.930319	5610.889667	1707.611328	41.765789
2930.930319	5610.889667	1706.592773	54.377682
2930.930319	5610.889667	1705.573242	125.537781
2930.930319	5610.889667	1704.553711	-2.654269
2930.930319	5610.889667	1703.534180	12.123015
2930.930319	5610.889667	1702.513672	1.051869
2930.930319	5610.889667	1701.494141	102.402176
2930.930319	5610.889667	1700.473633	23.275475
2930.930319	5610.889667	1699.453125	56.545135
2930.930319	5610.889667	1698.432617	145.947708
2930.930319	5610.889667	1697.412109	155.664108
2930.930319	5610.889667	1696.390625	17.849478
2930.930319	5610.889667	1695.369141	-103.581100
2930.930319	5610.889667	1694.347656	83.841866
2930.930319	5610.889667	1693.326172	-51.690422
2930.930319	5610.889667	1692.304688	-53.900852
2930.930319	5610.889667	1691.282227	140.263504
2930.930319	5610.889667	1690.260742	-9.373692
2930.930319	5610.889667	1689.238281	9.295541
2930.930319	5610.889667	1688.214844	-44.548939
2930.930319	5610.889667	1687.192383	205.360168
2930.930319	5610.889667	1686.168945	29.925547
2930.930319	5610.889667	1685.146484	127.810646
2930.930319	5610.889667	1684.123047	24.767111
2930.930319	5610.889667	1683.099609	26.791172
2930.930319	5610.889667	1682.075195	47.438385
2930.930319	5610.889667	1681.051758	180.078583
2930.930319	5610.889667	1680.027344	4.591564
2930.930319	5610.889667	1679.002930	11.113860
2930.930319	5610.889667	1677.978516	192.543289
2930.930319	5610.889667	1676.953125	-85.584770
2930.930319	5610.889667	1675.928711	14.109163
2930.930319	5610.889667	1674.903320	174.332230
2930.930319	5610.889667	1673.877930	73.405212
2930.930319	5610.889667	1672.852539	84.342171
2930.930319	5610.889667	1671.826172	-42.235203
2930.930319	5610.889667	1670.800781	134.047989
2930.930319	5610.889667	1669.774414	130.885437
2930.930319	5610.889667	1668.748047	281.380829
2930.930319	5610.889667	1667.721680	-5.901990
2930.930319	5610.889667	1666.694336	67.679108
2930.930319	5610.889667	1665.667969	87.687744
2930.930319	5610.889667	1664.640625	142.553253
2930.930319	5610.889667	1663.613281	88.033218
2930.930319	5610.889667	1662.585938	163.758942
2930.930319	5610.889667	1661.557617	137.100464
2930.930319	5610.889667	1660.530273	175.540085
2930.930319	5610.889667	1659.501953	227.878540
2930.930319	5610.889667	1658.473633	359.194336
2930.930319	5610.889667	1657.444336	383.540131
2930.930319	5610.889667	1656.416016	535.642944
2930.930319	5610.889667	1655.386719	304.403992
2930.930319	5610.889667	1654.358398	528.418091
2930.930319	5610.889667	1653.328125	410.994019
2930.930319	5610.889667	1652.298828	449.144653
2930.930319	5610.889667	1651.269531	457.092010
2930.930319	5610.889667	1650.239258	599.600586
2930.930319	5610.889667	1649.208984	684.039063
2930.930319	5610.889667	1648.178711	650.132507
2930.930319	5610.889667	1647.148438	785.525391
2930.930319	5610.889667	1646.117188	679.698975
2930.930319	5610.889667	1645.086914	750.101746
2930.930319	5610.889667	1644.055664	931.712341
2930.930319	5610.889667	1643.024414	1249.969360
2930.930319	5610.889667	1641.992188	1315.541504
2930.930319	5610.889667	1640.960938	1647.485718
2930.930319	5610.889667	1639.928711	1879.696289
2930.930319	5610.889667	1638.896484	1928.883057
2930.930319	5610.889667	1637.864258	1890.073486
2930.930319	5610.889667	1636.832031	1835.073242
2930.930319	5610.889667	1635.798828	1618.087036
2930.930319	5610.889667	1634.766602	1528.452148
2930.930319	5610.889667	1633.733398	1420.335205
2930.930319	5610.889667	1632.699219	1455.648315
2930.930319	5610.889667	1631.666016	1349.903442
2930.930319	5610.889667	1630.632813	1554.006592
2930.930319	5610.889667	1629.598633	1360.442017
2930.930319	5610.889667	1628.564453	1513.617920
2930.930319	5610.889667	1627.530273	1465.717041
2930.930319	5610.889667	1626.495117	1339.284058
2930.930319	5610.889667	1625.460938	1642.528076
2930.930319	5610.889667	1624.425781	1590.023193
2930.930319	5610.889667	1623.390625	1749.960815
2930.930319	5610.889667	1622.355469	1607.449097
2930.930319	5610.889667	1621.319336	1585.005859
2930.930319	5610.889667	1620.284180	1463.373047
2930.930319	5610.889667	1619.248047	1683.231445
2930.930319	5610.889667	1618.211914	1621.614014
2930.930319	5610.889667	1617.174805	1481.617554
2930.930319	5610.889667	1616.138672	1516.934204
2930.930319	5610.889667	1615.101563	1455.423462
2930.930319	5610.889667	1614.065430	1419.318481
2930.930319	5610.889667	1613.027344	1512.268066
2930.930319	5610.889667	1611.990234	1759.572388
2930.930319	5610.889667	1610.953125	1732.691528
2930.930319	5610.889667	1609.915039	1721.952759
2930.930319	5610.889667	1608.876953	1807.948730
2930.930319	5610.889667	1607.838867	1691.348999
2930.930319	5610.889667	1606.800781	1643.868652
2930.930319	5610.889667	1605.761719	1911.686401
2930.930319	5610.889667	1604.723633	1921.752808
2930.930319	5610.889667	1603.684570	2076.750000
2930.930319	5610.889667	1602.644531	1990.220215
2930.930319	5610.889667	1601.605469	2110.708984
2930.930319	5610.889667	1600.566406	2086.346924
2930.930319	5610.889667	1599.526367	2197.627197
2930.930319	5610.889667	1598.486328	2256.039795
2930.930319	5610.889667	1597.446289	2250.128418
2930.930319	5610.889667	1596.405273	2476.256836
2930.930319	5610.889667	1595.365234	2334.865967
2930.930319	5610.889667	1594.324219	2108.593018
2930.930319	5610.889667	1593.283203	1939.840210
2930.930319	5610.889667	1592.242188	1984.660400
2930.930319	5610.889667	1591.200195	2105.222168
2930.930319	5610.889667	1590.159180	2046.816528
2930.930319	5610.889667	1589.117188	1926.524414
2930.930319	5610.889667	1588.075195	1742.099487
2930.930319	5610.889667	1587.032227	1805.435303
2930.930319	5610.889667	1585.990234	1763.335327
2930.930319	5610.889667	1584.947266	1778.590576
2930.930319	5610.889667	1583.904297	1913.056274
2930.930319	5610.889667	1582.861328	1648.821045
2930.930319	5610.889667	1581.818359	1803.966797
2930.930319	5610.889667	1580.775391	1913.289307
2930.930319	5610.889667	1579.731445	1894.366699
2930.930319	5610.889667	1578.687500	1827.418213
2930.930319	5610.889667	1577.643555	1728.498535
2930.930319	5610.889667	1576.598633	1753.243652
2930.930319	5610.889667	1575.554688	1565.236206
2930.930319	5610.889667	1574.509766	1571.802246
2930.930319	5610.889667	1573.464844	1585.279175
2930.930319	5610.889667	1572.419922	1495.895996
2930.930319	5610.889667	1571.374023	1582.643555
2930.930319	5610.889667	1570.329102	1333.386353
2930.930319	5610.889667	1569.283203	1481.949829
2930.930319	5610.889667	1568.237305	1440.850708
2930.930319	5610.889667	1567.191406	1482.070068
2930.930319	5610.889667	1566.144531	1409.113525
2930.930319	5610.889667	1565.098633	1411.614624
2930.930319	5610.889667	1564.051758	1382.199219
2930.930319	5610.889667	1563.004883	1428.187134
2930.930319	5610.889667	1561.957031	1234.560059
2930.930319	5610.889667	1560.910156	1415.312012
2930.930319	5610.889667	1559.862305	1180.819458
2930.930319	5610.889667	1558.814453	1432.338623
2930.930319	5610.889667	1557.766602	1562.951172
2930.930319	5610.889667	1556.718750	1201.067871
2930.930319	5610.889667	1555.669922	1320.396118
2930.930319	5610.889667	1554.621094	1302.987793
2930.930319	5610.889667	1553.573242	1351.744995
2930.930319	5610.889667	1552.523438	1471.161133
2930.930319	5610.889667	1551.474609	1586.049683
2930.930319	5610.889667	1550.424805	1509.648438
2930.930319	5610.889667	1549.375000	1542.639771
2930.930319	5610.889667	1548.325195	1377.628784
2930.930319	5610.889667	1547.275391	1438.085693
2930.930319	5610.889667	1546.225586	1648.780640
2930.930319	5610.889667	1545.174805	1697.916870
2930.930319	5610.889667	1544.124023	1537.828491
2930.930319	5610.889667	1543.073242	1828.186035
2930.930319	5610.889667	1542.022461	1904.760620
2930.930319	5610.889667	1540.970703	2095.040771
2930.930319	5610.889667	1539.919922	1926.199341
2930.930319	5610.889667	1538.868164	1893.842041
2930.930319	5610.889667	1537.815430	1445.780029
2930.930319	5610.889667	1536.763672	1329.631470
2930.930319	5610.889667	1535.710938	1343.053589
2930.930319	5610.889667	1534.659180	1218.040405
2930.930319	5610.889667	1533.606445	1263.417480
2930.930319	5610.889667	1532.552734	1152.229614
2930.930319	5610.889667	1531.500000	1311.225830
2930.930319	5610.889667	1530.446289	1261.491211
2930.930319	5610.889667	1529.393555	1404.681641
2930.930319	5610.889667	1528.338867	1613.655396
2930.930319	5610.889667	1527.285156	1697.916504
2930.930319	5610.889667	1526.231445	1573.648438
2930.930319	5610.889667	1525.176758	1764.574097
2930.930319	5610.889667	1524.122070	1683.557495
2930.930319	5610.889667	1523.067383	1591.326660
2930.930319	5610.889667	1522.012695	1580.766602
2930.930319	5610.889667	1520.957031	1298.502075
2930.930319	5610.889667	1519.901367	1061.720825
2930.930319	5610.889667	1518.845703	881.718140
2930.930319	5610.889667	1517.790039	525.313843
2930.930319	5610.889667	1516.734375	517.652771
2930.930319	5610.889667	1515.677734	331.325623
2930.930319	5610.889667	1514.621094	233.383194
2930.930319	5610.889667	1513.564453	289.365845
2930.930319	5610.889667	1512.507813	225.562943
2930.930319	5610.889667	1511.450195	188.998184
2930.930319	5610.889667	1510.393555	254.258057
2930.930319	5610.889667	1509.335938	405.454132
2930.930319	5610.889667	1508.278320	55.066227
2930.930319	5610.889667	1507.219727	93.460152
2930.930319	5610.889667	1506.162109	82.242210
2930.930319	5610.889667	1505.103516	68.855629
2930.930319	5610.889667	1504.044922	-82.156601
2930.930319	5610.889667	1502.986328	-2.777636
2930.930319	5610.889667	1501.926758	47.316692
2930.930319	5610.889667	1500.868164	61.384148
2930.930319	5610.889667	1499.808594	-14.704471
2930.930319	5610.889667	1498.749023	-47.817780
2930.930319	5610.889667	1497.688477	-71.810997
2930.930319	5610.889667	1496.628906	30.558279
2930.930319	5610.889667	1495.568359	-49.609985
2930.930319	5610.889667	1494.507813	25.850378
2930.930319	5610.889667	1493.447266	166.716888
2930.930319	5610.889667	1492.386719	21.515099
2930.930319	5610.889667	1491.325195	67.909813
2930.930319	5610.889667	1490.263672	55.830467
2930.930319	5610.889667	1489.202148	-14.689575
2930.930319	5610.889667	1488.140625	99.495323
2930.930319	5610.889667	1487.079102	47.187050
2930.930319	5610.889667	1486.016602	42.243176
2930.930319	5610.889667	1484.954102	-14.347757
2930.930319	5610.889667	1483.891602	16.897753
2930.930319	5610.889667	1482.829102	-221.625656
2930.930319	5610.889667	1481.765625	-172.177307
2930.930319	5610.889667	1480.702148	-136.147919
2930.930319	5610.889667	1479.638672	-153.950531
2930.930319	5610.889667	1478.575195	93.435455
2930.930319	5610.889667	1477.511719	57.823544
2930.930319	5610.889667	1476.447266	87.404076
2930.930319	5610.889667	1475.382813	227.097336
2930.930319	5610.889667	1474.318359	66.067421
2930.930319	5610.889667	1473.253906	268.778229
2930.930319	5610.889667	1472.189453	296.572510
2930.930319	5610.889667	1471.124023	481.401794
2930.930319	5610.889667	1470.058594	583.362610
2930.930319	5610.889667	1468.993164	844.490051
2930.930319	5610.889667	1467.927734	1031.477539
2930.930319	5610.889667	1466.861328	1191.764282
2930.930319	5610.889667	1465.794922	1136.610229
2930.930319	5610.889667	1464.728516	889.302673
2930.930319	5610.889667	1463.662109	935.388306
2930.930319	5610.889667	1462.594727	789.136780
2930.930319	5610.889667	1461.528320	680.725647
2930.930319	5610.889667	1460.460938	666.371887
2930.930319	5610.889667	1459.393555	587.632935
2930.930319	5610.889667	1458.326172	554.458008
2930.930319	5610.889667	1457.257813	610.133484
2930.930319	5610.889667	1456.189453	578.441284
2930.930319	5610.889667	1455.121094	522.545349
2930.930319	5610.889667	1454.052734	535.925049
2930.930319	5610.889667	1452.984375	625.163269
2930.930319	5610.889667	1451.915039	650.000000
2930.930319	5610.889667	1450.845703	709.451965
2930.930319	5610.889667	1449.776367	912.081543
2930.930319	5610.889667	1448.707031	1033.286011
2930.930319	5610.889667	1447.636719	1134.492310
2930.930319	5610.889667	1446.567383	1462.299194
2930.930319	5610.889667	1445.497070	1198.313843
2930.930319	5610.889667	1444.425781	1256.098755
2930.930319	5610.889667	1443.355469	1191.763916
2930.930319	5610.889667	1442.285156	1039.315552
2930.930319	5610.889667	1441.213867	1009.272949
2930.930319	5610.889667	1440.142578	888.258057
2930.930319	5610.889667	1439.070313	1005.324524
2930.930319	5610.889667	1437.999023	876.727966
2930.930319	5610.889667	1436.926758	679.046448
2930.930319	5610.889667	1435.854492	773.026733
2930.930319	5610.889667	1434.782227	619.206665
2930.930319	5610.889667	1433.709961	646.797913
2930.930319	5610.889667	1432.636719	422.101501
2930.930319	5610.889667	1431.563477	452.343414
2930.930319	5610.889667	1430.490234	452.828003
2930.930319	5610.889667	1429.416992	659.999329
2930.930319	5610.889667	1428.343750	700.653992
2930.930319	5610.889667	1427.269531	707.093384
2930.930319	5610.889667	1426.195313	806.119202
2930.930319	5610.889667	1425.121094	631.447937
2930.930319	5610.889667	1424.046875	741.468811
2930.930319	5610.889667	1422.971680	771.419250
2930.930319	5610.889667	1421.896484	609.249878
2930.930319	5610.889667	1420.821289	600.792358
2930.930319	5610.889667	1419.746094	695.787659
2930.930319	5610.889667	1418.669922	466.038696
2930.930319	5610.889667	1417.594727	489.661163
2930.930319	5610.889667	1416.518555	229.902130
2930.930319	5610.889667	1415.442383	306.096497
2930.930319	5610.889667	1414.365234	180.241989
2930.930319	5610.889667	1413.289063	25.791389
2930.930319	5610.889667	1412.211914	129.662369
2930.930319	5610.889667	1411.134766	-15.178679
2930.930319	5610.889667	1410.057617	1.917275
2930.930319	5610.889667	1408.979492	104.049812
2930.930319	5610.889667	1407.902344	30.764708
2930.930319	5610.889667	1406.824219	346.335815
2930.930319	5610.889667	1405.746094	127.946930
2930.930319	5610.889667	1404.666992	157.626602
2930.930319	5610.889667	1403.588867	45.188538
2930.930319	5610.889667	1402.509766	165.843704
2930.930319	5610.889667	1401.430664	266.189606
2930.930319	5610.889667	1400.351563	293.896698
2930.930319	5610.889667	1399.271484	380.794678
2930.930319	5610.889667	1398.192383	310.997253
2930.930319	5610.889667	1397.112305	617.844055
2930.930319	5610.889667	1396.031250	322.911926
2930.930319	5610.889667	1394.951172	505.354218
2930.930319	5610.889667	1393.871094	500.958710
2930.930319	5610.889667	1392.790039	552.270447
2930.930319	5610.889667	1391.708984	734.748413
2930.930319	5610.889667	1390.626953	813.822510
2930.930319	5610.889667	1389.545898	819.618958
2930.930319	5610.889667	1388.463867	1100.764526
2930.930319	5610.889667	1387.381836	1142.702393
2930.930319	5610.889667	1386.299805	1014.809143
2930.930319	5610.889667	1385.217773	1136.574341
2930.930319	5610.889667	1384.134766	984.612793
2930.930319	5610.889667	1383.051758	945.133057
2930.930319	5610.889667	1381.968750	847.186340
2930.930319	5610.889667	1380.885742	846.810120
2930.930319	5610.889667	1379.802734	966.045959
2930.930319	5610.889667	1378.718750	684.636902
2930.930319	5610.889667	1377.634766	961.231384
2930.930319	5610.889667	1376.550781	1055.101440
2930.930319	5610.889667	1375.465820	1197.252075
2930.930319	5610.889667	1374.381836	1342.571899
2930.930319	5610.889667	1373.296875	1494.523804
2930.930319	5610.889667	1372.211914	1555.880005
2930.930319	5610.889667	1371.126953	1665.816650
2930.930319	5610.889667	1370.041016	1985.795044
2930.930319	5610.889667	1368.955078	2289.724854
2930.930319	5610.889667	1367.869141	2306.684814
2930.930319	5610.889667	1366.783203	2609.911377
2930.930319	5610.889667	1365.697266	2927.635498
2930.930319	5610.889667	1364.610352	3206.528809
2930.930319	5610.889667	1363.523438	3066.688965
2930.930319	5610.889667	1362.436523	2979.468262
2930.930319	5610.889667	1361.349609	2791.002441
2930.930319	5610.889667	1360.261719	2563.528076
2930.930319	5610.889667	1359.174805	2648.494629
2930.930319	5610.889667	1358.086914	2629.332031
2930.930319	5610.889667	1356.998047	2949.378906
2930.930319	5610.889667	1355.910156	2897.853027
2930.930319	5610.889667	1354.821289	2523.769043
2930.930319	5610.889667	1353.732422	2463.966309
2930.930319	5610.889667	1352.643555	2182.273193
2930.930319	5610.889667	1351.554688	2027.730957
2930.930319	5610.889667	1350.464844	1683.042603
2930.930319	5610.889667	1349.375000	1369.430786
2930.930319	5610.889667	1348.285156	1206.773926
2930.930319	5610.889667	1347.195313	1042.245239
2930.930319	5610.889667	1346.105469	1177.094971
2930.930319	5610.889667	1345.014648	1005.172363
2930.930319	5610.889667	1343.923828	874.533386
2930.930319	5610.889667	1342.833008	795.399902
2930.930319	5610.889667	1341.741211	799.208252
2930.930319	5610.889667	1340.650391	982.169861
2930.930319	5610.889667	1339.558594	748.573059
2930.930319	5610.889667	1338.466797	872.604309
2930.930319	5610.889667	1337.374023	872.979370
2930.930319	5610.889667	1336.282227	806.463928
2930.930319	5610.889667	1335.189453	883.830139
2930.930319	5610.889667	1334.096680	807.192932
2930.930319	5610.889667	1333.003906	888.143433
2930.930319	5610.889667	1331.910156	757.197449
2930.930319	5610.889667	1330.817383	750.541992
2930.930319	5610.889667	1329.723633	597.463501
2930.930319	5610.889667	1328.629883	729.807068
2930.930319	5610.889667	1327.535156	646.240967
2930.930319	5610.889667	1326.441406	512.092590
2930.930319	5610.889667	1325.346680	467.134888
2930.930319	5610.889667	1324.251953	484.453064
2930.930319	5610.889667	1323.156250	385.841614
2930.930319	5610.889667	1322.061523	506.914642
2930.930319	5610.889667	1320.965820	572.362427
2930.930319	5610.889667	1319.870117	378.314850
2930.930319	5610.889667	1318.774414	258.788910
2930.930319	5610.889667	1317.678711	353.724335
2930.930319	5610.889667	1316.582031	366.866974
2930.930319	5610.889667	1315.485352	351.853485
2930.930319	5610.889667	1314.388672	485.048401
2930.930319	5610.889667	1313.291016	546.682129
2930.930319	5610.889667	1312.194336	560.705933
2930.930319	5610.889667	1311.096680	636.023682
2930.930319	5610.889667	1309.999023	415.766937
2930.930319	5610.889667	1308.901367	589.377380
2930.930319	5610.889667	1307.802734	634.340454
2930.930319	5610.889667	1306.705078	541.748779
2930.930319	5610.889667	1305.606445	429.720306
2930.930319	5610.889667	1304.506836	517.840393
2930.930319	5610.889667	1303.408203	470.712311
2930.930319	5610.889667	1302.308594	510.865234
2930.930319	5610.889667	1301.208984	632.285095
2930.930319	5610.889667	1300.109375	628.015076
2930.930319	5610.889667	1299.009766	640.944214
2930.930319	5610.889667	1297.909180	495.653809
2930.930319	5610.889667	1296.808594	619.027100
2930.930319	5610.889667	1295.708008	712.114136
2930.930319	5610.889667	1294.607422	596.776550
2930.930319	5610.889667	1293.506836	692.342834
2930.930319	5610.889667	1292.405273	674.784058
2930.930319	5610.889667	1291.303711	591.754822
2930.930319	5610.889667	1290.202148	656.519958
2930.930319	5610.889667	1289.099609	667.247070
2930.930319	5610.889667	1287.998047	669.183167
2930.930319	5610.889667	1286.895508	640.089661
2930.930319	5610.889667	1285.792969	783.218689
2930.930319	5610.889667	1284.689453	674.271912
2930.930319	5610.889667	1283.586914	696.262939
2930.930319	5610.889667	1282.483398	702.413208
2930.930319	5610.889667	1281.379883	715.871277
2930.930319	5610.889667	1280.276367	687.679504
2930.930319	5610.889667	1279.171875	859.627502
2930.930319	5610.889667	1278.067383	688.984924
2930.930319	5610.889667	1276.962891	636.712036
2930.930319	5610.889667	1275.858398	741.262268
2930.930319	5610.889667	1274.753906	644.392761
2930.930319	5610.889667	1273.648438	573.130676
2930.930319	5610.889667	1272.542969	584.291382
2930.930319	5610.889667	1271.437500	535.851746
2930.930319	5610.889667	1270.331055	632.904358
2930.930319	5610.889667	1269.225586	540.304260
2930.930319	5610.889667	1268.119141	456.189240
2930.930319	5610.889667	1267.012695	392.656494
2930.930319	5610.889667	1265.906250	293.634033
2930.930319	5610.889667	1264.798828	278.833679
2930.930319	5610.889667	1263.691406	229.049728
2930.930319	5610.889667	1262.583984	194.973450
2930.930319	5610.889667	1261.476563	221.329819
2930.930319	5610.889667	1260.368164	301.516663
2930.930319	5610.889667	1259.260742	351.784851
2930.930319	5610.889667	1258.152344	254.229462
2930.930319	5610.889667	1257.043945	292.735626
2930.930319	5610.889667	1255.934570	253.629944
2930.930319	5610.889667	1254.825195	193.305817
2930.930319	5610.889667	1253.716797	148.033600
2930.930319	5610.889667	1252.606445	261.604309
2930.930319	5610.889667	1251.497070	230.009430
2930.930319	5610.889667	1250.387695	142.421265
2930.930319	5610.889667	1249.277344	187.157150
2930.930319	5610.889667	1248.166992	51.590462
2930.930319	5610.889667	1247.055664	214.219696
2930.930319	5610.889667	1245.945313	251.481216
2930.930319	5610.889667	1244.833984	113.171875
2930.930319	5610.889667	1243.722656	104.473686
2930.930319	5610.889667	1242.611328	196.842133
2930.930319	5610.889667	1241.499023	171.919250
2930.930319	5610.889667	1240.387695	226.735184
2930.930319	5610.889667	1239.275391	224.064835
2930.930319	5610.889667	1238.162109	212.142471
2930.930319	5610.889667	1237.049805	185.536377
2930.930319	5610.889667	1235.936523	192.221619
2930.930319	5610.889667	1234.823242	64.829453
2930.930319	5610.889667	1233.709961	105.196754
2930.930319	5610.889667	1232.596680	21.418196
2930.930319	5610.889667	1231.482422	14.288638
2930.930319	5610.889667	1230.369141	1.088351
2930.930319	5610.889667	1229.253906	-51.439629
2930.930319	5610.889667	1228.139648	-24.743979
2930.930319	5610.889667	1227.025391	-1.583543
2930.930319	5610.889667	1225.910156	29.286705
2930.930319	5610.889667	1224.794922	-56.553135
2930.930319	5610.889667	1223.679688	-63.418018
2930.930319	5610.889667	1222.563477	-35.096630
2930.930319	5610.889667	1221.447266	-216.927277
2930.930319	5610.889667	1220.331055	-79.692215
2930.930319	5610.889667	1219.214844	-75.430481
2930.930319	5610.889667	1218.098633	8.672853
2930.930319	5610.889667	1216.981445	-79.415558
2930.930319	5610.889667	1215.864258	21.825415
2930.930319	5610.889667	1214.747070	99.629189
2930.930319	5610.889667	1213.629883	58.886906
2930.930319	5610.889667	1212.511719	84.036842
2930.930319	5610.889667	1211.393555	60.059189
2930.930319	5610.889667	1210.275391	-49.559689
2930.930319	5610.889667	1209.157227	-30.334890
2930.930319	5610.889667	1208.038086	12.337833
2930.930319	5610.889667	1206.918945	-61.104210
2930.930319	5610.889667	1205.799805	35.037758
2930.930319	5610.889667	1204.680664	25.338495
2930.930319	5610.889667	1203.560547	32.875839
2930.930319	5610.889667	1202.441406	91.151024
2930.930319	5610.889667	1201.321289	116.995422
2930.930319	5610.889667	1200.200195	123.176147
2930.930319	5610.889667	1199.080078	164.042694
2930.930319	5610.889667	1197.958984	72.939537
2930.930319	5610.889667	1196.837891	-66.543488
2930.930319	5610.889667	1195.716797	-61.136269
2930.930319	5610.889667	1194.594727	-135.159042
2930.930319	5610.889667	1193.473633	-114.260612
2930.930319	5610.889667	1192.351563	-50.199245
2930.930319	5610.889667	1191.229492	-82.824417
2930.930319	5610.889667	1190.106445	-51.283096
2930.930319	5610.889667	1188.984375	-33.492943
2930.930319	5610.889667	1187.861328	39.143097
2930.930319	5610.889667	1186.738281	72.078873
2930.930319	5610.889667	1185.614258	226.309433
2930.930319	5610.889667	1184.491211	269.824036
2930.930319	5610.889667	1183.367188	283.329498
2930.930319	5610.889667	1182.243164	134.677643
2930.930319	5610.889667	1181.119141	1.102556
2930.930319	5610.889667	1179.994141	35.667053
2930.930319	5610.889667	1178.869141	-52.560081
2930.930319	5610.889667	1177.744141	-56.276436
2930.930319	5610.889667	1176.619141	-97.432030
2930.930319	5610.889667	1175.493164	52.752174
2930.930319	5610.889667	1174.368164	37.195148
2930.930319	5610.889667	1173.242188	-35.460239
2930.930319	5610.889667	1172.115234	186.775375
2930.930319	5610.889667	1170.989258	300.016449
2930.930319	5610.889667	1169.862305	395.158142
2930.930319	5610.889667	1168.735352	181.645981
2930.930319	5610.889667	1167.608398	189.144730
2930.930319	5610.889667	1166.481445	16.506641
2930.930319	5610.889667	1165.353516	230.704422
2930.930319	5610.889667	1164.225586	140.776489
2930.930319	5610.889667	1163.097656	302.429626
2930.930319	5610.889667	1161.968750	465.470428
2930.930319	5610.889667	1160.840820	759.103271
2930.930319	5610.889667	1159.711914	843.852722
2930.930319	5610.889667	1158.583008	450.839844
2930.930319	5610.889667	1157.453125	166.398590
2930.930319	5610.889667	1156.324219	194.207626
2930.930319	5610.889667	1155.194336	93.740051
2930.930319	5610.889667	1154.064453	8.545362
2930.930319	5610.889667	1152.933594	92.056412
2930.930319	5610.889667	1151.803711	111.150444
2930.930319	5610.889667	1150.672852	105.745148
2930.930319	5610.889667	1149.541992	193.239258
2930.930319	5610.889667	1148.411133	71.131126
2930.930319	5610.889667	1147.279297	285.170380
2930.930319	5610.889667	1146.147461	382.760712
2930.930319	5610.889667	1145.015625	263.445923
2930.930319	5610.889667	1143.883789	213.975357
2930.930319	5610.889667	1142.750977	60.230335
2930.930319	5610.889667	1141.619141	104.097504
2930.930319	5610.889667	1140.486328	106.728409
2930.930319	5610.889667	1139.352539	60.720440
2930.930319	5610.889667	1138.219727	81.366203
2930.930319	5610.889667	1137.085938	53.274578
2930.930319	5610.889667	1135.952148	12.408708
2930.930319	5610.889667	1134.818359	107.818741
2930.930319	5610.889667	1133.683594	203.856018
2930.930319	5610.889667	1132.549805	95.805702
2930.930319	5610.889667	1131.415039	118.582497
2930.930319	5610.889667	1130.279297	168.079742
2930.930319	5610.889667	1129.144531	200.088654
2930.930319	5610.889667	1128.008789	164.244461
2930.930319	5610.889667	1126.873047	199.717651
2930.930319	5610.889667	1125.737305	298.692200
2930.930319	5610.889667	1124.601563	162.067398
2930.930319	5610.889667	1123.464844	67.362328
2930.930319	5610.889667	1122.328125	57.730999
2930.930319	5610.889667	1121.191406	130.102051
2930.930319	5610.889667	1120.054688	51.108189
2930.930319	5610.889667	1118.916992	-36.177437
2930.930319	5610.889667	1117.779297	-29.365301
2930.930319	5610.889667	1116.641602	35.539646
2930.930319	5610.889667	1115.503906	58.708237
2930.930319	5610.889667	1114.365234	91.845802
2930.930319	5610.889667	1113.226563	21.322502
2930.930319	5610.889667	1112.087891	26.751564
2930.930319	5610.889667	1110.949219	16.627081
2930.930319	5610.889667	1109.809570	-90.892616
2930.930319	5610.889667	1108.669922	-22.186722
2930.930319	5610.889667	1107.530273	61.948830
2930.930319	5610.889667	1106.390625	-57.839508
2930.930319	5610.889667	1105.250000	100.721703
2930.930319	5610.889667	1104.109375	189.769547
2930.930319	5610.889667	1102.968750	84.296661
2930.930319	5610.889667	1101.828125	29.877266
2930.930319	5610.889667	1100.686523	18.981447
2930.930319	5610.889667	1099.544922	-28.443987
2930.930319	5610.889667	1098.403320	-32.008907
2930.930319	5610.889667	1097.261719	33.135315
2930.930319	5610.889667	1096.120117	97.625404
2930.930319	5610.889667	1094.977539	207.986481
2930.930319	5610.889667	1093.834961	149.528809
2930.930319	5610.889667	1092.691406	147.232025
2930.930319	5610.889667	1091.548828	194.260422
2930.930319	5610.889667	1090.405273	135.056610
2930.930319	5610.889667	1089.261719	17.891495
2930.930319	5610.889667	1088.118164	148.734818
2930.930319	5610.889667	1086.973633	81.911766
2930.930319	5610.889667	1085.829102	136.097641
2930.930319	5610.889667	1084.684570	103.609367
2930.930319	5610.889667	1083.540039	61.267319
2930.930319	5610.889667	1082.395508	-142.273697
2930.930319	5610.889667	1081.250000	-64.736481
2930.930319	5610.889667	1080.104492	-82.261475
2930.930319	5610.889667	1078.958984	88.251480
2930.930319	5610.889667	1077.812500	34.242058
2930.930319	5610.889667	1076.666016	21.609987
2930.930319	5610.889667	1075.519531	-65.047005
2930.930319	5610.889667	1074.373047	-109.731293
2930.930319	5610.889667	1073.226563	-96.167419
2930.930319	5610.889667	1072.079102	-29.265963
2930.930319	5610.889667	1070.931641	25.244583
2930.930319	5610.889667	1069.784180	-138.366165
2930.930319	5610.889667	1068.635742	-26.555777
2930.930319	5610.889667	1067.487305	8.169065
2930.930319	5610.889667	1066.338867	148.698578
2930.930319	5610.889667	1065.190430	194.994278
2930.930319	5610.889667	1064.041992	83.243279
2930.930319	5610.889667	1062.892578	136.604065
2930.930319	5610.889667	1061.743164	155.771317
2930.930319	5610.889667	1060.593750	58.848156
2930.930319	5610.889667	1059.443359	90.328926
2930.930319	5610.889667	1058.292969	-21.435366
2930.930319	5610.889667	1057.142578	115.522202
2930.930319	5610.889667	1055.992188	-1.277273
2930.930319	5610.889667	1054.841797	-7.090991
2930.930319	5610.889667	1053.690430	-73.854446
2930.930319	5610.889667	1052.539063	-15.528466
2930.930319	5610.889667	1051.387695	-36.249634
2930.930319	5610.889667	1050.235352	59.202213
2930.930319	5610.889667	1049.083984	10.732788
2930.930319	5610.889667	1047.931641	-64.199173
2930.930319	5610.889667	1046.778320	-28.124390
2930.930319	5610.889667	1045.625977	-55.739986
2930.930319	5610.889667	1044.472656	-13.375495
2930.930319	5610.889667	1043.319336	32.647224
2930.930319	5610.889667	1042.166016	23.876654
2930.930319	5610.889667	1041.012695	89.856880
2930.930319	5610.889667	1039.858398	51.951351
2930.930319	5610.889667	1038.704102	137.281219
2930.930319	5610.889667	1037.549805	105.449173
2930.930319	5610.889667	1036.394531	-52.706818
2930.930319	5610.889667	1035.239258	50.633713
2930.930319	5610.889667	1034.083984	-23.610132
2930.930319	5610.889667	1032.928711	65.116486
2930.930319	5610.889667	1031.773438	-36.734619
2930.930319	5610.889667	1030.617188	-2.530213
2930.930319	5610.889667	1029.460938	104.294479
2930.930319	5610.889667	1028.304688	-26.950804
2930.930319	5610.889667	1027.147461	47.460331
2930.930319	5610.889667	1025.991211	64.678566
2930.930319	5610.889667	1024.833984	-60.584694
2930.930319	5610.889667	1023.675781	-86.385040
2930.930319	5610.889667	1022.518555	27.879562
2930.930319	5610.889667	1021.360352	94.804131
2930.930319	5610.889667	1020.202148	21.248138
2930.930319	5610.889667	1019.043945	3.898273
2930.930319	5610.889667	1017.884766	43.616451
2930.930319	5610.889667	1016.726563	-40.922726
2930.930319	5610.889667	1015.567383	55.971664
2930.930319	5610.889667	1014.407227	158.438858
2930.930319	5610.889667	1013.248047	99.424644
2930.930319	5610.889667	1012.087891	62.166641
2930.930319	5610.889667	1010.927734	123.528465
2930.930319	5610.889667	1009.767578	91.224640
2930.930319	5610.889667	1008.606445	-26.075514
2930.930319	5610.889667	1007.446289	45.143406
2930.930319	5610.889667	1006.285156	110.313065
2930.930319	5610.889667	1005.123047	86.894493
2930.930319	5610.889667	1003.961914	75.336388
2930.930319	5610.889667	1002.799805	147.332458
2930.930319	5610.889667	1001.637695	144.334915
2930.930319	5610.889667	1000.475586	13.179896
2930.930319	5610.889667	999.312500	-69.921532
2930.930319	5610.889667	998.149414	63.726124
2930.930319	5610.889667	996.986328	133.419418
2930.930319	5610.889667	995.823242	-188.998184
2930.930319	5610.889667	994.659180	-1.652661
2930.930319	5610.889667	993.496094	-152.879471
2930.930319	5610.889667	992.332031	-49.462936
2930.930319	5610.889667	991.166992	-226.044083
2930.930319	5610.889667	990.002930	-79.962120
2930.930319	5610.889667	988.837891	-68.801353
2930.930319	5610.889667	987.672852	71.321449
2930.930319	5610.889667	986.506836	-8.721310
2930.930319	5610.889667	985.341797	-31.745695
2930.930319	5610.889667	984.175781	38.759983
2930.930319	5610.889667	983.009766	-87.222801
2930.930319	5610.889667	981.843750	-39.022484
2930.930319	5610.889667	980.676758	55.860657
2930.930319	5610.889667	979.509766	28.163542
2930.930319	5610.889667	978.342773	10.361444
2930.930319	5610.889667	977.175781	-21.047897
2930.930319	5610.889667	976.007813	-25.664965
2930.930319	5610.889667	974.839844	3.953806
2930.930319	5610.889667	973.671875	0.594233
2930.930319	5610.889667	972.503906	-73.671242
2930.930319	5610.889667	971.334961	-1.580888
2930.930319	5610.889667	970.166016	2.614118
2930.930319	5610.889667	968.997070	135.695694
2930.930319	5610.889667	967.828125	-84.328667
2930.930319	5610.889667	966.658203	-25.253489
2930.930319	5610.889667	965.488281	-44.010509
2930.930319	5610.889667	964.318359	269.644592
2930.930319	5610.889667	963.148438	32.153843
2930.930319	5610.889667	961.977539	120.831055
2930.930319	5610.889667	960.806641	12.230412
2930.930319	5610.889667	959.635742	18.829123
2930.930319	5610.889667	958.463867	49.654274
2930.930319	5610.889667	957.292969	286.582825
2930.930319	5610.889667	956.121094	174.232269
2930.930319	5610.889667	954.948242	151.498642
2930.930319	5610.889667	953.776367	42.227825
2930.930319	5610.889667	952.603516	55.831074
2930.930319	5610.889667	951.430664	168.012650
2930.930319	5610.889667	950.257813	-12.659415
2930.930319	5610.889667	949.084961	-97.931061
2930.930319	5610.889667	947.911133	20.075655
2930.930319	5610.889667	946.737305	-80.250832
2930.930319	5610.889667	945.563477	-15.628638
2930.930319	5610.889667	944.388672	73.312798
2930.930319	5610.889667	943.213867	89.408249
2930.930319	5610.889667	942.039063	76.341454
2930.930319	5610.889667	940.864258	77.875252
2930.930319	5610.889667	939.688477	123.088615
2930.930319	5610.889667	938.513672	109.764931
2930.930319	5610.889667	937.337891	-104.534721
2930.930319	5610.889667	936.161133	35.028126
2930.930319	5610.889667	934.985352	43.626137
2930.930319	5610.889667	933.808594	108.059036
2930.930319	5610.889667	932.631836	152.925446
2930.930319	5610.889667	931.454102	156.619614
2930.930319	5610.889667	930.277344	182.166412
2930.930319	5610.889667	929.099609	190.678375
2930.930319	5610.889667	927.921875	235.478317
2930.930319	5610.889667	926.743164	88.949669
2930.930319	5610.889667	925.565430	15.063250
2930.930319	5610.889667	924.386719	209.897751
2930.930319	5610.889667	923.208008	68.214027
2930.930319	5610.889667	922.028320	98.373459
2930.930319	5610.889667	920.849609	-14.255529
2930.930319	5610.889667	919.669922	-12.036304
2930.930319	5610.889667	919.474609	122.673325
2930.930319	5610.889667	918.309570	205.921051
2930.930319	5610.889667	917.143555	177.882950
2930.930319	5610.889667	915.977539	2.362454
2930.930319	5610.889667	914.810547	-93.342674
2930.930319	5610.889667	913.644531	-51.285175
2930.930319	5610.889667	912.477539	84.963821
2930.930319	5610.889667	911.310547	153.499329
2930.930319	5610.889667	910.143555	77.077812
2930.930319	5610.889667	908.975586	-134.551941
2930.930319	5610.889667	907.807617	30.490328
2930.930319	5610.889667	906.639648	38.557220
2930.930319	5610.889667	905.471680	147.953033
2930.930319	5610.889667	904.303711	-15.349024
2930.930319	5610.889667	903.134766	50.554085
2930.930319	5610.889667	901.965820	17.529961
2930.930319	5610.889667	900.796875	47.190010
2930.930319	5610.889667	899.626953	47.890808
2930.930319	5610.889667	898.457031	-14.095209
2930.930319	5610.889667	897.287109	-32.701073
2930.930319	5610.889667	896.117188	-15.181112
2930.930319	5610.889667	894.947266	154.061905
2930.930319	5610.889667	893.776367	123.332207
2930.930319	5610.889667	892.605469	155.196762
2930.930319	5610.889667	891.434570	25.741047
2930.930319	5610.889667	890.262695	-12.222928
2930.930319	5610.889667	889.091797	34.026711
2930.930319	5610.889667	887.919922	0.847746
2930.930319	5610.889667	886.748047	157.681717
2930.930319	5610.889667	885.575195	45.093456
2930.930319	5610.889667	884.403320	69.576462
2930.930319	5610.889667	883.230469	-98.275787
2930.930319	5610.889667	882.057617	-16.132046
2930.930319	5610.889667	880.883789	-18.140440
2930.930319	5610.889667	879.710938	3.854753
2930.930319	5610.889667	878.537109	30.626074
2930.930319	5610.889667	877.362305	59.769207
2930.930319	5610.889667	876.188477	55.266632
2930.930319	5610.889667	875.013672	-11.662441
2930.930319	5610.889667	873.839844	79.807793
2930.930319	5610.889667	872.664063	32.057751
2930.930319	5610.889667	871.489258	183.416534
2930.930319	5610.889667	870.313477	154.812683
2930.930319	5610.889667	869.138672	-96.808723
2930.930319	5610.889667	867.962891	49.630184
2930.930319	5610.889667	866.786133	28.204079
2930.930319	5610.889667	865.610352	-67.525169
2930.930319	5610.889667	864.433594	-24.266899
2930.930319	5610.889667	863.256836	52.490547
2930.930319	5610.889667	862.079102	7.052855
2930.930319	5610.889667	860.902344	88.521553
2930.930319	5610.889667	859.724609	95.723793
2930.930319	5610.889667	858.546875	64.606842
2930.930319	5610.889667	857.368164	23.911850
2930.930319	5610.889667	856.190430	19.100828
2930.930319	5610.889667	855.011719	-16.823919
2930.930319	5610.889667	853.833008	-76.669464
2930.930319	5610.889667	852.654297	-83.907013
2930.930319	5610.889667	851.474609	-74.426353
2930.930319	5610.889667	850.294922	-50.629246
2930.930319	5610.889667	849.115234	-26.861895
2930.930319	5610.889667	847.935547	1.653520
2930.930319	5610.889667	846.754883	8.640896
2930.930319	5610.889667	845.575195	-63.203587
2930.930319	5610.889667	844.393555	-44.307369
2930.930319	5610.889667	843.212891	120.175415
2930.930319	5610.889667	842.032227	124.665413
2930.930319	5610.889667	840.850586	-78.461708
2930.930319	5610.889667	839.668945	16.682467
2930.930319	5610.889667	838.486328	37.827576
2930.930319	5610.889667	837.304688	66.097260
2930.930319	5610.889667	836.122070	-29.642952
2930.930319	5610.889667	834.939453	-46.701855
2930.930319	5610.889667	833.756836	-11.343634
2930.930319	5610.889667	832.573242	43.041618
2930.930319	5610.889667	831.389648	95.002098
2930.930319	5610.889667	830.206055	-43.618965
2930.930319	5610.889667	829.022461	96.402504
2930.930319	5610.889667	827.838867	-101.722092
2930.930319	5610.889667	826.654297	85.817749
2930.930319	5610.889667	825.469727	37.662090
2930.930319	5610.889667	824.284180	3.781072
2930.930319	5610.889667	823.099609	72.180573
2930.930319	5610.889667	821.914063	-71.137589
2930.930319	5610.889667	820.728516	-86.015694
2930.930319	5610.889667	819.542969	-29.589050
2930.930319	5610.889667	818.356445	14.909267
2930.930319	5610.889667	817.169922	-111.728699
2930.930319	5610.889667	815.983398	-10.254465
2930.930319	5610.889667	814.796875	-146.379013
2930.930319	5610.889667	813.609375	-85.354523
2930.930319	5610.889667	812.422852	-100.357445
2930.930319	5610.889667	811.235352	-27.541059
2930.930319	5610.889667	810.046875	47.596981
2930.930319	5610.889667	808.859375	-112.235870
2930.930319	5610.889667	807.670898	41.134636
2930.930319	5610.889667	806.482422	11.781939
2930.930319	5610.889667	805.293945	36.962337
2930.930319	5610.889667	804.104492	-46.953461
2930.930319	5610.889667	802.915039	42.187145
2930.930319	5610.889667	801.725586	38.839664
2930.930319	5610.889667	800.536133	-11.917820
2930.930319	5610.889667	799.345703	91.307785
2930.930319	5610.889667	798.155273	-77.908974
2930.930319	5610.889667	796.964844	34.714565
2930.930319	5610.889667	795.774414	24.158337
2930.930319	5610.889667	794.583008	-178.145081
2930.930319	5610.889667	793.392578	-11.207990
2930.930319	5610.889667	792.200195	60.995426
2930.930319	5610.889667	791.008789	-70.291206
2930.930319	5610.889667	789.816406	-47.817024
2930.930319	5610.889667	788.625000	19.551821
2930.930319	5610.889667	787.432617	-7.693656
2930.930319	5610.889667	786.239258	-82.222984
2930.930319	5610.889667	785.046875	89.018692
2930.930319	5610.889667	783.853516	-113.127121
2930.930319	5610.889667	782.660156	-100.258987
2930.930319	5610.889667	781.465820	-127.567078
2930.930319	5610.889667	780.272461	26.921099
2930.930319	5610.889667	779.078125	60.928238
2930.930319	5610.889667	777.883789	-108.076263
2930.930319	5610.889667	776.688477	105.232483
2930.930319	5610.889667	775.494141	56.560524
2930.930319	5610.889667	774.298828	-107.691368
2930.930319	5610.889667	773.103516	-45.511230
2930.930319	5610.889667	771.907227	-9.315470
2930.930319	5610.889667	770.711914	-10.873948
2930.930319	5610.889667	769.515625	62.959568
2930.930319	5610.889667	768.318359	87.256767
2930.930319	5610.889667	767.122070	24.357769
2930.930319	5610.889667	765.924805	-52.670898
2930.930319	5610.889667	764.727539	53.980713
2930.930319	5610.889667	763.530273	127.604088
2930.930319	5610.889667	762.333008	59.945297
2930.930319	5610.889667	761.134766	39.355858
2930.930319	5610.889667	759.936523	-30.658396
2930.930319	5610.889667	758.738281	9.891775
2930.930319	5610.889667	757.540039	85.678238
2930.930319	5610.889667	756.340820	1.517277
2930.930319	5610.889667	755.141602	20.804464
2930.930319	5610.889667	753.942383	70.614014
2930.930319	5610.889667	752.742188	99.228958
2930.930319	5610.889667	751.541992	141.904297
2930.930319	5610.889667	750.341797	69.441315
2930.930319	5610.889667	749.141602	-19.454914
2930.930319	5610.889667	747.941406	48.972450
2930.930319	5610.889667	746.740234	-77.490707
2930.930319	5610.889667	745.539063	110.564545
2930.930319	5610.889667	744.337891	89.682640
2930.930319	5610.889667	743.135742	17.173346
2930.930319	5610.889667	741.933594	-22.493315
2930.930319	5610.889667	740.731445	85.565491
2930.930319	5610.889667	739.529297	134.942566
2930.930319	5610.889667	738.326172	128.017914
2930.930319	5610.889667	737.124023	118.729355
2930.930319	5610.889667	735.919922	224.226547
2930.930319	5610.889667	734.716797	308.573303
2930.930319	5610.889667	733.513672	198.470856
2930.930319	5610.889667	732.309570	261.663910
2930.930319	5610.889667	731.105469	130.498199
2930.930319	5610.889667	729.900391	226.398026
2930.930319	5610.889667	728.696289	233.310760
2930.930319	5610.889667	727.491211	305.704651
2930.930319	5610.889667	726.286133	183.897675
2930.930319	5610.889667	725.080078	83.164665
2930.930319	5610.889667	723.874023	50.255295
2930.930319	5610.889667	722.668945	66.427094
2930.930319	5610.889667	721.461914	143.332062
2930.930319	5610.889667	720.255859	33.249016
2930.930319	5610.889667	719.048828	133.442368
2930.930319	5610.889667	717.841797	65.401604
2930.930319	5610.889667	716.634766	79.097054
2930.930319	5610.889667	715.427734	57.742668
2930.930319	5610.889667	714.219727	99.396393
2930.930319	5610.889667	713.011719	120.005333
2930.930319	5610.889667	711.803711	-60.075401
2930.930319	5610.889667	710.594727	44.489407
2930.930319	5610.889667	709.385742	-53.918468
2930.930319	5610.889667	708.176758	24.905674
2930.930319	5610.889667	706.967773	38.398495
2930.930319	5610.889667	705.758789	-60.015076
2930.930319	5610.889667	704.548828	-130.448105
2930.930319	5610.889667	703.338867	-91.372734
2930.930319	5610.889667	702.127930	19.871874
2930.930319	5610.889667	700.917969	-55.258663
2930.930319	5610.889667	699.707031	-144.350555
2930.930319	5610.889667	698.496094	-56.510120
2930.930319	5610.889667	697.285156	-108.370499
2930.930319	5610.889667	696.073242	51.513252
2930.930319	5610.889667	694.861328	-32.962189
2930.930319	5610.889667	693.649414	-26.713148
2930.930319	5610.889667	692.436523	-62.347446
2930.930319	5610.889667	691.224609	32.209984
2930.930319	5610.889667	690.011719	61.620754
2930.930319	5610.889667	688.798828	35.223537
2930.930319	5610.889667	687.584961	185.398743
2930.930319	5610.889667	686.372070	21.890553
2930.930319	5610.889667	685.158203	267.186615
2930.930319	5610.889667	683.943359	166.380890
2930.930319	5610.889667	682.729492	239.712234
2930.930319	5610.889667	681.514648	287.460266
2930.930319	5610.889667	680.299805	256.270935
2930.930319	5610.889667	679.084961	285.396881
2930.930319	5610.889667	677.869141	312.170654
2930.930319	5610.889667	676.653320	273.980408
2930.930319	5610.889667	675.437500	166.231201
2930.930319	5610.889667	674.221680	223.092712
2930.930319	5610.889667	673.004883	261.370544
2930.930319	5610.889667	671.789063	234.737000
2930.930319	5610.889667	670.571289	184.927658
2930.930319	5610.889667	669.354492	116.594719
2930.930319	5610.889667	668.136719	129.319763
2930.930319	5610.889667	666.919922	255.467590
2930.930319	5610.889667	665.701172	71.376709
2930.930319	5610.889667	664.483398	181.249725
2930.930319	5610.889667	663.264648	247.099350
2930.930319	5610.889667	662.045898	141.728531
2930.930319	5610.889667	660.827148	320.850952
2930.930319	5610.889667	659.608398	203.918121
2930.930319	5610.889667	658.388672	191.046600
2930.930319	5610.889667	657.168945	201.279144
2930.930319	5610.889667	655.949219	137.549210
2930.930319	5610.889667	654.728516	85.382034
2930.930319	5610.889667	653.507813	127.924919
2930.930319	5610.889667	652.287109	216.623047
2930.930319	5610.889667	651.066406	275.256561
2930.930319	5610.889667	649.844727	176.885818
2930.930319	5610.889667	648.623047	62.390160
2930.930319	5610.889667	647.401367	77.142487
2930.930319	5610.889667	646.179688	239.516724
2930.930319	5610.889667	644.957031	127.352036
2930.930319	5610.889667	643.734375	234.282654
2930.930319	5610.889667	642.511719	205.140533
2930.930319	5610.889667	641.289063	44.621365
2930.930319	5610.889667	640.065430	17.815300
2930.930319	5610.889667	638.841797	138.463547
2930.930319	5610.889667	637.618164	178.432236
2930.930319	5610.889667	636.393555	80.196777
2930.930319	5610.889667	635.168945	170.797729
2930.930319	5610.889667	633.944336	86.402481
2930.930319	5610.889667	632.719727	133.221939
2930.930319	5610.889667	631.494141	60.360870
2930.930319	5610.889667	630.269531	45.039707
2930.930319	5610.889667	629.042969	80.316589
2930.930319	5610.889667	627.817383	127.073212
2930.930319	5610.889667	626.590820	123.224304
2930.930319	5610.889667	625.365234	68.807205
2930.930319	5610.889667	624.137695	55.770191
2930.930319	5610.889667	622.911133	72.606812
2930.930319	5610.889667	621.683594	-126.496231
2930.930319	5610.889667	620.456055	7.492418
2930.930319	5610.889667	619.228516	10.542959
2930.930319	5610.889667	618.000977	-43.799709
2930.930319	5610.889667	616.772461	83.195206
2930.930319	5610.889667	615.543945	60.981934
2930.930319	5610.889667	614.314453	27.305931
2930.930319	5610.889667	613.085938	-82.045425
2930.930319	5610.889667	611.856445	-65.224762
2930.930319	5610.889667	610.626953	141.886703
2930.930319	5610.889667	609.397461	-68.275002
2930.930319	5610.889667	608.166992	-62.921913
2930.930319	5610.889667	606.936523	-7.160839
2930.930319	5610.889667	605.706055	-59.086014
2930.930319	5610.889667	604.474609	106.590042
2930.930319	5610.889667	603.244141	-0.283307
2930.930319	5610.889667	602.012695	172.187271
2930.930319	5610.889667	600.780273	31.019363
2930.930319	5610.889667	599.548828	-23.123722
2930.930319	5610.889667	598.316406	-26.906727
2930.930319	5610.889667	597.083984	3.629924
2930.930319	5610.889667	595.851563	-7.003021
2930.930319	5610.889667	594.618164	-95.362259
2930.930319	5610.889667	593.384766	-80.810020
2930.930319	5610.889667	592.151367	52.587303
2930.930319	5610.889667	590.917969	55.695923
2930.930319	5610.889667	589.683594	-39.419739
2930.930319	5610.889667	588.449219	-27.138050
2930.930319	5610.889667	587.214844	-3.433623
2930.930319	5610.889667	585.979492	-9.408020
2930.930319	5610.889667	584.745117	82.781532
2930.930319	5610.889667	583.509766	44.867466
2930.930319	5610.889667	582.273438	-107.095512
2930.930319	5610.889667	581.038086	7.903275
2930.930319	5610.889667	579.801758	86.376587
2930.930319	5610.889667	578.565430	87.308250
2930.930319	5610.889667	577.329102	122.448730
2930.930319	5610.889667	576.091797	27.678968
2930.930319	5610.889667	574.854492	163.105301
2930.930319	5610.889667	573.617188	173.193512
2930.930319	5610.889667	572.378906	272.119965
2930.930319	5610.889667	571.141602	95.488365
2930.930319	5610.889667	569.903320	221.744263
2930.930319	5610.889667	568.664063	165.868607
2930.930319	5610.889667	567.425781	41.766735
2930.930319	5610.889667	566.186523	124.778328
2930.930319	5610.889667	564.947266	62.192173
2930.930319	5610.889667	563.708008	131.558487
2930.930319	5610.889667	562.467773	182.723663
2930.930319	5610.889667	561.227539	2.014964
2930.930319	5610.889667	559.987305	-14.955388
2930.930319	5610.889667	558.747070	-25.080091
2930.930319	5610.889667	557.505859	57.964314
2930.930319	5610.889667	556.264648	-72.509132
2930.930319	5610.889667	555.023438	35.533600
2930.930319	5610.889667	553.781250	-51.698250
2930.930319	5610.889667	552.539063	-132.059708
2930.930319	5610.889667	551.296875	-5.849770
2930.930319	5610.889667	550.054688	-156.474869
2930.930319	5610.889667	548.811523	-14.387867
2930.930319	5610.889667	547.569336	-19.750540
2930.930319	5610.889667	546.325195	-20.553801
2930.930319	5610.889667	545.082031	26.275320
2930.930319	5610.889667	543.837891	5.115075
2930.930319	5610.889667	542.593750	81.426598
2930.930319	5610.889667	541.349609	67.111458
2930.930319	5610.889667	540.105469	25.648865
2930.930319	5610.889667	538.860352	-104.087311
2930.930319	5610.889667	537.615234	28.886864
2930.930319	5610.889667	536.369141	-87.161652
2930.930319	5610.889667	535.124023	-26.612520
2930.930319	5610.889667	533.877930	-29.415873
2930.930319	5610.889667	532.631836	-32.190956
2930.930319	5610.889667	531.384766	66.834076
2930.930319	5610.889667	530.138672	-1.478974
2930.930319	5610.889667	528.891602	68.163506
2930.930319	5610.889667	527.643555	33.834854
2930.930319	5610.889667	526.396484	92.195976
2930.930319	5610.889667	525.148438	8.229530
2930.930319	5610.889667	523.900391	-125.364693
2930.930319	5610.889667	522.652344	82.116364
2930.930319	5610.889667	521.403320	41.184303
2930.930319	5610.889667	520.154297	68.014862
2930.930319	5610.889667	518.905273	-96.964378
2930.930319	5610.889667	517.656250	-38.474266
2930.930319	5610.889667	516.406250	-119.842087
2930.930319	5610.889667	515.156250	35.658981
2930.930319	5610.889667	513.906250	-23.088991
2930.930319	5610.889667	512.655273	-47.970901
2930.930319	5610.889667	511.404297	-194.525223
2930.930319	5610.889667	510.153320	-14.251324
2930.930319	5610.889667	508.902344	-203.503540
2930.930319	5610.889667	507.650391	-45.779625
2930.930319	5610.889667	506.398438	-34.474201
2930.930319	5610.889667	505.146484	-72.681473
2930.930319	5610.889667	503.893555	-65.829872
2930.930319	5610.889667	502.641602	-34.202663
2930.930319	5610.889667	501.388672	-45.316437
2930.930319	5610.889667	500.134766	92.062653
2930.930319	5610.889667	498.881836	-58.469486
2930.930319	5610.889667	497.627930	81.143806
2930.930319	5610.889667	496.374023	-40.056007
2930.930319	5610.889667	495.119141	166.959549
2930.930319	5610.889667	493.865234	84.031204
2930.930319	5610.889667	492.610352	-52.761932
2930.930319	5610.889667	491.355469	37.378212
2930.930319	5610.889667	490.099609	-16.225561
2930.930319	5610.889667	488.843750	-2.436423
2930.930319	5610.889667	487.587891	-67.202126
2930.930319	5610.889667	486.332031	-24.205814
2930.930319	5610.889667	485.075195	-44.040340
2930.930319	5610.889667	483.818359	12.414294
2930.930319	5610.889667	482.561523	-83.650681
2930.930319	5610.889667	481.304688	13.167353
2930.930319	5610.889667	480.046875	-31.280289
2930.930319	5610.889667	478.789063	90.152054
2930.930319	5610.889667	477.531250	135.349747
2930.930319	5610.889667	476.272461	50.593178
2930.930319	5610.889667	475.013672	3.952643
2930.930319	5610.889667	473.754883	13.315794
2930.930319	5610.889667	472.496094	0.285568
2930.930319	5610.889667	471.236328	90.223190
2930.930319	5610.889667	469.976563	23.465336
2930.930319	5610.889667	468.716797	48.463886
2930.930319	5610.889667	467.456055	106.997856
2930.930319	5610.889667	466.196289	6.709380
2930.930319	5610.889667	464.935547	-100.255920
2930.930319	5610.889667	463.673828	-37.292130
2930.930319	5610.889667	462.413086	94.914146
2930.930319	5610.889667	461.151367	95.208969
2930.930319	5610.889667	459.889648	23.994963
2930.930319	5610.889667	458.626953	-33.810219
2930.930319	5610.889667	457.364258	120.527496
2930.930319	5610.889667	456.101563	40.349987
2930.930319	5610.889667	454.838867	33.837467
2930.930319	5610.889667	453.575195	118.791985
2930.930319	5610.889667	452.312500	5.104817
2930.930319	5610.889667	451.047852	11.883644
2930.930319	5610.889667	449.784180	121.209297
2930.930319	5610.889667	448.519531	52.068794
2930.930319	5610.889667	447.254883	101.061043
2930.930319	5610.889667	445.990234	212.388199
2930.930319	5610.889667	444.725586	80.737198
2930.930319	5610.889667	443.459961	191.913620
2930.930319	5610.889667	442.194336	213.893616
2930.930319	5610.889667	440.927734	307.059204
2930.930319	5610.889667	439.662109	315.521271
2930.930319	5610.889667	438.395508	446.332001
2930.930319	5610.889667	437.127930	269.914490
2930.930319	5610.889667	435.861328	358.259064
2930.930319	5610.889667	434.593750	146.192734
2930.930319	5610.889667	433.326172	416.723602
2930.930319	5610.889667	432.058594	380.218414
2930.930319	5610.889667	430.790039	463.675629
2930.930319	5610.889667	429.521484	395.874329
2930.930319	5610.889667	428.252930	365.777161
2930.930319	5610.889667	426.984375	288.938416
2930.930319	5610.889667	425.714844	229.791519
2930.930319	5610.889667	424.445313	303.790619
2930.930319	5610.889667	423.174805	337.677795
2930.930319	5610.889667	421.905273	327.038666
2930.930319	5610.889667	420.634766	251.922546
2930.930319	5610.889667	419.364258	158.958420
2930.930319	5610.889667	418.092773	139.094025
2930.930319	5610.889667	416.822266	254.376312
2930.930319	5610.889667	415.550781	127.786964
2930.930319	5610.889667	414.278320	338.035187
2930.930319	5610.889667	413.006836	149.118439
2930.930319	5610.889667	411.734375	150.670700
2930.930319	5610.889667	410.461914	234.017181
2930.930319	5610.889667	409.188477	237.416962
2930.930319	5610.889667	407.916016	351.352448
2930.930319	5610.889667	406.642578	225.956085
2930.930319	5610.889667	405.368164	177.883926
2930.930319	5610.889667	404.094727	94.230156
2930.930319	5610.889667	402.820313	169.692871
2930.930319	5610.889667	401.545898	229.426971
2930.930319	5610.889667	400.270508	255.739380
2930.930319	5610.889667	398.996094	286.239746
2930.930319	5610.889667	397.720703	168.388443
2930.930319	5610.889667	396.444336	448.135956
2930.930319	5610.889667	395.168945	161.890381
2930.930319	5610.889667	393.892578	405.669250
2930.930319	5610.889667	392.616211	463.562225
2930.930319	5610.889667	391.339844	417.380615
2930.930319	5610.889667	390.062500	335.612823
2930.930319	5610.889667	388.785156	273.456604
2930.930319	5610.889667	387.507813	332.395172
2930.930319	5610.889667	386.229492	379.967072
2930.930319	5610.889667	384.951172	336.773590
2930.930319	5610.889667	383.672852	216.096329
2930.930319	5610.889667	382.394531	286.949585
2930.930319	5610.889667	381.115234	368.446045
2930.930319	5610.889667	379.835938	229.185318
2930.930319	5610.889667	378.556641	179.961060
2930.930319	5610.889667	377.277344	167.837311
2930.930319	5610.889667	375.997070	170.749634
2930.930319	5610.889667	374.716797	122.631584
2930.930319	5610.889667	373.435547	181.993484
2930.930319	5610.889667	372.155273	199.115112
2930.930319	5610.889667	370.874023	209.200974
2930.930319	5610.889667	369.591797	212.243774
2930.930319	5610.889667	368.310547	96.088120
2930.930319	5610.889667	367.028320	80.672890
2930.930319	5610.889667	365.746094	47.215267
2930.930319	5610.889667	364.463867	105.614441
2930.930319	5610.889667	363.180664	112.950363
2930.930319	5610.889667	361.897461	53.875244
2930.930319	5610.889667	360.614258	88.769661
2930.930319	5610.889667	359.330078	59.430088
2930.930319	5610.889667	358.045898	121.784668
2930.930319	5610.889667	356.761719	10.153338
2930.930319	5610.889667	355.477539	34.079952
2930.930319	5610.889667	354.192383	178.089508
2930.930319	5610.889667	352.907227	53.823341
2930.930319	5610.889667	351.622070	163.686066
2930.930319	5610.889667	350.336914	-34.090321
2930.930319	5610.889667	349.050781	-114.040581
2930.930319	5610.889667	347.764648	57.457550
2930.930319	5610.889667	346.477539	61.672569
2930.930319	5610.889667	345.191406	1.702355
2930.930319	5610.889667	343.904297	-12.945303
2930.930319	5610.889667	342.616211	-28.302925
2930.930319	5610.889667	341.329102	65.120880
2930.930319	5610.889667	340.041016	-109.289040
2930.930319	5610.889667	338.752930	-109.293236
2930.930319	5610.889667	337.463867	29.950083
2930.930319	5610.889667	336.175781	148.690689
2930.930319	5610.889667	334.886719	-70.230057
2930.930319	5610.889667	333.596680	-154.323547
2930.930319	5610.889667	332.307617	-5.278093
2930.930319	5610.889667	331.017578	-27.637527
2930.930319	5610.889667	329.727539	-96.734749
2930.930319	5610.889667	328.436523	-29.074793
2930.930319	5610.889667	327.146484	0.554623
2930.930319	5610.889667	325.855469	-71.216293
2930.930319	5610.889667	324.563477	-146.100143
2930.930319	5610.889667	323.272461	74.971680
2930.930319	5610.889667	321.980469	-78.210983
2930.930319	5610.889667	320.688477	-7.597310
2930.930319	5610.889667	319.395508	147.014755
2930.930319	5610.889667	318.103516	23.601452
2930.930319	5610.889667	316.810547	53.963223
2930.930319	5610.889667	315.516602	28.713936
2930.930319	5610.889667	314.223633	0.238005
2930.930319	5610.889667	312.929688	-42.443165
2930.930319	5610.889667	311.635742	27.038136
2930.930319	5610.889667	310.340820	16.893932
2930.930319	5610.889667	309.045898	-79.343910
2930.930319	5610.889667	307.750977	101.914742
2930.930319	5610.889667	306.456055	127.341805
2930.930319	5610.889667	305.160156	-103.119606
2930.930319	5610.889667	303.865234	133.035858
2930.930319	5610.889667	302.568359	-2.046541
2930.930319	5610.889667	301.272461	122.609489
2930.930319	5610.889667	299.975586	334.968903
2930.930319	5610.889667	298.678711	339.376068
