#X		#Y		#Wave		#Intensity
2933.581436	5616.520833	1999.980469	97.271355
2933.581436	5616.520833	1999.016602	158.925735
2933.581436	5616.520833	1998.052734	4.356027
2933.581436	5616.520833	1997.087891	-40.562008
2933.581436	5616.520833	1996.123047	-67.569321
2933.581436	5616.520833	1995.158203	114.050232
2933.581436	5616.520833	1994.193359	63.301838
2933.581436	5616.520833	1993.228516	67.546562
2933.581436	5616.520833	1992.262695	101.969582
2933.581436	5616.520833	1991.297852	-66.129105
2933.581436	5616.520833	1990.332031	-6.036261
2933.581436	5616.520833	1989.366211	-2.447726
2933.581436	5616.520833	1988.399414	-57.828304
2933.581436	5616.520833	1987.433594	-43.522591
2933.581436	5616.520833	1986.466797	-53.575062
2933.581436	5616.520833	1985.500977	10.932034
2933.581436	5616.520833	1984.534180	-5.816435
2933.581436	5616.520833	1983.567383	-56.819344
2933.581436	5616.520833	1982.599609	-35.812992
2933.581436	5616.520833	1981.632813	-83.675011
2933.581436	5616.520833	1980.665039	46.643433
2933.581436	5616.520833	1979.697266	56.181030
2933.581436	5616.520833	1978.729492	48.709183
2933.581436	5616.520833	1977.761719	90.885857
2933.581436	5616.520833	1976.792969	-150.576736
2933.581436	5616.520833	1975.825195	52.544277
2933.581436	5616.520833	1974.856445	65.817619
2933.581436	5616.520833	1973.887695	64.507240
2933.581436	5616.520833	1972.918945	-42.656097
2933.581436	5616.520833	1971.949219	20.588783
2933.581436	5616.520833	1970.980469	231.950745
2933.581436	5616.520833	1970.010742	187.026535
2933.581436	5616.520833	1969.041016	-94.329285
2933.581436	5616.520833	1968.071289	43.527519
2933.581436	5616.520833	1967.101563	-0.839123
2933.581436	5616.520833	1966.130859	-72.139534
2933.581436	5616.520833	1965.161133	63.619308
2933.581436	5616.520833	1964.190430	137.896042
2933.581436	5616.520833	1963.219727	42.386066
2933.581436	5616.520833	1962.249023	13.492895
2933.581436	5616.520833	1961.277344	26.559761
2933.581436	5616.520833	1960.306641	98.781738
2933.581436	5616.520833	1959.334961	30.838531
2933.581436	5616.520833	1958.363281	9.745871
2933.581436	5616.520833	1957.391602	-45.686848
2933.581436	5616.520833	1956.419922	103.064346
2933.581436	5616.520833	1955.447266	92.033905
2933.581436	5616.520833	1954.474609	-56.574017
2933.581436	5616.520833	1953.501953	-13.381845
2933.581436	5616.520833	1952.529297	49.504295
2933.581436	5616.520833	1951.556641	100.132278
2933.581436	5616.520833	1950.583984	-28.513315
2933.581436	5616.520833	1949.610352	130.241562
2933.581436	5616.520833	1948.636719	-8.111115
2933.581436	5616.520833	1947.663086	89.273621
2933.581436	5616.520833	1946.689453	186.646637
2933.581436	5616.520833	1945.715820	11.626156
2933.581436	5616.520833	1944.741211	-35.736874
2933.581436	5616.520833	1943.767578	-2.123608
2933.581436	5616.520833	1942.792969	51.104557
2933.581436	5616.520833	1941.818359	-72.227943
2933.581436	5616.520833	1940.842773	88.867928
2933.581436	5616.520833	1939.868164	-61.390503
2933.581436	5616.520833	1938.892578	-32.701473
2933.581436	5616.520833	1937.916992	40.071503
2933.581436	5616.520833	1936.941406	22.164124
2933.581436	5616.520833	1935.965820	138.958694
2933.581436	5616.520833	1934.990234	23.052490
2933.581436	5616.520833	1934.013672	-26.724806
2933.581436	5616.520833	1933.037109	9.169218
2933.581436	5616.520833	1932.060547	147.817520
2933.581436	5616.520833	1931.083984	-58.642128
2933.581436	5616.520833	1930.107422	84.800690
2933.581436	5616.520833	1929.129883	32.470181
2933.581436	5616.520833	1928.153320	7.025449
2933.581436	5616.520833	1927.175781	-20.892033
2933.581436	5616.520833	1926.198242	-119.735039
2933.581436	5616.520833	1925.219727	152.946838
2933.581436	5616.520833	1924.242188	7.592166
2933.581436	5616.520833	1923.263672	16.179380
2933.581436	5616.520833	1922.285156	-46.127102
2933.581436	5616.520833	1921.306641	-115.784798
2933.581436	5616.520833	1920.328125	-9.642249
2933.581436	5616.520833	1919.349609	-184.365814
2933.581436	5616.520833	1918.370117	75.436569
2933.581436	5616.520833	1917.391602	44.655342
2933.581436	5616.520833	1916.412109	306.652069
2933.581436	5616.520833	1915.431641	29.318665
2933.581436	5616.520833	1914.452148	-18.676117
2933.581436	5616.520833	1913.472656	169.854431
2933.581436	5616.520833	1912.492188	87.599297
2933.581436	5616.520833	1911.511719	241.792038
2933.581436	5616.520833	1910.531250	100.938293
2933.581436	5616.520833	1909.550781	42.934319
2933.581436	5616.520833	1908.569336	-78.459145
2933.581436	5616.520833	1907.588867	55.919579
2933.581436	5616.520833	1906.607422	7.514485
2933.581436	5616.520833	1905.625977	-26.324474
2933.581436	5616.520833	1904.644531	61.521870
2933.581436	5616.520833	1903.662109	64.071968
2933.581436	5616.520833	1902.680664	25.184128
2933.581436	5616.520833	1901.698242	76.278488
2933.581436	5616.520833	1900.715820	127.289482
2933.581436	5616.520833	1899.733398	-133.135208
2933.581436	5616.520833	1898.750000	51.522717
2933.581436	5616.520833	1897.767578	85.293259
2933.581436	5616.520833	1896.784180	-9.862402
2933.581436	5616.520833	1895.800781	101.553123
2933.581436	5616.520833	1894.817383	130.236008
2933.581436	5616.520833	1893.833984	71.372154
2933.581436	5616.520833	1892.850586	14.893131
2933.581436	5616.520833	1891.866211	-46.490650
2933.581436	5616.520833	1890.881836	-73.920998
2933.581436	5616.520833	1889.897461	-52.850582
2933.581436	5616.520833	1888.913086	-36.709103
2933.581436	5616.520833	1887.927734	27.896286
2933.581436	5616.520833	1886.943359	60.868336
2933.581436	5616.520833	1885.958008	30.681164
2933.581436	5616.520833	1884.972656	80.483482
2933.581436	5616.520833	1883.987305	38.044376
2933.581436	5616.520833	1883.001953	-38.391449
2933.581436	5616.520833	1882.015625	156.648102
2933.581436	5616.520833	1881.029297	-67.769493
2933.581436	5616.520833	1880.042969	-32.871700
2933.581436	5616.520833	1879.056641	-199.154037
2933.581436	5616.520833	1878.070313	7.615045
2933.581436	5616.520833	1877.083984	-35.224518
2933.581436	5616.520833	1876.096680	-3.050103
2933.581436	5616.520833	1875.109375	125.888786
2933.581436	5616.520833	1874.122070	36.856411
2933.581436	5616.520833	1873.134766	27.657068
2933.581436	5616.520833	1872.146484	149.056198
2933.581436	5616.520833	1871.159180	146.964066
2933.581436	5616.520833	1870.170898	2.093530
2933.581436	5616.520833	1869.182617	14.403933
2933.581436	5616.520833	1868.194336	-60.400532
2933.581436	5616.520833	1867.205078	-19.209549
2933.581436	5616.520833	1866.216797	50.907795
2933.581436	5616.520833	1865.227539	14.600682
2933.581436	5616.520833	1864.238281	-113.569672
2933.581436	5616.520833	1863.249023	-60.585632
2933.581436	5616.520833	1862.259766	84.088974
2933.581436	5616.520833	1861.269531	-75.616127
2933.581436	5616.520833	1860.279297	-66.328476
2933.581436	5616.520833	1859.290039	20.135675
2933.581436	5616.520833	1858.298828	53.398975
2933.581436	5616.520833	1857.308594	103.478432
2933.581436	5616.520833	1856.318359	35.261589
2933.581436	5616.520833	1855.327148	27.300274
2933.581436	5616.520833	1854.335938	72.329575
2933.581436	5616.520833	1853.344727	-0.868822
2933.581436	5616.520833	1852.353516	-25.893616
2933.581436	5616.520833	1851.362305	79.175041
2933.581436	5616.520833	1850.370117	-92.987877
2933.581436	5616.520833	1849.377930	23.961365
2933.581436	5616.520833	1848.385742	17.948923
2933.581436	5616.520833	1847.393555	98.572800
2933.581436	5616.520833	1846.401367	80.373375
2933.581436	5616.520833	1845.408203	-29.376135
2933.581436	5616.520833	1844.415039	12.490026
2933.581436	5616.520833	1843.421875	-70.869644
2933.581436	5616.520833	1842.428711	-24.336226
2933.581436	5616.520833	1841.435547	-18.785427
2933.581436	5616.520833	1840.441406	85.302139
2933.581436	5616.520833	1839.448242	52.214993
2933.581436	5616.520833	1838.454102	-154.045044
2933.581436	5616.520833	1837.459961	14.704237
2933.581436	5616.520833	1836.464844	51.125942
2933.581436	5616.520833	1835.470703	-71.125702
2933.581436	5616.520833	1834.475586	287.091125
2933.581436	5616.520833	1833.480469	135.867081
2933.581436	5616.520833	1832.485352	133.526932
2933.581436	5616.520833	1831.490234	-15.354978
2933.581436	5616.520833	1830.495117	104.623749
2933.581436	5616.520833	1829.499023	58.860962
2933.581436	5616.520833	1828.502930	-13.356658
2933.581436	5616.520833	1827.506836	-68.825966
2933.581436	5616.520833	1826.510742	110.740143
2933.581436	5616.520833	1825.513672	110.274811
2933.581436	5616.520833	1824.517578	-72.506828
2933.581436	5616.520833	1823.520508	-5.960261
2933.581436	5616.520833	1822.523438	-6.634440
2933.581436	5616.520833	1821.526367	16.579443
2933.581436	5616.520833	1820.529297	27.724743
2933.581436	5616.520833	1819.531250	5.239918
2933.581436	5616.520833	1818.533203	80.889236
2933.581436	5616.520833	1817.535156	-71.077942
2933.581436	5616.520833	1816.537109	4.394378
2933.581436	5616.520833	1815.539063	-51.908840
2933.581436	5616.520833	1814.540039	-55.624798
2933.581436	5616.520833	1813.541992	86.556854
2933.581436	5616.520833	1812.542969	-34.587440
2933.581436	5616.520833	1811.543945	73.870102
2933.581436	5616.520833	1810.543945	-4.355561
2933.581436	5616.520833	1809.544922	84.752052
2933.581436	5616.520833	1808.544922	207.201111
2933.581436	5616.520833	1807.544922	90.486061
2933.581436	5616.520833	1806.544922	131.454727
2933.581436	5616.520833	1805.544922	105.414879
2933.581436	5616.520833	1804.544922	122.293907
2933.581436	5616.520833	1803.543945	93.684975
2933.581436	5616.520833	1802.542969	265.588715
2933.581436	5616.520833	1801.541992	17.118059
2933.581436	5616.520833	1800.541016	186.394638
2933.581436	5616.520833	1799.539063	260.035156
2933.581436	5616.520833	1798.538086	207.089081
2933.581436	5616.520833	1797.536133	256.644531
2933.581436	5616.520833	1796.534180	294.155792
2933.581436	5616.520833	1795.532227	174.150711
2933.581436	5616.520833	1794.529297	189.992950
2933.581436	5616.520833	1793.527344	150.904800
2933.581436	5616.520833	1792.524414	209.443085
2933.581436	5616.520833	1791.521484	265.471649
2933.581436	5616.520833	1790.518555	180.799088
2933.581436	5616.520833	1789.514648	219.915482
2933.581436	5616.520833	1788.511719	168.413162
2933.581436	5616.520833	1787.507813	50.136997
2933.581436	5616.520833	1786.503906	134.164658
2933.581436	5616.520833	1785.500000	237.092270
2933.581436	5616.520833	1784.496094	161.375305
2933.581436	5616.520833	1783.491211	121.256142
2933.581436	5616.520833	1782.486328	150.028168
2933.581436	5616.520833	1781.481445	162.024261
2933.581436	5616.520833	1780.476563	97.799026
2933.581436	5616.520833	1779.471680	135.719528
2933.581436	5616.520833	1778.465820	-21.434341
2933.581436	5616.520833	1777.460938	220.655106
2933.581436	5616.520833	1776.455078	127.462669
2933.581436	5616.520833	1775.449219	107.834198
2933.581436	5616.520833	1774.442383	-82.950417
2933.581436	5616.520833	1773.436523	18.341488
2933.581436	5616.520833	1772.429688	117.082687
2933.581436	5616.520833	1771.422852	-0.379056
2933.581436	5616.520833	1770.416016	-30.101997
2933.581436	5616.520833	1769.409180	-55.197609
2933.581436	5616.520833	1768.402344	45.337860
2933.581436	5616.520833	1767.394531	174.157471
2933.581436	5616.520833	1766.386719	53.757019
2933.581436	5616.520833	1765.378906	111.117325
2933.581436	5616.520833	1764.371094	146.981400
2933.581436	5616.520833	1763.362305	-44.879581
2933.581436	5616.520833	1762.354492	-4.534934
2933.581436	5616.520833	1761.345703	-18.857782
2933.581436	5616.520833	1760.336914	70.923836
2933.581436	5616.520833	1759.328125	44.465542
2933.581436	5616.520833	1758.318359	43.910923
2933.581436	5616.520833	1757.308594	5.327749
2933.581436	5616.520833	1756.299805	-87.820641
2933.581436	5616.520833	1755.290039	34.287338
2933.581436	5616.520833	1754.279297	66.264435
2933.581436	5616.520833	1753.269531	10.553513
2933.581436	5616.520833	1752.258789	-50.031494
2933.581436	5616.520833	1751.249023	71.375694
2933.581436	5616.520833	1750.238281	-164.482315
2933.581436	5616.520833	1749.226563	-161.641724
2933.581436	5616.520833	1748.215820	32.513672
2933.581436	5616.520833	1747.204102	-87.885231
2933.581436	5616.520833	1746.193359	-21.722145
2933.581436	5616.520833	1745.181641	-69.149445
2933.581436	5616.520833	1744.168945	15.530606
2933.581436	5616.520833	1743.157227	-1.509624
2933.581436	5616.520833	1742.144531	-77.745148
2933.581436	5616.520833	1741.132813	91.394478
2933.581436	5616.520833	1740.120117	24.281317
2933.581436	5616.520833	1739.106445	-2.873683
2933.581436	5616.520833	1738.093750	-91.508888
2933.581436	5616.520833	1737.080078	-17.542202
2933.581436	5616.520833	1736.067383	-2.713589
2933.581436	5616.520833	1735.053711	16.638531
2933.581436	5616.520833	1734.040039	66.457024
2933.581436	5616.520833	1733.025391	170.277008
2933.581436	5616.520833	1732.011719	-25.371626
2933.581436	5616.520833	1730.997070	23.889746
2933.581436	5616.520833	1729.982422	9.355755
2933.581436	5616.520833	1728.967773	48.818993
2933.581436	5616.520833	1727.952148	121.036964
2933.581436	5616.520833	1726.937500	141.273697
2933.581436	5616.520833	1725.921875	130.706528
2933.581436	5616.520833	1724.906250	232.922485
2933.581436	5616.520833	1723.890625	243.155655
2933.581436	5616.520833	1722.875000	168.515610
2933.581436	5616.520833	1721.858398	340.659851
2933.581436	5616.520833	1720.841797	270.346985
2933.581436	5616.520833	1719.825195	197.525040
2933.581436	5616.520833	1718.808594	197.414520
2933.581436	5616.520833	1717.791992	93.710045
2933.581436	5616.520833	1716.774414	161.368118
2933.581436	5616.520833	1715.756836	111.348557
2933.581436	5616.520833	1714.739258	347.715149
2933.581436	5616.520833	1713.721680	226.849152
2933.581436	5616.520833	1712.704102	89.403778
2933.581436	5616.520833	1711.685547	256.970490
2933.581436	5616.520833	1710.667969	175.517807
2933.581436	5616.520833	1709.649414	218.251572
2933.581436	5616.520833	1708.630859	359.312622
2933.581436	5616.520833	1707.611328	274.920746
2933.581436	5616.520833	1706.592773	387.386749
2933.581436	5616.520833	1705.573242	194.772537
2933.581436	5616.520833	1704.553711	306.797913
2933.581436	5616.520833	1703.534180	313.110901
2933.581436	5616.520833	1702.513672	307.485199
2933.581436	5616.520833	1701.494141	421.178772
2933.581436	5616.520833	1700.473633	302.698242
2933.581436	5616.520833	1699.453125	340.985046
2933.581436	5616.520833	1698.432617	320.517426
2933.581436	5616.520833	1697.412109	332.634979
2933.581436	5616.520833	1696.390625	283.667053
2933.581436	5616.520833	1695.369141	372.595032
2933.581436	5616.520833	1694.347656	274.102295
2933.581436	5616.520833	1693.326172	266.682831
2933.581436	5616.520833	1692.304688	376.011322
2933.581436	5616.520833	1691.282227	461.688843
2933.581436	5616.520833	1690.260742	369.466858
2933.581436	5616.520833	1689.238281	414.971344
2933.581436	5616.520833	1688.214844	298.971191
2933.581436	5616.520833	1687.192383	402.485748
2933.581436	5616.520833	1686.168945	379.578369
2933.581436	5616.520833	1685.146484	463.947845
2933.581436	5616.520833	1684.123047	321.530853
2933.581436	5616.520833	1683.099609	356.418732
2933.581436	5616.520833	1682.075195	388.730621
2933.581436	5616.520833	1681.051758	462.865112
2933.581436	5616.520833	1680.027344	714.092590
2933.581436	5616.520833	1679.002930	486.738495
2933.581436	5616.520833	1677.978516	522.857788
2933.581436	5616.520833	1676.953125	621.704651
2933.581436	5616.520833	1675.928711	452.189362
2933.581436	5616.520833	1674.903320	725.454651
2933.581436	5616.520833	1673.877930	688.411987
2933.581436	5616.520833	1672.852539	872.570557
2933.581436	5616.520833	1671.826172	662.670105
2933.581436	5616.520833	1670.800781	946.529175
2933.581436	5616.520833	1669.774414	722.320984
2933.581436	5616.520833	1668.748047	830.987427
2933.581436	5616.520833	1667.721680	1051.163818
2933.581436	5616.520833	1666.694336	989.377075
2933.581436	5616.520833	1665.667969	1027.516235
2933.581436	5616.520833	1664.640625	1205.021362
2933.581436	5616.520833	1663.613281	1231.047241
2933.581436	5616.520833	1662.585938	1354.554565
2933.581436	5616.520833	1661.557617	1717.309814
2933.581436	5616.520833	1660.530273	1670.558350
2933.581436	5616.520833	1659.501953	1788.644043
2933.581436	5616.520833	1658.473633	1899.516479
2933.581436	5616.520833	1657.444336	2056.596191
2933.581436	5616.520833	1656.416016	2422.538818
2933.581436	5616.520833	1655.386719	2511.710693
2933.581436	5616.520833	1654.358398	2779.503662
2933.581436	5616.520833	1653.328125	2689.376465
2933.581436	5616.520833	1652.298828	2745.373535
2933.581436	5616.520833	1651.269531	3149.302246
2933.581436	5616.520833	1650.239258	3448.432373
2933.581436	5616.520833	1649.208984	3710.138916
2933.581436	5616.520833	1648.178711	3658.411621
2933.581436	5616.520833	1647.148438	3810.603516
2933.581436	5616.520833	1646.117188	4236.128418
2933.581436	5616.520833	1645.086914	4501.377930
2933.581436	5616.520833	1644.055664	4675.915527
2933.581436	5616.520833	1643.024414	5121.334961
2933.581436	5616.520833	1641.992188	5397.235840
2933.581436	5616.520833	1640.960938	5561.692871
2933.581436	5616.520833	1639.928711	5598.495117
2933.581436	5616.520833	1638.896484	5836.561035
2933.581436	5616.520833	1637.864258	6352.173340
2933.581436	5616.520833	1636.832031	6249.395020
2933.581436	5616.520833	1635.798828	6556.068359
2933.581436	5616.520833	1634.766602	6783.815918
2933.581436	5616.520833	1633.733398	7094.552734
2933.581436	5616.520833	1632.699219	7187.555664
2933.581436	5616.520833	1631.666016	7502.383789
2933.581436	5616.520833	1630.632813	7851.602539
2933.581436	5616.520833	1629.598633	7939.285156
2933.581436	5616.520833	1628.564453	8156.193848
2933.581436	5616.520833	1627.530273	8557.705078
2933.581436	5616.520833	1626.495117	8540.725586
2933.581436	5616.520833	1625.460938	8971.716797
2933.581436	5616.520833	1624.425781	9164.495117
2933.581436	5616.520833	1623.390625	9546.366211
2933.581436	5616.520833	1622.355469	9849.454102
2933.581436	5616.520833	1621.319336	10062.227539
2933.581436	5616.520833	1620.284180	10129.434570
2933.581436	5616.520833	1619.248047	10244.879883
2933.581436	5616.520833	1618.211914	10217.126953
2933.581436	5616.520833	1617.174805	10555.880859
2933.581436	5616.520833	1616.138672	10343.338867
2933.581436	5616.520833	1615.101563	10681.655273
2933.581436	5616.520833	1614.065430	10574.915039
2933.581436	5616.520833	1613.027344	10988.789063
2933.581436	5616.520833	1611.990234	10953.146484
2933.581436	5616.520833	1610.953125	11186.888672
2933.581436	5616.520833	1609.915039	11028.865234
2933.581436	5616.520833	1608.876953	11427.992188
2933.581436	5616.520833	1607.838867	11628.859375
2933.581436	5616.520833	1606.800781	11903.176758
2933.581436	5616.520833	1605.761719	11979.328125
2933.581436	5616.520833	1604.723633	11703.351563
2933.581436	5616.520833	1603.684570	11809.181641
2933.581436	5616.520833	1602.644531	12462.183594
2933.581436	5616.520833	1601.605469	12146.805664
2933.581436	5616.520833	1600.566406	12114.214844
2933.581436	5616.520833	1599.526367	12242.387695
2933.581436	5616.520833	1598.486328	12565.740234
2933.581436	5616.520833	1597.446289	12767.092773
2933.581436	5616.520833	1596.405273	12619.059570
2933.581436	5616.520833	1595.365234	12838.500000
2933.581436	5616.520833	1594.324219	12915.354492
2933.581436	5616.520833	1593.283203	12950.761719
2933.581436	5616.520833	1592.242188	13208.715820
2933.581436	5616.520833	1591.200195	13413.660156
2933.581436	5616.520833	1590.159180	13623.067383
2933.581436	5616.520833	1589.117188	13630.400391
2933.581436	5616.520833	1588.075195	13770.677734
2933.581436	5616.520833	1587.032227	13757.145508
2933.581436	5616.520833	1585.990234	14536.851563
2933.581436	5616.520833	1584.947266	14525.323242
2933.581436	5616.520833	1583.904297	14926.251953
2933.581436	5616.520833	1582.861328	15019.918945
2933.581436	5616.520833	1581.818359	15264.684570
2933.581436	5616.520833	1580.775391	15754.372070
2933.581436	5616.520833	1579.731445	15556.776367
2933.581436	5616.520833	1578.687500	16403.232422
2933.581436	5616.520833	1577.643555	15827.780273
2933.581436	5616.520833	1576.598633	16051.203125
2933.581436	5616.520833	1575.554688	16281.396484
2933.581436	5616.520833	1574.509766	16092.758789
2933.581436	5616.520833	1573.464844	16363.904297
2933.581436	5616.520833	1572.419922	16680.642578
2933.581436	5616.520833	1571.374023	16105.488281
2933.581436	5616.520833	1570.329102	16275.788086
2933.581436	5616.520833	1569.283203	16224.261719
2933.581436	5616.520833	1568.237305	15855.107422
2933.581436	5616.520833	1567.191406	15863.036133
2933.581436	5616.520833	1566.144531	15859.484375
2933.581436	5616.520833	1565.098633	15269.042969
2933.581436	5616.520833	1564.051758	14735.866211
2933.581436	5616.520833	1563.004883	14864.903320
2933.581436	5616.520833	1561.957031	14535.092773
2933.581436	5616.520833	1560.910156	14540.888672
2933.581436	5616.520833	1559.862305	14421.162109
2933.581436	5616.520833	1558.814453	14050.574219
2933.581436	5616.520833	1557.766602	13707.506836
2933.581436	5616.520833	1556.718750	13503.671875
2933.581436	5616.520833	1555.669922	13204.146484
2933.581436	5616.520833	1554.621094	12786.235352
2933.581436	5616.520833	1553.573242	13177.513672
2933.581436	5616.520833	1552.523438	12885.085938
2933.581436	5616.520833	1551.474609	12579.171875
2933.581436	5616.520833	1550.424805	12207.322266
2933.581436	5616.520833	1549.375000	12329.760742
2933.581436	5616.520833	1548.325195	12622.927734
2933.581436	5616.520833	1547.275391	12472.182617
2933.581436	5616.520833	1546.225586	12182.724609
2933.581436	5616.520833	1545.174805	12487.216797
2933.581436	5616.520833	1544.124023	12295.743164
2933.581436	5616.520833	1543.073242	12290.892578
2933.581436	5616.520833	1542.022461	12208.789063
2933.581436	5616.520833	1540.970703	12065.359375
2933.581436	5616.520833	1539.919922	12222.119141
2933.581436	5616.520833	1538.868164	12176.592773
2933.581436	5616.520833	1537.815430	12072.042969
2933.581436	5616.520833	1536.763672	11901.772461
2933.581436	5616.520833	1535.710938	11599.879883
2933.581436	5616.520833	1534.659180	11516.214844
2933.581436	5616.520833	1533.606445	11344.088867
2933.581436	5616.520833	1532.552734	11167.542969
2933.581436	5616.520833	1531.500000	10768.797852
2933.581436	5616.520833	1530.446289	10579.008789
2933.581436	5616.520833	1529.393555	10486.975586
2933.581436	5616.520833	1528.338867	10038.925781
2933.581436	5616.520833	1527.285156	9609.337891
2933.581436	5616.520833	1526.231445	9395.405273
2933.581436	5616.520833	1525.176758	9095.500977
2933.581436	5616.520833	1524.122070	9409.978516
2933.581436	5616.520833	1523.067383	8498.663086
2933.581436	5616.520833	1522.012695	8385.231445
2933.581436	5616.520833	1520.957031	8271.934570
2933.581436	5616.520833	1519.901367	7785.179688
2933.581436	5616.520833	1518.845703	7742.495605
2933.581436	5616.520833	1517.790039	7779.188477
2933.581436	5616.520833	1516.734375	7517.279785
2933.581436	5616.520833	1515.677734	7456.959473
2933.581436	5616.520833	1514.621094	7331.207031
2933.581436	5616.520833	1513.564453	7201.133789
2933.581436	5616.520833	1512.507813	7329.054688
2933.581436	5616.520833	1511.450195	7077.225586
2933.581436	5616.520833	1510.393555	7022.349609
2933.581436	5616.520833	1509.335938	6707.728516
2933.581436	5616.520833	1508.278320	6486.042969
2933.581436	5616.520833	1507.219727	6630.553223
2933.581436	5616.520833	1506.162109	6169.904297
2933.581436	5616.520833	1505.103516	6079.925781
2933.581436	5616.520833	1504.044922	6003.712402
2933.581436	5616.520833	1502.986328	5516.890625
2933.581436	5616.520833	1501.926758	5569.802734
2933.581436	5616.520833	1500.868164	5381.485352
2933.581436	5616.520833	1499.808594	5317.484863
2933.581436	5616.520833	1498.749023	5066.502930
2933.581436	5616.520833	1497.688477	4980.411133
2933.581436	5616.520833	1496.628906	4790.882813
2933.581436	5616.520833	1495.568359	4806.733398
2933.581436	5616.520833	1494.507813	4764.196777
2933.581436	5616.520833	1493.447266	4719.642090
2933.581436	5616.520833	1492.386719	4364.437988
2933.581436	5616.520833	1491.325195	4588.422852
2933.581436	5616.520833	1490.263672	4663.919922
2933.581436	5616.520833	1489.202148	4579.765625
2933.581436	5616.520833	1488.140625	4563.408691
2933.581436	5616.520833	1487.079102	4387.506836
2933.581436	5616.520833	1486.016602	4270.387207
2933.581436	5616.520833	1484.954102	4540.502441
2933.581436	5616.520833	1483.891602	4419.393066
2933.581436	5616.520833	1482.829102	4206.407227
2933.581436	5616.520833	1481.765625	4250.084473
2933.581436	5616.520833	1480.702148	3952.368896
2933.581436	5616.520833	1479.638672	4097.806641
2933.581436	5616.520833	1478.575195	4101.950684
2933.581436	5616.520833	1477.511719	4391.619141
2933.581436	5616.520833	1476.447266	3949.342041
2933.581436	5616.520833	1475.382813	3651.200928
2933.581436	5616.520833	1474.318359	3508.345459
2933.581436	5616.520833	1473.253906	3574.618164
2933.581436	5616.520833	1472.189453	3237.359619
2933.581436	5616.520833	1471.124023	3156.025635
2933.581436	5616.520833	1470.058594	3344.160645
2933.581436	5616.520833	1468.993164	2942.902588
2933.581436	5616.520833	1467.927734	3003.769775
2933.581436	5616.520833	1466.861328	2939.373047
2933.581436	5616.520833	1465.794922	2765.544922
2933.581436	5616.520833	1464.728516	2831.891846
2933.581436	5616.520833	1463.662109	2591.990479
2933.581436	5616.520833	1462.594727	2701.351563
2933.581436	5616.520833	1461.528320	2433.036377
2933.581436	5616.520833	1460.460938	2384.348389
2933.581436	5616.520833	1459.393555	2497.423584
2933.581436	5616.520833	1458.326172	2440.689697
2933.581436	5616.520833	1457.257813	2221.504639
2933.581436	5616.520833	1456.189453	2233.237061
2933.581436	5616.520833	1455.121094	2573.235352
2933.581436	5616.520833	1454.052734	2443.099121
2933.581436	5616.520833	1452.984375	2176.395752
2933.581436	5616.520833	1451.915039	2380.747559
2933.581436	5616.520833	1450.845703	2290.394775
2933.581436	5616.520833	1449.776367	1963.150391
2933.581436	5616.520833	1448.707031	1883.483398
2933.581436	5616.520833	1447.636719	2000.767456
2933.581436	5616.520833	1446.567383	1815.869751
2933.581436	5616.520833	1445.497070	1902.902832
2933.581436	5616.520833	1444.425781	1700.453979
2933.581436	5616.520833	1443.355469	1581.782593
2933.581436	5616.520833	1442.285156	1405.176880
2933.581436	5616.520833	1441.213867	1404.176758
2933.581436	5616.520833	1440.142578	1339.704102
2933.581436	5616.520833	1439.070313	1744.949829
2933.581436	5616.520833	1437.999023	1611.163818
2933.581436	5616.520833	1436.926758	1417.573364
2933.581436	5616.520833	1435.854492	1275.376587
2933.581436	5616.520833	1434.782227	960.817383
2933.581436	5616.520833	1433.709961	1038.555908
2933.581436	5616.520833	1432.636719	886.405762
2933.581436	5616.520833	1431.563477	459.090820
2933.581436	5616.520833	1430.490234	526.448792
2933.581436	5616.520833	1429.416992	217.182510
2933.581436	5616.520833	1428.343750	337.324951
2933.581436	5616.520833	1427.269531	203.640549
2933.581436	5616.520833	1426.195313	225.157867
2933.581436	5616.520833	1425.121094	446.235901
2933.581436	5616.520833	1424.046875	26.038265
2933.581436	5616.520833	1422.971680	338.889374
2933.581436	5616.520833	1421.896484	105.120827
2933.581436	5616.520833	1420.821289	238.857147
2933.581436	5616.520833	1419.746094	58.408268
2933.581436	5616.520833	1418.669922	-55.294613
2933.581436	5616.520833	1417.594727	79.285042
2933.581436	5616.520833	1416.518555	-27.059818
2933.581436	5616.520833	1415.442383	-23.390610
2933.581436	5616.520833	1414.365234	-173.706451
2933.581436	5616.520833	1413.289063	-183.888000
2933.581436	5616.520833	1412.211914	-26.907053
2933.581436	5616.520833	1411.134766	71.263176
2933.581436	5616.520833	1410.057617	-54.784489
2933.581436	5616.520833	1408.979492	-57.498615
2933.581436	5616.520833	1407.902344	-34.916237
2933.581436	5616.520833	1406.824219	41.135124
2933.581436	5616.520833	1405.746094	282.857880
2933.581436	5616.520833	1404.666992	25.255964
2933.581436	5616.520833	1403.588867	78.750099
2933.581436	5616.520833	1402.509766	25.492218
2933.581436	5616.520833	1401.430664	49.179119
2933.581436	5616.520833	1400.351563	139.401321
2933.581436	5616.520833	1399.271484	21.219208
2933.581436	5616.520833	1398.192383	-8.772879
2933.581436	5616.520833	1397.112305	126.131477
2933.581436	5616.520833	1396.031250	333.098022
2933.581436	5616.520833	1394.951172	137.650238
2933.581436	5616.520833	1393.871094	317.171356
2933.581436	5616.520833	1392.790039	106.167282
2933.581436	5616.520833	1391.708984	231.928543
2933.581436	5616.520833	1390.626953	167.737106
2933.581436	5616.520833	1389.545898	196.803741
2933.581436	5616.520833	1388.463867	306.176727
2933.581436	5616.520833	1387.381836	228.398804
2933.581436	5616.520833	1386.299805	264.772827
2933.581436	5616.520833	1385.217773	493.437561
2933.581436	5616.520833	1384.134766	795.692688
2933.581436	5616.520833	1383.051758	945.499146
2933.581436	5616.520833	1381.968750	813.306030
2933.581436	5616.520833	1380.885742	726.769531
2933.581436	5616.520833	1379.802734	835.180542
2933.581436	5616.520833	1378.718750	1156.705811
2933.581436	5616.520833	1377.634766	1104.819580
2933.581436	5616.520833	1376.550781	1084.863403
2933.581436	5616.520833	1375.465820	952.087036
2933.581436	5616.520833	1374.381836	1108.859497
2933.581436	5616.520833	1373.296875	1293.936890
2933.581436	5616.520833	1372.211914	1405.342163
2933.581436	5616.520833	1371.126953	1126.141113
2933.581436	5616.520833	1370.041016	1012.999268
2933.581436	5616.520833	1368.955078	1077.342773
2933.581436	5616.520833	1367.869141	1207.483276
2933.581436	5616.520833	1366.783203	978.963318
2933.581436	5616.520833	1365.697266	869.971436
2933.581436	5616.520833	1364.610352	890.011047
2933.581436	5616.520833	1363.523438	419.599548
2933.581436	5616.520833	1362.436523	838.249817
2933.581436	5616.520833	1361.349609	661.373047
2933.581436	5616.520833	1360.261719	690.239563
2933.581436	5616.520833	1359.174805	317.075928
2933.581436	5616.520833	1358.086914	309.523499
2933.581436	5616.520833	1356.998047	189.107773
2933.581436	5616.520833	1355.910156	136.605637
2933.581436	5616.520833	1354.821289	255.500473
2933.581436	5616.520833	1353.732422	66.930870
2933.581436	5616.520833	1352.643555	-107.754776
2933.581436	5616.520833	1351.554688	-45.979603
2933.581436	5616.520833	1350.464844	-143.898041
2933.581436	5616.520833	1349.375000	86.298698
2933.581436	5616.520833	1348.285156	-14.115396
2933.581436	5616.520833	1347.195313	-47.913246
2933.581436	5616.520833	1346.105469	-114.459602
2933.581436	5616.520833	1345.014648	169.846664
2933.581436	5616.520833	1343.923828	171.171631
2933.581436	5616.520833	1342.833008	109.472656
2933.581436	5616.520833	1341.741211	13.304997
2933.581436	5616.520833	1340.650391	77.973457
2933.581436	5616.520833	1339.558594	36.895157
2933.581436	5616.520833	1338.466797	78.761421
2933.581436	5616.520833	1337.374023	-110.304802
2933.581436	5616.520833	1336.282227	41.732586
2933.581436	5616.520833	1335.189453	15.746557
2933.581436	5616.520833	1334.096680	-49.022396
2933.581436	5616.520833	1333.003906	103.755775
2933.581436	5616.520833	1331.910156	49.406776
2933.581436	5616.520833	1330.817383	-65.437485
2933.581436	5616.520833	1329.723633	-50.054962
2933.581436	5616.520833	1328.629883	157.050659
2933.581436	5616.520833	1327.535156	58.372326
2933.581436	5616.520833	1326.441406	37.394455
2933.581436	5616.520833	1325.346680	90.804619
2933.581436	5616.520833	1324.251953	64.150291
2933.581436	5616.520833	1323.156250	90.701027
2933.581436	5616.520833	1322.061523	53.350452
2933.581436	5616.520833	1320.965820	145.446915
2933.581436	5616.520833	1319.870117	80.868378
2933.581436	5616.520833	1318.774414	-8.355402
2933.581436	5616.520833	1317.678711	365.106049
2933.581436	5616.520833	1316.582031	299.413635
2933.581436	5616.520833	1315.485352	389.485931
2933.581436	5616.520833	1314.388672	385.499908
2933.581436	5616.520833	1313.291016	619.341003
2933.581436	5616.520833	1312.194336	399.148621
2933.581436	5616.520833	1311.096680	571.247253
2933.581436	5616.520833	1309.999023	672.953003
2933.581436	5616.520833	1308.901367	1012.624451
2933.581436	5616.520833	1307.802734	853.667847
2933.581436	5616.520833	1306.705078	1107.875488
2933.581436	5616.520833	1305.606445	1055.152954
2933.581436	5616.520833	1304.506836	1268.748291
2933.581436	5616.520833	1303.408203	1219.197876
2933.581436	5616.520833	1302.308594	1219.065308
2933.581436	5616.520833	1301.208984	1286.103271
2933.581436	5616.520833	1300.109375	1415.543091
2933.581436	5616.520833	1299.009766	1571.287964
2933.581436	5616.520833	1297.909180	1667.576538
2933.581436	5616.520833	1296.808594	1586.715088
2933.581436	5616.520833	1295.708008	1511.991333
2933.581436	5616.520833	1294.607422	1208.376709
2933.581436	5616.520833	1293.506836	1239.254395
2933.581436	5616.520833	1292.405273	1221.444580
2933.581436	5616.520833	1291.303711	1017.033203
2933.581436	5616.520833	1290.202148	984.052917
2933.581436	5616.520833	1289.099609	779.429993
2933.581436	5616.520833	1287.998047	776.388794
2933.581436	5616.520833	1286.895508	423.924011
2933.581436	5616.520833	1285.792969	439.427765
2933.581436	5616.520833	1284.689453	529.910095
2933.581436	5616.520833	1283.586914	203.814011
2933.581436	5616.520833	1282.483398	-48.762325
2933.581436	5616.520833	1281.379883	72.909882
2933.581436	5616.520833	1280.276367	114.035957
2933.581436	5616.520833	1279.171875	129.179779
2933.581436	5616.520833	1278.067383	-30.166994
2933.581436	5616.520833	1276.962891	-107.944611
2933.581436	5616.520833	1275.858398	-61.469353
2933.581436	5616.520833	1274.753906	-2.764543
2933.581436	5616.520833	1273.648438	81.014938
2933.581436	5616.520833	1272.542969	182.359512
2933.581436	5616.520833	1271.437500	201.485031
2933.581436	5616.520833	1270.331055	356.065308
2933.581436	5616.520833	1269.225586	81.358406
2933.581436	5616.520833	1268.119141	121.992348
2933.581436	5616.520833	1267.012695	354.830414
2933.581436	5616.520833	1265.906250	68.895943
2933.581436	5616.520833	1264.798828	115.390953
2933.581436	5616.520833	1263.691406	177.883118
2933.581436	5616.520833	1262.583984	274.973846
2933.581436	5616.520833	1261.476563	252.131775
2933.581436	5616.520833	1260.368164	61.131741
2933.581436	5616.520833	1259.260742	194.409927
2933.581436	5616.520833	1258.152344	311.680481
2933.581436	5616.520833	1257.043945	263.759918
2933.581436	5616.520833	1255.934570	86.208832
2933.581436	5616.520833	1254.825195	368.215424
2933.581436	5616.520833	1253.716797	371.143982
2933.581436	5616.520833	1252.606445	139.664093
2933.581436	5616.520833	1251.497070	266.175873
2933.581436	5616.520833	1250.387695	145.724518
2933.581436	5616.520833	1249.277344	482.099976
2933.581436	5616.520833	1248.166992	651.617371
2933.581436	5616.520833	1247.055664	716.019897
2933.581436	5616.520833	1245.945313	558.223450
2933.581436	5616.520833	1244.833984	699.430725
2933.581436	5616.520833	1243.722656	810.988525
2933.581436	5616.520833	1242.611328	745.619080
2933.581436	5616.520833	1241.499023	714.289795
2933.581436	5616.520833	1240.387695	829.996277
2933.581436	5616.520833	1239.275391	815.945374
2933.581436	5616.520833	1238.162109	840.042175
2933.581436	5616.520833	1237.049805	812.340149
2933.581436	5616.520833	1235.936523	923.525330
2933.581436	5616.520833	1234.823242	865.371155
2933.581436	5616.520833	1233.709961	875.622192
2933.581436	5616.520833	1232.596680	905.144287
2933.581436	5616.520833	1231.482422	914.732605
2933.581436	5616.520833	1230.369141	791.926941
2933.581436	5616.520833	1229.253906	888.551025
2933.581436	5616.520833	1228.139648	823.527039
2933.581436	5616.520833	1227.025391	840.166077
2933.581436	5616.520833	1225.910156	1022.674866
2933.581436	5616.520833	1224.794922	984.684509
2933.581436	5616.520833	1223.679688	1162.734497
2933.581436	5616.520833	1222.563477	1005.052307
2933.581436	5616.520833	1221.447266	1056.038330
2933.581436	5616.520833	1220.331055	942.843384
2933.581436	5616.520833	1219.214844	928.596802
2933.581436	5616.520833	1218.098633	1092.888916
2933.581436	5616.520833	1216.981445	1090.415894
2933.581436	5616.520833	1215.864258	1345.583984
2933.581436	5616.520833	1214.747070	1277.048828
2933.581436	5616.520833	1213.629883	1568.718140
2933.581436	5616.520833	1212.511719	1696.097778
2933.581436	5616.520833	1211.393555	1973.713013
2933.581436	5616.520833	1210.275391	2174.625732
2933.581436	5616.520833	1209.157227	2341.448730
2933.581436	5616.520833	1208.038086	2464.165527
2933.581436	5616.520833	1206.918945	2379.667480
2933.581436	5616.520833	1205.799805	2500.071289
2933.581436	5616.520833	1204.680664	2615.426025
2933.581436	5616.520833	1203.560547	2522.147217
2933.581436	5616.520833	1202.441406	2459.606689
2933.581436	5616.520833	1201.321289	2353.207031
2933.581436	5616.520833	1200.200195	2174.974365
2933.581436	5616.520833	1199.080078	2097.441895
2933.581436	5616.520833	1197.958984	2077.596436
2933.581436	5616.520833	1196.837891	2172.496094
2933.581436	5616.520833	1195.716797	2068.464111
2933.581436	5616.520833	1194.594727	1908.717041
2933.581436	5616.520833	1193.473633	2043.617065
2933.581436	5616.520833	1192.351563	2087.999268
2933.581436	5616.520833	1191.229492	2162.136230
2933.581436	5616.520833	1190.106445	2162.748779
2933.581436	5616.520833	1188.984375	2151.342773
2933.581436	5616.520833	1187.861328	2255.321289
2933.581436	5616.520833	1186.738281	2187.506348
2933.581436	5616.520833	1185.614258	2271.527100
2933.581436	5616.520833	1184.491211	2439.449219
2933.581436	5616.520833	1183.367188	2507.823730
2933.581436	5616.520833	1182.243164	2390.541748
2933.581436	5616.520833	1181.119141	2392.698242
2933.581436	5616.520833	1179.994141	2298.809326
2933.581436	5616.520833	1178.869141	2241.341553
2933.581436	5616.520833	1177.744141	2031.169678
2933.581436	5616.520833	1176.619141	1947.081421
2933.581436	5616.520833	1175.493164	1874.554077
2933.581436	5616.520833	1174.368164	1901.280273
2933.581436	5616.520833	1173.242188	1721.140015
2933.581436	5616.520833	1172.115234	1770.549927
2933.581436	5616.520833	1170.989258	1767.385132
2933.581436	5616.520833	1169.862305	1699.371704
2933.581436	5616.520833	1168.735352	1818.368652
2933.581436	5616.520833	1167.608398	1717.858398
2933.581436	5616.520833	1166.481445	1583.086060
2933.581436	5616.520833	1165.353516	1635.579590
2933.581436	5616.520833	1164.225586	1592.461304
2933.581436	5616.520833	1163.097656	1541.798706
2933.581436	5616.520833	1161.968750	1515.255005
2933.581436	5616.520833	1160.840820	1432.718018
2933.581436	5616.520833	1159.711914	1266.600708
2933.581436	5616.520833	1158.583008	1086.834961
2933.581436	5616.520833	1157.453125	1150.317017
2933.581436	5616.520833	1156.324219	974.800110
2933.581436	5616.520833	1155.194336	1042.894409
2933.581436	5616.520833	1154.064453	1048.576538
2933.581436	5616.520833	1152.933594	951.705933
2933.581436	5616.520833	1151.803711	1003.387878
2933.581436	5616.520833	1150.672852	945.488220
2933.581436	5616.520833	1149.541992	1022.920898
2933.581436	5616.520833	1148.411133	961.508606
2933.581436	5616.520833	1147.279297	884.342407
2933.581436	5616.520833	1146.147461	909.579102
2933.581436	5616.520833	1145.015625	930.614807
2933.581436	5616.520833	1143.883789	863.501831
2933.581436	5616.520833	1142.750977	841.322815
2933.581436	5616.520833	1141.619141	757.445740
2933.581436	5616.520833	1140.486328	902.154968
2933.581436	5616.520833	1139.352539	960.139221
2933.581436	5616.520833	1138.219727	984.539307
2933.581436	5616.520833	1137.085938	922.373840
2933.581436	5616.520833	1135.952148	834.002869
2933.581436	5616.520833	1134.818359	841.541687
2933.581436	5616.520833	1133.683594	855.945313
2933.581436	5616.520833	1132.549805	750.521118
2933.581436	5616.520833	1131.415039	678.888245
2933.581436	5616.520833	1130.279297	515.014832
2933.581436	5616.520833	1129.144531	583.926514
2933.581436	5616.520833	1128.008789	411.301636
2933.581436	5616.520833	1126.873047	375.745605
2933.581436	5616.520833	1125.737305	372.511627
2933.581436	5616.520833	1124.601563	289.767059
2933.581436	5616.520833	1123.464844	268.434937
2933.581436	5616.520833	1122.328125	313.470428
2933.581436	5616.520833	1121.191406	94.055649
2933.581436	5616.520833	1120.054688	125.499687
2933.581436	5616.520833	1118.916992	20.132978
2933.581436	5616.520833	1117.779297	-42.449474
2933.581436	5616.520833	1116.641602	-102.018509
2933.581436	5616.520833	1115.503906	-96.259964
2933.581436	5616.520833	1114.365234	-124.542526
2933.581436	5616.520833	1113.226563	-80.280708
2933.581436	5616.520833	1112.087891	-65.822311
2933.581436	5616.520833	1110.949219	-91.154755
2933.581436	5616.520833	1109.809570	-42.055809
2933.581436	5616.520833	1108.669922	-75.968529
2933.581436	5616.520833	1107.530273	-42.671192
2933.581436	5616.520833	1106.390625	62.080433
2933.581436	5616.520833	1105.250000	102.528145
2933.581436	5616.520833	1104.109375	128.991913
2933.581436	5616.520833	1102.968750	115.396294
2933.581436	5616.520833	1101.828125	284.635620
2933.581436	5616.520833	1100.686523	358.721710
2933.581436	5616.520833	1099.544922	317.246399
2933.581436	5616.520833	1098.403320	367.381989
2933.581436	5616.520833	1097.261719	485.841858
2933.581436	5616.520833	1096.120117	602.533752
2933.581436	5616.520833	1094.977539	736.294006
2933.581436	5616.520833	1093.834961	735.502808
2933.581436	5616.520833	1092.691406	712.324036
2933.581436	5616.520833	1091.548828	772.851501
2933.581436	5616.520833	1090.405273	827.903564
2933.581436	5616.520833	1089.261719	826.836243
2933.581436	5616.520833	1088.118164	818.274475
2933.581436	5616.520833	1086.973633	823.952332
2933.581436	5616.520833	1085.829102	777.268921
2933.581436	5616.520833	1084.684570	734.313171
2933.581436	5616.520833	1083.540039	723.471985
2933.581436	5616.520833	1082.395508	698.682068
2933.581436	5616.520833	1081.250000	628.805054
2933.581436	5616.520833	1080.104492	717.350342
2933.581436	5616.520833	1078.958984	647.826965
2933.581436	5616.520833	1077.812500	603.833252
2933.581436	5616.520833	1076.666016	635.533875
2933.581436	5616.520833	1075.519531	762.216919
2933.581436	5616.520833	1074.373047	727.824829
2933.581436	5616.520833	1073.226563	717.895325
2933.581436	5616.520833	1072.079102	673.758850
2933.581436	5616.520833	1070.931641	741.832275
2933.581436	5616.520833	1069.784180	568.636475
2933.581436	5616.520833	1068.635742	513.191467
2933.581436	5616.520833	1067.487305	427.859650
2933.581436	5616.520833	1066.338867	497.464233
2933.581436	5616.520833	1065.190430	461.900757
2933.581436	5616.520833	1064.041992	328.032562
2933.581436	5616.520833	1062.892578	316.978058
2933.581436	5616.520833	1061.743164	267.623413
2933.581436	5616.520833	1060.593750	59.210571
2933.581436	5616.520833	1059.443359	209.883514
2933.581436	5616.520833	1058.292969	223.379639
2933.581436	5616.520833	1057.142578	123.892220
2933.581436	5616.520833	1055.992188	75.684883
2933.581436	5616.520833	1054.841797	-3.900538
2933.581436	5616.520833	1053.690430	-92.148560
2933.581436	5616.520833	1052.539063	-0.288255
2933.581436	5616.520833	1051.387695	-42.771091
2933.581436	5616.520833	1050.235352	-68.236824
2933.581436	5616.520833	1049.083984	21.343073
2933.581436	5616.520833	1047.931641	16.762381
2933.581436	5616.520833	1046.778320	88.575775
2933.581436	5616.520833	1045.625977	213.506149
2933.581436	5616.520833	1044.472656	248.635666
2933.581436	5616.520833	1043.319336	137.115097
2933.581436	5616.520833	1042.166016	226.359604
2933.581436	5616.520833	1041.012695	264.809814
2933.581436	5616.520833	1039.858398	257.181671
2933.581436	5616.520833	1038.704102	233.315796
2933.581436	5616.520833	1037.549805	170.441101
2933.581436	5616.520833	1036.394531	318.321594
2933.581436	5616.520833	1035.239258	288.442047
2933.581436	5616.520833	1034.083984	320.162354
2933.581436	5616.520833	1032.928711	234.013351
2933.581436	5616.520833	1031.773438	340.845276
2933.581436	5616.520833	1030.617188	428.890228
2933.581436	5616.520833	1029.460938	373.419342
2933.581436	5616.520833	1028.304688	344.736603
2933.581436	5616.520833	1027.147461	401.945526
2933.581436	5616.520833	1025.991211	387.384369
2933.581436	5616.520833	1024.833984	509.315216
2933.581436	5616.520833	1023.675781	540.555603
2933.581436	5616.520833	1022.518555	546.306458
2933.581436	5616.520833	1021.360352	753.056824
2933.581436	5616.520833	1020.202148	787.033264
2933.581436	5616.520833	1019.043945	859.709595
2933.581436	5616.520833	1017.884766	776.200684
2933.581436	5616.520833	1016.726563	805.201599
2933.581436	5616.520833	1015.567383	820.517883
2933.581436	5616.520833	1014.407227	936.859070
2933.581436	5616.520833	1013.248047	912.502625
2933.581436	5616.520833	1012.087891	817.477173
2933.581436	5616.520833	1010.927734	752.013733
2933.581436	5616.520833	1009.767578	783.105530
2933.581436	5616.520833	1008.606445	680.782654
2933.581436	5616.520833	1007.446289	704.636108
2933.581436	5616.520833	1006.285156	701.417603
2933.581436	5616.520833	1005.123047	690.233215
2933.581436	5616.520833	1003.961914	704.730591
2933.581436	5616.520833	1002.799805	738.051331
2933.581436	5616.520833	1001.637695	684.343933
2933.581436	5616.520833	1000.475586	603.062439
2933.581436	5616.520833	999.312500	699.043457
2933.581436	5616.520833	998.149414	668.345032
2933.581436	5616.520833	996.986328	635.994141
2933.581436	5616.520833	995.823242	539.534424
2933.581436	5616.520833	994.659180	448.293884
2933.581436	5616.520833	993.496094	303.296967
2933.581436	5616.520833	992.332031	317.637512
2933.581436	5616.520833	991.166992	328.712646
2933.581436	5616.520833	990.002930	248.845581
2933.581436	5616.520833	988.837891	322.402374
2933.581436	5616.520833	987.672852	176.491302
2933.581436	5616.520833	986.506836	183.553009
2933.581436	5616.520833	985.341797	281.702087
2933.581436	5616.520833	984.175781	184.908615
2933.581436	5616.520833	983.009766	235.949768
2933.581436	5616.520833	981.843750	306.444366
2933.581436	5616.520833	980.676758	254.323410
2933.581436	5616.520833	979.509766	302.871735
2933.581436	5616.520833	978.342773	209.709152
2933.581436	5616.520833	977.175781	195.100616
2933.581436	5616.520833	976.007813	121.328613
2933.581436	5616.520833	974.839844	206.578720
2933.581436	5616.520833	973.671875	69.746323
2933.581436	5616.520833	972.503906	74.659462
2933.581436	5616.520833	971.334961	117.052704
2933.581436	5616.520833	970.166016	91.424957
2933.581436	5616.520833	968.997070	145.534042
2933.581436	5616.520833	967.828125	298.670044
2933.581436	5616.520833	966.658203	335.512787
2933.581436	5616.520833	965.488281	280.551239
2933.581436	5616.520833	964.318359	386.566742
2933.581436	5616.520833	963.148438	425.285522
2933.581436	5616.520833	961.977539	401.215057
2933.581436	5616.520833	960.806641	426.864563
2933.581436	5616.520833	959.635742	579.282104
2933.581436	5616.520833	958.463867	592.848389
2933.581436	5616.520833	957.292969	476.815735
2933.581436	5616.520833	956.121094	550.373535
2933.581436	5616.520833	954.948242	609.405518
2933.581436	5616.520833	953.776367	582.726318
2933.581436	5616.520833	952.603516	595.866455
2933.581436	5616.520833	951.430664	393.132233
2933.581436	5616.520833	950.257813	340.143127
2933.581436	5616.520833	949.084961	511.068054
2933.581436	5616.520833	947.911133	166.579285
2933.581436	5616.520833	946.737305	184.718567
2933.581436	5616.520833	945.563477	42.563934
2933.581436	5616.520833	944.388672	30.730885
2933.581436	5616.520833	943.213867	56.005089
2933.581436	5616.520833	942.039063	17.334785
2933.581436	5616.520833	940.864258	-54.133045
2933.581436	5616.520833	939.688477	71.972183
2933.581436	5616.520833	938.513672	19.019644
2933.581436	5616.520833	937.337891	51.796822
2933.581436	5616.520833	936.161133	52.781101
2933.581436	5616.520833	934.985352	103.147278
2933.581436	5616.520833	933.808594	41.204437
2933.581436	5616.520833	932.631836	157.071548
2933.581436	5616.520833	931.454102	195.981140
2933.581436	5616.520833	930.277344	286.480042
2933.581436	5616.520833	929.099609	265.926758
2933.581436	5616.520833	927.921875	171.015671
2933.581436	5616.520833	926.743164	258.870789
2933.581436	5616.520833	925.565430	253.412277
2933.581436	5616.520833	924.386719	206.324554
2933.581436	5616.520833	923.208008	231.059982
2933.581436	5616.520833	922.028320	268.360596
2933.581436	5616.520833	920.849609	282.970520
2933.581436	5616.520833	919.669922	273.846466
2933.581436	5616.520833	919.474609	274.643738
2933.581436	5616.520833	918.309570	145.818039
2933.581436	5616.520833	917.143555	331.694763
2933.581436	5616.520833	915.977539	448.278473
2933.581436	5616.520833	914.810547	367.276306
2933.581436	5616.520833	913.644531	436.008453
2933.581436	5616.520833	912.477539	390.267792
2933.581436	5616.520833	911.310547	612.381104
2933.581436	5616.520833	910.143555	457.281738
2933.581436	5616.520833	908.975586	645.385010
2933.581436	5616.520833	907.807617	754.270447
2933.581436	5616.520833	906.639648	789.014587
2933.581436	5616.520833	905.471680	507.239807
2933.581436	5616.520833	904.303711	452.926300
2933.581436	5616.520833	903.134766	333.378021
2933.581436	5616.520833	901.965820	261.628052
2933.581436	5616.520833	900.796875	236.395340
2933.581436	5616.520833	899.626953	76.953659
2933.581436	5616.520833	898.457031	177.331482
2933.581436	5616.520833	897.287109	133.485016
2933.581436	5616.520833	896.117188	11.971530
2933.581436	5616.520833	894.947266	-59.269398
2933.581436	5616.520833	893.776367	55.111897
2933.581436	5616.520833	892.605469	-32.254955
2933.581436	5616.520833	891.434570	128.598846
2933.581436	5616.520833	890.262695	193.002609
2933.581436	5616.520833	889.091797	337.639130
2933.581436	5616.520833	887.919922	405.916534
2933.581436	5616.520833	886.748047	490.541168
2933.581436	5616.520833	885.575195	488.856171
2933.581436	5616.520833	884.403320	742.591431
2933.581436	5616.520833	883.230469	693.524841
2933.581436	5616.520833	882.057617	851.006287
2933.581436	5616.520833	880.883789	903.473877
2933.581436	5616.520833	879.710938	1037.328003
2933.581436	5616.520833	878.537109	1127.489868
2933.581436	5616.520833	877.362305	1487.731812
2933.581436	5616.520833	876.188477	1413.063843
2933.581436	5616.520833	875.013672	1493.491089
2933.581436	5616.520833	873.839844	1482.838379
2933.581436	5616.520833	872.664063	1366.161865
2933.581436	5616.520833	871.489258	1368.311768
2933.581436	5616.520833	870.313477	1414.301636
2933.581436	5616.520833	869.138672	1623.942627
2933.581436	5616.520833	867.962891	1721.336914
2933.581436	5616.520833	866.786133	1662.889282
2933.581436	5616.520833	865.610352	1765.549561
2933.581436	5616.520833	864.433594	1627.629639
2933.581436	5616.520833	863.256836	1698.170044
2933.581436	5616.520833	862.079102	1498.328247
2933.581436	5616.520833	860.902344	1220.226563
2933.581436	5616.520833	859.724609	1268.903198
2933.581436	5616.520833	858.546875	1162.007568
2933.581436	5616.520833	857.368164	875.967896
2933.581436	5616.520833	856.190430	862.974487
2933.581436	5616.520833	855.011719	784.183777
2933.581436	5616.520833	853.833008	817.657898
2933.581436	5616.520833	852.654297	591.193481
2933.581436	5616.520833	851.474609	656.197388
2933.581436	5616.520833	850.294922	565.865845
2933.581436	5616.520833	849.115234	481.996796
2933.581436	5616.520833	847.935547	377.229828
2933.581436	5616.520833	846.754883	333.637421
2933.581436	5616.520833	845.575195	325.084351
2933.581436	5616.520833	844.393555	509.383698
2933.581436	5616.520833	843.212891	524.838684
2933.581436	5616.520833	842.032227	569.080811
2933.581436	5616.520833	840.850586	789.897339
2933.581436	5616.520833	839.668945	737.653931
2933.581436	5616.520833	838.486328	659.586426
2933.581436	5616.520833	837.304688	384.416504
2933.581436	5616.520833	836.122070	339.181000
2933.581436	5616.520833	834.939453	254.492950
2933.581436	5616.520833	833.756836	233.340881
2933.581436	5616.520833	832.573242	374.908600
2933.581436	5616.520833	831.389648	448.456818
2933.581436	5616.520833	830.206055	555.688721
2933.581436	5616.520833	829.022461	686.668762
2933.581436	5616.520833	827.838867	551.402222
2933.581436	5616.520833	826.654297	604.762939
2933.581436	5616.520833	825.469727	603.844421
2933.581436	5616.520833	824.284180	567.260498
2933.581436	5616.520833	823.099609	452.931519
2933.581436	5616.520833	821.914063	411.942200
2933.581436	5616.520833	820.728516	398.450684
2933.581436	5616.520833	819.542969	298.596100
2933.581436	5616.520833	818.356445	244.815323
2933.581436	5616.520833	817.169922	181.416595
2933.581436	5616.520833	815.983398	100.986046
2933.581436	5616.520833	814.796875	120.995949
2933.581436	5616.520833	813.609375	-24.388716
2933.581436	5616.520833	812.422852	65.365143
2933.581436	5616.520833	811.235352	25.599211
2933.581436	5616.520833	810.046875	-48.478050
2933.581436	5616.520833	808.859375	-51.865803
2933.581436	5616.520833	807.670898	-130.316528
2933.581436	5616.520833	806.482422	-97.356567
2933.581436	5616.520833	805.293945	-149.322830
2933.581436	5616.520833	804.104492	-80.057068
2933.581436	5616.520833	802.915039	-98.164619
2933.581436	5616.520833	801.725586	36.965134
2933.581436	5616.520833	800.536133	-43.539711
2933.581436	5616.520833	799.345703	-110.181007
2933.581436	5616.520833	798.155273	-3.934395
2933.581436	5616.520833	796.964844	-52.779907
2933.581436	5616.520833	795.774414	173.466888
2933.581436	5616.520833	794.583008	228.625458
2933.581436	5616.520833	793.392578	419.513367
2933.581436	5616.520833	792.200195	552.710510
2933.581436	5616.520833	791.008789	538.343201
2933.581436	5616.520833	789.816406	668.280334
2933.581436	5616.520833	788.625000	744.254456
2933.581436	5616.520833	787.432617	746.626282
2933.581436	5616.520833	786.239258	824.306396
2933.581436	5616.520833	785.046875	774.272888
2933.581436	5616.520833	783.853516	886.852356
2933.581436	5616.520833	782.660156	740.201721
2933.581436	5616.520833	781.465820	704.505005
2933.581436	5616.520833	780.272461	768.611023
2933.581436	5616.520833	779.078125	878.409668
2933.581436	5616.520833	777.883789	772.186523
2933.581436	5616.520833	776.688477	857.868408
2933.581436	5616.520833	775.494141	828.311462
2933.581436	5616.520833	774.298828	786.737915
2933.581436	5616.520833	773.103516	773.649414
2933.581436	5616.520833	771.907227	836.900513
2933.581436	5616.520833	770.711914	734.702942
2933.581436	5616.520833	769.515625	653.642395
2933.581436	5616.520833	768.318359	647.669983
2933.581436	5616.520833	767.122070	613.710022
2933.581436	5616.520833	765.924805	414.493103
2933.581436	5616.520833	764.727539	419.047455
2933.581436	5616.520833	763.530273	262.056274
2933.581436	5616.520833	762.333008	100.444466
2933.581436	5616.520833	761.134766	241.686462
2933.581436	5616.520833	759.936523	133.241150
2933.581436	5616.520833	758.738281	50.760674
2933.581436	5616.520833	757.540039	41.967934
2933.581436	5616.520833	756.340820	27.272776
2933.581436	5616.520833	755.141602	56.832310
2933.581436	5616.520833	753.942383	81.679741
2933.581436	5616.520833	752.742188	5.198285
2933.581436	5616.520833	751.541992	32.882732
2933.581436	5616.520833	750.341797	-65.194389
2933.581436	5616.520833	749.141602	80.206375
2933.581436	5616.520833	747.941406	-17.483711
2933.581436	5616.520833	746.740234	211.297607
2933.581436	5616.520833	745.539063	162.841385
2933.581436	5616.520833	744.337891	220.830154
2933.581436	5616.520833	743.135742	177.616364
2933.581436	5616.520833	741.933594	242.014359
2933.581436	5616.520833	740.731445	245.507751
2933.581436	5616.520833	739.529297	234.503357
2933.581436	5616.520833	738.326172	272.467590
2933.581436	5616.520833	737.124023	353.235382
2933.581436	5616.520833	735.919922	210.949707
2933.581436	5616.520833	734.716797	255.397980
2933.581436	5616.520833	733.513672	324.336487
2933.581436	5616.520833	732.309570	326.348022
2933.581436	5616.520833	731.105469	222.459702
2933.581436	5616.520833	729.900391	158.948166
2933.581436	5616.520833	728.696289	295.317963
2933.581436	5616.520833	727.491211	137.039749
2933.581436	5616.520833	726.286133	229.742111
2933.581436	5616.520833	725.080078	90.010345
2933.581436	5616.520833	723.874023	57.525482
2933.581436	5616.520833	722.668945	185.737747
2933.581436	5616.520833	721.461914	181.404114
2933.581436	5616.520833	720.255859	223.347427
2933.581436	5616.520833	719.048828	341.966644
2933.581436	5616.520833	717.841797	306.195099
2933.581436	5616.520833	716.634766	254.692917
2933.581436	5616.520833	715.427734	200.833511
2933.581436	5616.520833	714.219727	418.005798
2933.581436	5616.520833	713.011719	190.526627
2933.581436	5616.520833	711.803711	268.017731
2933.581436	5616.520833	710.594727	270.238159
2933.581436	5616.520833	709.385742	392.666077
2933.581436	5616.520833	708.176758	439.808380
2933.581436	5616.520833	706.967773	372.875122
2933.581436	5616.520833	705.758789	443.070404
2933.581436	5616.520833	704.548828	376.186737
2933.581436	5616.520833	703.338867	376.025269
2933.581436	5616.520833	702.127930	364.956024
2933.581436	5616.520833	700.917969	418.103912
2933.581436	5616.520833	699.707031	443.347076
2933.581436	5616.520833	698.496094	467.338226
2933.581436	5616.520833	697.285156	481.591278
2933.581436	5616.520833	696.073242	530.936890
2933.581436	5616.520833	694.861328	794.550110
2933.581436	5616.520833	693.649414	761.379456
2933.581436	5616.520833	692.436523	803.225525
2933.581436	5616.520833	691.224609	725.162842
2933.581436	5616.520833	690.011719	806.785400
2933.581436	5616.520833	688.798828	943.938538
2933.581436	5616.520833	687.584961	1005.980042
2933.581436	5616.520833	686.372070	1015.893555
2933.581436	5616.520833	685.158203	1170.788818
2933.581436	5616.520833	683.943359	1261.470581
2933.581436	5616.520833	682.729492	1486.119507
2933.581436	5616.520833	681.514648	1581.300049
2933.581436	5616.520833	680.299805	1640.079102
2933.581436	5616.520833	679.084961	1930.568481
2933.581436	5616.520833	677.869141	1838.075073
2933.581436	5616.520833	676.653320	1855.324951
2933.581436	5616.520833	675.437500	1860.348633
2933.581436	5616.520833	674.221680	1961.743164
2933.581436	5616.520833	673.004883	1803.579102
2933.581436	5616.520833	671.789063	1845.511597
2933.581436	5616.520833	670.571289	1675.049683
2933.581436	5616.520833	669.354492	1655.162842
2933.581436	5616.520833	668.136719	1648.368774
2933.581436	5616.520833	666.919922	1576.293579
2933.581436	5616.520833	665.701172	1470.340332
2933.581436	5616.520833	664.483398	1483.464355
2933.581436	5616.520833	663.264648	1497.586304
2933.581436	5616.520833	662.045898	1481.380005
2933.581436	5616.520833	660.827148	1611.820679
2933.581436	5616.520833	659.608398	1506.074707
2933.581436	5616.520833	658.388672	1757.530518
2933.581436	5616.520833	657.168945	1840.207031
2933.581436	5616.520833	655.949219	1981.535034
2933.581436	5616.520833	654.728516	2087.683594
2933.581436	5616.520833	653.507813	2171.882568
2933.581436	5616.520833	652.287109	2186.058105
2933.581436	5616.520833	651.066406	2251.628906
2933.581436	5616.520833	649.844727	2116.245850
2933.581436	5616.520833	648.623047	2007.060547
2933.581436	5616.520833	647.401367	1998.514160
2933.581436	5616.520833	646.179688	1906.819092
2933.581436	5616.520833	644.957031	1915.712280
2933.581436	5616.520833	643.734375	1983.103516
2933.581436	5616.520833	642.511719	2078.950195
2933.581436	5616.520833	641.289063	2102.449707
2933.581436	5616.520833	640.065430	2222.781494
2933.581436	5616.520833	638.841797	2264.778076
2933.581436	5616.520833	637.618164	2164.937744
2933.581436	5616.520833	636.393555	2085.183105
2933.581436	5616.520833	635.168945	2001.518677
2933.581436	5616.520833	633.944336	1979.843506
2933.581436	5616.520833	632.719727	1976.986938
2933.581436	5616.520833	631.494141	2054.022949
2933.581436	5616.520833	630.269531	2075.567139
2933.581436	5616.520833	629.042969	2113.503174
2933.581436	5616.520833	627.817383	2277.916748
2933.581436	5616.520833	626.590820	2237.247070
2933.581436	5616.520833	625.365234	2334.990723
2933.581436	5616.520833	624.137695	2490.926025
2933.581436	5616.520833	622.911133	2775.556885
2933.581436	5616.520833	621.683594	2789.444580
2933.581436	5616.520833	620.456055	2724.023193
2933.581436	5616.520833	619.228516	2838.694824
2933.581436	5616.520833	618.000977	2774.860840
2933.581436	5616.520833	616.772461	2687.942627
2933.581436	5616.520833	615.543945	2654.391846
2933.581436	5616.520833	614.314453	2758.958252
2933.581436	5616.520833	613.085938	2646.952881
2933.581436	5616.520833	611.856445	2498.757568
2933.581436	5616.520833	610.626953	2425.377441
2933.581436	5616.520833	609.397461	2462.556885
2933.581436	5616.520833	608.166992	2444.409424
2933.581436	5616.520833	606.936523	2545.093750
2933.581436	5616.520833	605.706055	2771.686035
2933.581436	5616.520833	604.474609	2833.219238
2933.581436	5616.520833	603.244141	3126.697510
2933.581436	5616.520833	602.012695	3240.853760
2933.581436	5616.520833	600.780273	3247.283203
2933.581436	5616.520833	599.548828	3242.535889
2933.581436	5616.520833	598.316406	3146.826416
2933.581436	5616.520833	597.083984	3248.343262
2933.581436	5616.520833	595.851563	3330.312500
2933.581436	5616.520833	594.618164	3298.722168
2933.581436	5616.520833	593.384766	3290.480713
2933.581436	5616.520833	592.151367	3403.121338
2933.581436	5616.520833	590.917969	3260.728516
2933.581436	5616.520833	589.683594	3159.546387
2933.581436	5616.520833	588.449219	2968.780518
2933.581436	5616.520833	587.214844	2940.469482
2933.581436	5616.520833	585.979492	2810.692139
2933.581436	5616.520833	584.745117	2547.445313
2933.581436	5616.520833	583.509766	2526.160400
2933.581436	5616.520833	582.273438	2591.109131
2933.581436	5616.520833	581.038086	2703.067871
2933.581436	5616.520833	579.801758	2676.810059
2933.581436	5616.520833	578.565430	2882.720215
2933.581436	5616.520833	577.329102	2888.740234
2933.581436	5616.520833	576.091797	3017.669922
2933.581436	5616.520833	574.854492	3090.343018
2933.581436	5616.520833	573.617188	3189.805908
2933.581436	5616.520833	572.378906	3237.785889
2933.581436	5616.520833	571.141602	3291.232422
2933.581436	5616.520833	569.903320	3397.526367
2933.581436	5616.520833	568.664063	3284.133789
2933.581436	5616.520833	567.425781	3274.598145
2933.581436	5616.520833	566.186523	3185.270752
2933.581436	5616.520833	564.947266	3045.817139
2933.581436	5616.520833	563.708008	2993.592773
2933.581436	5616.520833	562.467773	2903.078125
2933.581436	5616.520833	561.227539	2810.996338
2933.581436	5616.520833	559.987305	2544.629150
2933.581436	5616.520833	558.747070	2334.735107
2933.581436	5616.520833	557.505859	2208.467041
2933.581436	5616.520833	556.264648	2068.843506
2933.581436	5616.520833	555.023438	1898.147705
2933.581436	5616.520833	553.781250	1789.750000
2933.581436	5616.520833	552.539063	1741.266602
2933.581436	5616.520833	551.296875	1694.783813
2933.581436	5616.520833	550.054688	1675.107910
2933.581436	5616.520833	548.811523	1645.608032
2933.581436	5616.520833	547.569336	1739.725342
2933.581436	5616.520833	546.325195	1735.452393
2933.581436	5616.520833	545.082031	1819.346436
2933.581436	5616.520833	543.837891	1946.495728
2933.581436	5616.520833	542.593750	2056.741455
2933.581436	5616.520833	541.349609	2016.848267
2933.581436	5616.520833	540.105469	1980.189209
2933.581436	5616.520833	538.860352	2097.629639
2933.581436	5616.520833	537.615234	2100.403076
2933.581436	5616.520833	536.369141	2195.942139
2933.581436	5616.520833	535.124023	2244.051758
2933.581436	5616.520833	533.877930	2075.143799
2933.581436	5616.520833	532.631836	2041.448120
2933.581436	5616.520833	531.384766	1975.704346
2933.581436	5616.520833	530.138672	1998.030762
2933.581436	5616.520833	528.891602	2102.458496
2933.581436	5616.520833	527.643555	1896.005981
2933.581436	5616.520833	526.396484	1872.931152
2933.581436	5616.520833	525.148438	1840.229858
2933.581436	5616.520833	523.900391	1788.533325
2933.581436	5616.520833	522.652344	1806.023682
2933.581436	5616.520833	521.403320	1784.528198
2933.581436	5616.520833	520.154297	1765.227295
2933.581436	5616.520833	518.905273	1696.444458
2933.581436	5616.520833	517.656250	1694.493042
2933.581436	5616.520833	516.406250	1533.876587
2933.581436	5616.520833	515.156250	1544.606934
2933.581436	5616.520833	513.906250	1351.006470
2933.581436	5616.520833	512.655273	1081.102173
2933.581436	5616.520833	511.404297	1072.854492
2933.581436	5616.520833	510.153320	916.754639
2933.581436	5616.520833	508.902344	921.324768
2933.581436	5616.520833	507.650391	890.659668
2933.581436	5616.520833	506.398438	901.006714
2933.581436	5616.520833	505.146484	926.570862
2933.581436	5616.520833	503.893555	843.138489
2933.581436	5616.520833	502.641602	927.290710
2933.581436	5616.520833	501.388672	932.945618
2933.581436	5616.520833	500.134766	916.373413
2933.581436	5616.520833	498.881836	930.323364
2933.581436	5616.520833	497.627930	891.649780
2933.581436	5616.520833	496.374023	805.102417
2933.581436	5616.520833	495.119141	780.678406
2933.581436	5616.520833	493.865234	914.304688
2933.581436	5616.520833	492.610352	821.119873
2933.581436	5616.520833	491.355469	791.255554
2933.581436	5616.520833	490.099609	587.379211
2933.581436	5616.520833	488.843750	705.145874
2933.581436	5616.520833	487.587891	584.701172
2933.581436	5616.520833	486.332031	444.657043
2933.581436	5616.520833	485.075195	446.191589
2933.581436	5616.520833	483.818359	333.535706
2933.581436	5616.520833	482.561523	280.719452
2933.581436	5616.520833	481.304688	187.346115
2933.581436	5616.520833	480.046875	174.794540
2933.581436	5616.520833	478.789063	253.547836
2933.581436	5616.520833	477.531250	124.967636
2933.581436	5616.520833	476.272461	126.198196
2933.581436	5616.520833	475.013672	58.990414
2933.581436	5616.520833	473.754883	102.909966
2933.581436	5616.520833	472.496094	31.818382
2933.581436	5616.520833	471.236328	21.722284
2933.581436	5616.520833	469.976563	132.024078
2933.581436	5616.520833	468.716797	9.779407
2933.581436	5616.520833	467.456055	-40.959381
2933.581436	5616.520833	466.196289	-83.054886
2933.581436	5616.520833	464.935547	67.363457
2933.581436	5616.520833	463.673828	21.538500
2933.581436	5616.520833	462.413086	-13.280255
2933.581436	5616.520833	461.151367	78.035973
2933.581436	5616.520833	459.889648	44.254902
2933.581436	5616.520833	458.626953	1.721152
2933.581436	5616.520833	457.364258	62.054264
2933.581436	5616.520833	456.101563	208.932343
2933.581436	5616.520833	454.838867	201.807648
2933.581436	5616.520833	453.575195	239.418304
2933.581436	5616.520833	452.312500	238.151627
2933.581436	5616.520833	451.047852	203.821289
2933.581436	5616.520833	449.784180	209.626038
2933.581436	5616.520833	448.519531	14.126553
2933.581436	5616.520833	447.254883	108.305534
2933.581436	5616.520833	445.990234	22.144808
2933.581436	5616.520833	444.725586	-109.684731
2933.581436	5616.520833	443.459961	-54.069523
2933.581436	5616.520833	442.194336	28.896233
2933.581436	5616.520833	440.927734	-92.619942
2933.581436	5616.520833	439.662109	33.486492
2933.581436	5616.520833	438.395508	-65.655067
2933.581436	5616.520833	437.127930	-11.108642
2933.581436	5616.520833	435.861328	-165.441666
2933.581436	5616.520833	434.593750	-112.851494
2933.581436	5616.520833	433.326172	-50.253834
2933.581436	5616.520833	432.058594	-56.347607
2933.581436	5616.520833	430.790039	17.023777
2933.581436	5616.520833	429.521484	-59.238281
2933.581436	5616.520833	428.252930	-66.437706
2933.581436	5616.520833	426.984375	47.420666
2933.581436	5616.520833	425.714844	88.038460
2933.581436	5616.520833	424.445313	80.893776
2933.581436	5616.520833	423.174805	-19.046480
2933.581436	5616.520833	421.905273	-3.765647
2933.581436	5616.520833	420.634766	142.838303
2933.581436	5616.520833	419.364258	77.688805
2933.581436	5616.520833	418.092773	-16.648186
2933.581436	5616.520833	416.822266	68.767586
2933.581436	5616.520833	415.550781	133.015381
2933.581436	5616.520833	414.278320	39.952541
2933.581436	5616.520833	413.006836	165.730881
2933.581436	5616.520833	411.734375	48.880318
2933.581436	5616.520833	410.461914	104.655144
2933.581436	5616.520833	409.188477	-25.590385
2933.581436	5616.520833	407.916016	167.678879
2933.581436	5616.520833	406.642578	147.271591
2933.581436	5616.520833	405.368164	177.142303
2933.581436	5616.520833	404.094727	233.033844
2933.581436	5616.520833	402.820313	138.742508
2933.581436	5616.520833	401.545898	78.551697
2933.581436	5616.520833	400.270508	211.282883
2933.581436	5616.520833	398.996094	255.961121
2933.581436	5616.520833	397.720703	260.972260
2933.581436	5616.520833	396.444336	233.222427
2933.581436	5616.520833	395.168945	278.487122
2933.581436	5616.520833	393.892578	449.613861
2933.581436	5616.520833	392.616211	532.654480
2933.581436	5616.520833	391.339844	370.177063
2933.581436	5616.520833	390.062500	449.538727
2933.581436	5616.520833	388.785156	637.267639
2933.581436	5616.520833	387.507813	636.921082
2933.581436	5616.520833	386.229492	547.358582
2933.581436	5616.520833	384.951172	636.085938
2933.581436	5616.520833	383.672852	630.908386
2933.581436	5616.520833	382.394531	647.748535
2933.581436	5616.520833	381.115234	691.153748
2933.581436	5616.520833	379.835938	613.065857
2933.581436	5616.520833	378.556641	746.097778
2933.581436	5616.520833	377.277344	734.614990
2933.581436	5616.520833	375.997070	931.748474
2933.581436	5616.520833	374.716797	923.546265
2933.581436	5616.520833	373.435547	963.331238
2933.581436	5616.520833	372.155273	999.422485
2933.581436	5616.520833	370.874023	1105.093262
2933.581436	5616.520833	369.591797	1029.453979
2933.581436	5616.520833	368.310547	1041.556274
2933.581436	5616.520833	367.028320	1000.517334
2933.581436	5616.520833	365.746094	1028.723755
2933.581436	5616.520833	364.463867	934.985046
2933.581436	5616.520833	363.180664	1016.714600
2933.581436	5616.520833	361.897461	1044.975952
2933.581436	5616.520833	360.614258	1011.711182
2933.581436	5616.520833	359.330078	1057.482666
2933.581436	5616.520833	358.045898	1099.843018
2933.581436	5616.520833	356.761719	1234.675049
2933.581436	5616.520833	355.477539	1311.024292
2933.581436	5616.520833	354.192383	1435.046875
2933.581436	5616.520833	352.907227	1407.908691
2933.581436	5616.520833	351.622070	1537.829834
2933.581436	5616.520833	350.336914	1438.809814
2933.581436	5616.520833	349.050781	1441.802856
2933.581436	5616.520833	347.764648	1531.780518
2933.581436	5616.520833	346.477539	1506.666748
2933.581436	5616.520833	345.191406	1491.843872
2933.581436	5616.520833	343.904297	1446.120483
2933.581436	5616.520833	342.616211	1509.572388
2933.581436	5616.520833	341.329102	1585.124878
2933.581436	5616.520833	340.041016	1665.768188
2933.581436	5616.520833	338.752930	1611.238770
2933.581436	5616.520833	337.463867	1712.999756
2933.581436	5616.520833	336.175781	1797.742188
2933.581436	5616.520833	334.886719	1719.561523
2933.581436	5616.520833	333.596680	1704.869385
2933.581436	5616.520833	332.307617	1966.270508
2933.581436	5616.520833	331.017578	1983.452271
2933.581436	5616.520833	329.727539	1944.076538
2933.581436	5616.520833	328.436523	1994.638062
2933.581436	5616.520833	327.146484	2098.564453
2933.581436	5616.520833	325.855469	2205.526367
2933.581436	5616.520833	324.563477	2255.068359
2933.581436	5616.520833	323.272461	2043.733032
2933.581436	5616.520833	321.980469	2063.207275
2933.581436	5616.520833	320.688477	2024.703369
2933.581436	5616.520833	319.395508	1892.760132
2933.581436	5616.520833	318.103516	1754.727051
2933.581436	5616.520833	316.810547	1560.289429
2933.581436	5616.520833	315.516602	1428.351318
2933.581436	5616.520833	314.223633	1274.815063
2933.581436	5616.520833	312.929688	1117.408691
2933.581436	5616.520833	311.635742	1105.613159
2933.581436	5616.520833	310.340820	963.466736
2933.581436	5616.520833	309.045898	733.924316
2933.581436	5616.520833	307.750977	757.826477
2933.581436	5616.520833	306.456055	647.242737
2933.581436	5616.520833	305.160156	571.721680
2933.581436	5616.520833	303.865234	506.253784
2933.581436	5616.520833	302.568359	398.018433
2933.581436	5616.520833	301.272461	179.195541
2933.581436	5616.520833	299.975586	32.551620
2933.581436	5616.520833	298.678711	-39.910271
