#X		#Y		#Wave		#Intensity
2926.351117	5613.827667	1999.980469	-133.439850
2926.351117	5613.827667	1999.016602	-64.821381
2926.351117	5613.827667	1998.052734	-62.661617
2926.351117	5613.827667	1997.087891	-38.335381
2926.351117	5613.827667	1996.123047	-56.272324
2926.351117	5613.827667	1995.158203	-54.513847
2926.351117	5613.827667	1994.193359	-23.159061
2926.351117	5613.827667	1993.228516	52.637169
2926.351117	5613.827667	1992.262695	54.015530
2926.351117	5613.827667	1991.297852	-108.094673
2926.351117	5613.827667	1990.332031	-67.309128
2926.351117	5613.827667	1989.366211	-51.387325
2926.351117	5613.827667	1988.399414	-85.051643
2926.351117	5613.827667	1987.433594	150.815231
2926.351117	5613.827667	1986.466797	92.204819
2926.351117	5613.827667	1985.500977	-87.631569
2926.351117	5613.827667	1984.534180	-10.381651
2926.351117	5613.827667	1983.567383	12.378778
2926.351117	5613.827667	1982.599609	101.773964
2926.351117	5613.827667	1981.632813	-90.608513
2926.351117	5613.827667	1980.665039	159.195007
2926.351117	5613.827667	1979.697266	154.439804
2926.351117	5613.827667	1978.729492	206.415024
2926.351117	5613.827667	1977.761719	-0.932018
2926.351117	5613.827667	1976.792969	28.710503
2926.351117	5613.827667	1975.825195	-15.756968
2926.351117	5613.827667	1974.856445	-124.420860
2926.351117	5613.827667	1973.887695	122.166412
2926.351117	5613.827667	1972.918945	-11.253304
2926.351117	5613.827667	1971.949219	89.616547
2926.351117	5613.827667	1970.980469	99.170715
2926.351117	5613.827667	1970.010742	93.885361
2926.351117	5613.827667	1969.041016	157.576157
2926.351117	5613.827667	1968.071289	152.202347
2926.351117	5613.827667	1967.101563	80.267075
2926.351117	5613.827667	1966.130859	87.153152
2926.351117	5613.827667	1965.161133	138.339355
2926.351117	5613.827667	1964.190430	-7.529050
2926.351117	5613.827667	1963.219727	78.063591
2926.351117	5613.827667	1962.249023	-57.949249
2926.351117	5613.827667	1961.277344	202.309891
2926.351117	5613.827667	1960.306641	-61.682163
2926.351117	5613.827667	1959.334961	240.258270
2926.351117	5613.827667	1958.363281	-23.685320
2926.351117	5613.827667	1957.391602	101.023727
2926.351117	5613.827667	1956.419922	33.876118
2926.351117	5613.827667	1955.447266	69.989082
2926.351117	5613.827667	1954.474609	101.158249
2926.351117	5613.827667	1953.501953	-118.363159
2926.351117	5613.827667	1952.529297	-168.279968
2926.351117	5613.827667	1951.556641	-83.077370
2926.351117	5613.827667	1950.583984	88.048508
2926.351117	5613.827667	1949.610352	106.847290
2926.351117	5613.827667	1948.636719	-117.435463
2926.351117	5613.827667	1947.663086	43.755890
2926.351117	5613.827667	1946.689453	-11.099249
2926.351117	5613.827667	1945.715820	-75.753944
2926.351117	5613.827667	1944.741211	-64.335785
2926.351117	5613.827667	1943.767578	89.345352
2926.351117	5613.827667	1942.792969	41.860538
2926.351117	5613.827667	1941.818359	-74.265694
2926.351117	5613.827667	1940.842773	-80.031258
2926.351117	5613.827667	1939.868164	14.700089
2926.351117	5613.827667	1938.892578	-40.095512
2926.351117	5613.827667	1937.916992	294.708832
2926.351117	5613.827667	1936.941406	-12.443103
2926.351117	5613.827667	1935.965820	-59.857590
2926.351117	5613.827667	1934.990234	-112.150513
2926.351117	5613.827667	1934.013672	63.273651
2926.351117	5613.827667	1933.037109	-89.387123
2926.351117	5613.827667	1932.060547	110.443520
2926.351117	5613.827667	1931.083984	-25.037954
2926.351117	5613.827667	1930.107422	25.469343
2926.351117	5613.827667	1929.129883	63.728718
2926.351117	5613.827667	1928.153320	-44.762798
2926.351117	5613.827667	1927.175781	-77.412346
2926.351117	5613.827667	1926.198242	-63.598423
2926.351117	5613.827667	1925.219727	-101.119385
2926.351117	5613.827667	1924.242188	10.448387
2926.351117	5613.827667	1923.263672	-317.828735
2926.351117	5613.827667	1922.285156	-110.988594
2926.351117	5613.827667	1921.306641	0.521350
2926.351117	5613.827667	1920.328125	243.856125
2926.351117	5613.827667	1919.349609	-37.828316
2926.351117	5613.827667	1918.370117	-33.803196
2926.351117	5613.827667	1917.391602	87.371437
2926.351117	5613.827667	1916.412109	66.967804
2926.351117	5613.827667	1915.431641	-158.365082
2926.351117	5613.827667	1914.452148	-215.306503
2926.351117	5613.827667	1913.472656	81.398529
2926.351117	5613.827667	1912.492188	-82.859306
2926.351117	5613.827667	1911.511719	240.519501
2926.351117	5613.827667	1910.531250	8.038317
2926.351117	5613.827667	1909.550781	24.212196
2926.351117	5613.827667	1908.569336	-40.032166
2926.351117	5613.827667	1907.588867	97.938301
2926.351117	5613.827667	1906.607422	23.950191
2926.351117	5613.827667	1905.625977	-67.063141
2926.351117	5613.827667	1904.644531	-26.575045
2926.351117	5613.827667	1903.662109	-32.363075
2926.351117	5613.827667	1902.680664	-89.265900
2926.351117	5613.827667	1901.698242	-197.258881
2926.351117	5613.827667	1900.715820	-13.275900
2926.351117	5613.827667	1899.733398	289.816986
2926.351117	5613.827667	1898.750000	157.458862
2926.351117	5613.827667	1897.767578	144.282730
2926.351117	5613.827667	1896.784180	-41.510216
2926.351117	5613.827667	1895.800781	-154.328522
2926.351117	5613.827667	1894.817383	136.284912
2926.351117	5613.827667	1893.833984	59.887756
2926.351117	5613.827667	1892.850586	39.374592
2926.351117	5613.827667	1891.866211	-5.438780
2926.351117	5613.827667	1890.881836	88.161133
2926.351117	5613.827667	1889.897461	62.737801
2926.351117	5613.827667	1888.913086	-28.237122
2926.351117	5613.827667	1887.927734	36.123322
2926.351117	5613.827667	1886.943359	-134.934402
2926.351117	5613.827667	1885.958008	67.660454
2926.351117	5613.827667	1884.972656	54.273766
2926.351117	5613.827667	1883.987305	45.715015
2926.351117	5613.827667	1883.001953	-35.608669
2926.351117	5613.827667	1882.015625	77.006821
2926.351117	5613.827667	1881.029297	-67.372414
2926.351117	5613.827667	1880.042969	23.335527
2926.351117	5613.827667	1879.056641	-67.739616
2926.351117	5613.827667	1878.070313	-146.702484
2926.351117	5613.827667	1877.083984	-34.333515
2926.351117	5613.827667	1876.096680	128.808456
2926.351117	5613.827667	1875.109375	20.691019
2926.351117	5613.827667	1874.122070	-60.797333
2926.351117	5613.827667	1873.134766	104.561958
2926.351117	5613.827667	1872.146484	296.434479
2926.351117	5613.827667	1871.159180	16.438585
2926.351117	5613.827667	1870.170898	-74.830704
2926.351117	5613.827667	1869.182617	-100.814804
2926.351117	5613.827667	1868.194336	85.941147
2926.351117	5613.827667	1867.205078	-135.970749
2926.351117	5613.827667	1866.216797	38.541912
2926.351117	5613.827667	1865.227539	-38.383369
2926.351117	5613.827667	1864.238281	169.768250
2926.351117	5613.827667	1863.249023	145.889114
2926.351117	5613.827667	1862.259766	146.117661
2926.351117	5613.827667	1861.269531	56.944080
2926.351117	5613.827667	1860.279297	-109.508171
2926.351117	5613.827667	1859.290039	74.052505
2926.351117	5613.827667	1858.298828	230.931915
2926.351117	5613.827667	1857.308594	158.470230
2926.351117	5613.827667	1856.318359	293.445648
2926.351117	5613.827667	1855.327148	119.569733
2926.351117	5613.827667	1854.335938	-68.774979
2926.351117	5613.827667	1853.344727	-59.402218
2926.351117	5613.827667	1852.353516	19.809841
2926.351117	5613.827667	1851.362305	166.410751
2926.351117	5613.827667	1850.370117	-58.215405
2926.351117	5613.827667	1849.377930	-12.987513
2926.351117	5613.827667	1848.385742	41.788513
2926.351117	5613.827667	1847.393555	-141.957886
2926.351117	5613.827667	1846.401367	153.469360
2926.351117	5613.827667	1845.408203	188.700073
2926.351117	5613.827667	1844.415039	194.956360
2926.351117	5613.827667	1843.421875	191.506546
2926.351117	5613.827667	1842.428711	-69.474808
2926.351117	5613.827667	1841.435547	278.195679
2926.351117	5613.827667	1840.441406	159.039139
2926.351117	5613.827667	1839.448242	83.134689
2926.351117	5613.827667	1838.454102	141.812790
2926.351117	5613.827667	1837.459961	10.479657
2926.351117	5613.827667	1836.464844	80.991051
2926.351117	5613.827667	1835.470703	31.245171
2926.351117	5613.827667	1834.475586	17.463408
2926.351117	5613.827667	1833.480469	37.225197
2926.351117	5613.827667	1832.485352	152.953232
2926.351117	5613.827667	1831.490234	59.645390
2926.351117	5613.827667	1830.495117	-271.387909
2926.351117	5613.827667	1829.499023	-148.751419
2926.351117	5613.827667	1828.502930	170.526337
2926.351117	5613.827667	1827.506836	-45.464886
2926.351117	5613.827667	1826.510742	-172.714478
2926.351117	5613.827667	1825.513672	213.243759
2926.351117	5613.827667	1824.517578	148.142105
2926.351117	5613.827667	1823.520508	178.859222
2926.351117	5613.827667	1822.523438	207.065506
2926.351117	5613.827667	1821.526367	57.807755
2926.351117	5613.827667	1820.529297	-2.840847
2926.351117	5613.827667	1819.531250	-245.651932
2926.351117	5613.827667	1818.533203	52.850941
2926.351117	5613.827667	1817.535156	6.280063
2926.351117	5613.827667	1816.537109	105.674492
2926.351117	5613.827667	1815.539063	39.741268
2926.351117	5613.827667	1814.540039	31.158472
2926.351117	5613.827667	1813.541992	130.158768
2926.351117	5613.827667	1812.542969	-50.927181
2926.351117	5613.827667	1811.543945	-35.906281
2926.351117	5613.827667	1810.543945	-76.020752
2926.351117	5613.827667	1809.544922	-34.928638
2926.351117	5613.827667	1808.544922	249.878647
2926.351117	5613.827667	1807.544922	104.208908
2926.351117	5613.827667	1806.544922	101.865013
2926.351117	5613.827667	1805.544922	49.225018
2926.351117	5613.827667	1804.544922	-161.185532
2926.351117	5613.827667	1803.543945	-20.538277
2926.351117	5613.827667	1802.542969	-49.617527
2926.351117	5613.827667	1801.541992	-4.795167
2926.351117	5613.827667	1800.541016	-36.501659
2926.351117	5613.827667	1799.539063	-275.969574
2926.351117	5613.827667	1798.538086	9.504077
2926.351117	5613.827667	1797.536133	80.015373
2926.351117	5613.827667	1796.534180	-81.005356
2926.351117	5613.827667	1795.532227	-29.839094
2926.351117	5613.827667	1794.529297	-95.666222
2926.351117	5613.827667	1793.527344	-54.311710
2926.351117	5613.827667	1792.524414	-10.729494
2926.351117	5613.827667	1791.521484	25.556366
2926.351117	5613.827667	1790.518555	-31.226233
2926.351117	5613.827667	1789.514648	-42.868568
2926.351117	5613.827667	1788.511719	-23.668911
2926.351117	5613.827667	1787.507813	21.573895
2926.351117	5613.827667	1786.503906	26.190985
2926.351117	5613.827667	1785.500000	87.799980
2926.351117	5613.827667	1784.496094	-38.764671
2926.351117	5613.827667	1783.491211	272.392578
2926.351117	5613.827667	1782.486328	228.822189
2926.351117	5613.827667	1781.481445	21.011003
2926.351117	5613.827667	1780.476563	74.730034
2926.351117	5613.827667	1779.471680	273.327484
2926.351117	5613.827667	1778.465820	-6.119025
2926.351117	5613.827667	1777.460938	56.663586
2926.351117	5613.827667	1776.455078	240.461716
2926.351117	5613.827667	1775.449219	155.578812
2926.351117	5613.827667	1774.442383	11.189681
2926.351117	5613.827667	1773.436523	108.969910
2926.351117	5613.827667	1772.429688	341.904114
2926.351117	5613.827667	1771.422852	-54.513214
2926.351117	5613.827667	1770.416016	-102.006004
2926.351117	5613.827667	1769.409180	49.719433
2926.351117	5613.827667	1768.402344	227.343521
2926.351117	5613.827667	1767.394531	331.204285
2926.351117	5613.827667	1766.386719	344.752075
2926.351117	5613.827667	1765.378906	303.609741
2926.351117	5613.827667	1764.371094	205.437225
2926.351117	5613.827667	1763.362305	123.735237
2926.351117	5613.827667	1762.354492	245.751846
2926.351117	5613.827667	1761.345703	284.628082
2926.351117	5613.827667	1760.336914	406.262482
2926.351117	5613.827667	1759.328125	231.624619
2926.351117	5613.827667	1758.318359	243.980255
2926.351117	5613.827667	1757.308594	50.190247
2926.351117	5613.827667	1756.299805	147.518356
2926.351117	5613.827667	1755.290039	235.180283
2926.351117	5613.827667	1754.279297	180.664886
2926.351117	5613.827667	1753.269531	249.066620
2926.351117	5613.827667	1752.258789	111.483208
2926.351117	5613.827667	1751.249023	92.071213
2926.351117	5613.827667	1750.238281	150.536270
2926.351117	5613.827667	1749.226563	180.447403
2926.351117	5613.827667	1748.215820	292.943481
2926.351117	5613.827667	1747.204102	12.938356
2926.351117	5613.827667	1746.193359	224.366409
2926.351117	5613.827667	1745.181641	45.766956
2926.351117	5613.827667	1744.168945	228.440582
2926.351117	5613.827667	1743.157227	316.456299
2926.351117	5613.827667	1742.144531	31.242325
2926.351117	5613.827667	1741.132813	-13.221569
2926.351117	5613.827667	1740.120117	38.933735
2926.351117	5613.827667	1739.106445	-3.478401
2926.351117	5613.827667	1738.093750	-69.596497
2926.351117	5613.827667	1737.080078	130.684143
2926.351117	5613.827667	1736.067383	-32.415039
2926.351117	5613.827667	1735.053711	14.232607
2926.351117	5613.827667	1734.040039	180.943634
2926.351117	5613.827667	1733.025391	-74.459579
2926.351117	5613.827667	1732.011719	-14.126551
2926.351117	5613.827667	1730.997070	-41.149380
2926.351117	5613.827667	1729.982422	61.250031
2926.351117	5613.827667	1728.967773	-17.878040
2926.351117	5613.827667	1727.952148	4.115347
2926.351117	5613.827667	1726.937500	-87.028259
2926.351117	5613.827667	1725.921875	-34.716633
2926.351117	5613.827667	1724.906250	-90.819366
2926.351117	5613.827667	1723.890625	45.892612
2926.351117	5613.827667	1722.875000	71.848595
2926.351117	5613.827667	1721.858398	-74.058029
2926.351117	5613.827667	1720.841797	-20.170874
2926.351117	5613.827667	1719.825195	45.313423
2926.351117	5613.827667	1718.808594	-98.573242
2926.351117	5613.827667	1717.791992	53.579948
2926.351117	5613.827667	1716.774414	-184.536285
2926.351117	5613.827667	1715.756836	-187.771698
2926.351117	5613.827667	1714.739258	-104.235916
2926.351117	5613.827667	1713.721680	75.415543
2926.351117	5613.827667	1712.704102	102.247887
2926.351117	5613.827667	1711.685547	77.271599
2926.351117	5613.827667	1710.667969	45.149532
2926.351117	5613.827667	1709.649414	62.165493
2926.351117	5613.827667	1708.630859	-61.725567
2926.351117	5613.827667	1707.611328	-80.165894
2926.351117	5613.827667	1706.592773	44.348202
2926.351117	5613.827667	1705.573242	-51.743114
2926.351117	5613.827667	1704.553711	-131.518524
2926.351117	5613.827667	1703.534180	109.720131
2926.351117	5613.827667	1702.513672	-59.381813
2926.351117	5613.827667	1701.494141	-59.832108
2926.351117	5613.827667	1700.473633	21.560289
2926.351117	5613.827667	1699.453125	-63.491638
2926.351117	5613.827667	1698.432617	-106.485931
2926.351117	5613.827667	1697.412109	-219.821991
2926.351117	5613.827667	1696.390625	-150.682205
2926.351117	5613.827667	1695.369141	-130.836472
2926.351117	5613.827667	1694.347656	73.726997
2926.351117	5613.827667	1693.326172	-16.669470
2926.351117	5613.827667	1692.304688	26.169538
2926.351117	5613.827667	1691.282227	136.667633
2926.351117	5613.827667	1690.260742	134.803009
2926.351117	5613.827667	1689.238281	200.591675
2926.351117	5613.827667	1688.214844	16.145781
2926.351117	5613.827667	1687.192383	198.536926
2926.351117	5613.827667	1686.168945	51.315739
2926.351117	5613.827667	1685.146484	305.814972
2926.351117	5613.827667	1684.123047	198.108337
2926.351117	5613.827667	1683.099609	293.468323
2926.351117	5613.827667	1682.075195	229.919357
2926.351117	5613.827667	1681.051758	313.350739
2926.351117	5613.827667	1680.027344	382.620544
2926.351117	5613.827667	1679.002930	512.418762
2926.351117	5613.827667	1677.978516	329.491791
2926.351117	5613.827667	1676.953125	827.506226
2926.351117	5613.827667	1675.928711	781.957764
2926.351117	5613.827667	1674.903320	855.197876
2926.351117	5613.827667	1673.877930	856.056641
2926.351117	5613.827667	1672.852539	943.041260
2926.351117	5613.827667	1671.826172	1092.780884
2926.351117	5613.827667	1670.800781	1202.789795
2926.351117	5613.827667	1669.774414	1168.238770
2926.351117	5613.827667	1668.748047	1326.882446
2926.351117	5613.827667	1667.721680	1534.264160
2926.351117	5613.827667	1666.694336	1271.259644
2926.351117	5613.827667	1665.667969	1604.064819
2926.351117	5613.827667	1664.640625	1478.253174
2926.351117	5613.827667	1663.613281	1475.700562
2926.351117	5613.827667	1662.585938	1491.672363
2926.351117	5613.827667	1661.557617	1544.737305
2926.351117	5613.827667	1660.530273	1430.325317
2926.351117	5613.827667	1659.501953	1613.395020
2926.351117	5613.827667	1658.473633	1491.859131
2926.351117	5613.827667	1657.444336	1481.803833
2926.351117	5613.827667	1656.416016	1704.019775
2926.351117	5613.827667	1655.386719	1856.369751
2926.351117	5613.827667	1654.358398	1620.788086
2926.351117	5613.827667	1653.328125	1728.810791
2926.351117	5613.827667	1652.298828	2047.994751
2926.351117	5613.827667	1651.269531	2030.447998
2926.351117	5613.827667	1650.239258	2342.328369
2926.351117	5613.827667	1649.208984	2206.252441
2926.351117	5613.827667	1648.178711	2332.280518
2926.351117	5613.827667	1647.148438	2578.793701
2926.351117	5613.827667	1646.117188	2502.825195
2926.351117	5613.827667	1645.086914	2554.356689
2926.351117	5613.827667	1644.055664	2747.172119
2926.351117	5613.827667	1643.024414	2863.383789
2926.351117	5613.827667	1641.992188	3021.174561
2926.351117	5613.827667	1640.960938	3053.788086
2926.351117	5613.827667	1639.928711	3148.844727
2926.351117	5613.827667	1638.896484	2993.734375
2926.351117	5613.827667	1637.864258	3345.645996
2926.351117	5613.827667	1636.832031	3174.261475
2926.351117	5613.827667	1635.798828	3213.466797
2926.351117	5613.827667	1634.766602	3379.894775
2926.351117	5613.827667	1633.733398	3610.966797
2926.351117	5613.827667	1632.699219	3451.006592
2926.351117	5613.827667	1631.666016	3945.512451
2926.351117	5613.827667	1630.632813	3662.966309
2926.351117	5613.827667	1629.598633	3745.691895
2926.351117	5613.827667	1628.564453	3948.527100
2926.351117	5613.827667	1627.530273	3991.819336
2926.351117	5613.827667	1626.495117	3612.275146
2926.351117	5613.827667	1625.460938	3895.769775
2926.351117	5613.827667	1624.425781	4146.773438
2926.351117	5613.827667	1623.390625	4254.506348
2926.351117	5613.827667	1622.355469	4045.925781
2926.351117	5613.827667	1621.319336	4058.943115
2926.351117	5613.827667	1620.284180	4323.474609
2926.351117	5613.827667	1619.248047	4313.324707
2926.351117	5613.827667	1618.211914	4413.879883
2926.351117	5613.827667	1617.174805	4553.557617
2926.351117	5613.827667	1616.138672	4421.125977
2926.351117	5613.827667	1615.101563	4588.388672
2926.351117	5613.827667	1614.065430	4490.553223
2926.351117	5613.827667	1613.027344	4418.046387
2926.351117	5613.827667	1611.990234	4686.562012
2926.351117	5613.827667	1610.953125	4731.535645
2926.351117	5613.827667	1609.915039	4792.587402
2926.351117	5613.827667	1608.876953	4733.881836
2926.351117	5613.827667	1607.838867	4910.014648
2926.351117	5613.827667	1606.800781	4860.520508
2926.351117	5613.827667	1605.761719	5006.629395
2926.351117	5613.827667	1604.723633	5265.449219
2926.351117	5613.827667	1603.684570	5379.232910
2926.351117	5613.827667	1602.644531	5440.061035
2926.351117	5613.827667	1601.605469	5599.777344
2926.351117	5613.827667	1600.566406	5315.748535
2926.351117	5613.827667	1599.526367	5445.550781
2926.351117	5613.827667	1598.486328	5917.732910
2926.351117	5613.827667	1597.446289	5769.395508
2926.351117	5613.827667	1596.405273	5632.596191
2926.351117	5613.827667	1595.365234	5645.187988
2926.351117	5613.827667	1594.324219	5538.367676
2926.351117	5613.827667	1593.283203	5516.561035
2926.351117	5613.827667	1592.242188	5373.136719
2926.351117	5613.827667	1591.200195	5289.443359
2926.351117	5613.827667	1590.159180	5079.644043
2926.351117	5613.827667	1589.117188	5402.148926
2926.351117	5613.827667	1588.075195	5543.371582
2926.351117	5613.827667	1587.032227	5108.977051
2926.351117	5613.827667	1585.990234	5277.793457
2926.351117	5613.827667	1584.947266	5015.619629
2926.351117	5613.827667	1583.904297	5221.115723
2926.351117	5613.827667	1582.861328	5121.827637
2926.351117	5613.827667	1581.818359	4816.448242
2926.351117	5613.827667	1580.775391	4754.021973
2926.351117	5613.827667	1579.731445	4803.855957
2926.351117	5613.827667	1578.687500	4679.719238
2926.351117	5613.827667	1577.643555	4841.820313
2926.351117	5613.827667	1576.598633	4603.376953
2926.351117	5613.827667	1575.554688	5060.721191
2926.351117	5613.827667	1574.509766	4929.970215
2926.351117	5613.827667	1573.464844	4964.018555
2926.351117	5613.827667	1572.419922	5117.032715
2926.351117	5613.827667	1571.374023	5018.523438
2926.351117	5613.827667	1570.329102	5082.446777
2926.351117	5613.827667	1569.283203	5221.810547
2926.351117	5613.827667	1568.237305	5230.940430
2926.351117	5613.827667	1567.191406	5167.035156
2926.351117	5613.827667	1566.144531	5240.251953
2926.351117	5613.827667	1565.098633	5477.968262
2926.351117	5613.827667	1564.051758	5450.785156
2926.351117	5613.827667	1563.004883	5389.450684
2926.351117	5613.827667	1561.957031	5460.573730
2926.351117	5613.827667	1560.910156	5424.525391
2926.351117	5613.827667	1559.862305	5427.338379
2926.351117	5613.827667	1558.814453	5297.937012
2926.351117	5613.827667	1557.766602	5570.054199
2926.351117	5613.827667	1556.718750	5447.694824
2926.351117	5613.827667	1555.669922	5528.340820
2926.351117	5613.827667	1554.621094	5326.424805
2926.351117	5613.827667	1553.573242	5142.937012
2926.351117	5613.827667	1552.523438	5463.081543
2926.351117	5613.827667	1551.474609	5507.598145
2926.351117	5613.827667	1550.424805	5117.186035
2926.351117	5613.827667	1549.375000	5503.480469
2926.351117	5613.827667	1548.325195	5236.359863
2926.351117	5613.827667	1547.275391	5108.290527
2926.351117	5613.827667	1546.225586	5053.200195
2926.351117	5613.827667	1545.174805	4768.421875
2926.351117	5613.827667	1544.124023	4909.243164
2926.351117	5613.827667	1543.073242	5095.608398
2926.351117	5613.827667	1542.022461	4779.490234
2926.351117	5613.827667	1540.970703	4790.960938
2926.351117	5613.827667	1539.919922	4463.895996
2926.351117	5613.827667	1538.868164	4375.667480
2926.351117	5613.827667	1537.815430	4335.288086
2926.351117	5613.827667	1536.763672	4590.374512
2926.351117	5613.827667	1535.710938	4180.012695
2926.351117	5613.827667	1534.659180	4203.666016
2926.351117	5613.827667	1533.606445	3945.899658
2926.351117	5613.827667	1532.552734	4062.864258
2926.351117	5613.827667	1531.500000	3955.263916
2926.351117	5613.827667	1530.446289	4079.247314
2926.351117	5613.827667	1529.393555	3853.989014
2926.351117	5613.827667	1528.338867	3792.209717
2926.351117	5613.827667	1527.285156	3819.048584
2926.351117	5613.827667	1526.231445	3433.393799
2926.351117	5613.827667	1525.176758	3267.879150
2926.351117	5613.827667	1524.122070	3759.778076
2926.351117	5613.827667	1523.067383	3667.050537
2926.351117	5613.827667	1522.012695	2897.165039
2926.351117	5613.827667	1520.957031	2775.469238
2926.351117	5613.827667	1519.901367	2724.165039
2926.351117	5613.827667	1518.845703	2727.365234
2926.351117	5613.827667	1517.790039	2486.249023
2926.351117	5613.827667	1516.734375	2408.321045
2926.351117	5613.827667	1515.677734	2459.528076
2926.351117	5613.827667	1514.621094	1963.414551
2926.351117	5613.827667	1513.564453	2372.353027
2926.351117	5613.827667	1512.507813	2148.120361
2926.351117	5613.827667	1511.450195	1842.725464
2926.351117	5613.827667	1510.393555	2156.978027
2926.351117	5613.827667	1509.335938	2001.176758
2926.351117	5613.827667	1508.278320	1908.865479
2926.351117	5613.827667	1507.219727	1753.481689
2926.351117	5613.827667	1506.162109	1758.701050
2926.351117	5613.827667	1505.103516	1786.649292
2926.351117	5613.827667	1504.044922	1961.502808
2926.351117	5613.827667	1502.986328	1524.735107
2926.351117	5613.827667	1501.926758	1424.557983
2926.351117	5613.827667	1500.868164	1608.911133
2926.351117	5613.827667	1499.808594	1500.075928
2926.351117	5613.827667	1498.749023	1373.411499
2926.351117	5613.827667	1497.688477	1720.512695
2926.351117	5613.827667	1496.628906	1393.546387
2926.351117	5613.827667	1495.568359	1332.856079
2926.351117	5613.827667	1494.507813	1274.622070
2926.351117	5613.827667	1493.447266	1462.193237
2926.351117	5613.827667	1492.386719	1440.357422
2926.351117	5613.827667	1491.325195	1423.202881
2926.351117	5613.827667	1490.263672	1244.096924
2926.351117	5613.827667	1489.202148	1362.438843
2926.351117	5613.827667	1488.140625	1393.127930
2926.351117	5613.827667	1487.079102	994.131958
2926.351117	5613.827667	1486.016602	957.733215
2926.351117	5613.827667	1484.954102	980.028503
2926.351117	5613.827667	1483.891602	948.520569
2926.351117	5613.827667	1482.829102	1164.577515
2926.351117	5613.827667	1481.765625	1036.726318
2926.351117	5613.827667	1480.702148	857.428284
2926.351117	5613.827667	1479.638672	541.297546
2926.351117	5613.827667	1478.575195	854.592590
2926.351117	5613.827667	1477.511719	943.339600
2926.351117	5613.827667	1476.447266	931.160278
2926.351117	5613.827667	1475.382813	638.458191
2926.351117	5613.827667	1474.318359	974.743896
2926.351117	5613.827667	1473.253906	671.465271
2926.351117	5613.827667	1472.189453	947.267517
2926.351117	5613.827667	1471.124023	915.814270
2926.351117	5613.827667	1470.058594	817.260010
2926.351117	5613.827667	1468.993164	992.544861
2926.351117	5613.827667	1467.927734	1089.358887
2926.351117	5613.827667	1466.861328	1025.184692
2926.351117	5613.827667	1465.794922	829.074341
2926.351117	5613.827667	1464.728516	1147.956299
2926.351117	5613.827667	1463.662109	1102.338867
2926.351117	5613.827667	1462.594727	1168.396606
2926.351117	5613.827667	1461.528320	1103.573120
2926.351117	5613.827667	1460.460938	1083.067017
2926.351117	5613.827667	1459.393555	1223.649780
2926.351117	5613.827667	1458.326172	1196.657959
2926.351117	5613.827667	1457.257813	1286.507202
2926.351117	5613.827667	1456.189453	986.152344
2926.351117	5613.827667	1455.121094	1049.630737
2926.351117	5613.827667	1454.052734	883.970154
2926.351117	5613.827667	1452.984375	1045.225708
2926.351117	5613.827667	1451.915039	864.208618
2926.351117	5613.827667	1450.845703	1084.524658
2926.351117	5613.827667	1449.776367	1112.758423
2926.351117	5613.827667	1448.707031	1072.913818
2926.351117	5613.827667	1447.636719	970.078308
2926.351117	5613.827667	1446.567383	1038.441650
2926.351117	5613.827667	1445.497070	946.994629
2926.351117	5613.827667	1444.425781	1140.960938
2926.351117	5613.827667	1443.355469	1231.915527
2926.351117	5613.827667	1442.285156	1369.619995
2926.351117	5613.827667	1441.213867	1180.074829
2926.351117	5613.827667	1440.142578	1229.258911
2926.351117	5613.827667	1439.070313	1197.731445
2926.351117	5613.827667	1437.999023	1339.216187
2926.351117	5613.827667	1436.926758	1328.550781
2926.351117	5613.827667	1435.854492	1318.295044
2926.351117	5613.827667	1434.782227	1028.707031
2926.351117	5613.827667	1433.709961	943.706543
2926.351117	5613.827667	1432.636719	787.010620
2926.351117	5613.827667	1431.563477	726.885254
2926.351117	5613.827667	1430.490234	737.129272
2926.351117	5613.827667	1429.416992	480.814941
2926.351117	5613.827667	1428.343750	587.100464
2926.351117	5613.827667	1427.269531	267.484863
2926.351117	5613.827667	1426.195313	208.369797
2926.351117	5613.827667	1425.121094	50.311871
2926.351117	5613.827667	1424.046875	305.660583
2926.351117	5613.827667	1422.971680	345.650116
2926.351117	5613.827667	1421.896484	289.769104
2926.351117	5613.827667	1420.821289	424.404144
2926.351117	5613.827667	1419.746094	315.236755
2926.351117	5613.827667	1418.669922	275.658051
2926.351117	5613.827667	1417.594727	343.432281
2926.351117	5613.827667	1416.518555	684.041260
2926.351117	5613.827667	1415.442383	618.515442
2926.351117	5613.827667	1414.365234	304.394958
2926.351117	5613.827667	1413.289063	744.526550
2926.351117	5613.827667	1412.211914	948.305542
2926.351117	5613.827667	1411.134766	993.050598
2926.351117	5613.827667	1410.057617	1339.667603
2926.351117	5613.827667	1408.979492	1145.014160
2926.351117	5613.827667	1407.902344	1466.143799
2926.351117	5613.827667	1406.824219	1305.694092
2926.351117	5613.827667	1405.746094	1375.300903
2926.351117	5613.827667	1404.666992	1312.273682
2926.351117	5613.827667	1403.588867	1477.465088
2926.351117	5613.827667	1402.509766	1059.760254
2926.351117	5613.827667	1401.430664	1020.020874
2926.351117	5613.827667	1400.351563	1081.002197
2926.351117	5613.827667	1399.271484	940.920959
2926.351117	5613.827667	1398.192383	988.147217
2926.351117	5613.827667	1397.112305	1085.259399
2926.351117	5613.827667	1396.031250	757.507751
2926.351117	5613.827667	1394.951172	907.997375
2926.351117	5613.827667	1393.871094	553.269409
2926.351117	5613.827667	1392.790039	712.715515
2926.351117	5613.827667	1391.708984	461.507690
2926.351117	5613.827667	1390.626953	423.004730
2926.351117	5613.827667	1389.545898	674.719971
2926.351117	5613.827667	1388.463867	422.580505
2926.351117	5613.827667	1387.381836	398.935455
2926.351117	5613.827667	1386.299805	221.971558
2926.351117	5613.827667	1385.217773	497.510406
2926.351117	5613.827667	1384.134766	460.362946
2926.351117	5613.827667	1383.051758	430.443756
2926.351117	5613.827667	1381.968750	372.431763
2926.351117	5613.827667	1380.885742	239.353577
2926.351117	5613.827667	1379.802734	252.061920
2926.351117	5613.827667	1378.718750	440.079529
2926.351117	5613.827667	1377.634766	104.263313
2926.351117	5613.827667	1376.550781	-97.336746
2926.351117	5613.827667	1375.465820	142.027161
2926.351117	5613.827667	1374.381836	45.040653
2926.351117	5613.827667	1373.296875	393.417175
2926.351117	5613.827667	1372.211914	104.616142
2926.351117	5613.827667	1371.126953	177.191376
2926.351117	5613.827667	1370.041016	358.057526
2926.351117	5613.827667	1368.955078	110.589508
2926.351117	5613.827667	1367.869141	182.964066
2926.351117	5613.827667	1366.783203	107.900978
2926.351117	5613.827667	1365.697266	11.778175
2926.351117	5613.827667	1364.610352	-2.941983
2926.351117	5613.827667	1363.523438	58.378082
2926.351117	5613.827667	1362.436523	68.786186
2926.351117	5613.827667	1361.349609	-61.956974
2926.351117	5613.827667	1360.261719	-49.054420
2926.351117	5613.827667	1359.174805	-69.591347
2926.351117	5613.827667	1358.086914	85.517616
2926.351117	5613.827667	1356.998047	139.502365
2926.351117	5613.827667	1355.910156	-239.416718
2926.351117	5613.827667	1354.821289	-166.440384
2926.351117	5613.827667	1353.732422	-124.114388
2926.351117	5613.827667	1352.643555	28.812090
2926.351117	5613.827667	1351.554688	76.107437
2926.351117	5613.827667	1350.464844	-197.679993
2926.351117	5613.827667	1349.375000	-50.211876
2926.351117	5613.827667	1348.285156	95.485191
2926.351117	5613.827667	1347.195313	1.759619
2926.351117	5613.827667	1346.105469	78.438332
2926.351117	5613.827667	1345.014648	117.849709
2926.351117	5613.827667	1343.923828	161.180801
2926.351117	5613.827667	1342.833008	294.024109
2926.351117	5613.827667	1341.741211	96.206497
2926.351117	5613.827667	1340.650391	241.271759
2926.351117	5613.827667	1339.558594	341.429718
2926.351117	5613.827667	1338.466797	305.739624
2926.351117	5613.827667	1337.374023	46.558155
2926.351117	5613.827667	1336.282227	234.654449
2926.351117	5613.827667	1335.189453	88.860573
2926.351117	5613.827667	1334.096680	256.985107
2926.351117	5613.827667	1333.003906	228.204422
2926.351117	5613.827667	1331.910156	116.498970
2926.351117	5613.827667	1330.817383	201.499619
2926.351117	5613.827667	1329.723633	115.653091
2926.351117	5613.827667	1328.629883	18.970341
2926.351117	5613.827667	1327.535156	91.985054
2926.351117	5613.827667	1326.441406	-7.856675
2926.351117	5613.827667	1325.346680	192.082428
2926.351117	5613.827667	1324.251953	62.043163
2926.351117	5613.827667	1323.156250	80.155426
2926.351117	5613.827667	1322.061523	41.442310
2926.351117	5613.827667	1320.965820	26.905407
2926.351117	5613.827667	1319.870117	79.730247
2926.351117	5613.827667	1318.774414	194.102844
2926.351117	5613.827667	1317.678711	137.797089
2926.351117	5613.827667	1316.582031	29.588129
2926.351117	5613.827667	1315.485352	166.291809
2926.351117	5613.827667	1314.388672	314.402679
2926.351117	5613.827667	1313.291016	397.034149
2926.351117	5613.827667	1312.194336	302.802582
2926.351117	5613.827667	1311.096680	189.032135
2926.351117	5613.827667	1309.999023	139.815277
2926.351117	5613.827667	1308.901367	64.386795
2926.351117	5613.827667	1307.802734	276.657471
2926.351117	5613.827667	1306.705078	197.035477
2926.351117	5613.827667	1305.606445	222.519867
2926.351117	5613.827667	1304.506836	231.728531
2926.351117	5613.827667	1303.408203	274.275940
2926.351117	5613.827667	1302.308594	326.337585
2926.351117	5613.827667	1301.208984	404.239349
2926.351117	5613.827667	1300.109375	531.094849
2926.351117	5613.827667	1299.009766	475.486481
2926.351117	5613.827667	1297.909180	543.310242
2926.351117	5613.827667	1296.808594	487.725677
2926.351117	5613.827667	1295.708008	471.047424
2926.351117	5613.827667	1294.607422	506.965302
2926.351117	5613.827667	1293.506836	630.284241
2926.351117	5613.827667	1292.405273	495.676270
2926.351117	5613.827667	1291.303711	495.151733
2926.351117	5613.827667	1290.202148	627.613281
2926.351117	5613.827667	1289.099609	437.192169
2926.351117	5613.827667	1287.998047	181.558456
2926.351117	5613.827667	1286.895508	386.279053
2926.351117	5613.827667	1285.792969	153.682297
2926.351117	5613.827667	1284.689453	81.453400
2926.351117	5613.827667	1283.586914	185.221725
2926.351117	5613.827667	1282.483398	238.184738
2926.351117	5613.827667	1281.379883	177.954559
2926.351117	5613.827667	1280.276367	-18.109226
2926.351117	5613.827667	1279.171875	-65.250664
2926.351117	5613.827667	1278.067383	77.741699
2926.351117	5613.827667	1276.962891	-67.326241
2926.351117	5613.827667	1275.858398	-211.865417
2926.351117	5613.827667	1274.753906	-75.898071
2926.351117	5613.827667	1273.648438	-198.792908
2926.351117	5613.827667	1272.542969	-166.659195
2926.351117	5613.827667	1271.437500	-287.044556
2926.351117	5613.827667	1270.331055	-201.467911
2926.351117	5613.827667	1269.225586	-195.108551
2926.351117	5613.827667	1268.119141	-187.509323
2926.351117	5613.827667	1267.012695	-153.848160
2926.351117	5613.827667	1265.906250	-51.435455
2926.351117	5613.827667	1264.798828	-263.364014
2926.351117	5613.827667	1263.691406	-368.452637
2926.351117	5613.827667	1262.583984	-279.181610
2926.351117	5613.827667	1261.476563	-322.059479
2926.351117	5613.827667	1260.368164	-290.562714
2926.351117	5613.827667	1259.260742	-314.538666
2926.351117	5613.827667	1258.152344	-290.930481
2926.351117	5613.827667	1257.043945	-152.016296
2926.351117	5613.827667	1255.934570	-128.647339
2926.351117	5613.827667	1254.825195	-36.753162
2926.351117	5613.827667	1253.716797	18.319500
2926.351117	5613.827667	1252.606445	133.827393
2926.351117	5613.827667	1251.497070	301.072723
2926.351117	5613.827667	1250.387695	344.774689
2926.351117	5613.827667	1249.277344	345.438721
2926.351117	5613.827667	1248.166992	364.464081
2926.351117	5613.827667	1247.055664	288.618073
2926.351117	5613.827667	1245.945313	433.174408
2926.351117	5613.827667	1244.833984	461.344147
2926.351117	5613.827667	1243.722656	387.105560
2926.351117	5613.827667	1242.611328	285.780121
2926.351117	5613.827667	1241.499023	364.752411
2926.351117	5613.827667	1240.387695	187.649399
2926.351117	5613.827667	1239.275391	21.406094
2926.351117	5613.827667	1238.162109	90.671196
2926.351117	5613.827667	1237.049805	38.565670
2926.351117	5613.827667	1235.936523	95.442635
2926.351117	5613.827667	1234.823242	89.596558
2926.351117	5613.827667	1233.709961	93.448540
2926.351117	5613.827667	1232.596680	-32.331268
2926.351117	5613.827667	1231.482422	40.041306
2926.351117	5613.827667	1230.369141	39.932178
2926.351117	5613.827667	1229.253906	210.023544
2926.351117	5613.827667	1228.139648	-12.273555
2926.351117	5613.827667	1227.025391	68.415894
2926.351117	5613.827667	1225.910156	-54.934425
2926.351117	5613.827667	1224.794922	-37.252781
2926.351117	5613.827667	1223.679688	-22.981310
2926.351117	5613.827667	1222.563477	-190.392410
2926.351117	5613.827667	1221.447266	-190.543243
2926.351117	5613.827667	1220.331055	30.361361
2926.351117	5613.827667	1219.214844	64.104874
2926.351117	5613.827667	1218.098633	1.282292
2926.351117	5613.827667	1216.981445	41.195450
2926.351117	5613.827667	1215.864258	48.025482
2926.351117	5613.827667	1214.747070	-29.253683
2926.351117	5613.827667	1213.629883	27.223480
2926.351117	5613.827667	1212.511719	-112.914070
2926.351117	5613.827667	1211.393555	-83.422646
2926.351117	5613.827667	1210.275391	8.505696
2926.351117	5613.827667	1209.157227	-98.078926
2926.351117	5613.827667	1208.038086	92.802017
2926.351117	5613.827667	1206.918945	-1.624307
2926.351117	5613.827667	1205.799805	141.647339
2926.351117	5613.827667	1204.680664	240.060654
2926.351117	5613.827667	1203.560547	149.463226
2926.351117	5613.827667	1202.441406	99.935349
2926.351117	5613.827667	1201.321289	60.352501
2926.351117	5613.827667	1200.200195	136.649551
2926.351117	5613.827667	1199.080078	132.206757
2926.351117	5613.827667	1197.958984	154.992233
2926.351117	5613.827667	1196.837891	204.687546
2926.351117	5613.827667	1195.716797	90.961075
2926.351117	5613.827667	1194.594727	29.402426
2926.351117	5613.827667	1193.473633	103.492805
2926.351117	5613.827667	1192.351563	337.989105
2926.351117	5613.827667	1191.229492	199.331879
2926.351117	5613.827667	1190.106445	165.099854
2926.351117	5613.827667	1188.984375	113.155479
2926.351117	5613.827667	1187.861328	41.399857
2926.351117	5613.827667	1186.738281	265.854828
2926.351117	5613.827667	1185.614258	191.716125
2926.351117	5613.827667	1184.491211	267.696228
2926.351117	5613.827667	1183.367188	359.534760
2926.351117	5613.827667	1182.243164	203.881729
2926.351117	5613.827667	1181.119141	142.487625
2926.351117	5613.827667	1179.994141	387.787323
2926.351117	5613.827667	1178.869141	329.510040
2926.351117	5613.827667	1177.744141	314.240326
2926.351117	5613.827667	1176.619141	75.091049
2926.351117	5613.827667	1175.493164	94.242012
2926.351117	5613.827667	1174.368164	159.889084
2926.351117	5613.827667	1173.242188	90.566948
2926.351117	5613.827667	1172.115234	198.618851
2926.351117	5613.827667	1170.989258	182.551575
2926.351117	5613.827667	1169.862305	151.306732
2926.351117	5613.827667	1168.735352	194.013596
2926.351117	5613.827667	1167.608398	188.988235
2926.351117	5613.827667	1166.481445	134.873932
2926.351117	5613.827667	1165.353516	185.221085
2926.351117	5613.827667	1164.225586	-41.126888
2926.351117	5613.827667	1163.097656	-17.969074
2926.351117	5613.827667	1161.968750	250.131470
2926.351117	5613.827667	1160.840820	127.773689
2926.351117	5613.827667	1159.711914	115.061157
2926.351117	5613.827667	1158.583008	181.100403
2926.351117	5613.827667	1157.453125	126.363297
2926.351117	5613.827667	1156.324219	227.430847
2926.351117	5613.827667	1155.194336	229.509598
2926.351117	5613.827667	1154.064453	213.379303
2926.351117	5613.827667	1152.933594	200.449051
2926.351117	5613.827667	1151.803711	254.937241
2926.351117	5613.827667	1150.672852	322.434631
2926.351117	5613.827667	1149.541992	231.071869
2926.351117	5613.827667	1148.411133	320.395782
2926.351117	5613.827667	1147.279297	348.235016
2926.351117	5613.827667	1146.147461	280.125824
2926.351117	5613.827667	1145.015625	184.357224
2926.351117	5613.827667	1143.883789	219.865662
2926.351117	5613.827667	1142.750977	338.005920
2926.351117	5613.827667	1141.619141	366.280243
2926.351117	5613.827667	1140.486328	253.633438
2926.351117	5613.827667	1139.352539	307.661957
2926.351117	5613.827667	1138.219727	305.927216
2926.351117	5613.827667	1137.085938	372.308105
2926.351117	5613.827667	1135.952148	334.314423
2926.351117	5613.827667	1134.818359	474.950165
2926.351117	5613.827667	1133.683594	477.380981
2926.351117	5613.827667	1132.549805	892.617493
2926.351117	5613.827667	1131.415039	732.407959
2926.351117	5613.827667	1130.279297	715.931824
2926.351117	5613.827667	1129.144531	738.405457
2926.351117	5613.827667	1128.008789	794.492493
2926.351117	5613.827667	1126.873047	550.333496
2926.351117	5613.827667	1125.737305	315.459930
2926.351117	5613.827667	1124.601563	307.583893
2926.351117	5613.827667	1123.464844	205.394684
2926.351117	5613.827667	1122.328125	362.034332
2926.351117	5613.827667	1121.191406	73.738403
2926.351117	5613.827667	1120.054688	-30.380510
2926.351117	5613.827667	1118.916992	-21.601206
2926.351117	5613.827667	1117.779297	14.832041
2926.351117	5613.827667	1116.641602	50.110947
2926.351117	5613.827667	1115.503906	78.365723
2926.351117	5613.827667	1114.365234	138.367035
2926.351117	5613.827667	1113.226563	-10.407259
2926.351117	5613.827667	1112.087891	55.383076
2926.351117	5613.827667	1110.949219	93.128075
2926.351117	5613.827667	1109.809570	148.528687
2926.351117	5613.827667	1108.669922	132.471497
2926.351117	5613.827667	1107.530273	122.732315
2926.351117	5613.827667	1106.390625	45.364330
2926.351117	5613.827667	1105.250000	170.730240
2926.351117	5613.827667	1104.109375	76.168282
2926.351117	5613.827667	1102.968750	110.913322
2926.351117	5613.827667	1101.828125	145.167053
2926.351117	5613.827667	1100.686523	5.083772
2926.351117	5613.827667	1099.544922	136.808868
2926.351117	5613.827667	1098.403320	227.542114
2926.351117	5613.827667	1097.261719	309.639557
2926.351117	5613.827667	1096.120117	48.044186
2926.351117	5613.827667	1094.977539	155.518204
2926.351117	5613.827667	1093.834961	209.698868
2926.351117	5613.827667	1092.691406	86.280785
2926.351117	5613.827667	1091.548828	198.405807
2926.351117	5613.827667	1090.405273	109.610939
2926.351117	5613.827667	1089.261719	-28.120375
2926.351117	5613.827667	1088.118164	35.101238
2926.351117	5613.827667	1086.973633	-30.717564
2926.351117	5613.827667	1085.829102	127.987129
2926.351117	5613.827667	1084.684570	60.045166
2926.351117	5613.827667	1083.540039	93.844040
2926.351117	5613.827667	1082.395508	49.808361
2926.351117	5613.827667	1081.250000	17.815380
2926.351117	5613.827667	1080.104492	37.510715
2926.351117	5613.827667	1078.958984	149.209656
2926.351117	5613.827667	1077.812500	88.468834
2926.351117	5613.827667	1076.666016	-82.495430
2926.351117	5613.827667	1075.519531	6.693735
2926.351117	5613.827667	1074.373047	16.649517
2926.351117	5613.827667	1073.226563	-38.941624
2926.351117	5613.827667	1072.079102	-15.734493
2926.351117	5613.827667	1070.931641	26.335552
2926.351117	5613.827667	1069.784180	-193.631897
2926.351117	5613.827667	1068.635742	17.228552
2926.351117	5613.827667	1067.487305	136.851089
2926.351117	5613.827667	1066.338867	16.378307
2926.351117	5613.827667	1065.190430	-260.786407
2926.351117	5613.827667	1064.041992	105.587425
2926.351117	5613.827667	1062.892578	76.447746
2926.351117	5613.827667	1061.743164	-134.979599
2926.351117	5613.827667	1060.593750	-10.279482
2926.351117	5613.827667	1059.443359	-147.533585
2926.351117	5613.827667	1058.292969	96.914993
2926.351117	5613.827667	1057.142578	151.398438
2926.351117	5613.827667	1055.992188	-250.570389
2926.351117	5613.827667	1054.841797	-142.629990
2926.351117	5613.827667	1053.690430	-291.229767
2926.351117	5613.827667	1052.539063	-121.090050
2926.351117	5613.827667	1051.387695	-33.054398
2926.351117	5613.827667	1050.235352	-241.368393
2926.351117	5613.827667	1049.083984	-137.589066
2926.351117	5613.827667	1047.931641	-173.386642
2926.351117	5613.827667	1046.778320	-121.760201
2926.351117	5613.827667	1045.625977	-142.422302
2926.351117	5613.827667	1044.472656	-159.233261
2926.351117	5613.827667	1043.319336	24.630566
2926.351117	5613.827667	1042.166016	22.093342
2926.351117	5613.827667	1041.012695	-81.343605
2926.351117	5613.827667	1039.858398	75.871086
2926.351117	5613.827667	1038.704102	8.792038
2926.351117	5613.827667	1037.549805	-134.903595
2926.351117	5613.827667	1036.394531	-29.439186
2926.351117	5613.827667	1035.239258	-297.015564
2926.351117	5613.827667	1034.083984	-174.494614
2926.351117	5613.827667	1032.928711	-64.533119
2926.351117	5613.827667	1031.773438	-104.185303
2926.351117	5613.827667	1030.617188	-167.080292
2926.351117	5613.827667	1029.460938	1.361980
2926.351117	5613.827667	1028.304688	-38.156841
2926.351117	5613.827667	1027.147461	-208.549362
2926.351117	5613.827667	1025.991211	38.012058
2926.351117	5613.827667	1024.833984	15.546317
2926.351117	5613.827667	1023.675781	-124.710030
2926.351117	5613.827667	1022.518555	-205.952103
2926.351117	5613.827667	1021.360352	-21.044416
2926.351117	5613.827667	1020.202148	-359.974304
2926.351117	5613.827667	1019.043945	-258.192352
2926.351117	5613.827667	1017.884766	-75.762314
2926.351117	5613.827667	1016.726563	-12.047139
2926.351117	5613.827667	1015.567383	-182.394760
2926.351117	5613.827667	1014.407227	5.623865
2926.351117	5613.827667	1013.248047	-47.300812
2926.351117	5613.827667	1012.087891	120.069588
2926.351117	5613.827667	1010.927734	112.970352
2926.351117	5613.827667	1009.767578	37.022282
2926.351117	5613.827667	1008.606445	-6.827412
2926.351117	5613.827667	1007.446289	463.026886
2926.351117	5613.827667	1006.285156	201.964157
2926.351117	5613.827667	1005.123047	194.306152
2926.351117	5613.827667	1003.961914	400.777252
2926.351117	5613.827667	1002.799805	167.521561
2926.351117	5613.827667	1001.637695	333.950989
2926.351117	5613.827667	1000.475586	267.182526
2926.351117	5613.827667	999.312500	370.060150
2926.351117	5613.827667	998.149414	329.712921
2926.351117	5613.827667	996.986328	342.561554
2926.351117	5613.827667	995.823242	160.594177
2926.351117	5613.827667	994.659180	221.477646
2926.351117	5613.827667	993.496094	85.699898
2926.351117	5613.827667	992.332031	107.370155
2926.351117	5613.827667	991.166992	199.238983
2926.351117	5613.827667	990.002930	83.271454
2926.351117	5613.827667	988.837891	83.494247
2926.351117	5613.827667	987.672852	11.141836
2926.351117	5613.827667	986.506836	228.932281
2926.351117	5613.827667	985.341797	235.874374
2926.351117	5613.827667	984.175781	184.076141
2926.351117	5613.827667	983.009766	173.434555
2926.351117	5613.827667	981.843750	-30.427416
2926.351117	5613.827667	980.676758	320.177612
2926.351117	5613.827667	979.509766	-132.447830
2926.351117	5613.827667	978.342773	175.284103
2926.351117	5613.827667	977.175781	-31.740911
2926.351117	5613.827667	976.007813	90.281380
2926.351117	5613.827667	974.839844	72.055252
2926.351117	5613.827667	973.671875	80.942978
2926.351117	5613.827667	972.503906	111.563667
2926.351117	5613.827667	971.334961	98.939034
2926.351117	5613.827667	970.166016	117.168243
2926.351117	5613.827667	968.997070	212.144836
2926.351117	5613.827667	967.828125	382.411774
2926.351117	5613.827667	966.658203	386.053925
2926.351117	5613.827667	965.488281	393.067322
2926.351117	5613.827667	964.318359	471.264435
2926.351117	5613.827667	963.148438	452.590607
2926.351117	5613.827667	961.977539	549.956604
2926.351117	5613.827667	960.806641	276.675110
2926.351117	5613.827667	959.635742	511.376099
2926.351117	5613.827667	958.463867	350.313843
2926.351117	5613.827667	957.292969	451.387878
2926.351117	5613.827667	956.121094	394.224976
2926.351117	5613.827667	954.948242	183.197983
2926.351117	5613.827667	953.776367	271.049591
2926.351117	5613.827667	952.603516	178.830978
2926.351117	5613.827667	951.430664	244.050766
2926.351117	5613.827667	950.257813	230.818344
2926.351117	5613.827667	949.084961	245.916946
2926.351117	5613.827667	947.911133	241.576904
2926.351117	5613.827667	946.737305	329.437958
2926.351117	5613.827667	945.563477	406.749176
2926.351117	5613.827667	944.388672	89.922325
2926.351117	5613.827667	943.213867	280.511414
2926.351117	5613.827667	942.039063	189.854324
2926.351117	5613.827667	940.864258	181.550751
2926.351117	5613.827667	939.688477	346.848175
2926.351117	5613.827667	938.513672	288.670593
2926.351117	5613.827667	937.337891	463.799072
2926.351117	5613.827667	936.161133	329.514679
2926.351117	5613.827667	934.985352	243.331619
2926.351117	5613.827667	933.808594	410.838196
2926.351117	5613.827667	932.631836	337.021576
2926.351117	5613.827667	931.454102	338.346558
2926.351117	5613.827667	930.277344	472.948914
2926.351117	5613.827667	929.099609	185.289551
2926.351117	5613.827667	927.921875	382.567688
2926.351117	5613.827667	926.743164	474.169891
2926.351117	5613.827667	925.565430	291.918762
2926.351117	5613.827667	924.386719	398.469177
2926.351117	5613.827667	923.208008	361.799835
2926.351117	5613.827667	922.028320	325.087158
2926.351117	5613.827667	920.849609	150.286896
2926.351117	5613.827667	919.669922	148.579926
2926.351117	5613.827667	919.474609	208.585251
2926.351117	5613.827667	918.309570	78.940773
2926.351117	5613.827667	917.143555	-15.585775
2926.351117	5613.827667	915.977539	27.808762
2926.351117	5613.827667	914.810547	133.818039
2926.351117	5613.827667	913.644531	-53.563622
2926.351117	5613.827667	912.477539	130.019852
2926.351117	5613.827667	911.310547	85.450844
2926.351117	5613.827667	910.143555	35.844532
2926.351117	5613.827667	908.975586	331.874817
2926.351117	5613.827667	907.807617	189.487686
2926.351117	5613.827667	906.639648	97.190842
2926.351117	5613.827667	905.471680	142.569168
2926.351117	5613.827667	904.303711	115.307121
2926.351117	5613.827667	903.134766	133.054977
2926.351117	5613.827667	901.965820	245.821365
2926.351117	5613.827667	900.796875	43.346386
2926.351117	5613.827667	899.626953	218.524353
2926.351117	5613.827667	898.457031	268.581726
2926.351117	5613.827667	897.287109	276.086700
2926.351117	5613.827667	896.117188	183.585068
2926.351117	5613.827667	894.947266	123.568817
2926.351117	5613.827667	893.776367	111.006317
2926.351117	5613.827667	892.605469	475.563568
2926.351117	5613.827667	891.434570	208.157425
2926.351117	5613.827667	890.262695	202.973862
2926.351117	5613.827667	889.091797	215.236938
2926.351117	5613.827667	887.919922	145.105927
2926.351117	5613.827667	886.748047	139.846573
2926.351117	5613.827667	885.575195	-107.419701
2926.351117	5613.827667	884.403320	24.494184
2926.351117	5613.827667	883.230469	64.059807
2926.351117	5613.827667	882.057617	-173.150421
2926.351117	5613.827667	880.883789	48.343212
2926.351117	5613.827667	879.710938	-156.421494
2926.351117	5613.827667	878.537109	-72.108917
2926.351117	5613.827667	877.362305	-62.589520
2926.351117	5613.827667	876.188477	-13.245354
2926.351117	5613.827667	875.013672	-98.409874
2926.351117	5613.827667	873.839844	122.653076
2926.351117	5613.827667	872.664063	-27.265650
2926.351117	5613.827667	871.489258	-197.048416
2926.351117	5613.827667	870.313477	58.661583
2926.351117	5613.827667	869.138672	179.925781
2926.351117	5613.827667	867.962891	-52.032883
2926.351117	5613.827667	866.786133	-67.594749
2926.351117	5613.827667	865.610352	6.328046
2926.351117	5613.827667	864.433594	-68.926453
2926.351117	5613.827667	863.256836	-91.982994
2926.351117	5613.827667	862.079102	-102.627922
2926.351117	5613.827667	860.902344	-21.376839
2926.351117	5613.827667	859.724609	84.656982
2926.351117	5613.827667	858.546875	76.418121
2926.351117	5613.827667	857.368164	318.886749
2926.351117	5613.827667	856.190430	213.781677
2926.351117	5613.827667	855.011719	384.134979
2926.351117	5613.827667	853.833008	432.842438
2926.351117	5613.827667	852.654297	258.284332
2926.351117	5613.827667	851.474609	460.720032
2926.351117	5613.827667	850.294922	382.894867
2926.351117	5613.827667	849.115234	404.243805
2926.351117	5613.827667	847.935547	447.876587
2926.351117	5613.827667	846.754883	318.029999
2926.351117	5613.827667	845.575195	378.982513
2926.351117	5613.827667	844.393555	-20.790649
2926.351117	5613.827667	843.212891	-41.534607
2926.351117	5613.827667	842.032227	-57.329033
2926.351117	5613.827667	840.850586	-23.623743
2926.351117	5613.827667	839.668945	27.381231
2926.351117	5613.827667	838.486328	-35.462212
2926.351117	5613.827667	837.304688	-85.916687
2926.351117	5613.827667	836.122070	-198.191788
2926.351117	5613.827667	834.939453	-3.812758
2926.351117	5613.827667	833.756836	-9.771601
2926.351117	5613.827667	832.573242	-287.624725
2926.351117	5613.827667	831.389648	32.656315
2926.351117	5613.827667	830.206055	-193.223282
2926.351117	5613.827667	829.022461	28.084288
2926.351117	5613.827667	827.838867	-14.960896
2926.351117	5613.827667	826.654297	-309.851868
2926.351117	5613.827667	825.469727	-167.679382
2926.351117	5613.827667	824.284180	83.023430
2926.351117	5613.827667	823.099609	81.919670
2926.351117	5613.827667	821.914063	-62.286469
2926.351117	5613.827667	820.728516	77.220436
2926.351117	5613.827667	819.542969	44.035122
2926.351117	5613.827667	818.356445	166.185913
2926.351117	5613.827667	817.169922	261.162994
2926.351117	5613.827667	815.983398	237.794464
2926.351117	5613.827667	814.796875	64.119331
2926.351117	5613.827667	813.609375	124.544739
2926.351117	5613.827667	812.422852	133.216125
2926.351117	5613.827667	811.235352	149.260330
2926.351117	5613.827667	810.046875	20.027782
2926.351117	5613.827667	808.859375	198.535019
2926.351117	5613.827667	807.670898	386.801331
2926.351117	5613.827667	806.482422	36.130344
2926.351117	5613.827667	805.293945	177.595078
2926.351117	5613.827667	804.104492	124.691383
2926.351117	5613.827667	802.915039	116.061676
2926.351117	5613.827667	801.725586	18.921545
2926.351117	5613.827667	800.536133	-48.692154
2926.351117	5613.827667	799.345703	193.349152
2926.351117	5613.827667	798.155273	96.222023
2926.351117	5613.827667	796.964844	173.531601
2926.351117	5613.827667	795.774414	213.960236
2926.351117	5613.827667	794.583008	151.230118
2926.351117	5613.827667	793.392578	152.346008
2926.351117	5613.827667	792.200195	285.982025
2926.351117	5613.827667	791.008789	250.234818
2926.351117	5613.827667	789.816406	332.249237
2926.351117	5613.827667	788.625000	441.202881
2926.351117	5613.827667	787.432617	586.879272
2926.351117	5613.827667	786.239258	828.102112
2926.351117	5613.827667	785.046875	858.397644
2926.351117	5613.827667	783.853516	952.384277
2926.351117	5613.827667	782.660156	656.714966
2926.351117	5613.827667	781.465820	633.079407
2926.351117	5613.827667	780.272461	751.500977
2926.351117	5613.827667	779.078125	539.264893
2926.351117	5613.827667	777.883789	684.552368
2926.351117	5613.827667	776.688477	744.085327
2926.351117	5613.827667	775.494141	688.556030
2926.351117	5613.827667	774.298828	625.688049
2926.351117	5613.827667	773.103516	743.849182
2926.351117	5613.827667	771.907227	817.915405
2926.351117	5613.827667	770.711914	725.656311
2926.351117	5613.827667	769.515625	755.647705
2926.351117	5613.827667	768.318359	648.723938
2926.351117	5613.827667	767.122070	556.488464
2926.351117	5613.827667	765.924805	713.472229
2926.351117	5613.827667	764.727539	604.111267
2926.351117	5613.827667	763.530273	382.429352
2926.351117	5613.827667	762.333008	194.998032
2926.351117	5613.827667	761.134766	449.470428
2926.351117	5613.827667	759.936523	266.927277
2926.351117	5613.827667	758.738281	489.501587
2926.351117	5613.827667	757.540039	260.616425
2926.351117	5613.827667	756.340820	-7.232429
2926.351117	5613.827667	755.141602	359.047455
2926.351117	5613.827667	753.942383	-145.271240
2926.351117	5613.827667	752.742188	425.579559
2926.351117	5613.827667	751.541992	732.951172
2926.351117	5613.827667	750.341797	733.146484
2926.351117	5613.827667	749.141602	1074.362793
2926.351117	5613.827667	747.941406	1015.963623
2926.351117	5613.827667	746.740234	1074.432739
2926.351117	5613.827667	745.539063	658.095947
2926.351117	5613.827667	744.337891	660.556030
2926.351117	5613.827667	743.135742	526.693054
2926.351117	5613.827667	741.933594	675.080078
2926.351117	5613.827667	740.731445	370.910583
2926.351117	5613.827667	739.529297	519.185547
2926.351117	5613.827667	738.326172	200.496918
2926.351117	5613.827667	737.124023	234.401215
2926.351117	5613.827667	735.919922	154.002945
2926.351117	5613.827667	734.716797	-21.172457
2926.351117	5613.827667	733.513672	202.116226
2926.351117	5613.827667	732.309570	124.064171
2926.351117	5613.827667	731.105469	-39.000431
2926.351117	5613.827667	729.900391	108.729805
2926.351117	5613.827667	728.696289	287.909576
2926.351117	5613.827667	727.491211	156.305923
2926.351117	5613.827667	726.286133	51.396622
2926.351117	5613.827667	725.080078	181.788651
2926.351117	5613.827667	723.874023	-59.020649
2926.351117	5613.827667	722.668945	-18.488863
2926.351117	5613.827667	721.461914	-145.326431
2926.351117	5613.827667	720.255859	-243.075943
2926.351117	5613.827667	719.048828	85.670662
2926.351117	5613.827667	717.841797	28.978281
2926.351117	5613.827667	716.634766	-301.483215
2926.351117	5613.827667	715.427734	-210.460007
2926.351117	5613.827667	714.219727	42.689644
2926.351117	5613.827667	713.011719	10.004442
2926.351117	5613.827667	711.803711	47.458931
2926.351117	5613.827667	710.594727	70.305992
2926.351117	5613.827667	709.385742	-20.634264
2926.351117	5613.827667	708.176758	-138.213470
2926.351117	5613.827667	706.967773	-98.621170
2926.351117	5613.827667	705.758789	-199.350586
2926.351117	5613.827667	704.548828	-116.400078
2926.351117	5613.827667	703.338867	-173.732483
2926.351117	5613.827667	702.127930	75.751381
2926.351117	5613.827667	700.917969	81.062836
2926.351117	5613.827667	699.707031	151.502808
2926.351117	5613.827667	698.496094	475.388000
2926.351117	5613.827667	697.285156	152.029861
2926.351117	5613.827667	696.073242	239.064407
2926.351117	5613.827667	694.861328	784.501892
2926.351117	5613.827667	693.649414	451.382233
2926.351117	5613.827667	692.436523	458.440948
2926.351117	5613.827667	691.224609	730.710876
2926.351117	5613.827667	690.011719	481.946045
2926.351117	5613.827667	688.798828	283.824036
2926.351117	5613.827667	687.584961	546.045837
2926.351117	5613.827667	686.372070	396.011108
2926.351117	5613.827667	685.158203	416.998749
2926.351117	5613.827667	683.943359	300.582794
2926.351117	5613.827667	682.729492	709.118347
2926.351117	5613.827667	681.514648	652.697449
2926.351117	5613.827667	680.299805	788.780457
2926.351117	5613.827667	679.084961	881.391724
2926.351117	5613.827667	677.869141	925.736755
2926.351117	5613.827667	676.653320	917.041626
2926.351117	5613.827667	675.437500	1011.673706
2926.351117	5613.827667	674.221680	1264.874146
2926.351117	5613.827667	673.004883	1010.585571
2926.351117	5613.827667	671.789063	914.950500
2926.351117	5613.827667	670.571289	1047.537109
2926.351117	5613.827667	669.354492	838.798035
2926.351117	5613.827667	668.136719	543.561035
2926.351117	5613.827667	666.919922	560.559326
2926.351117	5613.827667	665.701172	546.216614
2926.351117	5613.827667	664.483398	555.786255
2926.351117	5613.827667	663.264648	502.833801
2926.351117	5613.827667	662.045898	867.324829
2926.351117	5613.827667	660.827148	670.166748
2926.351117	5613.827667	659.608398	691.252441
2926.351117	5613.827667	658.388672	908.852539
2926.351117	5613.827667	657.168945	519.666565
2926.351117	5613.827667	655.949219	585.972046
2926.351117	5613.827667	654.728516	431.645966
2926.351117	5613.827667	653.507813	579.173157
2926.351117	5613.827667	652.287109	525.297241
2926.351117	5613.827667	651.066406	500.070221
2926.351117	5613.827667	649.844727	527.408936
2926.351117	5613.827667	648.623047	504.344452
2926.351117	5613.827667	647.401367	627.177063
2926.351117	5613.827667	646.179688	699.586975
2926.351117	5613.827667	644.957031	690.494446
2926.351117	5613.827667	643.734375	721.949707
2926.351117	5613.827667	642.511719	662.395691
2926.351117	5613.827667	641.289063	774.898376
2926.351117	5613.827667	640.065430	700.765503
2926.351117	5613.827667	638.841797	1035.228394
2926.351117	5613.827667	637.618164	929.767151
2926.351117	5613.827667	636.393555	886.330994
2926.351117	5613.827667	635.168945	744.865417
2926.351117	5613.827667	633.944336	803.923828
2926.351117	5613.827667	632.719727	853.284363
2926.351117	5613.827667	631.494141	795.079529
2926.351117	5613.827667	630.269531	708.148010
2926.351117	5613.827667	629.042969	835.842712
2926.351117	5613.827667	627.817383	789.233276
2926.351117	5613.827667	626.590820	799.746765
2926.351117	5613.827667	625.365234	614.621277
2926.351117	5613.827667	624.137695	396.053223
2926.351117	5613.827667	622.911133	253.732788
2926.351117	5613.827667	621.683594	344.859802
2926.351117	5613.827667	620.456055	266.674133
2926.351117	5613.827667	619.228516	340.837067
2926.351117	5613.827667	618.000977	429.131897
2926.351117	5613.827667	616.772461	498.206940
2926.351117	5613.827667	615.543945	202.931564
2926.351117	5613.827667	614.314453	457.393463
2926.351117	5613.827667	613.085938	423.731293
2926.351117	5613.827667	611.856445	318.583069
2926.351117	5613.827667	610.626953	546.322571
2926.351117	5613.827667	609.397461	388.632721
2926.351117	5613.827667	608.166992	373.514038
2926.351117	5613.827667	606.936523	341.639465
2926.351117	5613.827667	605.706055	207.475266
2926.351117	5613.827667	604.474609	120.748322
2926.351117	5613.827667	603.244141	221.598038
2926.351117	5613.827667	602.012695	317.521637
2926.351117	5613.827667	600.780273	361.035980
2926.351117	5613.827667	599.548828	150.427689
2926.351117	5613.827667	598.316406	110.652458
2926.351117	5613.827667	597.083984	291.443878
2926.351117	5613.827667	595.851563	-158.987411
2926.351117	5613.827667	594.618164	-35.388561
2926.351117	5613.827667	593.384766	-108.774681
2926.351117	5613.827667	592.151367	-146.685944
2926.351117	5613.827667	590.917969	199.284775
2926.351117	5613.827667	589.683594	253.501419
2926.351117	5613.827667	588.449219	155.947418
2926.351117	5613.827667	587.214844	257.295654
2926.351117	5613.827667	585.979492	36.394314
2926.351117	5613.827667	584.745117	-35.343506
2926.351117	5613.827667	583.509766	136.649582
2926.351117	5613.827667	582.273438	192.477036
2926.351117	5613.827667	581.038086	172.465637
2926.351117	5613.827667	579.801758	329.771271
2926.351117	5613.827667	578.565430	89.547325
2926.351117	5613.827667	577.329102	213.486465
2926.351117	5613.827667	576.091797	133.932648
2926.351117	5613.827667	574.854492	297.772003
2926.351117	5613.827667	573.617188	45.517628
2926.351117	5613.827667	572.378906	90.955757
2926.351117	5613.827667	571.141602	171.722321
2926.351117	5613.827667	569.903320	396.406860
2926.351117	5613.827667	568.664063	61.285160
2926.351117	5613.827667	567.425781	229.051270
2926.351117	5613.827667	566.186523	-65.955559
2926.351117	5613.827667	564.947266	-77.767250
2926.351117	5613.827667	563.708008	304.318054
2926.351117	5613.827667	562.467773	329.978912
2926.351117	5613.827667	561.227539	395.631927
2926.351117	5613.827667	559.987305	567.267212
2926.351117	5613.827667	558.747070	392.244873
2926.351117	5613.827667	557.505859	709.740540
2926.351117	5613.827667	556.264648	746.640869
2926.351117	5613.827667	555.023438	814.071838
2926.351117	5613.827667	553.781250	1025.045776
2926.351117	5613.827667	552.539063	993.330566
2926.351117	5613.827667	551.296875	952.140137
2926.351117	5613.827667	550.054688	720.254761
2926.351117	5613.827667	548.811523	737.816711
2926.351117	5613.827667	547.569336	712.973572
2926.351117	5613.827667	546.325195	386.976837
2926.351117	5613.827667	545.082031	561.966980
2926.351117	5613.827667	543.837891	318.311218
2926.351117	5613.827667	542.593750	248.647095
2926.351117	5613.827667	541.349609	242.410446
2926.351117	5613.827667	540.105469	125.693382
2926.351117	5613.827667	538.860352	159.303040
2926.351117	5613.827667	537.615234	150.575470
2926.351117	5613.827667	536.369141	66.651810
2926.351117	5613.827667	535.124023	62.553646
2926.351117	5613.827667	533.877930	-21.399048
2926.351117	5613.827667	532.631836	-199.217682
2926.351117	5613.827667	531.384766	-142.404694
2926.351117	5613.827667	530.138672	-41.069103
2926.351117	5613.827667	528.891602	25.000566
2926.351117	5613.827667	527.643555	-295.855408
2926.351117	5613.827667	526.396484	-46.979267
2926.351117	5613.827667	525.148438	54.106987
2926.351117	5613.827667	523.900391	-18.257238
2926.351117	5613.827667	522.652344	35.887569
2926.351117	5613.827667	521.403320	-137.202255
2926.351117	5613.827667	520.154297	15.243401
2926.351117	5613.827667	518.905273	179.316879
2926.351117	5613.827667	517.656250	-87.349434
2926.351117	5613.827667	516.406250	20.483208
2926.351117	5613.827667	515.156250	233.543930
2926.351117	5613.827667	513.906250	266.405518
2926.351117	5613.827667	512.655273	479.304840
2926.351117	5613.827667	511.404297	790.313721
2926.351117	5613.827667	510.153320	921.204102
2926.351117	5613.827667	508.902344	972.587891
2926.351117	5613.827667	507.650391	1255.259521
2926.351117	5613.827667	506.398438	1131.356201
2926.351117	5613.827667	505.146484	1241.072632
2926.351117	5613.827667	503.893555	1208.307861
2926.351117	5613.827667	502.641602	1222.283691
2926.351117	5613.827667	501.388672	1455.657104
2926.351117	5613.827667	500.134766	1856.951904
2926.351117	5613.827667	498.881836	1730.857544
2926.351117	5613.827667	497.627930	1894.060181
2926.351117	5613.827667	496.374023	1987.265015
2926.351117	5613.827667	495.119141	1924.238159
2926.351117	5613.827667	493.865234	1765.717529
2926.351117	5613.827667	492.610352	1807.711670
2926.351117	5613.827667	491.355469	1386.058350
2926.351117	5613.827667	490.099609	1488.750000
2926.351117	5613.827667	488.843750	1374.843018
2926.351117	5613.827667	487.587891	1205.149902
2926.351117	5613.827667	486.332031	1207.848022
2926.351117	5613.827667	485.075195	1380.484863
2926.351117	5613.827667	483.818359	1236.629883
2926.351117	5613.827667	482.561523	1044.033691
2926.351117	5613.827667	481.304688	926.006287
2926.351117	5613.827667	480.046875	1170.845093
2926.351117	5613.827667	478.789063	1455.161865
2926.351117	5613.827667	477.531250	1253.597778
2926.351117	5613.827667	476.272461	1259.000610
2926.351117	5613.827667	475.013672	1392.253296
2926.351117	5613.827667	473.754883	1423.300293
2926.351117	5613.827667	472.496094	1108.347656
2926.351117	5613.827667	471.236328	1116.336792
2926.351117	5613.827667	469.976563	834.201843
2926.351117	5613.827667	468.716797	591.710999
2926.351117	5613.827667	467.456055	474.682465
2926.351117	5613.827667	466.196289	506.262360
2926.351117	5613.827667	464.935547	496.131409
2926.351117	5613.827667	463.673828	356.195190
2926.351117	5613.827667	462.413086	459.839203
2926.351117	5613.827667	461.151367	452.228516
2926.351117	5613.827667	459.889648	407.609314
2926.351117	5613.827667	458.626953	235.627380
2926.351117	5613.827667	457.364258	619.736450
2926.351117	5613.827667	456.101563	505.812592
2926.351117	5613.827667	454.838867	574.923218
2926.351117	5613.827667	453.575195	634.793762
2926.351117	5613.827667	452.312500	592.875916
2926.351117	5613.827667	451.047852	386.718292
2926.351117	5613.827667	449.784180	412.066833
2926.351117	5613.827667	448.519531	502.211060
2926.351117	5613.827667	447.254883	398.123199
2926.351117	5613.827667	445.990234	490.648590
2926.351117	5613.827667	444.725586	358.972168
2926.351117	5613.827667	443.459961	476.969513
2926.351117	5613.827667	442.194336	412.433105
2926.351117	5613.827667	440.927734	26.868011
2926.351117	5613.827667	439.662109	470.614471
2926.351117	5613.827667	438.395508	223.811356
2926.351117	5613.827667	437.127930	267.995789
2926.351117	5613.827667	435.861328	212.958130
2926.351117	5613.827667	434.593750	261.786896
2926.351117	5613.827667	433.326172	-33.127918
2926.351117	5613.827667	432.058594	-187.209396
2926.351117	5613.827667	430.790039	-147.531616
2926.351117	5613.827667	429.521484	48.898994
2926.351117	5613.827667	428.252930	-45.186333
2926.351117	5613.827667	426.984375	-113.896515
2926.351117	5613.827667	425.714844	252.840546
2926.351117	5613.827667	424.445313	-113.109886
2926.351117	5613.827667	423.174805	11.581387
2926.351117	5613.827667	421.905273	60.208996
2926.351117	5613.827667	420.634766	46.598087
2926.351117	5613.827667	419.364258	120.390877
2926.351117	5613.827667	418.092773	14.594573
2926.351117	5613.827667	416.822266	67.512360
2926.351117	5613.827667	415.550781	5.308285
2926.351117	5613.827667	414.278320	-121.363884
2926.351117	5613.827667	413.006836	122.058876
2926.351117	5613.827667	411.734375	59.546551
2926.351117	5613.827667	410.461914	-9.962379
2926.351117	5613.827667	409.188477	-210.554092
2926.351117	5613.827667	407.916016	2.256199
2926.351117	5613.827667	406.642578	-28.633488
2926.351117	5613.827667	405.368164	-39.042519
2926.351117	5613.827667	404.094727	191.397919
2926.351117	5613.827667	402.820313	113.986862
2926.351117	5613.827667	401.545898	45.563427
2926.351117	5613.827667	400.270508	68.673592
2926.351117	5613.827667	398.996094	75.475357
2926.351117	5613.827667	397.720703	56.766182
2926.351117	5613.827667	396.444336	26.293976
2926.351117	5613.827667	395.168945	-18.207594
2926.351117	5613.827667	393.892578	-246.353317
2926.351117	5613.827667	392.616211	155.278137
2926.351117	5613.827667	391.339844	4.359661
2926.351117	5613.827667	390.062500	288.204956
2926.351117	5613.827667	388.785156	106.746880
2926.351117	5613.827667	387.507813	135.528412
2926.351117	5613.827667	386.229492	28.806557
2926.351117	5613.827667	384.951172	102.407532
2926.351117	5613.827667	383.672852	15.352693
2926.351117	5613.827667	382.394531	55.883381
2926.351117	5613.827667	381.115234	22.660364
2926.351117	5613.827667	379.835938	119.180229
2926.351117	5613.827667	378.556641	217.340240
2926.351117	5613.827667	377.277344	269.126770
2926.351117	5613.827667	375.997070	299.650604
2926.351117	5613.827667	374.716797	203.848343
2926.351117	5613.827667	373.435547	157.585861
2926.351117	5613.827667	372.155273	473.620636
2926.351117	5613.827667	370.874023	272.854523
2926.351117	5613.827667	369.591797	201.415421
2926.351117	5613.827667	368.310547	505.635864
2926.351117	5613.827667	367.028320	240.833191
2926.351117	5613.827667	365.746094	271.695496
2926.351117	5613.827667	364.463867	246.866318
2926.351117	5613.827667	363.180664	4.468470
2926.351117	5613.827667	361.897461	118.952766
2926.351117	5613.827667	360.614258	75.092567
2926.351117	5613.827667	359.330078	216.907501
2926.351117	5613.827667	358.045898	-186.837997
2926.351117	5613.827667	356.761719	148.440689
2926.351117	5613.827667	355.477539	-86.817429
2926.351117	5613.827667	354.192383	47.705868
2926.351117	5613.827667	352.907227	-89.964226
2926.351117	5613.827667	351.622070	-71.980003
2926.351117	5613.827667	350.336914	-301.094543
2926.351117	5613.827667	349.050781	-92.727097
2926.351117	5613.827667	347.764648	-249.769241
2926.351117	5613.827667	346.477539	-262.891205
2926.351117	5613.827667	345.191406	-70.804573
2926.351117	5613.827667	343.904297	171.713654
2926.351117	5613.827667	342.616211	110.199722
2926.351117	5613.827667	341.329102	81.008247
2926.351117	5613.827667	340.041016	363.254578
2926.351117	5613.827667	338.752930	180.331512
2926.351117	5613.827667	337.463867	-13.639674
2926.351117	5613.827667	336.175781	-25.739964
2926.351117	5613.827667	334.886719	5.357028
2926.351117	5613.827667	333.596680	-58.805748
2926.351117	5613.827667	332.307617	192.322754
2926.351117	5613.827667	331.017578	-132.648636
2926.351117	5613.827667	329.727539	-63.217503
2926.351117	5613.827667	328.436523	85.222542
2926.351117	5613.827667	327.146484	142.738205
2926.351117	5613.827667	325.855469	428.579407
2926.351117	5613.827667	324.563477	235.929138
2926.351117	5613.827667	323.272461	251.204544
2926.351117	5613.827667	321.980469	408.403900
2926.351117	5613.827667	320.688477	227.616943
2926.351117	5613.827667	319.395508	118.454521
2926.351117	5613.827667	318.103516	144.273804
2926.351117	5613.827667	316.810547	451.758850
2926.351117	5613.827667	315.516602	138.387238
2926.351117	5613.827667	314.223633	400.573761
2926.351117	5613.827667	312.929688	277.067719
2926.351117	5613.827667	311.635742	109.334831
2926.351117	5613.827667	310.340820	285.798157
2926.351117	5613.827667	309.045898	-2.415374
2926.351117	5613.827667	307.750977	53.356529
2926.351117	5613.827667	306.456055	272.156952
2926.351117	5613.827667	305.160156	-149.925842
2926.351117	5613.827667	303.865234	44.658619
2926.351117	5613.827667	302.568359	67.616241
2926.351117	5613.827667	301.272461	18.530590
2926.351117	5613.827667	299.975586	-3.665869
2926.351117	5613.827667	298.678711	-197.419983
