#X		#Y		#Wave		#Intensity
13279.715745	3907.903167	1999.980469	65.116364
13279.715745	3907.903167	1999.016602	-53.248081
13279.715745	3907.903167	1998.052734	-56.632675
13279.715745	3907.903167	1997.087891	-70.239349
13279.715745	3907.903167	1996.123047	29.824930
13279.715745	3907.903167	1995.158203	32.944313
13279.715745	3907.903167	1994.193359	15.961262
13279.715745	3907.903167	1993.228516	50.707302
13279.715745	3907.903167	1992.262695	82.699310
13279.715745	3907.903167	1991.297852	47.579708
13279.715745	3907.903167	1990.332031	-7.575683
13279.715745	3907.903167	1989.366211	159.746078
13279.715745	3907.903167	1988.399414	-96.280655
13279.715745	3907.903167	1987.433594	-152.086365
13279.715745	3907.903167	1986.466797	-57.232155
13279.715745	3907.903167	1985.500977	59.626472
13279.715745	3907.903167	1984.534180	-26.478571
13279.715745	3907.903167	1983.567383	-60.843014
13279.715745	3907.903167	1982.599609	72.660309
13279.715745	3907.903167	1981.632813	141.688889
13279.715745	3907.903167	1980.665039	124.055122
13279.715745	3907.903167	1979.697266	-69.101967
13279.715745	3907.903167	1978.729492	-129.002716
13279.715745	3907.903167	1977.761719	1.071333
13279.715745	3907.903167	1976.792969	118.604332
13279.715745	3907.903167	1975.825195	60.718704
13279.715745	3907.903167	1974.856445	-95.985931
13279.715745	3907.903167	1973.887695	55.624619
13279.715745	3907.903167	1972.918945	68.918983
13279.715745	3907.903167	1971.949219	47.560581
13279.715745	3907.903167	1970.980469	149.381943
13279.715745	3907.903167	1970.010742	-2.869403
13279.715745	3907.903167	1969.041016	-22.069056
13279.715745	3907.903167	1968.071289	-1.931112
13279.715745	3907.903167	1967.101563	148.691040
13279.715745	3907.903167	1966.130859	94.699638
13279.715745	3907.903167	1965.161133	131.774338
13279.715745	3907.903167	1964.190430	87.489822
13279.715745	3907.903167	1963.219727	104.696861
13279.715745	3907.903167	1962.249023	139.056580
13279.715745	3907.903167	1961.277344	197.945816
13279.715745	3907.903167	1960.306641	104.186966
13279.715745	3907.903167	1959.334961	209.681488
13279.715745	3907.903167	1958.363281	-12.071116
13279.715745	3907.903167	1957.391602	53.948078
13279.715745	3907.903167	1956.419922	-111.240646
13279.715745	3907.903167	1955.447266	-5.988008
13279.715745	3907.903167	1954.474609	-8.967099
13279.715745	3907.903167	1953.501953	-105.368896
13279.715745	3907.903167	1952.529297	176.615997
13279.715745	3907.903167	1951.556641	6.450712
13279.715745	3907.903167	1950.583984	-94.908119
13279.715745	3907.903167	1949.610352	-48.917004
13279.715745	3907.903167	1948.636719	92.787193
13279.715745	3907.903167	1947.663086	96.951363
13279.715745	3907.903167	1946.689453	7.832553
13279.715745	3907.903167	1945.715820	7.070528
13279.715745	3907.903167	1944.741211	-23.147257
13279.715745	3907.903167	1943.767578	115.890190
13279.715745	3907.903167	1942.792969	88.096634
13279.715745	3907.903167	1941.818359	-15.704863
13279.715745	3907.903167	1940.842773	-99.861397
13279.715745	3907.903167	1939.868164	-14.859539
13279.715745	3907.903167	1938.892578	116.670639
13279.715745	3907.903167	1937.916992	162.396622
13279.715745	3907.903167	1936.941406	51.326023
13279.715745	3907.903167	1935.965820	126.447868
13279.715745	3907.903167	1934.990234	-9.050683
13279.715745	3907.903167	1934.013672	19.548168
13279.715745	3907.903167	1933.037109	1.636583
13279.715745	3907.903167	1932.060547	59.613907
13279.715745	3907.903167	1931.083984	198.333511
13279.715745	3907.903167	1930.107422	-34.859619
13279.715745	3907.903167	1929.129883	89.176361
13279.715745	3907.903167	1928.153320	12.642228
13279.715745	3907.903167	1927.175781	53.521027
13279.715745	3907.903167	1926.198242	-152.514908
13279.715745	3907.903167	1925.219727	-94.475311
13279.715745	3907.903167	1924.242188	-4.665660
13279.715745	3907.903167	1923.263672	-95.679192
13279.715745	3907.903167	1922.285156	8.795271
13279.715745	3907.903167	1921.306641	69.288658
13279.715745	3907.903167	1920.328125	39.429012
13279.715745	3907.903167	1919.349609	-51.434483
13279.715745	3907.903167	1918.370117	-137.359177
13279.715745	3907.903167	1917.391602	57.445374
13279.715745	3907.903167	1916.412109	-104.063828
13279.715745	3907.903167	1915.431641	-172.779938
13279.715745	3907.903167	1914.452148	-7.275125
13279.715745	3907.903167	1913.472656	-14.960948
13279.715745	3907.903167	1912.492188	-125.030174
13279.715745	3907.903167	1911.511719	6.319194
13279.715745	3907.903167	1910.531250	47.460285
13279.715745	3907.903167	1909.550781	30.124571
13279.715745	3907.903167	1908.569336	-111.442314
13279.715745	3907.903167	1907.588867	-48.299080
13279.715745	3907.903167	1906.607422	102.527420
13279.715745	3907.903167	1905.625977	-55.941998
13279.715745	3907.903167	1904.644531	-2.506841
13279.715745	3907.903167	1903.662109	209.159012
13279.715745	3907.903167	1902.680664	7.027126
13279.715745	3907.903167	1901.698242	14.261647
13279.715745	3907.903167	1900.715820	11.786369
13279.715745	3907.903167	1899.733398	45.823566
13279.715745	3907.903167	1898.750000	-194.943283
13279.715745	3907.903167	1897.767578	-17.373110
13279.715745	3907.903167	1896.784180	58.047405
13279.715745	3907.903167	1895.800781	97.003479
13279.715745	3907.903167	1894.817383	55.771412
13279.715745	3907.903167	1893.833984	36.443893
13279.715745	3907.903167	1892.850586	-60.591503
13279.715745	3907.903167	1891.866211	29.445313
13279.715745	3907.903167	1890.881836	61.188507
13279.715745	3907.903167	1889.897461	233.755554
13279.715745	3907.903167	1888.913086	-86.491974
13279.715745	3907.903167	1887.927734	-81.388756
13279.715745	3907.903167	1886.943359	-139.358978
13279.715745	3907.903167	1885.958008	42.888641
13279.715745	3907.903167	1884.972656	6.777089
13279.715745	3907.903167	1883.987305	77.400719
13279.715745	3907.903167	1883.001953	-31.416620
13279.715745	3907.903167	1882.015625	116.788666
13279.715745	3907.903167	1881.029297	-40.448299
13279.715745	3907.903167	1880.042969	-13.441438
13279.715745	3907.903167	1879.056641	-56.698532
13279.715745	3907.903167	1878.070313	-129.000336
13279.715745	3907.903167	1877.083984	4.601877
13279.715745	3907.903167	1876.096680	-79.777954
13279.715745	3907.903167	1875.109375	-93.909088
13279.715745	3907.903167	1874.122070	92.881760
13279.715745	3907.903167	1873.134766	30.328892
13279.715745	3907.903167	1872.146484	-53.976257
13279.715745	3907.903167	1871.159180	161.741684
13279.715745	3907.903167	1870.170898	169.360458
13279.715745	3907.903167	1869.182617	19.782570
13279.715745	3907.903167	1868.194336	-71.710861
13279.715745	3907.903167	1867.205078	59.231781
13279.715745	3907.903167	1866.216797	81.357002
13279.715745	3907.903167	1865.227539	-77.771965
13279.715745	3907.903167	1864.238281	-82.218491
13279.715745	3907.903167	1863.249023	5.123694
13279.715745	3907.903167	1862.259766	-137.017578
13279.715745	3907.903167	1861.269531	-27.984142
13279.715745	3907.903167	1860.279297	155.839340
13279.715745	3907.903167	1859.290039	8.889542
13279.715745	3907.903167	1858.298828	117.796539
13279.715745	3907.903167	1857.308594	-65.313354
13279.715745	3907.903167	1856.318359	-38.486118
13279.715745	3907.903167	1855.327148	190.921646
13279.715745	3907.903167	1854.335938	68.138130
13279.715745	3907.903167	1853.344727	-69.084976
13279.715745	3907.903167	1852.353516	155.319489
13279.715745	3907.903167	1851.362305	107.266319
13279.715745	3907.903167	1850.370117	-70.919540
13279.715745	3907.903167	1849.377930	-82.821381
13279.715745	3907.903167	1848.385742	4.018086
13279.715745	3907.903167	1847.393555	-53.705101
13279.715745	3907.903167	1846.401367	143.805695
13279.715745	3907.903167	1845.408203	57.129677
13279.715745	3907.903167	1844.415039	100.435150
13279.715745	3907.903167	1843.421875	114.813675
13279.715745	3907.903167	1842.428711	52.158070
13279.715745	3907.903167	1841.435547	109.774757
13279.715745	3907.903167	1840.441406	20.615339
13279.715745	3907.903167	1839.448242	-70.951172
13279.715745	3907.903167	1838.454102	125.995239
13279.715745	3907.903167	1837.459961	226.673920
13279.715745	3907.903167	1836.464844	72.511902
13279.715745	3907.903167	1835.470703	14.485944
13279.715745	3907.903167	1834.475586	-38.757656
13279.715745	3907.903167	1833.480469	210.632431
13279.715745	3907.903167	1832.485352	3.580832
13279.715745	3907.903167	1831.490234	163.935486
13279.715745	3907.903167	1830.495117	158.534607
13279.715745	3907.903167	1829.499023	105.080368
13279.715745	3907.903167	1828.502930	137.988815
13279.715745	3907.903167	1827.506836	134.843292
13279.715745	3907.903167	1826.510742	66.877037
13279.715745	3907.903167	1825.513672	61.240318
13279.715745	3907.903167	1824.517578	67.542786
13279.715745	3907.903167	1823.520508	47.412716
13279.715745	3907.903167	1822.523438	103.939331
13279.715745	3907.903167	1821.526367	217.905243
13279.715745	3907.903167	1820.529297	53.814262
13279.715745	3907.903167	1819.531250	2.320774
13279.715745	3907.903167	1818.533203	113.663681
13279.715745	3907.903167	1817.535156	90.792130
13279.715745	3907.903167	1816.537109	31.950708
13279.715745	3907.903167	1815.539063	59.247768
13279.715745	3907.903167	1814.540039	84.072792
13279.715745	3907.903167	1813.541992	27.462114
13279.715745	3907.903167	1812.542969	102.393410
13279.715745	3907.903167	1811.543945	189.187622
13279.715745	3907.903167	1810.543945	103.677872
13279.715745	3907.903167	1809.544922	-132.512527
13279.715745	3907.903167	1808.544922	78.380760
13279.715745	3907.903167	1807.544922	162.436295
13279.715745	3907.903167	1806.544922	45.639496
13279.715745	3907.903167	1805.544922	139.078842
13279.715745	3907.903167	1804.544922	160.739288
13279.715745	3907.903167	1803.543945	-27.875074
13279.715745	3907.903167	1802.542969	27.083805
13279.715745	3907.903167	1801.541992	19.867041
13279.715745	3907.903167	1800.541016	12.573421
13279.715745	3907.903167	1799.539063	-178.574951
13279.715745	3907.903167	1798.538086	2.523086
13279.715745	3907.903167	1797.536133	97.579094
13279.715745	3907.903167	1796.534180	70.865494
13279.715745	3907.903167	1795.532227	189.555374
13279.715745	3907.903167	1794.529297	-44.781849
13279.715745	3907.903167	1793.527344	52.260544
13279.715745	3907.903167	1792.524414	44.302101
13279.715745	3907.903167	1791.521484	-59.063007
13279.715745	3907.903167	1790.518555	-83.849617
13279.715745	3907.903167	1789.514648	93.764809
13279.715745	3907.903167	1788.511719	178.341187
13279.715745	3907.903167	1787.507813	212.784927
13279.715745	3907.903167	1786.503906	111.419212
13279.715745	3907.903167	1785.500000	29.044737
13279.715745	3907.903167	1784.496094	189.360611
13279.715745	3907.903167	1783.491211	175.818848
13279.715745	3907.903167	1782.486328	-11.478163
13279.715745	3907.903167	1781.481445	-6.134473
13279.715745	3907.903167	1780.476563	146.556442
13279.715745	3907.903167	1779.471680	-119.371719
13279.715745	3907.903167	1778.465820	-12.078673
13279.715745	3907.903167	1777.460938	-2.362722
13279.715745	3907.903167	1776.455078	-68.793823
13279.715745	3907.903167	1775.449219	61.899616
13279.715745	3907.903167	1774.442383	71.295883
13279.715745	3907.903167	1773.436523	-40.525600
13279.715745	3907.903167	1772.429688	139.655090
13279.715745	3907.903167	1771.422852	-0.827041
13279.715745	3907.903167	1770.416016	43.785969
13279.715745	3907.903167	1769.409180	-25.627789
13279.715745	3907.903167	1768.402344	161.136459
13279.715745	3907.903167	1767.394531	22.726795
13279.715745	3907.903167	1766.386719	149.909424
13279.715745	3907.903167	1765.378906	80.122581
13279.715745	3907.903167	1764.371094	-84.573425
13279.715745	3907.903167	1763.362305	122.843185
13279.715745	3907.903167	1762.354492	17.249014
13279.715745	3907.903167	1761.345703	160.387482
13279.715745	3907.903167	1760.336914	-104.112679
13279.715745	3907.903167	1759.328125	-127.013840
13279.715745	3907.903167	1758.318359	25.230291
13279.715745	3907.903167	1757.308594	35.249744
13279.715745	3907.903167	1756.299805	-120.539406
13279.715745	3907.903167	1755.290039	-53.897224
13279.715745	3907.903167	1754.279297	-72.580406
13279.715745	3907.903167	1753.269531	78.994614
13279.715745	3907.903167	1752.258789	-126.785789
13279.715745	3907.903167	1751.249023	33.995872
13279.715745	3907.903167	1750.238281	19.626513
13279.715745	3907.903167	1749.226563	47.705475
13279.715745	3907.903167	1748.215820	-120.506371
13279.715745	3907.903167	1747.204102	-92.618126
13279.715745	3907.903167	1746.193359	-60.110210
13279.715745	3907.903167	1745.181641	10.071003
13279.715745	3907.903167	1744.168945	-71.046341
13279.715745	3907.903167	1743.157227	74.469101
13279.715745	3907.903167	1742.144531	-56.416965
13279.715745	3907.903167	1741.132813	-10.307936
13279.715745	3907.903167	1740.120117	2.630682
13279.715745	3907.903167	1739.106445	-36.459606
13279.715745	3907.903167	1738.093750	-68.551193
13279.715745	3907.903167	1737.080078	50.216251
13279.715745	3907.903167	1736.067383	-137.730820
13279.715745	3907.903167	1735.053711	6.735661
13279.715745	3907.903167	1734.040039	160.474365
13279.715745	3907.903167	1733.025391	14.713724
13279.715745	3907.903167	1732.011719	15.017717
13279.715745	3907.903167	1730.997070	142.435593
13279.715745	3907.903167	1729.982422	-20.031441
13279.715745	3907.903167	1728.967773	88.301559
13279.715745	3907.903167	1727.952148	139.970718
13279.715745	3907.903167	1726.937500	130.319839
13279.715745	3907.903167	1725.921875	-74.800423
13279.715745	3907.903167	1724.906250	-82.263313
13279.715745	3907.903167	1723.890625	-45.117710
13279.715745	3907.903167	1722.875000	-52.780651
13279.715745	3907.903167	1721.858398	125.255226
13279.715745	3907.903167	1720.841797	157.330978
13279.715745	3907.903167	1719.825195	99.955887
13279.715745	3907.903167	1718.808594	204.698334
13279.715745	3907.903167	1717.791992	-17.369860
13279.715745	3907.903167	1716.774414	-35.034687
13279.715745	3907.903167	1715.756836	151.598175
13279.715745	3907.903167	1714.739258	32.717278
13279.715745	3907.903167	1713.721680	-182.496124
13279.715745	3907.903167	1712.704102	-40.837349
13279.715745	3907.903167	1711.685547	-54.271435
13279.715745	3907.903167	1710.667969	-126.457344
13279.715745	3907.903167	1709.649414	42.977379
13279.715745	3907.903167	1708.630859	59.756851
13279.715745	3907.903167	1707.611328	-29.128679
13279.715745	3907.903167	1706.592773	-143.856491
13279.715745	3907.903167	1705.573242	36.798756
13279.715745	3907.903167	1704.553711	76.635818
13279.715745	3907.903167	1703.534180	1.519172
13279.715745	3907.903167	1702.513672	80.996338
13279.715745	3907.903167	1701.494141	-34.098831
13279.715745	3907.903167	1700.473633	-15.725798
13279.715745	3907.903167	1699.453125	-95.812408
13279.715745	3907.903167	1698.432617	-2.674299
13279.715745	3907.903167	1697.412109	43.520393
13279.715745	3907.903167	1696.390625	73.215279
13279.715745	3907.903167	1695.369141	86.433556
13279.715745	3907.903167	1694.347656	-3.387921
13279.715745	3907.903167	1693.326172	168.753174
13279.715745	3907.903167	1692.304688	-7.752195
13279.715745	3907.903167	1691.282227	9.810308
13279.715745	3907.903167	1690.260742	81.074158
13279.715745	3907.903167	1689.238281	63.391384
13279.715745	3907.903167	1688.214844	-197.436539
13279.715745	3907.903167	1687.192383	-84.359665
13279.715745	3907.903167	1686.168945	-165.322235
13279.715745	3907.903167	1685.146484	-45.438084
13279.715745	3907.903167	1684.123047	121.018715
13279.715745	3907.903167	1683.099609	-25.535572
13279.715745	3907.903167	1682.075195	54.319893
13279.715745	3907.903167	1681.051758	43.062180
13279.715745	3907.903167	1680.027344	71.394272
13279.715745	3907.903167	1679.002930	106.645340
13279.715745	3907.903167	1677.978516	97.494102
13279.715745	3907.903167	1676.953125	214.202484
13279.715745	3907.903167	1675.928711	13.697396
13279.715745	3907.903167	1674.903320	34.661766
13279.715745	3907.903167	1673.877930	116.155563
13279.715745	3907.903167	1672.852539	78.704247
13279.715745	3907.903167	1671.826172	208.945953
13279.715745	3907.903167	1670.800781	-112.830933
13279.715745	3907.903167	1669.774414	140.714188
13279.715745	3907.903167	1668.748047	140.285645
13279.715745	3907.903167	1667.721680	193.345978
13279.715745	3907.903167	1666.694336	174.155151
13279.715745	3907.903167	1665.667969	322.491364
13279.715745	3907.903167	1664.640625	217.079544
13279.715745	3907.903167	1663.613281	348.941193
13279.715745	3907.903167	1662.585938	424.878235
13279.715745	3907.903167	1661.557617	437.930725
13279.715745	3907.903167	1660.530273	569.518005
13279.715745	3907.903167	1659.501953	675.418213
13279.715745	3907.903167	1658.473633	469.800659
13279.715745	3907.903167	1657.444336	598.804871
13279.715745	3907.903167	1656.416016	525.609314
13279.715745	3907.903167	1655.386719	505.805389
13279.715745	3907.903167	1654.358398	711.242554
13279.715745	3907.903167	1653.328125	881.699219
13279.715745	3907.903167	1652.298828	931.349548
13279.715745	3907.903167	1651.269531	746.524475
13279.715745	3907.903167	1650.239258	1060.624023
13279.715745	3907.903167	1649.208984	996.395081
13279.715745	3907.903167	1648.178711	1055.092651
13279.715745	3907.903167	1647.148438	1146.199463
13279.715745	3907.903167	1646.117188	1163.021729
13279.715745	3907.903167	1645.086914	1233.139160
13279.715745	3907.903167	1644.055664	1400.530151
13279.715745	3907.903167	1643.024414	1266.567627
13279.715745	3907.903167	1641.992188	1609.894653
13279.715745	3907.903167	1640.960938	1568.543213
13279.715745	3907.903167	1639.928711	1554.956543
13279.715745	3907.903167	1638.896484	1664.073975
13279.715745	3907.903167	1637.864258	1694.409546
13279.715745	3907.903167	1636.832031	1750.170654
13279.715745	3907.903167	1635.798828	2016.465942
13279.715745	3907.903167	1634.766602	1824.525879
13279.715745	3907.903167	1633.733398	1917.162598
13279.715745	3907.903167	1632.699219	1944.968140
13279.715745	3907.903167	1631.666016	1834.015869
13279.715745	3907.903167	1630.632813	2097.629395
13279.715745	3907.903167	1629.598633	2231.663574
13279.715745	3907.903167	1628.564453	2069.815674
13279.715745	3907.903167	1627.530273	2386.315918
13279.715745	3907.903167	1626.495117	2173.637207
13279.715745	3907.903167	1625.460938	2332.911133
13279.715745	3907.903167	1624.425781	2305.047852
13279.715745	3907.903167	1623.390625	2351.070557
13279.715745	3907.903167	1622.355469	2650.990723
13279.715745	3907.903167	1621.319336	2565.348389
13279.715745	3907.903167	1620.284180	2625.122559
13279.715745	3907.903167	1619.248047	2617.952148
13279.715745	3907.903167	1618.211914	2744.564209
13279.715745	3907.903167	1617.174805	2898.785889
13279.715745	3907.903167	1616.138672	2755.529785
13279.715745	3907.903167	1615.101563	2939.661377
13279.715745	3907.903167	1614.065430	3015.414307
13279.715745	3907.903167	1613.027344	2805.374268
13279.715745	3907.903167	1611.990234	2696.808594
13279.715745	3907.903167	1610.953125	2809.424805
13279.715745	3907.903167	1609.915039	2730.840576
13279.715745	3907.903167	1608.876953	2857.224121
13279.715745	3907.903167	1607.838867	2817.819580
13279.715745	3907.903167	1606.800781	2824.476318
13279.715745	3907.903167	1605.761719	2817.320557
13279.715745	3907.903167	1604.723633	2754.982178
13279.715745	3907.903167	1603.684570	2754.776367
13279.715745	3907.903167	1602.644531	2901.763916
13279.715745	3907.903167	1601.605469	2747.507080
13279.715745	3907.903167	1600.566406	2928.978027
13279.715745	3907.903167	1599.526367	2774.803711
13279.715745	3907.903167	1598.486328	2839.026855
13279.715745	3907.903167	1597.446289	2558.608643
13279.715745	3907.903167	1596.405273	2602.210205
13279.715745	3907.903167	1595.365234	2854.837402
13279.715745	3907.903167	1594.324219	2958.122314
13279.715745	3907.903167	1593.283203	2815.742920
13279.715745	3907.903167	1592.242188	2774.447021
13279.715745	3907.903167	1591.200195	2930.546631
13279.715745	3907.903167	1590.159180	2866.364258
13279.715745	3907.903167	1589.117188	2712.760498
13279.715745	3907.903167	1588.075195	2802.370361
13279.715745	3907.903167	1587.032227	2807.122070
13279.715745	3907.903167	1585.990234	3015.973633
13279.715745	3907.903167	1584.947266	3018.467285
13279.715745	3907.903167	1583.904297	3149.339844
13279.715745	3907.903167	1582.861328	3323.739990
13279.715745	3907.903167	1581.818359	3053.682373
13279.715745	3907.903167	1580.775391	2939.523682
13279.715745	3907.903167	1579.731445	3184.969482
13279.715745	3907.903167	1578.687500	2981.616699
13279.715745	3907.903167	1577.643555	2842.485840
13279.715745	3907.903167	1576.598633	2920.865723
13279.715745	3907.903167	1575.554688	3067.925537
13279.715745	3907.903167	1574.509766	2800.883301
13279.715745	3907.903167	1573.464844	2813.048340
13279.715745	3907.903167	1572.419922	2893.868896
13279.715745	3907.903167	1571.374023	2565.432617
13279.715745	3907.903167	1570.329102	2801.825928
13279.715745	3907.903167	1569.283203	2704.487305
13279.715745	3907.903167	1568.237305	2479.281494
13279.715745	3907.903167	1567.191406	2658.599609
13279.715745	3907.903167	1566.144531	2298.833984
13279.715745	3907.903167	1565.098633	2571.872559
13279.715745	3907.903167	1564.051758	2470.399414
13279.715745	3907.903167	1563.004883	2225.213379
13279.715745	3907.903167	1561.957031	2413.825195
13279.715745	3907.903167	1560.910156	2524.857910
13279.715745	3907.903167	1559.862305	2332.465576
13279.715745	3907.903167	1558.814453	2267.956543
13279.715745	3907.903167	1557.766602	2219.506592
13279.715745	3907.903167	1556.718750	2342.155762
13279.715745	3907.903167	1555.669922	2305.238770
13279.715745	3907.903167	1554.621094	2195.475098
13279.715745	3907.903167	1553.573242	2311.441162
13279.715745	3907.903167	1552.523438	2279.319824
13279.715745	3907.903167	1551.474609	2076.459473
13279.715745	3907.903167	1550.424805	2208.526855
13279.715745	3907.903167	1549.375000	2005.903931
13279.715745	3907.903167	1548.325195	2081.178711
13279.715745	3907.903167	1547.275391	2233.892090
13279.715745	3907.903167	1546.225586	1849.575439
13279.715745	3907.903167	1545.174805	2077.508545
13279.715745	3907.903167	1544.124023	1909.629272
13279.715745	3907.903167	1543.073242	2119.434814
13279.715745	3907.903167	1542.022461	2215.551270
13279.715745	3907.903167	1540.970703	1968.421631
13279.715745	3907.903167	1539.919922	1791.950439
13279.715745	3907.903167	1538.868164	1981.499756
13279.715745	3907.903167	1537.815430	1823.427246
13279.715745	3907.903167	1536.763672	1940.384033
13279.715745	3907.903167	1535.710938	1884.767822
13279.715745	3907.903167	1534.659180	1549.979248
13279.715745	3907.903167	1533.606445	1467.404785
13279.715745	3907.903167	1532.552734	1548.373413
13279.715745	3907.903167	1531.500000	1606.723145
13279.715745	3907.903167	1530.446289	1490.428467
13279.715745	3907.903167	1529.393555	1739.511353
13279.715745	3907.903167	1528.338867	1634.761108
13279.715745	3907.903167	1527.285156	1409.980957
13279.715745	3907.903167	1526.231445	1237.532715
13279.715745	3907.903167	1525.176758	1375.778687
13279.715745	3907.903167	1524.122070	1094.818359
13279.715745	3907.903167	1523.067383	1196.990234
13279.715745	3907.903167	1522.012695	1174.630127
13279.715745	3907.903167	1520.957031	1154.638794
13279.715745	3907.903167	1519.901367	1195.900269
13279.715745	3907.903167	1518.845703	1069.715210
13279.715745	3907.903167	1517.790039	1335.280396
13279.715745	3907.903167	1516.734375	1112.018555
13279.715745	3907.903167	1515.677734	1248.704834
13279.715745	3907.903167	1514.621094	969.201416
13279.715745	3907.903167	1513.564453	1192.027466
13279.715745	3907.903167	1512.507813	1032.713745
13279.715745	3907.903167	1511.450195	1068.000000
13279.715745	3907.903167	1510.393555	1128.257690
13279.715745	3907.903167	1509.335938	1260.913696
13279.715745	3907.903167	1508.278320	1154.122192
13279.715745	3907.903167	1507.219727	1320.824219
13279.715745	3907.903167	1506.162109	1227.842651
13279.715745	3907.903167	1505.103516	1254.688232
13279.715745	3907.903167	1504.044922	1313.246948
13279.715745	3907.903167	1502.986328	1430.587769
13279.715745	3907.903167	1501.926758	1367.444458
13279.715745	3907.903167	1500.868164	1331.530029
13279.715745	3907.903167	1499.808594	1182.942139
13279.715745	3907.903167	1498.749023	1266.847778
13279.715745	3907.903167	1497.688477	1289.945679
13279.715745	3907.903167	1496.628906	1263.562378
13279.715745	3907.903167	1495.568359	1298.163574
13279.715745	3907.903167	1494.507813	893.401978
13279.715745	3907.903167	1493.447266	953.092407
13279.715745	3907.903167	1492.386719	1082.716797
13279.715745	3907.903167	1491.325195	834.011658
13279.715745	3907.903167	1490.263672	646.330444
13279.715745	3907.903167	1489.202148	1021.710632
13279.715745	3907.903167	1488.140625	996.387878
13279.715745	3907.903167	1487.079102	725.888000
13279.715745	3907.903167	1486.016602	592.872009
13279.715745	3907.903167	1484.954102	498.278473
13279.715745	3907.903167	1483.891602	768.221985
13279.715745	3907.903167	1482.829102	610.918762
13279.715745	3907.903167	1481.765625	512.257629
13279.715745	3907.903167	1480.702148	694.741150
13279.715745	3907.903167	1479.638672	555.905884
13279.715745	3907.903167	1478.575195	567.817383
13279.715745	3907.903167	1477.511719	597.789490
13279.715745	3907.903167	1476.447266	522.310303
13279.715745	3907.903167	1475.382813	379.664886
13279.715745	3907.903167	1474.318359	623.327087
13279.715745	3907.903167	1473.253906	501.191742
13279.715745	3907.903167	1472.189453	773.996277
13279.715745	3907.903167	1471.124023	546.940308
13279.715745	3907.903167	1470.058594	364.668640
13279.715745	3907.903167	1468.993164	366.484192
13279.715745	3907.903167	1467.927734	422.477905
13279.715745	3907.903167	1466.861328	363.925995
13279.715745	3907.903167	1465.794922	415.475677
13279.715745	3907.903167	1464.728516	469.757904
13279.715745	3907.903167	1463.662109	285.793304
13279.715745	3907.903167	1462.594727	320.046997
13279.715745	3907.903167	1461.528320	385.420197
13279.715745	3907.903167	1460.460938	364.081451
13279.715745	3907.903167	1459.393555	440.107819
13279.715745	3907.903167	1458.326172	257.871368
13279.715745	3907.903167	1457.257813	501.925720
13279.715745	3907.903167	1456.189453	168.993942
13279.715745	3907.903167	1455.121094	185.856384
13279.715745	3907.903167	1454.052734	54.030586
13279.715745	3907.903167	1452.984375	50.467735
13279.715745	3907.903167	1451.915039	161.929001
13279.715745	3907.903167	1450.845703	57.434658
13279.715745	3907.903167	1449.776367	-74.142281
13279.715745	3907.903167	1448.707031	102.232315
13279.715745	3907.903167	1447.636719	59.472412
13279.715745	3907.903167	1446.567383	248.614243
13279.715745	3907.903167	1445.497070	82.740814
13279.715745	3907.903167	1444.425781	218.688324
13279.715745	3907.903167	1443.355469	83.913124
13279.715745	3907.903167	1442.285156	218.298141
13279.715745	3907.903167	1441.213867	194.470901
13279.715745	3907.903167	1440.142578	252.557755
13279.715745	3907.903167	1439.070313	275.060486
13279.715745	3907.903167	1437.999023	469.371643
13279.715745	3907.903167	1436.926758	613.765564
13279.715745	3907.903167	1435.854492	324.155151
13279.715745	3907.903167	1434.782227	446.458221
13279.715745	3907.903167	1433.709961	400.620789
13279.715745	3907.903167	1432.636719	401.472473
13279.715745	3907.903167	1431.563477	539.390503
13279.715745	3907.903167	1430.490234	257.097290
13279.715745	3907.903167	1429.416992	475.733185
13279.715745	3907.903167	1428.343750	702.060669
13279.715745	3907.903167	1427.269531	400.442047
13279.715745	3907.903167	1426.195313	303.856445
13279.715745	3907.903167	1425.121094	315.127777
13279.715745	3907.903167	1424.046875	341.611237
13279.715745	3907.903167	1422.971680	270.282867
13279.715745	3907.903167	1421.896484	283.439636
13279.715745	3907.903167	1420.821289	157.075333
13279.715745	3907.903167	1419.746094	252.269669
13279.715745	3907.903167	1418.669922	178.116364
13279.715745	3907.903167	1417.594727	10.984610
13279.715745	3907.903167	1416.518555	202.650208
13279.715745	3907.903167	1415.442383	145.600723
13279.715745	3907.903167	1414.365234	184.850204
13279.715745	3907.903167	1413.289063	254.422134
13279.715745	3907.903167	1412.211914	212.583450
13279.715745	3907.903167	1411.134766	1.849500
13279.715745	3907.903167	1410.057617	8.823359
13279.715745	3907.903167	1408.979492	130.235458
13279.715745	3907.903167	1407.902344	330.770142
13279.715745	3907.903167	1406.824219	323.846863
13279.715745	3907.903167	1405.746094	425.687347
13279.715745	3907.903167	1404.666992	516.099609
13279.715745	3907.903167	1403.588867	567.094177
13279.715745	3907.903167	1402.509766	436.757324
13279.715745	3907.903167	1401.430664	569.907104
13279.715745	3907.903167	1400.351563	687.788940
13279.715745	3907.903167	1399.271484	714.957581
13279.715745	3907.903167	1398.192383	584.280640
13279.715745	3907.903167	1397.112305	699.473572
13279.715745	3907.903167	1396.031250	718.695251
13279.715745	3907.903167	1394.951172	760.576416
13279.715745	3907.903167	1393.871094	661.853516
13279.715745	3907.903167	1392.790039	813.387390
13279.715745	3907.903167	1391.708984	873.549622
13279.715745	3907.903167	1390.626953	905.515747
13279.715745	3907.903167	1389.545898	618.043274
13279.715745	3907.903167	1388.463867	996.109924
13279.715745	3907.903167	1387.381836	1032.524292
13279.715745	3907.903167	1386.299805	617.973206
13279.715745	3907.903167	1385.217773	641.513611
13279.715745	3907.903167	1384.134766	782.593201
13279.715745	3907.903167	1383.051758	703.313843
13279.715745	3907.903167	1381.968750	825.750244
13279.715745	3907.903167	1380.885742	743.748230
13279.715745	3907.903167	1379.802734	1000.306213
13279.715745	3907.903167	1378.718750	833.478638
13279.715745	3907.903167	1377.634766	1062.267456
13279.715745	3907.903167	1376.550781	1112.436646
13279.715745	3907.903167	1375.465820	750.338623
13279.715745	3907.903167	1374.381836	1026.768188
13279.715745	3907.903167	1373.296875	996.955688
13279.715745	3907.903167	1372.211914	909.628113
13279.715745	3907.903167	1371.126953	1108.120728
13279.715745	3907.903167	1370.041016	1169.682861
13279.715745	3907.903167	1368.955078	933.274841
13279.715745	3907.903167	1367.869141	1029.807739
13279.715745	3907.903167	1366.783203	1060.849243
13279.715745	3907.903167	1365.697266	1056.611328
13279.715745	3907.903167	1364.610352	950.175232
13279.715745	3907.903167	1363.523438	949.693665
13279.715745	3907.903167	1362.436523	881.767456
13279.715745	3907.903167	1361.349609	887.563660
13279.715745	3907.903167	1360.261719	1057.235107
13279.715745	3907.903167	1359.174805	901.111511
13279.715745	3907.903167	1358.086914	1004.872314
13279.715745	3907.903167	1356.998047	964.833374
13279.715745	3907.903167	1355.910156	958.456787
13279.715745	3907.903167	1354.821289	1226.788696
13279.715745	3907.903167	1353.732422	1173.503418
13279.715745	3907.903167	1352.643555	1427.147949
13279.715745	3907.903167	1351.554688	1684.762451
13279.715745	3907.903167	1350.464844	1840.234741
13279.715745	3907.903167	1349.375000	2032.646240
13279.715745	3907.903167	1348.285156	2109.255615
13279.715745	3907.903167	1347.195313	2230.062744
13279.715745	3907.903167	1346.105469	2442.819336
13279.715745	3907.903167	1345.014648	2614.885498
13279.715745	3907.903167	1343.923828	2651.031982
13279.715745	3907.903167	1342.833008	2477.990234
13279.715745	3907.903167	1341.741211	2603.362305
13279.715745	3907.903167	1340.650391	2379.622803
13279.715745	3907.903167	1339.558594	2463.447754
13279.715745	3907.903167	1338.466797	2124.920898
13279.715745	3907.903167	1337.374023	2129.938232
13279.715745	3907.903167	1336.282227	2057.961182
13279.715745	3907.903167	1335.189453	1723.119629
13279.715745	3907.903167	1334.096680	1662.617554
13279.715745	3907.903167	1333.003906	1614.062622
13279.715745	3907.903167	1331.910156	1302.786987
13279.715745	3907.903167	1330.817383	1354.182739
13279.715745	3907.903167	1329.723633	1156.379517
13279.715745	3907.903167	1328.629883	1017.261841
13279.715745	3907.903167	1327.535156	994.852600
13279.715745	3907.903167	1326.441406	836.709351
13279.715745	3907.903167	1325.346680	811.041321
13279.715745	3907.903167	1324.251953	857.971924
13279.715745	3907.903167	1323.156250	656.638672
13279.715745	3907.903167	1322.061523	762.644409
13279.715745	3907.903167	1320.965820	758.565186
13279.715745	3907.903167	1319.870117	582.196899
13279.715745	3907.903167	1318.774414	720.527832
13279.715745	3907.903167	1317.678711	585.642883
13279.715745	3907.903167	1316.582031	627.089111
13279.715745	3907.903167	1315.485352	723.771729
13279.715745	3907.903167	1314.388672	695.557861
13279.715745	3907.903167	1313.291016	682.881348
13279.715745	3907.903167	1312.194336	859.287415
13279.715745	3907.903167	1311.096680	764.240662
13279.715745	3907.903167	1309.999023	881.162598
13279.715745	3907.903167	1308.901367	817.247437
13279.715745	3907.903167	1307.802734	982.237000
13279.715745	3907.903167	1306.705078	1022.082153
13279.715745	3907.903167	1305.606445	959.884766
13279.715745	3907.903167	1304.506836	850.200623
13279.715745	3907.903167	1303.408203	910.253662
13279.715745	3907.903167	1302.308594	858.373657
13279.715745	3907.903167	1301.208984	750.491272
13279.715745	3907.903167	1300.109375	717.970825
13279.715745	3907.903167	1299.009766	613.305359
13279.715745	3907.903167	1297.909180	643.696045
13279.715745	3907.903167	1296.808594	765.953430
13279.715745	3907.903167	1295.708008	606.641907
13279.715745	3907.903167	1294.607422	636.413696
13279.715745	3907.903167	1293.506836	401.045105
13279.715745	3907.903167	1292.405273	349.245392
13279.715745	3907.903167	1291.303711	332.743744
13279.715745	3907.903167	1290.202148	340.653412
13279.715745	3907.903167	1289.099609	325.039124
13279.715745	3907.903167	1287.998047	409.997742
13279.715745	3907.903167	1286.895508	360.372803
13279.715745	3907.903167	1285.792969	205.927536
13279.715745	3907.903167	1284.689453	270.873322
13279.715745	3907.903167	1283.586914	361.727631
13279.715745	3907.903167	1282.483398	291.996399
13279.715745	3907.903167	1281.379883	348.257111
13279.715745	3907.903167	1280.276367	396.706055
13279.715745	3907.903167	1279.171875	248.094757
13279.715745	3907.903167	1278.067383	383.746826
13279.715745	3907.903167	1276.962891	218.071350
13279.715745	3907.903167	1275.858398	135.334869
13279.715745	3907.903167	1274.753906	204.740494
13279.715745	3907.903167	1273.648438	146.188339
13279.715745	3907.903167	1272.542969	79.302620
13279.715745	3907.903167	1271.437500	172.722946
13279.715745	3907.903167	1270.331055	186.859283
13279.715745	3907.903167	1269.225586	71.197243
13279.715745	3907.903167	1268.119141	188.679886
13279.715745	3907.903167	1267.012695	64.910812
13279.715745	3907.903167	1265.906250	31.953466
13279.715745	3907.903167	1264.798828	69.324364
13279.715745	3907.903167	1263.691406	-154.819229
13279.715745	3907.903167	1262.583984	-164.035904
13279.715745	3907.903167	1261.476563	-151.731979
13279.715745	3907.903167	1260.368164	-194.898682
13279.715745	3907.903167	1259.260742	0.611467
13279.715745	3907.903167	1258.152344	-46.482822
13279.715745	3907.903167	1257.043945	-114.885658
13279.715745	3907.903167	1255.934570	-68.803085
13279.715745	3907.903167	1254.825195	-10.698006
13279.715745	3907.903167	1253.716797	-14.214020
13279.715745	3907.903167	1252.606445	32.314007
13279.715745	3907.903167	1251.497070	99.631096
13279.715745	3907.903167	1250.387695	-15.354516
13279.715745	3907.903167	1249.277344	-47.101753
13279.715745	3907.903167	1248.166992	-98.360649
13279.715745	3907.903167	1247.055664	7.063190
13279.715745	3907.903167	1245.945313	-97.307846
13279.715745	3907.903167	1244.833984	-21.281252
13279.715745	3907.903167	1243.722656	-74.087524
13279.715745	3907.903167	1242.611328	45.163990
13279.715745	3907.903167	1241.499023	-105.303978
13279.715745	3907.903167	1240.387695	-16.263922
13279.715745	3907.903167	1239.275391	-151.313385
13279.715745	3907.903167	1238.162109	-125.567581
13279.715745	3907.903167	1237.049805	65.202995
13279.715745	3907.903167	1235.936523	6.540432
13279.715745	3907.903167	1234.823242	-151.941956
13279.715745	3907.903167	1233.709961	-123.218712
13279.715745	3907.903167	1232.596680	-1.949915
13279.715745	3907.903167	1231.482422	13.326391
13279.715745	3907.903167	1230.369141	-25.812510
13279.715745	3907.903167	1229.253906	42.656780
13279.715745	3907.903167	1228.139648	-1.455953
13279.715745	3907.903167	1227.025391	0.403061
13279.715745	3907.903167	1225.910156	-34.085506
13279.715745	3907.903167	1224.794922	-22.941015
13279.715745	3907.903167	1223.679688	140.531967
13279.715745	3907.903167	1222.563477	129.020920
13279.715745	3907.903167	1221.447266	70.558281
13279.715745	3907.903167	1220.331055	114.177414
13279.715745	3907.903167	1219.214844	150.257339
13279.715745	3907.903167	1218.098633	149.178101
13279.715745	3907.903167	1216.981445	33.250141
13279.715745	3907.903167	1215.864258	214.642761
13279.715745	3907.903167	1214.747070	45.891285
13279.715745	3907.903167	1213.629883	14.478296
13279.715745	3907.903167	1212.511719	66.407539
13279.715745	3907.903167	1211.393555	58.238079
13279.715745	3907.903167	1210.275391	141.845093
13279.715745	3907.903167	1209.157227	-68.409889
13279.715745	3907.903167	1208.038086	18.737543
13279.715745	3907.903167	1206.918945	50.858284
13279.715745	3907.903167	1205.799805	73.803131
13279.715745	3907.903167	1204.680664	-41.124954
13279.715745	3907.903167	1203.560547	19.001434
13279.715745	3907.903167	1202.441406	180.034180
13279.715745	3907.903167	1201.321289	-0.250260
13279.715745	3907.903167	1200.200195	12.831868
13279.715745	3907.903167	1199.080078	103.562332
13279.715745	3907.903167	1197.958984	82.621727
13279.715745	3907.903167	1196.837891	260.645721
13279.715745	3907.903167	1195.716797	220.488098
13279.715745	3907.903167	1194.594727	169.836823
13279.715745	3907.903167	1193.473633	215.656631
13279.715745	3907.903167	1192.351563	254.522369
13279.715745	3907.903167	1191.229492	162.808182
13279.715745	3907.903167	1190.106445	163.177490
13279.715745	3907.903167	1188.984375	226.528961
13279.715745	3907.903167	1187.861328	129.963516
13279.715745	3907.903167	1186.738281	199.191437
13279.715745	3907.903167	1185.614258	379.043976
13279.715745	3907.903167	1184.491211	307.459229
13279.715745	3907.903167	1183.367188	192.704788
13279.715745	3907.903167	1182.243164	187.390549
13279.715745	3907.903167	1181.119141	331.232697
13279.715745	3907.903167	1179.994141	224.946121
13279.715745	3907.903167	1178.869141	135.132050
13279.715745	3907.903167	1177.744141	257.707855
13279.715745	3907.903167	1176.619141	388.873169
13279.715745	3907.903167	1175.493164	244.833008
13279.715745	3907.903167	1174.368164	119.544739
13279.715745	3907.903167	1173.242188	189.472641
13279.715745	3907.903167	1172.115234	175.519348
13279.715745	3907.903167	1170.989258	170.255829
13279.715745	3907.903167	1169.862305	195.378525
13279.715745	3907.903167	1168.735352	136.144379
13279.715745	3907.903167	1167.608398	260.916168
13279.715745	3907.903167	1166.481445	220.885742
13279.715745	3907.903167	1165.353516	38.557590
13279.715745	3907.903167	1164.225586	-5.608982
13279.715745	3907.903167	1163.097656	-26.021679
13279.715745	3907.903167	1161.968750	67.999626
13279.715745	3907.903167	1160.840820	-5.685086
13279.715745	3907.903167	1159.711914	76.176476
13279.715745	3907.903167	1158.583008	-114.575241
13279.715745	3907.903167	1157.453125	-91.424339
13279.715745	3907.903167	1156.324219	34.241547
13279.715745	3907.903167	1155.194336	-56.358864
13279.715745	3907.903167	1154.064453	42.041874
13279.715745	3907.903167	1152.933594	-79.173820
13279.715745	3907.903167	1151.803711	16.401789
13279.715745	3907.903167	1150.672852	-137.696060
13279.715745	3907.903167	1149.541992	-84.513184
13279.715745	3907.903167	1148.411133	-74.033806
13279.715745	3907.903167	1147.279297	-5.193130
13279.715745	3907.903167	1146.147461	34.628769
13279.715745	3907.903167	1145.015625	76.496002
13279.715745	3907.903167	1143.883789	-52.521454
13279.715745	3907.903167	1142.750977	25.328053
13279.715745	3907.903167	1141.619141	52.626144
13279.715745	3907.903167	1140.486328	206.707458
13279.715745	3907.903167	1139.352539	60.909435
13279.715745	3907.903167	1138.219727	82.170967
13279.715745	3907.903167	1137.085938	-47.948986
13279.715745	3907.903167	1135.952148	-108.289917
13279.715745	3907.903167	1134.818359	182.161591
13279.715745	3907.903167	1133.683594	-124.206482
13279.715745	3907.903167	1132.549805	41.671371
13279.715745	3907.903167	1131.415039	99.066452
13279.715745	3907.903167	1130.279297	63.046238
13279.715745	3907.903167	1129.144531	156.800613
13279.715745	3907.903167	1128.008789	114.871574
13279.715745	3907.903167	1126.873047	96.448471
13279.715745	3907.903167	1125.737305	283.708374
13279.715745	3907.903167	1124.601563	264.226257
13279.715745	3907.903167	1123.464844	357.374573
13279.715745	3907.903167	1122.328125	317.631989
13279.715745	3907.903167	1121.191406	107.895317
13279.715745	3907.903167	1120.054688	305.195679
13279.715745	3907.903167	1118.916992	261.576630
13279.715745	3907.903167	1117.779297	292.028900
13279.715745	3907.903167	1116.641602	368.271545
13279.715745	3907.903167	1115.503906	201.469543
13279.715745	3907.903167	1114.365234	353.180420
13279.715745	3907.903167	1113.226563	146.755951
13279.715745	3907.903167	1112.087891	212.466080
13279.715745	3907.903167	1110.949219	157.860535
13279.715745	3907.903167	1109.809570	136.175369
13279.715745	3907.903167	1108.669922	265.139099
13279.715745	3907.903167	1107.530273	313.980194
13279.715745	3907.903167	1106.390625	334.156097
13279.715745	3907.903167	1105.250000	184.902222
13279.715745	3907.903167	1104.109375	267.656311
13279.715745	3907.903167	1102.968750	432.679077
13279.715745	3907.903167	1101.828125	310.512543
13279.715745	3907.903167	1100.686523	395.938202
13279.715745	3907.903167	1099.544922	335.686584
13279.715745	3907.903167	1098.403320	457.004333
13279.715745	3907.903167	1097.261719	457.029602
13279.715745	3907.903167	1096.120117	452.437256
13279.715745	3907.903167	1094.977539	559.463135
13279.715745	3907.903167	1093.834961	519.555908
13279.715745	3907.903167	1092.691406	431.134430
13279.715745	3907.903167	1091.548828	461.415253
13279.715745	3907.903167	1090.405273	524.852722
13279.715745	3907.903167	1089.261719	344.261505
13279.715745	3907.903167	1088.118164	243.218826
13279.715745	3907.903167	1086.973633	253.216522
13279.715745	3907.903167	1085.829102	240.252075
13279.715745	3907.903167	1084.684570	243.253311
13279.715745	3907.903167	1083.540039	134.036743
13279.715745	3907.903167	1082.395508	160.017059
13279.715745	3907.903167	1081.250000	146.090622
13279.715745	3907.903167	1080.104492	202.514984
13279.715745	3907.903167	1078.958984	159.129181
13279.715745	3907.903167	1077.812500	338.507172
13279.715745	3907.903167	1076.666016	335.548798
13279.715745	3907.903167	1075.519531	371.061340
13279.715745	3907.903167	1074.373047	193.828201
13279.715745	3907.903167	1073.226563	357.188416
13279.715745	3907.903167	1072.079102	481.637054
13279.715745	3907.903167	1070.931641	380.968842
13279.715745	3907.903167	1069.784180	159.441788
13279.715745	3907.903167	1068.635742	253.132858
13279.715745	3907.903167	1067.487305	162.748611
13279.715745	3907.903167	1066.338867	184.280457
13279.715745	3907.903167	1065.190430	259.731049
13279.715745	3907.903167	1064.041992	248.843307
13279.715745	3907.903167	1062.892578	297.690552
13279.715745	3907.903167	1061.743164	275.312103
13279.715745	3907.903167	1060.593750	174.047119
13279.715745	3907.903167	1059.443359	287.929688
13279.715745	3907.903167	1058.292969	281.776672
13279.715745	3907.903167	1057.142578	338.951202
13279.715745	3907.903167	1055.992188	241.471100
13279.715745	3907.903167	1054.841797	255.364456
13279.715745	3907.903167	1053.690430	241.742783
13279.715745	3907.903167	1052.539063	219.362244
13279.715745	3907.903167	1051.387695	280.274414
13279.715745	3907.903167	1050.235352	283.208313
13279.715745	3907.903167	1049.083984	85.309784
13279.715745	3907.903167	1047.931641	44.573154
13279.715745	3907.903167	1046.778320	84.172882
13279.715745	3907.903167	1045.625977	228.072586
13279.715745	3907.903167	1044.472656	199.701294
13279.715745	3907.903167	1043.319336	207.212158
13279.715745	3907.903167	1042.166016	186.642136
13279.715745	3907.903167	1041.012695	222.775787
13279.715745	3907.903167	1039.858398	202.415390
13279.715745	3907.903167	1038.704102	113.066879
13279.715745	3907.903167	1037.549805	-54.982277
13279.715745	3907.903167	1036.394531	98.887962
13279.715745	3907.903167	1035.239258	226.794052
13279.715745	3907.903167	1034.083984	95.228539
13279.715745	3907.903167	1032.928711	209.390564
13279.715745	3907.903167	1031.773438	223.822495
13279.715745	3907.903167	1030.617188	146.751083
13279.715745	3907.903167	1029.460938	272.690979
13279.715745	3907.903167	1028.304688	219.714401
13279.715745	3907.903167	1027.147461	419.494232
13279.715745	3907.903167	1025.991211	16.522251
13279.715745	3907.903167	1024.833984	289.628204
13279.715745	3907.903167	1023.675781	244.603897
13279.715745	3907.903167	1022.518555	216.927261
13279.715745	3907.903167	1021.360352	354.327606
13279.715745	3907.903167	1020.202148	157.785431
13279.715745	3907.903167	1019.043945	236.809921
13279.715745	3907.903167	1017.884766	108.627342
13279.715745	3907.903167	1016.726563	178.012512
13279.715745	3907.903167	1015.567383	184.394547
13279.715745	3907.903167	1014.407227	113.035965
13279.715745	3907.903167	1013.248047	89.516052
13279.715745	3907.903167	1012.087891	100.528809
13279.715745	3907.903167	1010.927734	89.479362
13279.715745	3907.903167	1009.767578	119.146492
13279.715745	3907.903167	1008.606445	-75.937698
13279.715745	3907.903167	1007.446289	54.980850
13279.715745	3907.903167	1006.285156	274.332520
13279.715745	3907.903167	1005.123047	118.797340
13279.715745	3907.903167	1003.961914	162.747803
13279.715745	3907.903167	1002.799805	72.311317
13279.715745	3907.903167	1001.637695	221.326004
13279.715745	3907.903167	1000.475586	-18.228165
13279.715745	3907.903167	999.312500	80.160080
13279.715745	3907.903167	998.149414	98.622452
13279.715745	3907.903167	996.986328	81.138451
13279.715745	3907.903167	995.823242	-76.416451
13279.715745	3907.903167	994.659180	31.927385
13279.715745	3907.903167	993.496094	9.159394
13279.715745	3907.903167	992.332031	-172.933563
13279.715745	3907.903167	991.166992	-2.901874
13279.715745	3907.903167	990.002930	76.791977
13279.715745	3907.903167	988.837891	10.089417
13279.715745	3907.903167	987.672852	-97.729042
13279.715745	3907.903167	986.506836	-6.403493
13279.715745	3907.903167	985.341797	21.074575
13279.715745	3907.903167	984.175781	-160.878098
13279.715745	3907.903167	983.009766	-33.765041
13279.715745	3907.903167	981.843750	20.343943
13279.715745	3907.903167	980.676758	142.045990
13279.715745	3907.903167	979.509766	128.718536
13279.715745	3907.903167	978.342773	-38.051472
13279.715745	3907.903167	977.175781	-38.677601
13279.715745	3907.903167	976.007813	163.123688
13279.715745	3907.903167	974.839844	29.516098
13279.715745	3907.903167	973.671875	146.957169
13279.715745	3907.903167	972.503906	98.647606
13279.715745	3907.903167	971.334961	27.083715
13279.715745	3907.903167	970.166016	-124.408081
13279.715745	3907.903167	968.997070	-157.640747
13279.715745	3907.903167	967.828125	-64.888199
13279.715745	3907.903167	966.658203	24.202696
13279.715745	3907.903167	965.488281	-127.013206
13279.715745	3907.903167	964.318359	9.192141
13279.715745	3907.903167	963.148438	-129.897552
13279.715745	3907.903167	961.977539	120.909088
13279.715745	3907.903167	960.806641	-85.661362
13279.715745	3907.903167	959.635742	-128.430191
13279.715745	3907.903167	958.463867	-15.972698
13279.715745	3907.903167	957.292969	86.355858
13279.715745	3907.903167	956.121094	-126.379814
13279.715745	3907.903167	954.948242	-84.884865
13279.715745	3907.903167	953.776367	54.163811
13279.715745	3907.903167	952.603516	32.972370
13279.715745	3907.903167	951.430664	-57.258812
13279.715745	3907.903167	950.257813	60.345757
13279.715745	3907.903167	949.084961	23.531673
13279.715745	3907.903167	947.911133	65.602333
13279.715745	3907.903167	946.737305	107.549706
13279.715745	3907.903167	945.563477	-5.418222
13279.715745	3907.903167	944.388672	-39.456127
13279.715745	3907.903167	943.213867	-100.701874
13279.715745	3907.903167	942.039063	-85.984085
13279.715745	3907.903167	940.864258	28.246037
13279.715745	3907.903167	939.688477	21.327868
13279.715745	3907.903167	938.513672	99.469788
13279.715745	3907.903167	937.337891	95.699165
13279.715745	3907.903167	936.161133	-65.786324
13279.715745	3907.903167	934.985352	15.024035
13279.715745	3907.903167	933.808594	-37.319546
13279.715745	3907.903167	932.631836	101.262993
13279.715745	3907.903167	931.454102	109.424828
13279.715745	3907.903167	930.277344	74.997139
13279.715745	3907.903167	929.099609	-38.094048
13279.715745	3907.903167	927.921875	-42.149971
13279.715745	3907.903167	926.743164	114.353088
13279.715745	3907.903167	925.565430	76.933907
13279.715745	3907.903167	924.386719	72.830879
13279.715745	3907.903167	923.208008	117.136856
13279.715745	3907.903167	922.028320	-104.993645
13279.715745	3907.903167	920.849609	178.431381
13279.715745	3907.903167	919.669922	178.755661
13279.715745	3907.903167	919.474609	-19.408670
13279.715745	3907.903167	918.309570	45.993893
13279.715745	3907.903167	917.143555	56.903339
13279.715745	3907.903167	915.977539	-125.772980
13279.715745	3907.903167	914.810547	220.788269
13279.715745	3907.903167	913.644531	-88.851440
13279.715745	3907.903167	912.477539	-271.427673
13279.715745	3907.903167	911.310547	-61.079418
13279.715745	3907.903167	910.143555	106.871391
13279.715745	3907.903167	908.975586	162.971664
13279.715745	3907.903167	907.807617	71.048233
13279.715745	3907.903167	906.639648	148.246460
13279.715745	3907.903167	905.471680	5.018823
13279.715745	3907.903167	904.303711	199.891541
13279.715745	3907.903167	903.134766	-45.912777
13279.715745	3907.903167	901.965820	151.887802
13279.715745	3907.903167	900.796875	78.112930
13279.715745	3907.903167	899.626953	-25.799978
13279.715745	3907.903167	898.457031	-66.360001
13279.715745	3907.903167	897.287109	-128.014587
13279.715745	3907.903167	896.117188	159.974854
13279.715745	3907.903167	894.947266	176.630569
13279.715745	3907.903167	893.776367	-162.239960
13279.715745	3907.903167	892.605469	-46.139465
13279.715745	3907.903167	891.434570	21.720921
13279.715745	3907.903167	890.262695	-45.947075
13279.715745	3907.903167	889.091797	36.922646
13279.715745	3907.903167	887.919922	158.877777
13279.715745	3907.903167	886.748047	277.767670
13279.715745	3907.903167	885.575195	261.219513
13279.715745	3907.903167	884.403320	196.545517
13279.715745	3907.903167	883.230469	231.132217
13279.715745	3907.903167	882.057617	-131.179871
13279.715745	3907.903167	880.883789	134.913681
13279.715745	3907.903167	879.710938	-82.980965
13279.715745	3907.903167	878.537109	-21.344057
13279.715745	3907.903167	877.362305	196.481339
13279.715745	3907.903167	876.188477	-99.400574
13279.715745	3907.903167	875.013672	-118.892921
13279.715745	3907.903167	873.839844	116.819427
13279.715745	3907.903167	872.664063	4.228318
13279.715745	3907.903167	871.489258	212.800766
13279.715745	3907.903167	870.313477	25.215115
13279.715745	3907.903167	869.138672	-90.299416
13279.715745	3907.903167	867.962891	166.141556
13279.715745	3907.903167	866.786133	-6.336344
13279.715745	3907.903167	865.610352	112.064453
13279.715745	3907.903167	864.433594	-75.324928
13279.715745	3907.903167	863.256836	64.013252
13279.715745	3907.903167	862.079102	107.412567
13279.715745	3907.903167	860.902344	24.976255
13279.715745	3907.903167	859.724609	-57.428970
13279.715745	3907.903167	858.546875	15.904560
13279.715745	3907.903167	857.368164	-147.301422
13279.715745	3907.903167	856.190430	-41.059925
13279.715745	3907.903167	855.011719	-72.520859
13279.715745	3907.903167	853.833008	-29.172861
13279.715745	3907.903167	852.654297	-18.749756
13279.715745	3907.903167	851.474609	-115.997139
13279.715745	3907.903167	850.294922	-63.703465
13279.715745	3907.903167	849.115234	9.493610
13279.715745	3907.903167	847.935547	-69.773048
13279.715745	3907.903167	846.754883	45.226025
13279.715745	3907.903167	845.575195	-108.709213
13279.715745	3907.903167	844.393555	48.065117
13279.715745	3907.903167	843.212891	19.617096
13279.715745	3907.903167	842.032227	-8.821396
13279.715745	3907.903167	840.850586	19.468330
13279.715745	3907.903167	839.668945	-128.343735
13279.715745	3907.903167	838.486328	1.408818
13279.715745	3907.903167	837.304688	-24.026316
13279.715745	3907.903167	836.122070	25.114861
13279.715745	3907.903167	834.939453	47.394886
13279.715745	3907.903167	833.756836	84.571053
13279.715745	3907.903167	832.573242	-15.389472
13279.715745	3907.903167	831.389648	-43.785004
13279.715745	3907.903167	830.206055	11.258919
13279.715745	3907.903167	829.022461	15.634319
13279.715745	3907.903167	827.838867	100.423164
13279.715745	3907.903167	826.654297	-44.115910
13279.715745	3907.903167	825.469727	-36.761223
13279.715745	3907.903167	824.284180	-103.826431
13279.715745	3907.903167	823.099609	-90.515549
13279.715745	3907.903167	821.914063	23.948975
13279.715745	3907.903167	820.728516	-10.373303
13279.715745	3907.903167	819.542969	-38.735916
13279.715745	3907.903167	818.356445	-129.533600
13279.715745	3907.903167	817.169922	-98.407997
13279.715745	3907.903167	815.983398	78.342422
13279.715745	3907.903167	814.796875	20.255121
13279.715745	3907.903167	813.609375	-46.724339
13279.715745	3907.903167	812.422852	-6.744346
13279.715745	3907.903167	811.235352	-136.064529
13279.715745	3907.903167	810.046875	52.369610
13279.715745	3907.903167	808.859375	-23.482872
13279.715745	3907.903167	807.670898	-34.013000
13279.715745	3907.903167	806.482422	-178.074356
13279.715745	3907.903167	805.293945	-227.145157
13279.715745	3907.903167	804.104492	67.870972
13279.715745	3907.903167	802.915039	3.932445
13279.715745	3907.903167	801.725586	17.102055
13279.715745	3907.903167	800.536133	68.796585
13279.715745	3907.903167	799.345703	197.520081
13279.715745	3907.903167	798.155273	-70.867180
13279.715745	3907.903167	796.964844	232.604294
13279.715745	3907.903167	795.774414	210.141312
13279.715745	3907.903167	794.583008	246.905106
13279.715745	3907.903167	793.392578	129.695557
13279.715745	3907.903167	792.200195	42.126690
13279.715745	3907.903167	791.008789	138.068848
13279.715745	3907.903167	789.816406	219.169891
13279.715745	3907.903167	788.625000	285.438202
13279.715745	3907.903167	787.432617	194.921036
13279.715745	3907.903167	786.239258	80.777267
13279.715745	3907.903167	785.046875	67.187683
13279.715745	3907.903167	783.853516	97.929436
13279.715745	3907.903167	782.660156	60.682636
13279.715745	3907.903167	781.465820	-20.876480
13279.715745	3907.903167	780.272461	219.561340
13279.715745	3907.903167	779.078125	81.871315
13279.715745	3907.903167	777.883789	56.428867
13279.715745	3907.903167	776.688477	-128.423782
13279.715745	3907.903167	775.494141	99.987892
13279.715745	3907.903167	774.298828	9.606414
13279.715745	3907.903167	773.103516	4.806250
13279.715745	3907.903167	771.907227	79.634644
13279.715745	3907.903167	770.711914	71.848206
13279.715745	3907.903167	769.515625	217.366928
13279.715745	3907.903167	768.318359	162.365250
13279.715745	3907.903167	767.122070	69.060783
13279.715745	3907.903167	765.924805	49.444237
13279.715745	3907.903167	764.727539	20.983868
13279.715745	3907.903167	763.530273	-66.384621
13279.715745	3907.903167	762.333008	55.340385
13279.715745	3907.903167	761.134766	65.125450
13279.715745	3907.903167	759.936523	60.173241
13279.715745	3907.903167	758.738281	-200.819321
13279.715745	3907.903167	757.540039	88.476517
13279.715745	3907.903167	756.340820	39.349529
13279.715745	3907.903167	755.141602	66.692360
13279.715745	3907.903167	753.942383	52.841568
13279.715745	3907.903167	752.742188	188.906693
13279.715745	3907.903167	751.541992	-33.680550
13279.715745	3907.903167	750.341797	-147.466873
13279.715745	3907.903167	749.141602	-23.251968
13279.715745	3907.903167	747.941406	109.704552
13279.715745	3907.903167	746.740234	313.066803
13279.715745	3907.903167	745.539063	322.541504
13279.715745	3907.903167	744.337891	61.927624
13279.715745	3907.903167	743.135742	156.521545
13279.715745	3907.903167	741.933594	136.618423
13279.715745	3907.903167	740.731445	-138.525269
13279.715745	3907.903167	739.529297	-20.548569
13279.715745	3907.903167	738.326172	153.072403
13279.715745	3907.903167	737.124023	9.963631
13279.715745	3907.903167	735.919922	69.142693
13279.715745	3907.903167	734.716797	151.719711
13279.715745	3907.903167	733.513672	137.549591
13279.715745	3907.903167	732.309570	58.914909
13279.715745	3907.903167	731.105469	74.008423
13279.715745	3907.903167	729.900391	62.717175
13279.715745	3907.903167	728.696289	118.739647
13279.715745	3907.903167	727.491211	-15.536954
13279.715745	3907.903167	726.286133	72.616333
13279.715745	3907.903167	725.080078	216.293503
13279.715745	3907.903167	723.874023	216.555099
13279.715745	3907.903167	722.668945	213.866562
13279.715745	3907.903167	721.461914	255.007492
13279.715745	3907.903167	720.255859	135.326523
13279.715745	3907.903167	719.048828	-10.636607
13279.715745	3907.903167	717.841797	-68.906662
13279.715745	3907.903167	716.634766	-30.774014
13279.715745	3907.903167	715.427734	132.907501
13279.715745	3907.903167	714.219727	100.838142
13279.715745	3907.903167	713.011719	-65.547775
13279.715745	3907.903167	711.803711	153.408615
13279.715745	3907.903167	710.594727	-74.264847
13279.715745	3907.903167	709.385742	103.690933
13279.715745	3907.903167	708.176758	109.431412
13279.715745	3907.903167	706.967773	53.891365
13279.715745	3907.903167	705.758789	27.502132
13279.715745	3907.903167	704.548828	161.432083
13279.715745	3907.903167	703.338867	111.648460
13279.715745	3907.903167	702.127930	158.016373
13279.715745	3907.903167	700.917969	262.602142
13279.715745	3907.903167	699.707031	209.816360
13279.715745	3907.903167	698.496094	145.370102
13279.715745	3907.903167	697.285156	37.243557
13279.715745	3907.903167	696.073242	-38.852077
13279.715745	3907.903167	694.861328	-88.756462
13279.715745	3907.903167	693.649414	108.657104
13279.715745	3907.903167	692.436523	116.855629
13279.715745	3907.903167	691.224609	113.382927
13279.715745	3907.903167	690.011719	182.573593
13279.715745	3907.903167	688.798828	42.371315
13279.715745	3907.903167	687.584961	79.501320
13279.715745	3907.903167	686.372070	197.951996
13279.715745	3907.903167	685.158203	359.898102
13279.715745	3907.903167	683.943359	54.050282
13279.715745	3907.903167	682.729492	166.512863
13279.715745	3907.903167	681.514648	348.577637
13279.715745	3907.903167	680.299805	199.580124
13279.715745	3907.903167	679.084961	256.682312
13279.715745	3907.903167	677.869141	252.782562
13279.715745	3907.903167	676.653320	283.661377
13279.715745	3907.903167	675.437500	401.508087
13279.715745	3907.903167	674.221680	179.967590
13279.715745	3907.903167	673.004883	489.069061
13279.715745	3907.903167	671.789063	38.523369
13279.715745	3907.903167	670.571289	240.214035
13279.715745	3907.903167	669.354492	111.461479
13279.715745	3907.903167	668.136719	133.364548
13279.715745	3907.903167	666.919922	262.386353
13279.715745	3907.903167	665.701172	524.514099
13279.715745	3907.903167	664.483398	407.235077
13279.715745	3907.903167	663.264648	313.120636
13279.715745	3907.903167	662.045898	314.505890
13279.715745	3907.903167	660.827148	541.527588
13279.715745	3907.903167	659.608398	670.064148
13279.715745	3907.903167	658.388672	593.169373
13279.715745	3907.903167	657.168945	1010.705505
13279.715745	3907.903167	655.949219	1138.943481
13279.715745	3907.903167	654.728516	1128.355103
13279.715745	3907.903167	653.507813	1143.737793
13279.715745	3907.903167	652.287109	945.289673
13279.715745	3907.903167	651.066406	790.212708
13279.715745	3907.903167	649.844727	623.608765
13279.715745	3907.903167	648.623047	491.683228
13279.715745	3907.903167	647.401367	426.165619
13279.715745	3907.903167	646.179688	545.339294
13279.715745	3907.903167	644.957031	205.651413
13279.715745	3907.903167	643.734375	350.704895
13279.715745	3907.903167	642.511719	380.293854
13279.715745	3907.903167	641.289063	421.367157
13279.715745	3907.903167	640.065430	300.939850
13279.715745	3907.903167	638.841797	353.464081
13279.715745	3907.903167	637.618164	209.974213
13279.715745	3907.903167	636.393555	455.450073
13279.715745	3907.903167	635.168945	464.587585
13279.715745	3907.903167	633.944336	729.991516
13279.715745	3907.903167	632.719727	756.269470
13279.715745	3907.903167	631.494141	696.138672
13279.715745	3907.903167	630.269531	814.437195
13279.715745	3907.903167	629.042969	811.794189
13279.715745	3907.903167	627.817383	794.734497
13279.715745	3907.903167	626.590820	809.283752
13279.715745	3907.903167	625.365234	746.153381
13279.715745	3907.903167	624.137695	524.886353
13279.715745	3907.903167	622.911133	795.198303
13279.715745	3907.903167	621.683594	663.034058
13279.715745	3907.903167	620.456055	573.989990
13279.715745	3907.903167	619.228516	617.087463
13279.715745	3907.903167	618.000977	559.616943
13279.715745	3907.903167	616.772461	533.720215
13279.715745	3907.903167	615.543945	349.914124
13279.715745	3907.903167	614.314453	576.576172
13279.715745	3907.903167	613.085938	381.299957
13279.715745	3907.903167	611.856445	409.845886
13279.715745	3907.903167	610.626953	254.781281
13279.715745	3907.903167	609.397461	283.283478
13279.715745	3907.903167	608.166992	159.788528
13279.715745	3907.903167	606.936523	211.171005
13279.715745	3907.903167	605.706055	422.991058
13279.715745	3907.903167	604.474609	276.537842
13279.715745	3907.903167	603.244141	233.250458
13279.715745	3907.903167	602.012695	301.648499
13279.715745	3907.903167	600.780273	166.688080
13279.715745	3907.903167	599.548828	269.375916
13279.715745	3907.903167	598.316406	486.480042
13279.715745	3907.903167	597.083984	328.602814
13279.715745	3907.903167	595.851563	107.829834
13279.715745	3907.903167	594.618164	284.714386
13279.715745	3907.903167	593.384766	255.601089
13279.715745	3907.903167	592.151367	438.056122
13279.715745	3907.903167	590.917969	397.448822
13279.715745	3907.903167	589.683594	648.344727
13279.715745	3907.903167	588.449219	779.107544
13279.715745	3907.903167	587.214844	578.421204
13279.715745	3907.903167	585.979492	286.404877
13279.715745	3907.903167	584.745117	502.777679
13279.715745	3907.903167	583.509766	173.758102
13279.715745	3907.903167	582.273438	124.579399
13279.715745	3907.903167	581.038086	-147.173508
13279.715745	3907.903167	579.801758	208.844849
13279.715745	3907.903167	578.565430	119.719124
13279.715745	3907.903167	577.329102	64.842781
13279.715745	3907.903167	576.091797	172.495651
13279.715745	3907.903167	574.854492	126.161392
13279.715745	3907.903167	573.617188	62.738369
13279.715745	3907.903167	572.378906	-14.914939
13279.715745	3907.903167	571.141602	-1.376500
13279.715745	3907.903167	569.903320	100.441330
13279.715745	3907.903167	568.664063	-99.635323
13279.715745	3907.903167	567.425781	-57.634087
13279.715745	3907.903167	566.186523	72.580551
13279.715745	3907.903167	564.947266	3.535792
13279.715745	3907.903167	563.708008	19.874704
13279.715745	3907.903167	562.467773	44.736603
13279.715745	3907.903167	561.227539	-1.508027
13279.715745	3907.903167	559.987305	0.605684
13279.715745	3907.903167	558.747070	156.229126
13279.715745	3907.903167	557.505859	21.891813
13279.715745	3907.903167	556.264648	86.522820
13279.715745	3907.903167	555.023438	-78.979362
13279.715745	3907.903167	553.781250	-173.399170
13279.715745	3907.903167	552.539063	84.349709
13279.715745	3907.903167	551.296875	80.803970
13279.715745	3907.903167	550.054688	-87.360069
13279.715745	3907.903167	548.811523	-147.605499
13279.715745	3907.903167	547.569336	-97.155815
13279.715745	3907.903167	546.325195	-80.760254
13279.715745	3907.903167	545.082031	-50.173359
13279.715745	3907.903167	543.837891	-28.092787
13279.715745	3907.903167	542.593750	-119.397133
13279.715745	3907.903167	541.349609	-49.094147
13279.715745	3907.903167	540.105469	-41.140785
13279.715745	3907.903167	538.860352	-203.153824
13279.715745	3907.903167	537.615234	-95.999229
13279.715745	3907.903167	536.369141	-42.675095
13279.715745	3907.903167	535.124023	21.978033
13279.715745	3907.903167	533.877930	-9.614676
13279.715745	3907.903167	532.631836	-100.597610
13279.715745	3907.903167	531.384766	-86.831573
13279.715745	3907.903167	530.138672	-231.450287
13279.715745	3907.903167	528.891602	-22.463976
13279.715745	3907.903167	527.643555	16.807144
13279.715745	3907.903167	526.396484	-150.269852
13279.715745	3907.903167	525.148438	-82.662064
13279.715745	3907.903167	523.900391	-105.473610
13279.715745	3907.903167	522.652344	-255.371002
13279.715745	3907.903167	521.403320	-57.758865
13279.715745	3907.903167	520.154297	-122.818062
13279.715745	3907.903167	518.905273	-120.053543
13279.715745	3907.903167	517.656250	-4.345770
13279.715745	3907.903167	516.406250	69.016922
13279.715745	3907.903167	515.156250	18.243130
13279.715745	3907.903167	513.906250	-7.081347
13279.715745	3907.903167	512.655273	1.486637
13279.715745	3907.903167	511.404297	94.682869
13279.715745	3907.903167	510.153320	97.671707
13279.715745	3907.903167	508.902344	-20.489468
13279.715745	3907.903167	507.650391	69.960915
13279.715745	3907.903167	506.398438	-22.702044
13279.715745	3907.903167	505.146484	180.465698
13279.715745	3907.903167	503.893555	54.116344
13279.715745	3907.903167	502.641602	-1.743976
13279.715745	3907.903167	501.388672	108.539085
13279.715745	3907.903167	500.134766	230.076569
13279.715745	3907.903167	498.881836	-87.306915
13279.715745	3907.903167	497.627930	9.002123
13279.715745	3907.903167	496.374023	96.882729
13279.715745	3907.903167	495.119141	-51.415661
13279.715745	3907.903167	493.865234	-22.493202
13279.715745	3907.903167	492.610352	-30.071203
13279.715745	3907.903167	491.355469	46.704163
13279.715745	3907.903167	490.099609	-22.590525
13279.715745	3907.903167	488.843750	51.443806
13279.715745	3907.903167	487.587891	111.457222
13279.715745	3907.903167	486.332031	36.735973
13279.715745	3907.903167	485.075195	290.508484
13279.715745	3907.903167	483.818359	179.401978
13279.715745	3907.903167	482.561523	149.761627
13279.715745	3907.903167	481.304688	86.525352
13279.715745	3907.903167	480.046875	68.239388
13279.715745	3907.903167	478.789063	218.248825
13279.715745	3907.903167	477.531250	197.243835
13279.715745	3907.903167	476.272461	257.576263
13279.715745	3907.903167	475.013672	253.486450
13279.715745	3907.903167	473.754883	112.176041
13279.715745	3907.903167	472.496094	55.004395
13279.715745	3907.903167	471.236328	401.147491
13279.715745	3907.903167	469.976563	2.474593
13279.715745	3907.903167	468.716797	205.824783
13279.715745	3907.903167	467.456055	78.914009
13279.715745	3907.903167	466.196289	128.372406
13279.715745	3907.903167	464.935547	312.124207
13279.715745	3907.903167	463.673828	95.916527
13279.715745	3907.903167	462.413086	170.638824
13279.715745	3907.903167	461.151367	86.029243
13279.715745	3907.903167	459.889648	49.010765
13279.715745	3907.903167	458.626953	-32.660507
13279.715745	3907.903167	457.364258	201.424484
13279.715745	3907.903167	456.101563	192.451645
13279.715745	3907.903167	454.838867	82.990585
13279.715745	3907.903167	453.575195	21.070580
13279.715745	3907.903167	452.312500	193.674545
13279.715745	3907.903167	451.047852	48.100266
13279.715745	3907.903167	449.784180	192.781219
13279.715745	3907.903167	448.519531	38.956135
13279.715745	3907.903167	447.254883	19.084749
13279.715745	3907.903167	445.990234	177.689041
13279.715745	3907.903167	444.725586	-115.349754
13279.715745	3907.903167	443.459961	138.007629
13279.715745	3907.903167	442.194336	260.307281
13279.715745	3907.903167	440.927734	243.272827
13279.715745	3907.903167	439.662109	153.839737
13279.715745	3907.903167	438.395508	287.216675
13279.715745	3907.903167	437.127930	314.743073
13279.715745	3907.903167	435.861328	336.688965
13279.715745	3907.903167	434.593750	166.606827
13279.715745	3907.903167	433.326172	191.341080
13279.715745	3907.903167	432.058594	229.957626
13279.715745	3907.903167	430.790039	34.937214
13279.715745	3907.903167	429.521484	-26.563219
13279.715745	3907.903167	428.252930	209.372849
13279.715745	3907.903167	426.984375	220.062180
13279.715745	3907.903167	425.714844	289.059479
13279.715745	3907.903167	424.445313	60.743763
13279.715745	3907.903167	423.174805	354.625366
13279.715745	3907.903167	421.905273	259.582306
13279.715745	3907.903167	420.634766	242.254196
13279.715745	3907.903167	419.364258	233.199142
13279.715745	3907.903167	418.092773	204.654099
13279.715745	3907.903167	416.822266	128.883423
13279.715745	3907.903167	415.550781	316.571442
13279.715745	3907.903167	414.278320	85.343475
13279.715745	3907.903167	413.006836	222.873749
13279.715745	3907.903167	411.734375	205.012604
13279.715745	3907.903167	410.461914	311.763428
13279.715745	3907.903167	409.188477	191.149307
13279.715745	3907.903167	407.916016	150.801331
13279.715745	3907.903167	406.642578	265.433533
13279.715745	3907.903167	405.368164	136.209076
13279.715745	3907.903167	404.094727	117.630531
13279.715745	3907.903167	402.820313	65.690376
13279.715745	3907.903167	401.545898	196.240128
13279.715745	3907.903167	400.270508	246.329758
13279.715745	3907.903167	398.996094	174.516006
13279.715745	3907.903167	397.720703	185.499786
13279.715745	3907.903167	396.444336	461.690948
13279.715745	3907.903167	395.168945	209.602386
13279.715745	3907.903167	393.892578	319.423523
13279.715745	3907.903167	392.616211	437.253479
13279.715745	3907.903167	391.339844	430.483978
13279.715745	3907.903167	390.062500	393.080353
13279.715745	3907.903167	388.785156	471.395416
13279.715745	3907.903167	387.507813	287.148010
13279.715745	3907.903167	386.229492	30.927496
13279.715745	3907.903167	384.951172	238.085831
13279.715745	3907.903167	383.672852	235.175415
13279.715745	3907.903167	382.394531	82.998375
13279.715745	3907.903167	381.115234	239.385513
13279.715745	3907.903167	379.835938	287.829468
13279.715745	3907.903167	378.556641	148.451172
13279.715745	3907.903167	377.277344	-49.119446
13279.715745	3907.903167	375.997070	180.037186
13279.715745	3907.903167	374.716797	133.226410
13279.715745	3907.903167	373.435547	138.324448
13279.715745	3907.903167	372.155273	-13.957710
13279.715745	3907.903167	370.874023	53.576191
13279.715745	3907.903167	369.591797	51.790588
13279.715745	3907.903167	368.310547	118.307579
13279.715745	3907.903167	367.028320	-16.546108
13279.715745	3907.903167	365.746094	147.916855
13279.715745	3907.903167	364.463867	86.279137
13279.715745	3907.903167	363.180664	164.297012
13279.715745	3907.903167	361.897461	255.436081
13279.715745	3907.903167	360.614258	301.962311
13279.715745	3907.903167	359.330078	218.702560
13279.715745	3907.903167	358.045898	93.630234
13279.715745	3907.903167	356.761719	55.820538
13279.715745	3907.903167	355.477539	151.869736
13279.715745	3907.903167	354.192383	-35.578884
13279.715745	3907.903167	352.907227	91.919891
13279.715745	3907.903167	351.622070	-102.414078
13279.715745	3907.903167	350.336914	-86.220787
13279.715745	3907.903167	349.050781	-293.002808
13279.715745	3907.903167	347.764648	-26.164251
13279.715745	3907.903167	346.477539	88.911079
13279.715745	3907.903167	345.191406	-90.189735
13279.715745	3907.903167	343.904297	77.866425
13279.715745	3907.903167	342.616211	86.000847
13279.715745	3907.903167	341.329102	60.323586
13279.715745	3907.903167	340.041016	-78.625153
13279.715745	3907.903167	338.752930	-21.408791
13279.715745	3907.903167	337.463867	59.349537
13279.715745	3907.903167	336.175781	29.557604
13279.715745	3907.903167	334.886719	-64.278198
13279.715745	3907.903167	333.596680	81.481667
13279.715745	3907.903167	332.307617	-107.610222
13279.715745	3907.903167	331.017578	-150.196976
13279.715745	3907.903167	329.727539	-155.727295
13279.715745	3907.903167	328.436523	50.625263
13279.715745	3907.903167	327.146484	-135.117096
13279.715745	3907.903167	325.855469	43.921860
13279.715745	3907.903167	324.563477	-84.414238
13279.715745	3907.903167	323.272461	28.956497
13279.715745	3907.903167	321.980469	-96.709175
13279.715745	3907.903167	320.688477	-98.245529
13279.715745	3907.903167	319.395508	-112.249321
13279.715745	3907.903167	318.103516	-160.506729
13279.715745	3907.903167	316.810547	21.473377
13279.715745	3907.903167	315.516602	38.074146
13279.715745	3907.903167	314.223633	-20.583302
13279.715745	3907.903167	312.929688	-37.363052
13279.715745	3907.903167	311.635742	-64.073959
13279.715745	3907.903167	310.340820	38.160526
13279.715745	3907.903167	309.045898	258.356750
13279.715745	3907.903167	307.750977	198.766968
13279.715745	3907.903167	306.456055	139.983521
13279.715745	3907.903167	305.160156	35.631817
13279.715745	3907.903167	303.865234	155.240143
13279.715745	3907.903167	302.568359	212.741516
13279.715745	3907.903167	301.272461	376.956970
13279.715745	3907.903167	299.975586	389.265106
13279.715745	3907.903167	298.678711	486.348358
