#X		#Y		#Wave		#Intensity
3068.920213	5956.579333	1999.980469	-39.518665
3068.920213	5956.579333	1999.016602	65.969940
3068.920213	5956.579333	1998.052734	-99.011063
3068.920213	5956.579333	1997.087891	-180.753693
3068.920213	5956.579333	1996.123047	-315.567810
3068.920213	5956.579333	1995.158203	-268.056885
3068.920213	5956.579333	1994.193359	-85.346649
3068.920213	5956.579333	1993.228516	-29.969660
3068.920213	5956.579333	1992.262695	133.396790
3068.920213	5956.579333	1991.297852	112.595825
3068.920213	5956.579333	1990.332031	46.384060
3068.920213	5956.579333	1989.366211	53.573593
3068.920213	5956.579333	1988.399414	62.422619
3068.920213	5956.579333	1987.433594	255.968369
3068.920213	5956.579333	1986.466797	119.760979
3068.920213	5956.579333	1985.500977	81.751762
3068.920213	5956.579333	1984.534180	139.461182
3068.920213	5956.579333	1983.567383	317.568115
3068.920213	5956.579333	1982.599609	396.096252
3068.920213	5956.579333	1981.632813	300.984894
3068.920213	5956.579333	1980.665039	121.301384
3068.920213	5956.579333	1979.697266	79.399055
3068.920213	5956.579333	1978.729492	73.974861
3068.920213	5956.579333	1977.761719	124.785782
3068.920213	5956.579333	1976.792969	93.587112
3068.920213	5956.579333	1975.825195	-91.133011
3068.920213	5956.579333	1974.856445	24.772636
3068.920213	5956.579333	1973.887695	-190.430115
3068.920213	5956.579333	1972.918945	203.261261
3068.920213	5956.579333	1971.949219	347.288666
3068.920213	5956.579333	1970.980469	325.644470
3068.920213	5956.579333	1970.010742	380.037323
3068.920213	5956.579333	1969.041016	101.281822
3068.920213	5956.579333	1968.071289	226.426971
3068.920213	5956.579333	1967.101563	324.079865
3068.920213	5956.579333	1966.130859	128.220505
3068.920213	5956.579333	1965.161133	242.460144
3068.920213	5956.579333	1964.190430	361.289551
3068.920213	5956.579333	1963.219727	506.878326
3068.920213	5956.579333	1962.249023	21.974064
3068.920213	5956.579333	1961.277344	275.348114
3068.920213	5956.579333	1960.306641	235.569534
3068.920213	5956.579333	1959.334961	244.788422
3068.920213	5956.579333	1958.363281	42.253834
3068.920213	5956.579333	1957.391602	314.252319
3068.920213	5956.579333	1956.419922	433.515350
3068.920213	5956.579333	1955.447266	601.728821
3068.920213	5956.579333	1954.474609	494.430054
3068.920213	5956.579333	1953.501953	347.704987
3068.920213	5956.579333	1952.529297	284.437927
3068.920213	5956.579333	1951.556641	292.309723
3068.920213	5956.579333	1950.583984	56.909039
3068.920213	5956.579333	1949.610352	332.266510
3068.920213	5956.579333	1948.636719	452.750336
3068.920213	5956.579333	1947.663086	94.424774
3068.920213	5956.579333	1946.689453	47.853752
3068.920213	5956.579333	1945.715820	177.909454
3068.920213	5956.579333	1944.741211	-160.742752
3068.920213	5956.579333	1943.767578	-33.257786
3068.920213	5956.579333	1942.792969	302.595978
3068.920213	5956.579333	1941.818359	22.831572
3068.920213	5956.579333	1940.842773	91.263412
3068.920213	5956.579333	1939.868164	448.882172
3068.920213	5956.579333	1938.892578	637.257935
3068.920213	5956.579333	1937.916992	453.125366
3068.920213	5956.579333	1936.941406	168.621582
3068.920213	5956.579333	1935.965820	244.274078
3068.920213	5956.579333	1934.990234	-199.241547
3068.920213	5956.579333	1934.013672	133.555222
3068.920213	5956.579333	1933.037109	248.384064
3068.920213	5956.579333	1932.060547	169.849518
3068.920213	5956.579333	1931.083984	-1.612058
3068.920213	5956.579333	1930.107422	137.738190
3068.920213	5956.579333	1929.129883	281.965607
3068.920213	5956.579333	1928.153320	-23.809776
3068.920213	5956.579333	1927.175781	-204.723557
3068.920213	5956.579333	1926.198242	-233.942749
3068.920213	5956.579333	1925.219727	-94.447556
3068.920213	5956.579333	1924.242188	130.591660
3068.920213	5956.579333	1923.263672	69.732208
3068.920213	5956.579333	1922.285156	40.718163
3068.920213	5956.579333	1921.306641	155.884033
3068.920213	5956.579333	1920.328125	-92.779617
3068.920213	5956.579333	1919.349609	-141.075394
3068.920213	5956.579333	1918.370117	-59.904415
3068.920213	5956.579333	1917.391602	6.668066
3068.920213	5956.579333	1916.412109	163.575928
3068.920213	5956.579333	1915.431641	66.771919
3068.920213	5956.579333	1914.452148	326.215179
3068.920213	5956.579333	1913.472656	300.300690
3068.920213	5956.579333	1912.492188	47.708824
3068.920213	5956.579333	1911.511719	78.089020
3068.920213	5956.579333	1910.531250	115.851936
3068.920213	5956.579333	1909.550781	-421.445435
3068.920213	5956.579333	1908.569336	172.085892
3068.920213	5956.579333	1907.588867	-26.241726
3068.920213	5956.579333	1906.607422	372.312225
3068.920213	5956.579333	1905.625977	-186.219467
3068.920213	5956.579333	1904.644531	-228.302032
3068.920213	5956.579333	1903.662109	313.929840
3068.920213	5956.579333	1902.680664	174.581833
3068.920213	5956.579333	1901.698242	-113.072182
3068.920213	5956.579333	1900.715820	-145.084442
3068.920213	5956.579333	1899.733398	27.317425
3068.920213	5956.579333	1898.750000	31.926233
3068.920213	5956.579333	1897.767578	-350.003357
3068.920213	5956.579333	1896.784180	150.763672
3068.920213	5956.579333	1895.800781	-218.743896
3068.920213	5956.579333	1894.817383	-21.814777
3068.920213	5956.579333	1893.833984	286.877441
3068.920213	5956.579333	1892.850586	-82.237366
3068.920213	5956.579333	1891.866211	-259.272949
3068.920213	5956.579333	1890.881836	-159.347855
3068.920213	5956.579333	1889.897461	91.133469
3068.920213	5956.579333	1888.913086	222.635620
3068.920213	5956.579333	1887.927734	-228.328247
3068.920213	5956.579333	1886.943359	-99.127167
3068.920213	5956.579333	1885.958008	151.382507
3068.920213	5956.579333	1884.972656	79.243423
3068.920213	5956.579333	1883.987305	167.238129
3068.920213	5956.579333	1883.001953	-154.526642
3068.920213	5956.579333	1882.015625	217.206207
3068.920213	5956.579333	1881.029297	-397.644257
3068.920213	5956.579333	1880.042969	-38.043732
3068.920213	5956.579333	1879.056641	-104.969810
3068.920213	5956.579333	1878.070313	-210.599289
3068.920213	5956.579333	1877.083984	233.629227
3068.920213	5956.579333	1876.096680	190.992218
3068.920213	5956.579333	1875.109375	-192.980499
3068.920213	5956.579333	1874.122070	-63.618290
3068.920213	5956.579333	1873.134766	-40.774033
3068.920213	5956.579333	1872.146484	-146.171402
3068.920213	5956.579333	1871.159180	113.789131
3068.920213	5956.579333	1870.170898	71.307968
3068.920213	5956.579333	1869.182617	-104.165527
3068.920213	5956.579333	1868.194336	-54.709049
3068.920213	5956.579333	1867.205078	-41.534733
3068.920213	5956.579333	1866.216797	19.964523
3068.920213	5956.579333	1865.227539	-15.231751
3068.920213	5956.579333	1864.238281	12.388123
3068.920213	5956.579333	1863.249023	37.564663
3068.920213	5956.579333	1862.259766	-70.127655
3068.920213	5956.579333	1861.269531	288.237427
3068.920213	5956.579333	1860.279297	124.956696
3068.920213	5956.579333	1859.290039	2.737204
3068.920213	5956.579333	1858.298828	206.331589
3068.920213	5956.579333	1857.308594	74.413330
3068.920213	5956.579333	1856.318359	118.609688
3068.920213	5956.579333	1855.327148	15.608300
3068.920213	5956.579333	1854.335938	16.290051
3068.920213	5956.579333	1853.344727	-45.772690
3068.920213	5956.579333	1852.353516	3.015889
3068.920213	5956.579333	1851.362305	193.925415
3068.920213	5956.579333	1850.370117	-73.157593
3068.920213	5956.579333	1849.377930	307.888214
3068.920213	5956.579333	1848.385742	64.824646
3068.920213	5956.579333	1847.393555	255.282639
3068.920213	5956.579333	1846.401367	373.350189
3068.920213	5956.579333	1845.408203	-67.252594
3068.920213	5956.579333	1844.415039	-57.665718
3068.920213	5956.579333	1843.421875	351.314056
3068.920213	5956.579333	1842.428711	-147.067093
3068.920213	5956.579333	1841.435547	-63.189854
3068.920213	5956.579333	1840.441406	109.538452
3068.920213	5956.579333	1839.448242	27.188599
3068.920213	5956.579333	1838.454102	31.311012
3068.920213	5956.579333	1837.459961	218.004700
3068.920213	5956.579333	1836.464844	332.404968
3068.920213	5956.579333	1835.470703	74.179176
3068.920213	5956.579333	1834.475586	272.394531
3068.920213	5956.579333	1833.480469	45.238415
3068.920213	5956.579333	1832.485352	151.853699
3068.920213	5956.579333	1831.490234	32.582458
3068.920213	5956.579333	1830.495117	-2.766392
3068.920213	5956.579333	1829.499023	218.574448
3068.920213	5956.579333	1828.502930	523.672058
3068.920213	5956.579333	1827.506836	473.397980
3068.920213	5956.579333	1826.510742	497.350189
3068.920213	5956.579333	1825.513672	65.426430
3068.920213	5956.579333	1824.517578	48.352093
3068.920213	5956.579333	1823.520508	146.191467
3068.920213	5956.579333	1822.523438	164.717804
3068.920213	5956.579333	1821.526367	269.339874
3068.920213	5956.579333	1820.529297	462.400116
3068.920213	5956.579333	1819.531250	37.105824
3068.920213	5956.579333	1818.533203	486.057281
3068.920213	5956.579333	1817.535156	110.833290
3068.920213	5956.579333	1816.537109	410.766632
3068.920213	5956.579333	1815.539063	80.791687
3068.920213	5956.579333	1814.540039	351.493988
3068.920213	5956.579333	1813.541992	193.550461
3068.920213	5956.579333	1812.542969	121.584381
3068.920213	5956.579333	1811.543945	362.802979
3068.920213	5956.579333	1810.543945	268.880951
3068.920213	5956.579333	1809.544922	69.571304
3068.920213	5956.579333	1808.544922	226.333649
3068.920213	5956.579333	1807.544922	291.983643
3068.920213	5956.579333	1806.544922	149.469727
3068.920213	5956.579333	1805.544922	343.685638
3068.920213	5956.579333	1804.544922	205.535004
3068.920213	5956.579333	1803.543945	193.787003
3068.920213	5956.579333	1802.542969	198.524216
3068.920213	5956.579333	1801.541992	408.351532
3068.920213	5956.579333	1800.541016	243.080933
3068.920213	5956.579333	1799.539063	392.662537
3068.920213	5956.579333	1798.538086	100.497246
3068.920213	5956.579333	1797.536133	452.343018
3068.920213	5956.579333	1796.534180	90.594635
3068.920213	5956.579333	1795.532227	284.404175
3068.920213	5956.579333	1794.529297	487.412201
3068.920213	5956.579333	1793.527344	1.127697
3068.920213	5956.579333	1792.524414	194.060410
3068.920213	5956.579333	1791.521484	420.018646
3068.920213	5956.579333	1790.518555	395.453613
3068.920213	5956.579333	1789.514648	415.879822
3068.920213	5956.579333	1788.511719	219.303192
3068.920213	5956.579333	1787.507813	36.807358
3068.920213	5956.579333	1786.503906	165.993195
3068.920213	5956.579333	1785.500000	11.591426
3068.920213	5956.579333	1784.496094	149.701935
3068.920213	5956.579333	1783.491211	149.459122
3068.920213	5956.579333	1782.486328	277.402649
3068.920213	5956.579333	1781.481445	148.130585
3068.920213	5956.579333	1780.476563	6.733305
3068.920213	5956.579333	1779.471680	81.471138
3068.920213	5956.579333	1778.465820	20.377790
3068.920213	5956.579333	1777.460938	508.063263
3068.920213	5956.579333	1776.455078	139.793396
3068.920213	5956.579333	1775.449219	-5.300044
3068.920213	5956.579333	1774.442383	350.561859
3068.920213	5956.579333	1773.436523	62.399742
3068.920213	5956.579333	1772.429688	194.323151
3068.920213	5956.579333	1771.422852	10.152688
3068.920213	5956.579333	1770.416016	290.977295
3068.920213	5956.579333	1769.409180	125.245338
3068.920213	5956.579333	1768.402344	61.303715
3068.920213	5956.579333	1767.394531	-147.638596
3068.920213	5956.579333	1766.386719	-76.931198
3068.920213	5956.579333	1765.378906	-46.865734
3068.920213	5956.579333	1764.371094	-33.710331
3068.920213	5956.579333	1763.362305	-51.698326
3068.920213	5956.579333	1762.354492	-141.063980
3068.920213	5956.579333	1761.345703	143.665787
3068.920213	5956.579333	1760.336914	487.209839
3068.920213	5956.579333	1759.328125	119.726097
3068.920213	5956.579333	1758.318359	-46.646904
3068.920213	5956.579333	1757.308594	-255.884598
3068.920213	5956.579333	1756.299805	-174.154556
3068.920213	5956.579333	1755.290039	-97.516136
3068.920213	5956.579333	1754.279297	28.459513
3068.920213	5956.579333	1753.269531	262.930542
3068.920213	5956.579333	1752.258789	-129.867096
3068.920213	5956.579333	1751.249023	11.692833
3068.920213	5956.579333	1750.238281	-31.566839
3068.920213	5956.579333	1749.226563	-115.330292
3068.920213	5956.579333	1748.215820	-289.166687
3068.920213	5956.579333	1747.204102	51.915173
3068.920213	5956.579333	1746.193359	-257.181915
3068.920213	5956.579333	1745.181641	156.379837
3068.920213	5956.579333	1744.168945	269.496613
3068.920213	5956.579333	1743.157227	-278.913177
3068.920213	5956.579333	1742.144531	258.605774
3068.920213	5956.579333	1741.132813	-117.886238
3068.920213	5956.579333	1740.120117	119.055351
3068.920213	5956.579333	1739.106445	-0.725731
3068.920213	5956.579333	1738.093750	63.275967
3068.920213	5956.579333	1737.080078	138.716385
3068.920213	5956.579333	1736.067383	1.608077
3068.920213	5956.579333	1735.053711	140.088379
3068.920213	5956.579333	1734.040039	-18.812258
3068.920213	5956.579333	1733.025391	-269.900513
3068.920213	5956.579333	1732.011719	6.686231
3068.920213	5956.579333	1730.997070	-171.869797
3068.920213	5956.579333	1729.982422	-11.454823
3068.920213	5956.579333	1728.967773	-28.028433
3068.920213	5956.579333	1727.952148	-129.687485
3068.920213	5956.579333	1726.937500	81.537155
3068.920213	5956.579333	1725.921875	-274.897430
3068.920213	5956.579333	1724.906250	-66.688354
3068.920213	5956.579333	1723.890625	143.503891
3068.920213	5956.579333	1722.875000	233.352783
3068.920213	5956.579333	1721.858398	162.918381
3068.920213	5956.579333	1720.841797	-124.114288
3068.920213	5956.579333	1719.825195	-42.204380
3068.920213	5956.579333	1718.808594	4.134294
3068.920213	5956.579333	1717.791992	-76.733109
3068.920213	5956.579333	1716.774414	-2.798389
3068.920213	5956.579333	1715.756836	-272.162079
3068.920213	5956.579333	1714.739258	-154.144440
3068.920213	5956.579333	1713.721680	-146.815704
3068.920213	5956.579333	1712.704102	-109.240158
3068.920213	5956.579333	1711.685547	113.470245
3068.920213	5956.579333	1710.667969	-11.497367
3068.920213	5956.579333	1709.649414	205.882782
3068.920213	5956.579333	1708.630859	-156.575699
3068.920213	5956.579333	1707.611328	-129.807785
3068.920213	5956.579333	1706.592773	-166.594971
3068.920213	5956.579333	1705.573242	-65.319466
3068.920213	5956.579333	1704.553711	33.319809
3068.920213	5956.579333	1703.534180	-158.971558
3068.920213	5956.579333	1702.513672	-128.848236
3068.920213	5956.579333	1701.494141	-31.005241
3068.920213	5956.579333	1700.473633	-76.371758
3068.920213	5956.579333	1699.453125	168.454224
3068.920213	5956.579333	1698.432617	136.633575
3068.920213	5956.579333	1697.412109	22.645576
3068.920213	5956.579333	1696.390625	55.896976
3068.920213	5956.579333	1695.369141	-250.437698
3068.920213	5956.579333	1694.347656	128.685379
3068.920213	5956.579333	1693.326172	184.601120
3068.920213	5956.579333	1692.304688	81.222534
3068.920213	5956.579333	1691.282227	89.873558
3068.920213	5956.579333	1690.260742	117.043877
3068.920213	5956.579333	1689.238281	141.612625
3068.920213	5956.579333	1688.214844	84.121338
3068.920213	5956.579333	1687.192383	472.785583
3068.920213	5956.579333	1686.168945	482.584991
3068.920213	5956.579333	1685.146484	534.257446
3068.920213	5956.579333	1684.123047	475.912842
3068.920213	5956.579333	1683.099609	263.286987
3068.920213	5956.579333	1682.075195	339.981781
3068.920213	5956.579333	1681.051758	456.168213
3068.920213	5956.579333	1680.027344	460.074066
3068.920213	5956.579333	1679.002930	685.435974
3068.920213	5956.579333	1677.978516	728.581543
3068.920213	5956.579333	1676.953125	554.598328
3068.920213	5956.579333	1675.928711	758.285950
3068.920213	5956.579333	1674.903320	796.161804
3068.920213	5956.579333	1673.877930	721.973206
3068.920213	5956.579333	1672.852539	862.042053
3068.920213	5956.579333	1671.826172	985.545166
3068.920213	5956.579333	1670.800781	1013.371643
3068.920213	5956.579333	1669.774414	877.959412
3068.920213	5956.579333	1668.748047	1003.246155
3068.920213	5956.579333	1667.721680	1144.633911
3068.920213	5956.579333	1666.694336	1146.119263
3068.920213	5956.579333	1665.667969	1405.823242
3068.920213	5956.579333	1664.640625	1237.120117
3068.920213	5956.579333	1663.613281	1796.493164
3068.920213	5956.579333	1662.585938	1608.905273
3068.920213	5956.579333	1661.557617	1795.615967
3068.920213	5956.579333	1660.530273	1824.073975
3068.920213	5956.579333	1659.501953	2235.906250
3068.920213	5956.579333	1658.473633	2198.913330
3068.920213	5956.579333	1657.444336	2143.190430
3068.920213	5956.579333	1656.416016	2349.942871
3068.920213	5956.579333	1655.386719	2231.281738
3068.920213	5956.579333	1654.358398	2289.101807
3068.920213	5956.579333	1653.328125	2258.485596
3068.920213	5956.579333	1652.298828	2483.182617
3068.920213	5956.579333	1651.269531	2508.100586
3068.920213	5956.579333	1650.239258	2757.967285
3068.920213	5956.579333	1649.208984	2803.490234
3068.920213	5956.579333	1648.178711	2881.392090
3068.920213	5956.579333	1647.148438	3314.016846
3068.920213	5956.579333	1646.117188	3486.666016
3068.920213	5956.579333	1645.086914	3462.169678
3068.920213	5956.579333	1644.055664	3745.846436
3068.920213	5956.579333	1643.024414	4217.058105
3068.920213	5956.579333	1641.992188	4338.134766
3068.920213	5956.579333	1640.960938	4375.763184
3068.920213	5956.579333	1639.928711	5003.869141
3068.920213	5956.579333	1638.896484	5265.829590
3068.920213	5956.579333	1637.864258	5261.407227
3068.920213	5956.579333	1636.832031	5613.409668
3068.920213	5956.579333	1635.798828	5911.973633
3068.920213	5956.579333	1634.766602	5946.666992
3068.920213	5956.579333	1633.733398	6256.562988
3068.920213	5956.579333	1632.699219	6561.654297
3068.920213	5956.579333	1631.666016	7102.517090
3068.920213	5956.579333	1630.632813	7261.680664
3068.920213	5956.579333	1629.598633	7441.535645
3068.920213	5956.579333	1628.564453	7591.272949
3068.920213	5956.579333	1627.530273	7588.451660
3068.920213	5956.579333	1626.495117	7869.744141
3068.920213	5956.579333	1625.460938	8247.985352
3068.920213	5956.579333	1624.425781	8626.047852
3068.920213	5956.579333	1623.390625	8805.422852
3068.920213	5956.579333	1622.355469	9296.376953
3068.920213	5956.579333	1621.319336	9247.067383
3068.920213	5956.579333	1620.284180	9419.362305
3068.920213	5956.579333	1619.248047	9903.031250
3068.920213	5956.579333	1618.211914	10040.560547
3068.920213	5956.579333	1617.174805	10141.134766
3068.920213	5956.579333	1616.138672	9967.380859
3068.920213	5956.579333	1615.101563	10418.419922
3068.920213	5956.579333	1614.065430	10595.107422
3068.920213	5956.579333	1613.027344	10939.916992
3068.920213	5956.579333	1611.990234	10370.046875
3068.920213	5956.579333	1610.953125	10645.827148
3068.920213	5956.579333	1609.915039	10654.377930
3068.920213	5956.579333	1608.876953	10352.156250
3068.920213	5956.579333	1607.838867	10365.516602
3068.920213	5956.579333	1606.800781	10530.859375
3068.920213	5956.579333	1605.761719	10611.039063
3068.920213	5956.579333	1604.723633	10024.097656
3068.920213	5956.579333	1603.684570	10072.321289
3068.920213	5956.579333	1602.644531	10033.183594
3068.920213	5956.579333	1601.605469	9692.984375
3068.920213	5956.579333	1600.566406	9582.916992
3068.920213	5956.579333	1599.526367	10001.620117
3068.920213	5956.579333	1598.486328	9533.217773
3068.920213	5956.579333	1597.446289	9595.864258
3068.920213	5956.579333	1596.405273	9715.995117
3068.920213	5956.579333	1595.365234	9363.121094
3068.920213	5956.579333	1594.324219	9387.061523
3068.920213	5956.579333	1593.283203	9647.591797
3068.920213	5956.579333	1592.242188	9609.761719
3068.920213	5956.579333	1591.200195	9126.833008
3068.920213	5956.579333	1590.159180	9272.958008
3068.920213	5956.579333	1589.117188	9391.609375
3068.920213	5956.579333	1588.075195	9794.766602
3068.920213	5956.579333	1587.032227	9106.357422
3068.920213	5956.579333	1585.990234	8581.196289
3068.920213	5956.579333	1584.947266	8938.870117
3068.920213	5956.579333	1583.904297	8746.545898
3068.920213	5956.579333	1582.861328	9024.192383
3068.920213	5956.579333	1581.818359	8513.840820
3068.920213	5956.579333	1580.775391	8081.741211
3068.920213	5956.579333	1579.731445	8190.390137
3068.920213	5956.579333	1578.687500	8324.372070
3068.920213	5956.579333	1577.643555	7387.190918
3068.920213	5956.579333	1576.598633	7507.892090
3068.920213	5956.579333	1575.554688	7988.023926
3068.920213	5956.579333	1574.509766	7649.115234
3068.920213	5956.579333	1573.464844	7532.417480
3068.920213	5956.579333	1572.419922	7761.285156
3068.920213	5956.579333	1571.374023	7372.908691
3068.920213	5956.579333	1570.329102	7243.249512
3068.920213	5956.579333	1569.283203	7260.096191
3068.920213	5956.579333	1568.237305	7060.076660
3068.920213	5956.579333	1567.191406	6816.956543
3068.920213	5956.579333	1566.144531	6599.251465
3068.920213	5956.579333	1565.098633	6824.939941
3068.920213	5956.579333	1564.051758	6961.690918
3068.920213	5956.579333	1563.004883	6486.835449
3068.920213	5956.579333	1561.957031	6610.358398
3068.920213	5956.579333	1560.910156	6756.927734
3068.920213	5956.579333	1559.862305	7024.573730
3068.920213	5956.579333	1558.814453	6528.227539
3068.920213	5956.579333	1557.766602	6182.849609
3068.920213	5956.579333	1556.718750	5999.755371
3068.920213	5956.579333	1555.669922	6325.330078
3068.920213	5956.579333	1554.621094	5994.627930
3068.920213	5956.579333	1553.573242	5807.918457
3068.920213	5956.579333	1552.523438	5532.637695
3068.920213	5956.579333	1551.474609	5916.078125
3068.920213	5956.579333	1550.424805	5327.152832
3068.920213	5956.579333	1549.375000	5708.736328
3068.920213	5956.579333	1548.325195	5453.025879
3068.920213	5956.579333	1547.275391	4992.853027
3068.920213	5956.579333	1546.225586	5249.982422
3068.920213	5956.579333	1545.174805	5395.785645
3068.920213	5956.579333	1544.124023	5075.510254
3068.920213	5956.579333	1543.073242	5437.947754
3068.920213	5956.579333	1542.022461	4843.253418
3068.920213	5956.579333	1540.970703	5049.308105
3068.920213	5956.579333	1539.919922	4425.990234
3068.920213	5956.579333	1538.868164	4821.287109
3068.920213	5956.579333	1537.815430	4855.455078
3068.920213	5956.579333	1536.763672	4424.270020
3068.920213	5956.579333	1535.710938	3752.809326
3068.920213	5956.579333	1534.659180	3876.710938
3068.920213	5956.579333	1533.606445	3866.912842
3068.920213	5956.579333	1532.552734	3950.484863
3068.920213	5956.579333	1531.500000	3237.831787
3068.920213	5956.579333	1530.446289	3698.800293
3068.920213	5956.579333	1529.393555	3479.399170
3068.920213	5956.579333	1528.338867	3117.491211
3068.920213	5956.579333	1527.285156	3139.312012
3068.920213	5956.579333	1526.231445	2728.444580
3068.920213	5956.579333	1525.176758	2789.527832
3068.920213	5956.579333	1524.122070	2413.553223
3068.920213	5956.579333	1523.067383	2475.373535
3068.920213	5956.579333	1522.012695	2247.557861
3068.920213	5956.579333	1520.957031	2384.808350
3068.920213	5956.579333	1519.901367	2055.888428
3068.920213	5956.579333	1518.845703	2180.256348
3068.920213	5956.579333	1517.790039	2332.098145
3068.920213	5956.579333	1516.734375	1825.676880
3068.920213	5956.579333	1515.677734	1849.263672
3068.920213	5956.579333	1514.621094	1981.794922
3068.920213	5956.579333	1513.564453	2082.975342
3068.920213	5956.579333	1512.507813	2091.771973
3068.920213	5956.579333	1511.450195	1761.792114
3068.920213	5956.579333	1510.393555	1540.837158
3068.920213	5956.579333	1509.335938	1349.705688
3068.920213	5956.579333	1508.278320	1199.699097
3068.920213	5956.579333	1507.219727	1298.612061
3068.920213	5956.579333	1506.162109	860.334534
3068.920213	5956.579333	1505.103516	691.320129
3068.920213	5956.579333	1504.044922	628.868652
3068.920213	5956.579333	1502.986328	1083.747070
3068.920213	5956.579333	1501.926758	771.495972
3068.920213	5956.579333	1500.868164	658.335388
3068.920213	5956.579333	1499.808594	459.870758
3068.920213	5956.579333	1498.749023	306.989807
3068.920213	5956.579333	1497.688477	111.701248
3068.920213	5956.579333	1496.628906	-13.205822
3068.920213	5956.579333	1495.568359	281.591797
3068.920213	5956.579333	1494.507813	96.634438
3068.920213	5956.579333	1493.447266	20.305935
3068.920213	5956.579333	1492.386719	343.154114
3068.920213	5956.579333	1491.325195	319.402588
3068.920213	5956.579333	1490.263672	124.920128
3068.920213	5956.579333	1489.202148	266.385315
3068.920213	5956.579333	1488.140625	210.113419
3068.920213	5956.579333	1487.079102	131.765350
3068.920213	5956.579333	1486.016602	355.361328
3068.920213	5956.579333	1484.954102	102.350121
3068.920213	5956.579333	1483.891602	184.982346
3068.920213	5956.579333	1482.829102	13.881669
3068.920213	5956.579333	1481.765625	-226.445923
3068.920213	5956.579333	1480.702148	19.266939
3068.920213	5956.579333	1479.638672	157.409409
3068.920213	5956.579333	1478.575195	131.911636
3068.920213	5956.579333	1477.511719	243.795517
3068.920213	5956.579333	1476.447266	19.299242
3068.920213	5956.579333	1475.382813	-263.036560
3068.920213	5956.579333	1474.318359	-57.914692
3068.920213	5956.579333	1473.253906	470.772491
3068.920213	5956.579333	1472.189453	259.488129
3068.920213	5956.579333	1471.124023	290.845215
3068.920213	5956.579333	1470.058594	677.089233
3068.920213	5956.579333	1468.993164	671.099304
3068.920213	5956.579333	1467.927734	665.174194
3068.920213	5956.579333	1466.861328	657.590454
3068.920213	5956.579333	1465.794922	581.525513
3068.920213	5956.579333	1464.728516	568.161011
3068.920213	5956.579333	1463.662109	551.002625
3068.920213	5956.579333	1462.594727	775.632996
3068.920213	5956.579333	1461.528320	385.875183
3068.920213	5956.579333	1460.460938	333.808899
3068.920213	5956.579333	1459.393555	839.509338
3068.920213	5956.579333	1458.326172	560.552490
3068.920213	5956.579333	1457.257813	941.938599
3068.920213	5956.579333	1456.189453	1217.952637
3068.920213	5956.579333	1455.121094	739.414551
3068.920213	5956.579333	1454.052734	1173.999634
3068.920213	5956.579333	1452.984375	819.797241
3068.920213	5956.579333	1451.915039	979.573242
3068.920213	5956.579333	1450.845703	975.463928
3068.920213	5956.579333	1449.776367	885.865173
3068.920213	5956.579333	1448.707031	1078.575195
3068.920213	5956.579333	1447.636719	1116.425537
3068.920213	5956.579333	1446.567383	598.864746
3068.920213	5956.579333	1445.497070	844.428101
3068.920213	5956.579333	1444.425781	322.502716
3068.920213	5956.579333	1443.355469	722.011169
3068.920213	5956.579333	1442.285156	666.863708
3068.920213	5956.579333	1441.213867	298.753571
3068.920213	5956.579333	1440.142578	578.842041
3068.920213	5956.579333	1439.070313	427.742798
3068.920213	5956.579333	1437.999023	734.852966
3068.920213	5956.579333	1436.926758	946.715637
3068.920213	5956.579333	1435.854492	965.726868
3068.920213	5956.579333	1434.782227	973.383606
3068.920213	5956.579333	1433.709961	687.897583
3068.920213	5956.579333	1432.636719	677.833801
3068.920213	5956.579333	1431.563477	713.057373
3068.920213	5956.579333	1430.490234	172.246750
3068.920213	5956.579333	1429.416992	280.285431
3068.920213	5956.579333	1428.343750	305.785431
3068.920213	5956.579333	1427.269531	47.602440
3068.920213	5956.579333	1426.195313	149.093674
3068.920213	5956.579333	1425.121094	-122.203201
3068.920213	5956.579333	1424.046875	-253.260300
3068.920213	5956.579333	1422.971680	-273.529175
3068.920213	5956.579333	1421.896484	-53.326130
3068.920213	5956.579333	1420.821289	111.472336
3068.920213	5956.579333	1419.746094	191.542404
3068.920213	5956.579333	1418.669922	106.806877
3068.920213	5956.579333	1417.594727	111.318069
3068.920213	5956.579333	1416.518555	317.333618
3068.920213	5956.579333	1415.442383	577.364990
3068.920213	5956.579333	1414.365234	680.250244
3068.920213	5956.579333	1413.289063	484.884552
3068.920213	5956.579333	1412.211914	566.250854
3068.920213	5956.579333	1411.134766	389.943024
3068.920213	5956.579333	1410.057617	600.502197
3068.920213	5956.579333	1408.979492	441.160736
3068.920213	5956.579333	1407.902344	854.056152
3068.920213	5956.579333	1406.824219	1021.203979
3068.920213	5956.579333	1405.746094	1291.454102
3068.920213	5956.579333	1404.666992	1249.827148
3068.920213	5956.579333	1403.588867	1607.826904
3068.920213	5956.579333	1402.509766	1421.924805
3068.920213	5956.579333	1401.430664	1531.443726
3068.920213	5956.579333	1400.351563	1383.115845
3068.920213	5956.579333	1399.271484	1423.988892
3068.920213	5956.579333	1398.192383	1527.196045
3068.920213	5956.579333	1397.112305	1801.641357
3068.920213	5956.579333	1396.031250	1689.382324
3068.920213	5956.579333	1394.951172	1657.120239
3068.920213	5956.579333	1393.871094	1644.280273
3068.920213	5956.579333	1392.790039	1713.142212
3068.920213	5956.579333	1391.708984	1777.830444
3068.920213	5956.579333	1390.626953	1991.226929
3068.920213	5956.579333	1389.545898	2176.684082
3068.920213	5956.579333	1388.463867	2223.468506
3068.920213	5956.579333	1387.381836	2221.183594
3068.920213	5956.579333	1386.299805	2595.444336
3068.920213	5956.579333	1385.217773	2462.244141
3068.920213	5956.579333	1384.134766	2516.226318
3068.920213	5956.579333	1383.051758	2616.223877
3068.920213	5956.579333	1381.968750	2580.898193
3068.920213	5956.579333	1380.885742	2593.648926
3068.920213	5956.579333	1379.802734	2938.149414
3068.920213	5956.579333	1378.718750	3094.079346
3068.920213	5956.579333	1377.634766	3112.637451
3068.920213	5956.579333	1376.550781	3031.867676
3068.920213	5956.579333	1375.465820	2622.915527
3068.920213	5956.579333	1374.381836	2463.841797
3068.920213	5956.579333	1373.296875	1961.438232
3068.920213	5956.579333	1372.211914	1649.874268
3068.920213	5956.579333	1371.126953	1358.674683
3068.920213	5956.579333	1370.041016	1363.927490
3068.920213	5956.579333	1368.955078	1220.186035
3068.920213	5956.579333	1367.869141	1317.230835
3068.920213	5956.579333	1366.783203	1418.551025
3068.920213	5956.579333	1365.697266	1454.227905
3068.920213	5956.579333	1364.610352	1213.128174
3068.920213	5956.579333	1363.523438	791.618164
3068.920213	5956.579333	1362.436523	1142.509399
3068.920213	5956.579333	1361.349609	1394.373291
3068.920213	5956.579333	1360.261719	1132.282471
3068.920213	5956.579333	1359.174805	1065.080811
3068.920213	5956.579333	1358.086914	1458.899658
3068.920213	5956.579333	1356.998047	1494.656616
3068.920213	5956.579333	1355.910156	1371.336548
3068.920213	5956.579333	1354.821289	1371.439331
3068.920213	5956.579333	1353.732422	1673.281860
3068.920213	5956.579333	1352.643555	1796.140503
3068.920213	5956.579333	1351.554688	2005.150757
3068.920213	5956.579333	1350.464844	1801.059326
3068.920213	5956.579333	1349.375000	2026.746582
3068.920213	5956.579333	1348.285156	2089.898926
3068.920213	5956.579333	1347.195313	1894.118896
3068.920213	5956.579333	1346.105469	1744.887573
3068.920213	5956.579333	1345.014648	1494.849121
3068.920213	5956.579333	1343.923828	1759.943359
3068.920213	5956.579333	1342.833008	1942.901611
3068.920213	5956.579333	1341.741211	1759.116455
3068.920213	5956.579333	1340.650391	1750.728760
3068.920213	5956.579333	1339.558594	1446.880859
3068.920213	5956.579333	1338.466797	1838.617065
3068.920213	5956.579333	1337.374023	1602.053345
3068.920213	5956.579333	1336.282227	1277.469604
3068.920213	5956.579333	1335.189453	1323.191162
3068.920213	5956.579333	1334.096680	1259.240234
3068.920213	5956.579333	1333.003906	1185.255859
3068.920213	5956.579333	1331.910156	1353.150146
3068.920213	5956.579333	1330.817383	1316.722412
3068.920213	5956.579333	1329.723633	1153.407349
3068.920213	5956.579333	1328.629883	1428.104858
3068.920213	5956.579333	1327.535156	1268.981445
3068.920213	5956.579333	1326.441406	1173.448242
3068.920213	5956.579333	1325.346680	1244.251953
3068.920213	5956.579333	1324.251953	995.904968
3068.920213	5956.579333	1323.156250	809.832214
3068.920213	5956.579333	1322.061523	834.861572
3068.920213	5956.579333	1320.965820	883.734985
3068.920213	5956.579333	1319.870117	1070.315918
3068.920213	5956.579333	1318.774414	874.700500
3068.920213	5956.579333	1317.678711	821.379639
3068.920213	5956.579333	1316.582031	1134.640381
3068.920213	5956.579333	1315.485352	975.720520
3068.920213	5956.579333	1314.388672	781.153809
3068.920213	5956.579333	1313.291016	1224.022583
3068.920213	5956.579333	1312.194336	1291.388672
3068.920213	5956.579333	1311.096680	1383.660400
3068.920213	5956.579333	1309.999023	1485.051392
3068.920213	5956.579333	1308.901367	1592.976440
3068.920213	5956.579333	1307.802734	1979.651001
3068.920213	5956.579333	1306.705078	2004.555908
3068.920213	5956.579333	1305.606445	1563.799561
3068.920213	5956.579333	1304.506836	1606.879272
3068.920213	5956.579333	1303.408203	1352.588989
3068.920213	5956.579333	1302.308594	1593.233643
3068.920213	5956.579333	1301.208984	1248.686157
3068.920213	5956.579333	1300.109375	1087.009399
3068.920213	5956.579333	1299.009766	980.231567
3068.920213	5956.579333	1297.909180	880.737000
3068.920213	5956.579333	1296.808594	999.828125
3068.920213	5956.579333	1295.708008	1138.640259
3068.920213	5956.579333	1294.607422	1057.875122
3068.920213	5956.579333	1293.506836	743.841797
3068.920213	5956.579333	1292.405273	771.298462
3068.920213	5956.579333	1291.303711	949.607483
3068.920213	5956.579333	1290.202148	890.122986
3068.920213	5956.579333	1289.099609	670.642273
3068.920213	5956.579333	1287.998047	799.549133
3068.920213	5956.579333	1286.895508	978.586121
3068.920213	5956.579333	1285.792969	1113.857544
3068.920213	5956.579333	1284.689453	1222.582764
3068.920213	5956.579333	1283.586914	1173.883545
3068.920213	5956.579333	1282.483398	1352.940308
3068.920213	5956.579333	1281.379883	1423.468384
3068.920213	5956.579333	1280.276367	701.066284
3068.920213	5956.579333	1279.171875	854.078552
3068.920213	5956.579333	1278.067383	766.925598
3068.920213	5956.579333	1276.962891	646.908936
3068.920213	5956.579333	1275.858398	422.445251
3068.920213	5956.579333	1274.753906	488.607452
3068.920213	5956.579333	1273.648438	206.808792
3068.920213	5956.579333	1272.542969	12.616018
3068.920213	5956.579333	1271.437500	246.871674
3068.920213	5956.579333	1270.331055	-108.704330
3068.920213	5956.579333	1269.225586	-14.936299
3068.920213	5956.579333	1268.119141	113.730103
3068.920213	5956.579333	1267.012695	75.488586
3068.920213	5956.579333	1265.906250	-2.724513
3068.920213	5956.579333	1264.798828	-19.843521
3068.920213	5956.579333	1263.691406	-362.778229
3068.920213	5956.579333	1262.583984	-391.453583
3068.920213	5956.579333	1261.476563	-55.511349
3068.920213	5956.579333	1260.368164	-141.899490
3068.920213	5956.579333	1259.260742	9.428906
3068.920213	5956.579333	1258.152344	-135.231522
3068.920213	5956.579333	1257.043945	-106.239685
3068.920213	5956.579333	1255.934570	60.780659
3068.920213	5956.579333	1254.825195	-119.302765
3068.920213	5956.579333	1253.716797	128.168915
3068.920213	5956.579333	1252.606445	-73.499840
3068.920213	5956.579333	1251.497070	128.792694
3068.920213	5956.579333	1250.387695	132.141525
3068.920213	5956.579333	1249.277344	120.987236
3068.920213	5956.579333	1248.166992	187.342331
3068.920213	5956.579333	1247.055664	123.877800
3068.920213	5956.579333	1245.945313	145.471512
3068.920213	5956.579333	1244.833984	6.653864
3068.920213	5956.579333	1243.722656	367.812592
3068.920213	5956.579333	1242.611328	431.097260
3068.920213	5956.579333	1241.499023	455.080994
3068.920213	5956.579333	1240.387695	485.659821
3068.920213	5956.579333	1239.275391	259.227020
3068.920213	5956.579333	1238.162109	235.010117
3068.920213	5956.579333	1237.049805	295.239532
3068.920213	5956.579333	1235.936523	127.218346
3068.920213	5956.579333	1234.823242	91.057549
3068.920213	5956.579333	1233.709961	169.787689
3068.920213	5956.579333	1232.596680	254.370941
3068.920213	5956.579333	1231.482422	-25.678543
3068.920213	5956.579333	1230.369141	92.452652
3068.920213	5956.579333	1229.253906	101.263138
3068.920213	5956.579333	1228.139648	76.387817
3068.920213	5956.579333	1227.025391	-6.245100
3068.920213	5956.579333	1225.910156	-150.250717
3068.920213	5956.579333	1224.794922	-154.376556
3068.920213	5956.579333	1223.679688	-346.492279
3068.920213	5956.579333	1222.563477	-346.336243
3068.920213	5956.579333	1221.447266	-244.686905
3068.920213	5956.579333	1220.331055	-425.443146
3068.920213	5956.579333	1219.214844	-319.072235
3068.920213	5956.579333	1218.098633	-320.166351
3068.920213	5956.579333	1216.981445	-298.061920
3068.920213	5956.579333	1215.864258	-92.859032
3068.920213	5956.579333	1214.747070	-32.815872
3068.920213	5956.579333	1213.629883	-151.911270
3068.920213	5956.579333	1212.511719	-51.733940
3068.920213	5956.579333	1211.393555	-58.492851
3068.920213	5956.579333	1210.275391	101.678940
3068.920213	5956.579333	1209.157227	101.005798
3068.920213	5956.579333	1208.038086	211.277557
3068.920213	5956.579333	1206.918945	129.238907
3068.920213	5956.579333	1205.799805	-57.938419
3068.920213	5956.579333	1204.680664	-13.596354
3068.920213	5956.579333	1203.560547	-40.131039
3068.920213	5956.579333	1202.441406	217.446655
3068.920213	5956.579333	1201.321289	167.762421
3068.920213	5956.579333	1200.200195	232.319763
3068.920213	5956.579333	1199.080078	83.391846
3068.920213	5956.579333	1197.958984	33.703281
3068.920213	5956.579333	1196.837891	-96.253761
3068.920213	5956.579333	1195.716797	88.284462
3068.920213	5956.579333	1194.594727	-33.393532
3068.920213	5956.579333	1193.473633	44.131489
3068.920213	5956.579333	1192.351563	75.659019
3068.920213	5956.579333	1191.229492	136.043396
3068.920213	5956.579333	1190.106445	61.953510
3068.920213	5956.579333	1188.984375	187.378235
3068.920213	5956.579333	1187.861328	390.686279
3068.920213	5956.579333	1186.738281	265.043243
3068.920213	5956.579333	1185.614258	401.445648
3068.920213	5956.579333	1184.491211	444.971527
3068.920213	5956.579333	1183.367188	470.447540
3068.920213	5956.579333	1182.243164	499.737183
3068.920213	5956.579333	1181.119141	428.987396
3068.920213	5956.579333	1179.994141	336.973328
3068.920213	5956.579333	1178.869141	142.869598
3068.920213	5956.579333	1177.744141	473.786102
3068.920213	5956.579333	1176.619141	397.012451
3068.920213	5956.579333	1175.493164	364.129852
3068.920213	5956.579333	1174.368164	545.660950
3068.920213	5956.579333	1173.242188	442.525330
3068.920213	5956.579333	1172.115234	446.486847
3068.920213	5956.579333	1170.989258	247.573135
3068.920213	5956.579333	1169.862305	214.374725
3068.920213	5956.579333	1168.735352	189.933258
3068.920213	5956.579333	1167.608398	145.294403
3068.920213	5956.579333	1166.481445	372.798798
3068.920213	5956.579333	1165.353516	245.440399
3068.920213	5956.579333	1164.225586	266.849548
3068.920213	5956.579333	1163.097656	118.355270
3068.920213	5956.579333	1161.968750	231.519424
3068.920213	5956.579333	1160.840820	180.039093
3068.920213	5956.579333	1159.711914	164.167923
3068.920213	5956.579333	1158.583008	360.382965
3068.920213	5956.579333	1157.453125	158.862732
3068.920213	5956.579333	1156.324219	150.249176
3068.920213	5956.579333	1155.194336	-26.939766
3068.920213	5956.579333	1154.064453	-195.558212
3068.920213	5956.579333	1152.933594	-9.426361
3068.920213	5956.579333	1151.803711	-88.400635
3068.920213	5956.579333	1150.672852	-133.347290
3068.920213	5956.579333	1149.541992	-72.322723
3068.920213	5956.579333	1148.411133	-39.075706
3068.920213	5956.579333	1147.279297	-120.878410
3068.920213	5956.579333	1146.147461	-183.099091
3068.920213	5956.579333	1145.015625	-158.445419
3068.920213	5956.579333	1143.883789	-53.667999
3068.920213	5956.579333	1142.750977	170.591187
3068.920213	5956.579333	1141.619141	-31.903421
3068.920213	5956.579333	1140.486328	14.902581
3068.920213	5956.579333	1139.352539	-73.269234
3068.920213	5956.579333	1138.219727	5.794081
3068.920213	5956.579333	1137.085938	51.796238
3068.920213	5956.579333	1135.952148	-147.984497
3068.920213	5956.579333	1134.818359	-11.636412
3068.920213	5956.579333	1133.683594	64.753838
3068.920213	5956.579333	1132.549805	82.385666
3068.920213	5956.579333	1131.415039	322.484406
3068.920213	5956.579333	1130.279297	449.963257
3068.920213	5956.579333	1129.144531	348.618561
3068.920213	5956.579333	1128.008789	554.975403
3068.920213	5956.579333	1126.873047	624.587158
3068.920213	5956.579333	1125.737305	546.414734
3068.920213	5956.579333	1124.601563	590.930542
3068.920213	5956.579333	1123.464844	430.946838
3068.920213	5956.579333	1122.328125	314.750397
3068.920213	5956.579333	1121.191406	170.315781
3068.920213	5956.579333	1120.054688	271.832397
3068.920213	5956.579333	1118.916992	416.691864
3068.920213	5956.579333	1117.779297	345.398651
3068.920213	5956.579333	1116.641602	373.777069
3068.920213	5956.579333	1115.503906	478.784149
3068.920213	5956.579333	1114.365234	366.508148
3068.920213	5956.579333	1113.226563	584.655579
3068.920213	5956.579333	1112.087891	250.236359
3068.920213	5956.579333	1110.949219	148.188187
3068.920213	5956.579333	1109.809570	214.350494
3068.920213	5956.579333	1108.669922	147.157303
3068.920213	5956.579333	1107.530273	101.749504
3068.920213	5956.579333	1106.390625	71.205498
3068.920213	5956.579333	1105.250000	112.332779
3068.920213	5956.579333	1104.109375	361.189301
3068.920213	5956.579333	1102.968750	261.400452
3068.920213	5956.579333	1101.828125	511.132629
3068.920213	5956.579333	1100.686523	282.546112
3068.920213	5956.579333	1099.544922	292.697845
3068.920213	5956.579333	1098.403320	541.517944
3068.920213	5956.579333	1097.261719	333.249084
3068.920213	5956.579333	1096.120117	386.977692
3068.920213	5956.579333	1094.977539	249.011703
3068.920213	5956.579333	1093.834961	50.698170
3068.920213	5956.579333	1092.691406	189.795837
3068.920213	5956.579333	1091.548828	167.716461
3068.920213	5956.579333	1090.405273	-13.743847
3068.920213	5956.579333	1089.261719	149.436646
3068.920213	5956.579333	1088.118164	119.907059
3068.920213	5956.579333	1086.973633	-48.713387
3068.920213	5956.579333	1085.829102	-74.124947
3068.920213	5956.579333	1084.684570	-5.697987
3068.920213	5956.579333	1083.540039	-20.142694
3068.920213	5956.579333	1082.395508	113.561234
3068.920213	5956.579333	1081.250000	4.498998
3068.920213	5956.579333	1080.104492	41.196007
3068.920213	5956.579333	1078.958984	-124.192612
3068.920213	5956.579333	1077.812500	-44.046993
3068.920213	5956.579333	1076.666016	83.877640
3068.920213	5956.579333	1075.519531	190.896652
3068.920213	5956.579333	1074.373047	173.780472
3068.920213	5956.579333	1073.226563	-117.753159
3068.920213	5956.579333	1072.079102	94.854271
3068.920213	5956.579333	1070.931641	-24.141684
3068.920213	5956.579333	1069.784180	-47.847443
3068.920213	5956.579333	1068.635742	-217.796783
3068.920213	5956.579333	1067.487305	-17.499163
3068.920213	5956.579333	1066.338867	48.833580
3068.920213	5956.579333	1065.190430	160.585327
3068.920213	5956.579333	1064.041992	89.350929
3068.920213	5956.579333	1062.892578	127.662216
3068.920213	5956.579333	1061.743164	314.057587
3068.920213	5956.579333	1060.593750	59.690510
3068.920213	5956.579333	1059.443359	154.738861
3068.920213	5956.579333	1058.292969	276.069763
3068.920213	5956.579333	1057.142578	94.457794
3068.920213	5956.579333	1055.992188	288.105377
3068.920213	5956.579333	1054.841797	92.332054
3068.920213	5956.579333	1053.690430	355.820831
3068.920213	5956.579333	1052.539063	210.615463
3068.920213	5956.579333	1051.387695	335.484833
3068.920213	5956.579333	1050.235352	33.672005
3068.920213	5956.579333	1049.083984	53.753143
3068.920213	5956.579333	1047.931641	-66.429626
3068.920213	5956.579333	1046.778320	-2.770004
3068.920213	5956.579333	1045.625977	68.188133
3068.920213	5956.579333	1044.472656	-34.251144
3068.920213	5956.579333	1043.319336	142.767960
3068.920213	5956.579333	1042.166016	139.389389
3068.920213	5956.579333	1041.012695	80.733696
3068.920213	5956.579333	1039.858398	101.265274
3068.920213	5956.579333	1038.704102	-24.477766
3068.920213	5956.579333	1037.549805	-328.013519
3068.920213	5956.579333	1036.394531	-98.184647
3068.920213	5956.579333	1035.239258	-119.458397
3068.920213	5956.579333	1034.083984	136.953796
3068.920213	5956.579333	1032.928711	297.619812
3068.920213	5956.579333	1031.773438	-3.749852
3068.920213	5956.579333	1030.617188	124.509247
3068.920213	5956.579333	1029.460938	26.588865
3068.920213	5956.579333	1028.304688	262.877228
3068.920213	5956.579333	1027.147461	-245.180313
3068.920213	5956.579333	1025.991211	62.338581
3068.920213	5956.579333	1024.833984	-123.846977
3068.920213	5956.579333	1023.675781	303.695801
3068.920213	5956.579333	1022.518555	1.226023
3068.920213	5956.579333	1021.360352	186.450317
3068.920213	5956.579333	1020.202148	55.413166
3068.920213	5956.579333	1019.043945	-102.329163
3068.920213	5956.579333	1017.884766	167.569992
3068.920213	5956.579333	1016.726563	-35.152290
3068.920213	5956.579333	1015.567383	-352.798523
3068.920213	5956.579333	1014.407227	6.259467
3068.920213	5956.579333	1013.248047	-27.465073
3068.920213	5956.579333	1012.087891	48.525391
3068.920213	5956.579333	1010.927734	143.040115
3068.920213	5956.579333	1009.767578	269.949860
3068.920213	5956.579333	1008.606445	259.260498
3068.920213	5956.579333	1007.446289	368.738464
3068.920213	5956.579333	1006.285156	547.821533
3068.920213	5956.579333	1005.123047	244.915253
3068.920213	5956.579333	1003.961914	390.835632
3068.920213	5956.579333	1002.799805	379.515808
3068.920213	5956.579333	1001.637695	404.930084
3068.920213	5956.579333	1000.475586	465.166077
3068.920213	5956.579333	999.312500	496.427948
3068.920213	5956.579333	998.149414	396.756775
3068.920213	5956.579333	996.986328	189.574097
3068.920213	5956.579333	995.823242	404.045654
3068.920213	5956.579333	994.659180	361.326385
3068.920213	5956.579333	993.496094	303.933502
3068.920213	5956.579333	992.332031	-9.037771
3068.920213	5956.579333	991.166992	347.599487
3068.920213	5956.579333	990.002930	423.937317
3068.920213	5956.579333	988.837891	293.570313
3068.920213	5956.579333	987.672852	323.562012
3068.920213	5956.579333	986.506836	261.523712
3068.920213	5956.579333	985.341797	-3.961630
3068.920213	5956.579333	984.175781	107.787819
3068.920213	5956.579333	983.009766	-11.923875
3068.920213	5956.579333	981.843750	-14.682974
3068.920213	5956.579333	980.676758	15.578386
3068.920213	5956.579333	979.509766	51.311028
3068.920213	5956.579333	978.342773	71.176727
3068.920213	5956.579333	977.175781	249.397781
3068.920213	5956.579333	976.007813	-463.182892
3068.920213	5956.579333	974.839844	95.301865
3068.920213	5956.579333	973.671875	-118.535034
3068.920213	5956.579333	972.503906	-97.090431
3068.920213	5956.579333	971.334961	57.581753
3068.920213	5956.579333	970.166016	-8.004534
3068.920213	5956.579333	968.997070	219.066330
3068.920213	5956.579333	967.828125	-121.032211
3068.920213	5956.579333	966.658203	-258.329010
3068.920213	5956.579333	965.488281	-406.759064
3068.920213	5956.579333	964.318359	18.436953
3068.920213	5956.579333	963.148438	-344.901520
3068.920213	5956.579333	961.977539	-247.610275
3068.920213	5956.579333	960.806641	7.307571
3068.920213	5956.579333	959.635742	94.476555
3068.920213	5956.579333	958.463867	137.390762
3068.920213	5956.579333	957.292969	139.158218
3068.920213	5956.579333	956.121094	-19.644636
3068.920213	5956.579333	954.948242	-34.580997
3068.920213	5956.579333	953.776367	-80.136215
3068.920213	5956.579333	952.603516	137.244232
3068.920213	5956.579333	951.430664	-76.774368
3068.920213	5956.579333	950.257813	187.194168
3068.920213	5956.579333	949.084961	-190.766754
3068.920213	5956.579333	947.911133	-199.050369
3068.920213	5956.579333	946.737305	-73.381866
3068.920213	5956.579333	945.563477	-219.529404
3068.920213	5956.579333	944.388672	-301.818085
3068.920213	5956.579333	943.213867	-167.412415
3068.920213	5956.579333	942.039063	-14.699736
3068.920213	5956.579333	940.864258	-74.551796
3068.920213	5956.579333	939.688477	32.647488
3068.920213	5956.579333	938.513672	-35.804836
3068.920213	5956.579333	937.337891	-35.578362
3068.920213	5956.579333	936.161133	152.140533
3068.920213	5956.579333	934.985352	141.276062
3068.920213	5956.579333	933.808594	286.478638
3068.920213	5956.579333	932.631836	212.890686
3068.920213	5956.579333	931.454102	-10.262739
3068.920213	5956.579333	930.277344	353.470154
3068.920213	5956.579333	929.099609	460.510925
3068.920213	5956.579333	927.921875	219.257935
3068.920213	5956.579333	926.743164	299.402802
3068.920213	5956.579333	925.565430	218.840927
3068.920213	5956.579333	924.386719	200.747406
3068.920213	5956.579333	923.208008	97.862457
3068.920213	5956.579333	922.028320	57.395126
3068.920213	5956.579333	920.849609	110.545662
3068.920213	5956.579333	919.669922	114.016182
3068.920213	5956.579333	919.474609	26.026642
3068.920213	5956.579333	918.309570	150.347473
3068.920213	5956.579333	917.143555	-95.231567
3068.920213	5956.579333	915.977539	49.049313
3068.920213	5956.579333	914.810547	-312.269135
3068.920213	5956.579333	913.644531	-41.150520
3068.920213	5956.579333	912.477539	-299.963531
3068.920213	5956.579333	911.310547	-73.522537
3068.920213	5956.579333	910.143555	-36.336510
3068.920213	5956.579333	908.975586	-183.835587
3068.920213	5956.579333	907.807617	-99.980652
3068.920213	5956.579333	906.639648	-31.751400
3068.920213	5956.579333	905.471680	67.554085
3068.920213	5956.579333	904.303711	142.342789
3068.920213	5956.579333	903.134766	343.760529
3068.920213	5956.579333	901.965820	198.447983
3068.920213	5956.579333	900.796875	217.565979
3068.920213	5956.579333	899.626953	-185.343262
3068.920213	5956.579333	898.457031	40.323814
3068.920213	5956.579333	897.287109	-67.143127
3068.920213	5956.579333	896.117188	191.666656
3068.920213	5956.579333	894.947266	-73.390793
3068.920213	5956.579333	893.776367	-200.789093
3068.920213	5956.579333	892.605469	346.223724
3068.920213	5956.579333	891.434570	59.070084
3068.920213	5956.579333	890.262695	162.287949
3068.920213	5956.579333	889.091797	325.306641
3068.920213	5956.579333	887.919922	463.861755
3068.920213	5956.579333	886.748047	504.840027
3068.920213	5956.579333	885.575195	326.441467
3068.920213	5956.579333	884.403320	243.353149
3068.920213	5956.579333	883.230469	120.421875
3068.920213	5956.579333	882.057617	-64.471550
3068.920213	5956.579333	880.883789	109.337578
3068.920213	5956.579333	879.710938	156.899643
3068.920213	5956.579333	878.537109	98.211647
3068.920213	5956.579333	877.362305	90.424194
3068.920213	5956.579333	876.188477	252.949005
3068.920213	5956.579333	875.013672	499.437225
3068.920213	5956.579333	873.839844	109.015442
3068.920213	5956.579333	872.664063	275.827179
3068.920213	5956.579333	871.489258	305.526031
3068.920213	5956.579333	870.313477	96.552071
3068.920213	5956.579333	869.138672	190.322861
3068.920213	5956.579333	867.962891	195.692459
3068.920213	5956.579333	866.786133	251.842514
3068.920213	5956.579333	865.610352	131.323349
3068.920213	5956.579333	864.433594	280.154938
3068.920213	5956.579333	863.256836	309.735443
3068.920213	5956.579333	862.079102	52.441959
3068.920213	5956.579333	860.902344	183.516220
3068.920213	5956.579333	859.724609	257.179199
3068.920213	5956.579333	858.546875	213.924698
3068.920213	5956.579333	857.368164	-122.555862
3068.920213	5956.579333	856.190430	257.489014
3068.920213	5956.579333	855.011719	117.258614
3068.920213	5956.579333	853.833008	27.750645
3068.920213	5956.579333	852.654297	103.488297
3068.920213	5956.579333	851.474609	179.182358
3068.920213	5956.579333	850.294922	-60.058205
3068.920213	5956.579333	849.115234	-2.001265
3068.920213	5956.579333	847.935547	9.796210
3068.920213	5956.579333	846.754883	237.244080
3068.920213	5956.579333	845.575195	207.152420
3068.920213	5956.579333	844.393555	-34.115772
3068.920213	5956.579333	843.212891	195.354996
3068.920213	5956.579333	842.032227	-109.613403
3068.920213	5956.579333	840.850586	273.638733
3068.920213	5956.579333	839.668945	-18.064901
3068.920213	5956.579333	838.486328	-21.785355
3068.920213	5956.579333	837.304688	-203.487930
3068.920213	5956.579333	836.122070	-187.436951
3068.920213	5956.579333	834.939453	-246.082123
3068.920213	5956.579333	833.756836	-115.888901
3068.920213	5956.579333	832.573242	5.450603
3068.920213	5956.579333	831.389648	-62.034847
3068.920213	5956.579333	830.206055	63.589653
3068.920213	5956.579333	829.022461	11.434765
3068.920213	5956.579333	827.838867	237.845520
3068.920213	5956.579333	826.654297	-117.003220
3068.920213	5956.579333	825.469727	52.288395
3068.920213	5956.579333	824.284180	118.459610
3068.920213	5956.579333	823.099609	53.076542
3068.920213	5956.579333	821.914063	-58.319126
3068.920213	5956.579333	820.728516	-62.350994
3068.920213	5956.579333	819.542969	-298.580414
3068.920213	5956.579333	818.356445	-90.201965
3068.920213	5956.579333	817.169922	-186.264984
3068.920213	5956.579333	815.983398	-157.549652
3068.920213	5956.579333	814.796875	-187.965057
3068.920213	5956.579333	813.609375	-3.973491
3068.920213	5956.579333	812.422852	-102.291786
3068.920213	5956.579333	811.235352	-126.240189
3068.920213	5956.579333	810.046875	-34.317776
3068.920213	5956.579333	808.859375	13.803661
3068.920213	5956.579333	807.670898	31.266550
3068.920213	5956.579333	806.482422	-180.773315
3068.920213	5956.579333	805.293945	-279.152893
3068.920213	5956.579333	804.104492	83.381943
3068.920213	5956.579333	802.915039	257.903046
3068.920213	5956.579333	801.725586	148.450363
3068.920213	5956.579333	800.536133	163.434952
3068.920213	5956.579333	799.345703	12.491564
3068.920213	5956.579333	798.155273	-136.255112
3068.920213	5956.579333	796.964844	269.168396
3068.920213	5956.579333	795.774414	81.071548
3068.920213	5956.579333	794.583008	121.987312
3068.920213	5956.579333	793.392578	110.508316
3068.920213	5956.579333	792.200195	-116.828735
3068.920213	5956.579333	791.008789	-141.435944
3068.920213	5956.579333	789.816406	-159.551086
3068.920213	5956.579333	788.625000	-70.966049
3068.920213	5956.579333	787.432617	91.581215
3068.920213	5956.579333	786.239258	55.837379
3068.920213	5956.579333	785.046875	-56.153233
3068.920213	5956.579333	783.853516	21.218737
3068.920213	5956.579333	782.660156	181.195541
3068.920213	5956.579333	781.465820	-41.905273
3068.920213	5956.579333	780.272461	56.976597
3068.920213	5956.579333	779.078125	92.680542
3068.920213	5956.579333	777.883789	-32.611565
3068.920213	5956.579333	776.688477	-105.742584
3068.920213	5956.579333	775.494141	-109.358833
3068.920213	5956.579333	774.298828	52.112976
3068.920213	5956.579333	773.103516	37.456486
3068.920213	5956.579333	771.907227	252.988724
3068.920213	5956.579333	770.711914	179.509125
3068.920213	5956.579333	769.515625	164.608093
3068.920213	5956.579333	768.318359	73.655174
3068.920213	5956.579333	767.122070	136.758774
3068.920213	5956.579333	765.924805	15.307728
3068.920213	5956.579333	764.727539	310.371216
3068.920213	5956.579333	763.530273	-41.153698
3068.920213	5956.579333	762.333008	138.692627
3068.920213	5956.579333	761.134766	309.703156
3068.920213	5956.579333	759.936523	259.449310
3068.920213	5956.579333	758.738281	92.093750
3068.920213	5956.579333	757.540039	93.726990
3068.920213	5956.579333	756.340820	-36.881733
3068.920213	5956.579333	755.141602	192.011124
3068.920213	5956.579333	753.942383	108.886665
3068.920213	5956.579333	752.742188	23.535387
3068.920213	5956.579333	751.541992	366.703033
3068.920213	5956.579333	750.341797	300.610931
3068.920213	5956.579333	749.141602	606.593689
3068.920213	5956.579333	747.941406	429.952728
3068.920213	5956.579333	746.740234	495.509430
3068.920213	5956.579333	745.539063	93.875198
3068.920213	5956.579333	744.337891	273.839722
3068.920213	5956.579333	743.135742	261.253448
3068.920213	5956.579333	741.933594	110.263176
3068.920213	5956.579333	740.731445	322.189911
3068.920213	5956.579333	739.529297	317.909302
3068.920213	5956.579333	738.326172	356.709015
3068.920213	5956.579333	737.124023	293.898560
3068.920213	5956.579333	735.919922	248.263031
3068.920213	5956.579333	734.716797	517.635986
3068.920213	5956.579333	733.513672	419.951477
3068.920213	5956.579333	732.309570	352.389282
3068.920213	5956.579333	731.105469	461.597076
3068.920213	5956.579333	729.900391	631.016235
3068.920213	5956.579333	728.696289	364.731110
3068.920213	5956.579333	727.491211	607.137268
3068.920213	5956.579333	726.286133	301.923767
3068.920213	5956.579333	725.080078	414.707428
3068.920213	5956.579333	723.874023	374.365112
3068.920213	5956.579333	722.668945	435.139404
3068.920213	5956.579333	721.461914	454.839264
3068.920213	5956.579333	720.255859	418.427002
3068.920213	5956.579333	719.048828	663.853394
3068.920213	5956.579333	717.841797	704.609253
3068.920213	5956.579333	716.634766	725.849731
3068.920213	5956.579333	715.427734	480.214569
3068.920213	5956.579333	714.219727	720.573608
3068.920213	5956.579333	713.011719	248.998138
3068.920213	5956.579333	711.803711	138.625961
3068.920213	5956.579333	710.594727	172.152832
3068.920213	5956.579333	709.385742	263.541107
3068.920213	5956.579333	708.176758	348.301666
3068.920213	5956.579333	706.967773	142.919998
3068.920213	5956.579333	705.758789	190.875732
3068.920213	5956.579333	704.548828	371.772400
3068.920213	5956.579333	703.338867	206.856277
3068.920213	5956.579333	702.127930	520.429871
3068.920213	5956.579333	700.917969	350.962006
3068.920213	5956.579333	699.707031	380.913879
3068.920213	5956.579333	698.496094	610.161255
3068.920213	5956.579333	697.285156	875.613586
3068.920213	5956.579333	696.073242	274.694153
3068.920213	5956.579333	694.861328	402.618927
3068.920213	5956.579333	693.649414	457.479187
3068.920213	5956.579333	692.436523	820.670471
3068.920213	5956.579333	691.224609	1001.489868
3068.920213	5956.579333	690.011719	989.330566
3068.920213	5956.579333	688.798828	1238.239380
3068.920213	5956.579333	687.584961	1058.744263
3068.920213	5956.579333	686.372070	999.028259
3068.920213	5956.579333	685.158203	915.635925
3068.920213	5956.579333	683.943359	960.473022
3068.920213	5956.579333	682.729492	575.228943
3068.920213	5956.579333	681.514648	855.029968
3068.920213	5956.579333	680.299805	629.992249
3068.920213	5956.579333	679.084961	864.457458
3068.920213	5956.579333	677.869141	581.488098
3068.920213	5956.579333	676.653320	766.396240
3068.920213	5956.579333	675.437500	658.414246
3068.920213	5956.579333	674.221680	473.430786
3068.920213	5956.579333	673.004883	743.170105
3068.920213	5956.579333	671.789063	651.859558
3068.920213	5956.579333	670.571289	583.890198
3068.920213	5956.579333	669.354492	727.054810
3068.920213	5956.579333	668.136719	511.568909
3068.920213	5956.579333	666.919922	534.920715
3068.920213	5956.579333	665.701172	430.130981
3068.920213	5956.579333	664.483398	478.749847
3068.920213	5956.579333	663.264648	469.622925
3068.920213	5956.579333	662.045898	679.857239
3068.920213	5956.579333	660.827148	254.875137
3068.920213	5956.579333	659.608398	441.317657
3068.920213	5956.579333	658.388672	484.810425
3068.920213	5956.579333	657.168945	540.906372
3068.920213	5956.579333	655.949219	394.567139
3068.920213	5956.579333	654.728516	588.689453
3068.920213	5956.579333	653.507813	829.389404
3068.920213	5956.579333	652.287109	727.286804
3068.920213	5956.579333	651.066406	616.564087
3068.920213	5956.579333	649.844727	329.205658
3068.920213	5956.579333	648.623047	501.089905
3068.920213	5956.579333	647.401367	275.221649
3068.920213	5956.579333	646.179688	497.750305
3068.920213	5956.579333	644.957031	560.654114
3068.920213	5956.579333	643.734375	257.974243
3068.920213	5956.579333	642.511719	465.037933
3068.920213	5956.579333	641.289063	461.631470
3068.920213	5956.579333	640.065430	281.852051
3068.920213	5956.579333	638.841797	327.005096
3068.920213	5956.579333	637.618164	323.183685
3068.920213	5956.579333	636.393555	588.676208
3068.920213	5956.579333	635.168945	489.044373
3068.920213	5956.579333	633.944336	427.490845
3068.920213	5956.579333	632.719727	420.954529
3068.920213	5956.579333	631.494141	318.874023
3068.920213	5956.579333	630.269531	581.271179
3068.920213	5956.579333	629.042969	506.462402
3068.920213	5956.579333	627.817383	414.616974
3068.920213	5956.579333	626.590820	509.067261
3068.920213	5956.579333	625.365234	525.002136
3068.920213	5956.579333	624.137695	326.930328
3068.920213	5956.579333	622.911133	321.461945
3068.920213	5956.579333	621.683594	398.397522
3068.920213	5956.579333	620.456055	324.947052
3068.920213	5956.579333	619.228516	99.089043
3068.920213	5956.579333	618.000977	374.473969
3068.920213	5956.579333	616.772461	146.338669
3068.920213	5956.579333	615.543945	23.891705
3068.920213	5956.579333	614.314453	186.717484
3068.920213	5956.579333	613.085938	49.298153
3068.920213	5956.579333	611.856445	-18.465250
3068.920213	5956.579333	610.626953	44.661762
3068.920213	5956.579333	609.397461	-8.498171
3068.920213	5956.579333	608.166992	-4.743626
3068.920213	5956.579333	606.936523	-15.865143
3068.920213	5956.579333	605.706055	-155.825119
3068.920213	5956.579333	604.474609	-293.722992
3068.920213	5956.579333	603.244141	-85.657089
3068.920213	5956.579333	602.012695	-99.250679
3068.920213	5956.579333	600.780273	-74.983749
3068.920213	5956.579333	599.548828	33.536079
3068.920213	5956.579333	598.316406	-20.392796
3068.920213	5956.579333	597.083984	71.031731
3068.920213	5956.579333	595.851563	-111.562569
3068.920213	5956.579333	594.618164	-340.513580
3068.920213	5956.579333	593.384766	-21.858755
3068.920213	5956.579333	592.151367	-118.216316
3068.920213	5956.579333	590.917969	-113.550163
3068.920213	5956.579333	589.683594	-146.848618
3068.920213	5956.579333	588.449219	-184.400742
3068.920213	5956.579333	587.214844	-215.684006
3068.920213	5956.579333	585.979492	-211.264908
3068.920213	5956.579333	584.745117	-76.501427
3068.920213	5956.579333	583.509766	5.579873
3068.920213	5956.579333	582.273438	121.198807
3068.920213	5956.579333	581.038086	207.319885
3068.920213	5956.579333	579.801758	85.336388
3068.920213	5956.579333	578.565430	-213.087143
3068.920213	5956.579333	577.329102	11.542715
3068.920213	5956.579333	576.091797	-154.527985
3068.920213	5956.579333	574.854492	82.519722
3068.920213	5956.579333	573.617188	-127.619522
3068.920213	5956.579333	572.378906	65.196846
3068.920213	5956.579333	571.141602	123.658356
3068.920213	5956.579333	569.903320	188.359360
3068.920213	5956.579333	568.664063	-36.394093
3068.920213	5956.579333	567.425781	1.040687
3068.920213	5956.579333	566.186523	204.043259
3068.920213	5956.579333	564.947266	-391.528229
3068.920213	5956.579333	563.708008	-115.189957
3068.920213	5956.579333	562.467773	-100.836395
3068.920213	5956.579333	561.227539	91.548820
3068.920213	5956.579333	559.987305	49.338150
3068.920213	5956.579333	558.747070	-34.707279
3068.920213	5956.579333	557.505859	63.385338
3068.920213	5956.579333	556.264648	-47.801327
3068.920213	5956.579333	555.023438	23.105162
3068.920213	5956.579333	553.781250	22.876490
3068.920213	5956.579333	552.539063	125.155769
3068.920213	5956.579333	551.296875	89.432579
3068.920213	5956.579333	550.054688	289.979645
3068.920213	5956.579333	548.811523	149.807068
3068.920213	5956.579333	547.569336	101.693359
3068.920213	5956.579333	546.325195	47.353794
3068.920213	5956.579333	545.082031	-105.059296
3068.920213	5956.579333	543.837891	68.387131
3068.920213	5956.579333	542.593750	87.327843
3068.920213	5956.579333	541.349609	102.148659
3068.920213	5956.579333	540.105469	425.875977
3068.920213	5956.579333	538.860352	-62.079628
3068.920213	5956.579333	537.615234	138.599838
3068.920213	5956.579333	536.369141	-146.663315
3068.920213	5956.579333	535.124023	70.779099
3068.920213	5956.579333	533.877930	-5.733066
3068.920213	5956.579333	532.631836	132.537598
3068.920213	5956.579333	531.384766	127.042793
3068.920213	5956.579333	530.138672	425.806793
3068.920213	5956.579333	528.891602	297.544800
3068.920213	5956.579333	527.643555	56.970314
3068.920213	5956.579333	526.396484	-0.184049
3068.920213	5956.579333	525.148438	-78.046631
3068.920213	5956.579333	523.900391	35.677540
3068.920213	5956.579333	522.652344	-14.911872
3068.920213	5956.579333	521.403320	5.336052
3068.920213	5956.579333	520.154297	73.512611
3068.920213	5956.579333	518.905273	-24.569918
3068.920213	5956.579333	517.656250	33.406487
3068.920213	5956.579333	516.406250	187.057526
3068.920213	5956.579333	515.156250	189.069412
3068.920213	5956.579333	513.906250	139.257858
3068.920213	5956.579333	512.655273	16.875212
3068.920213	5956.579333	511.404297	-138.562881
3068.920213	5956.579333	510.153320	5.139747
3068.920213	5956.579333	508.902344	-280.762238
3068.920213	5956.579333	507.650391	2.170844
3068.920213	5956.579333	506.398438	-48.933052
3068.920213	5956.579333	505.146484	107.533783
3068.920213	5956.579333	503.893555	79.465958
3068.920213	5956.579333	502.641602	283.765991
3068.920213	5956.579333	501.388672	541.982483
3068.920213	5956.579333	500.134766	470.664185
3068.920213	5956.579333	498.881836	283.468353
3068.920213	5956.579333	497.627930	546.006165
3068.920213	5956.579333	496.374023	601.428711
3068.920213	5956.579333	495.119141	462.282379
3068.920213	5956.579333	493.865234	306.759979
3068.920213	5956.579333	492.610352	437.046814
3068.920213	5956.579333	491.355469	246.628815
3068.920213	5956.579333	490.099609	530.186584
3068.920213	5956.579333	488.843750	590.328308
3068.920213	5956.579333	487.587891	543.010620
3068.920213	5956.579333	486.332031	559.912415
3068.920213	5956.579333	485.075195	665.785889
3068.920213	5956.579333	483.818359	854.378662
3068.920213	5956.579333	482.561523	945.866882
3068.920213	5956.579333	481.304688	485.826843
3068.920213	5956.579333	480.046875	850.152710
3068.920213	5956.579333	478.789063	1251.572998
3068.920213	5956.579333	477.531250	1070.704102
3068.920213	5956.579333	476.272461	1187.201050
3068.920213	5956.579333	475.013672	1221.170410
3068.920213	5956.579333	473.754883	1595.608398
3068.920213	5956.579333	472.496094	1297.491699
3068.920213	5956.579333	471.236328	1459.433105
3068.920213	5956.579333	469.976563	1211.039429
3068.920213	5956.579333	468.716797	1288.489380
3068.920213	5956.579333	467.456055	1203.109741
3068.920213	5956.579333	466.196289	971.501953
3068.920213	5956.579333	464.935547	1147.890869
3068.920213	5956.579333	463.673828	1414.818726
3068.920213	5956.579333	462.413086	1372.762817
3068.920213	5956.579333	461.151367	1231.882202
3068.920213	5956.579333	459.889648	1391.547974
3068.920213	5956.579333	458.626953	997.545166
3068.920213	5956.579333	457.364258	1358.732178
3068.920213	5956.579333	456.101563	1178.731079
3068.920213	5956.579333	454.838867	1467.622070
3068.920213	5956.579333	453.575195	1723.405151
3068.920213	5956.579333	452.312500	1687.099121
3068.920213	5956.579333	451.047852	1451.335693
3068.920213	5956.579333	449.784180	1671.716919
3068.920213	5956.579333	448.519531	1842.558716
3068.920213	5956.579333	447.254883	1762.612549
3068.920213	5956.579333	445.990234	1963.857666
3068.920213	5956.579333	444.725586	1982.126587
3068.920213	5956.579333	443.459961	1604.054565
3068.920213	5956.579333	442.194336	1697.909180
3068.920213	5956.579333	440.927734	1846.883057
3068.920213	5956.579333	439.662109	1954.534912
3068.920213	5956.579333	438.395508	1877.303101
3068.920213	5956.579333	437.127930	2031.496094
3068.920213	5956.579333	435.861328	1914.752319
3068.920213	5956.579333	434.593750	2098.989014
3068.920213	5956.579333	433.326172	1832.035278
3068.920213	5956.579333	432.058594	1913.080322
3068.920213	5956.579333	430.790039	2122.718262
3068.920213	5956.579333	429.521484	1811.762817
3068.920213	5956.579333	428.252930	1907.895630
3068.920213	5956.579333	426.984375	1954.411011
3068.920213	5956.579333	425.714844	1806.009888
3068.920213	5956.579333	424.445313	1693.992920
3068.920213	5956.579333	423.174805	1800.330078
3068.920213	5956.579333	421.905273	1445.957886
3068.920213	5956.579333	420.634766	1602.262817
3068.920213	5956.579333	419.364258	1927.536133
3068.920213	5956.579333	418.092773	1730.877808
3068.920213	5956.579333	416.822266	1695.050659
3068.920213	5956.579333	415.550781	1928.151123
3068.920213	5956.579333	414.278320	2041.932617
3068.920213	5956.579333	413.006836	1942.551270
3068.920213	5956.579333	411.734375	1924.035034
3068.920213	5956.579333	410.461914	1790.385254
3068.920213	5956.579333	409.188477	1884.424072
3068.920213	5956.579333	407.916016	1991.803101
3068.920213	5956.579333	406.642578	2055.318848
3068.920213	5956.579333	405.368164	2099.430176
3068.920213	5956.579333	404.094727	1983.481934
3068.920213	5956.579333	402.820313	2498.354492
3068.920213	5956.579333	401.545898	2192.652832
3068.920213	5956.579333	400.270508	2222.067383
3068.920213	5956.579333	398.996094	2297.132568
3068.920213	5956.579333	397.720703	2181.479736
3068.920213	5956.579333	396.444336	2205.032715
3068.920213	5956.579333	395.168945	2267.965088
3068.920213	5956.579333	393.892578	2370.138916
3068.920213	5956.579333	392.616211	2267.339600
3068.920213	5956.579333	391.339844	2150.872314
3068.920213	5956.579333	390.062500	2339.981934
3068.920213	5956.579333	388.785156	2289.484619
3068.920213	5956.579333	387.507813	2225.140869
3068.920213	5956.579333	386.229492	2000.524292
3068.920213	5956.579333	384.951172	2140.003418
3068.920213	5956.579333	383.672852	1724.961914
3068.920213	5956.579333	382.394531	2143.039551
3068.920213	5956.579333	381.115234	1797.377441
3068.920213	5956.579333	379.835938	2006.154541
3068.920213	5956.579333	378.556641	2097.042236
3068.920213	5956.579333	377.277344	1909.723633
3068.920213	5956.579333	375.997070	1588.321777
3068.920213	5956.579333	374.716797	1954.485229
3068.920213	5956.579333	373.435547	1622.410034
3068.920213	5956.579333	372.155273	1569.944702
3068.920213	5956.579333	370.874023	1853.485229
3068.920213	5956.579333	369.591797	1724.833374
3068.920213	5956.579333	368.310547	1703.054810
3068.920213	5956.579333	367.028320	1449.543213
3068.920213	5956.579333	365.746094	1642.975952
3068.920213	5956.579333	364.463867	1695.710938
3068.920213	5956.579333	363.180664	1472.036133
3068.920213	5956.579333	361.897461	1656.285034
3068.920213	5956.579333	360.614258	1580.272827
3068.920213	5956.579333	359.330078	1608.193481
3068.920213	5956.579333	358.045898	1422.371948
3068.920213	5956.579333	356.761719	1251.391602
3068.920213	5956.579333	355.477539	1465.170166
3068.920213	5956.579333	354.192383	1367.858154
3068.920213	5956.579333	352.907227	1582.146729
3068.920213	5956.579333	351.622070	1442.933960
3068.920213	5956.579333	350.336914	1479.643799
3068.920213	5956.579333	349.050781	1625.305664
3068.920213	5956.579333	347.764648	1455.776123
3068.920213	5956.579333	346.477539	1451.541260
3068.920213	5956.579333	345.191406	1126.146484
3068.920213	5956.579333	343.904297	1038.462646
3068.920213	5956.579333	342.616211	944.080444
3068.920213	5956.579333	341.329102	984.320862
3068.920213	5956.579333	340.041016	706.996338
3068.920213	5956.579333	338.752930	640.569031
3068.920213	5956.579333	337.463867	822.943726
3068.920213	5956.579333	336.175781	1250.063477
3068.920213	5956.579333	334.886719	915.918396
3068.920213	5956.579333	333.596680	880.486084
3068.920213	5956.579333	332.307617	831.546509
3068.920213	5956.579333	331.017578	776.730286
3068.920213	5956.579333	329.727539	744.232727
3068.920213	5956.579333	328.436523	685.429871
3068.920213	5956.579333	327.146484	566.308594
3068.920213	5956.579333	325.855469	617.791809
3068.920213	5956.579333	324.563477	785.298279
3068.920213	5956.579333	323.272461	340.975922
3068.920213	5956.579333	321.980469	434.740112
3068.920213	5956.579333	320.688477	153.669159
3068.920213	5956.579333	319.395508	243.240234
3068.920213	5956.579333	318.103516	30.344257
3068.920213	5956.579333	316.810547	61.002094
3068.920213	5956.579333	315.516602	-14.582318
3068.920213	5956.579333	314.223633	-145.891891
3068.920213	5956.579333	312.929688	-227.102661
3068.920213	5956.579333	311.635742	-27.403902
3068.920213	5956.579333	310.340820	27.206474
3068.920213	5956.579333	309.045898	-249.711060
3068.920213	5956.579333	307.750977	106.622437
3068.920213	5956.579333	306.456055	-37.378422
3068.920213	5956.579333	305.160156	-104.447464
3068.920213	5956.579333	303.865234	-74.273125
3068.920213	5956.579333	302.568359	154.268204
3068.920213	5956.579333	301.272461	10.660495
3068.920213	5956.579333	299.975586	283.583282
3068.920213	5956.579333	298.678711	283.923004
