#X		#Y		#Wave		#Intensity
3061.930904	5958.293167	1999.980469	-114.634789
3061.930904	5958.293167	1999.016602	-35.662468
3061.930904	5958.293167	1998.052734	-84.390739
3061.930904	5958.293167	1997.087891	42.537182
3061.930904	5958.293167	1996.123047	250.881653
3061.930904	5958.293167	1995.158203	136.817535
3061.930904	5958.293167	1994.193359	156.257813
3061.930904	5958.293167	1993.228516	63.980522
3061.930904	5958.293167	1992.262695	253.717163
3061.930904	5958.293167	1991.297852	-138.591705
3061.930904	5958.293167	1990.332031	-43.445133
3061.930904	5958.293167	1989.366211	155.347885
3061.930904	5958.293167	1988.399414	212.814117
3061.930904	5958.293167	1987.433594	-58.952152
3061.930904	5958.293167	1986.466797	-115.681015
3061.930904	5958.293167	1985.500977	227.960693
3061.930904	5958.293167	1984.534180	202.915497
3061.930904	5958.293167	1983.567383	360.583923
3061.930904	5958.293167	1982.599609	-40.499615
3061.930904	5958.293167	1981.632813	57.475628
3061.930904	5958.293167	1980.665039	207.110199
3061.930904	5958.293167	1979.697266	-21.376785
3061.930904	5958.293167	1978.729492	-141.293518
3061.930904	5958.293167	1977.761719	-34.184650
3061.930904	5958.293167	1976.792969	85.068275
3061.930904	5958.293167	1975.825195	-45.144611
3061.930904	5958.293167	1974.856445	-7.661168
3061.930904	5958.293167	1973.887695	-54.213280
3061.930904	5958.293167	1972.918945	76.716217
3061.930904	5958.293167	1971.949219	227.195572
3061.930904	5958.293167	1970.980469	-9.626534
3061.930904	5958.293167	1970.010742	66.609238
3061.930904	5958.293167	1969.041016	120.518684
3061.930904	5958.293167	1968.071289	309.839020
3061.930904	5958.293167	1967.101563	267.375641
3061.930904	5958.293167	1966.130859	131.212997
3061.930904	5958.293167	1965.161133	103.377251
3061.930904	5958.293167	1964.190430	129.633896
3061.930904	5958.293167	1963.219727	-9.166997
3061.930904	5958.293167	1962.249023	93.236412
3061.930904	5958.293167	1961.277344	-11.217058
3061.930904	5958.293167	1960.306641	49.159214
3061.930904	5958.293167	1959.334961	-232.536743
3061.930904	5958.293167	1958.363281	248.337921
3061.930904	5958.293167	1957.391602	283.827667
3061.930904	5958.293167	1956.419922	-226.630585
3061.930904	5958.293167	1955.447266	288.199707
3061.930904	5958.293167	1954.474609	75.224892
3061.930904	5958.293167	1953.501953	149.803406
3061.930904	5958.293167	1952.529297	307.840485
3061.930904	5958.293167	1951.556641	288.897461
3061.930904	5958.293167	1950.583984	80.793411
3061.930904	5958.293167	1949.610352	137.931885
3061.930904	5958.293167	1948.636719	-38.238125
3061.930904	5958.293167	1947.663086	374.764221
3061.930904	5958.293167	1946.689453	370.341553
3061.930904	5958.293167	1945.715820	162.218613
3061.930904	5958.293167	1944.741211	-60.584480
3061.930904	5958.293167	1943.767578	-50.303139
3061.930904	5958.293167	1942.792969	-187.206100
3061.930904	5958.293167	1941.818359	-59.264759
3061.930904	5958.293167	1940.842773	39.179131
3061.930904	5958.293167	1939.868164	-239.904938
3061.930904	5958.293167	1938.892578	-131.708130
3061.930904	5958.293167	1937.916992	184.694321
3061.930904	5958.293167	1936.941406	-91.877945
3061.930904	5958.293167	1935.965820	84.751991
3061.930904	5958.293167	1934.990234	-22.766361
3061.930904	5958.293167	1934.013672	143.953003
3061.930904	5958.293167	1933.037109	144.135315
3061.930904	5958.293167	1932.060547	-244.843643
3061.930904	5958.293167	1931.083984	14.764902
3061.930904	5958.293167	1930.107422	10.033859
3061.930904	5958.293167	1929.129883	68.887802
3061.930904	5958.293167	1928.153320	120.373672
3061.930904	5958.293167	1927.175781	22.666071
3061.930904	5958.293167	1926.198242	257.468231
3061.930904	5958.293167	1925.219727	-48.018276
3061.930904	5958.293167	1924.242188	44.944649
3061.930904	5958.293167	1923.263672	223.373016
3061.930904	5958.293167	1922.285156	-3.797774
3061.930904	5958.293167	1921.306641	-101.446709
3061.930904	5958.293167	1920.328125	-184.417694
3061.930904	5958.293167	1919.349609	-260.046875
3061.930904	5958.293167	1918.370117	-35.408642
3061.930904	5958.293167	1917.391602	28.053057
3061.930904	5958.293167	1916.412109	93.914154
3061.930904	5958.293167	1915.431641	-81.796585
3061.930904	5958.293167	1914.452148	118.191643
3061.930904	5958.293167	1913.472656	-84.311180
3061.930904	5958.293167	1912.492188	59.487251
3061.930904	5958.293167	1911.511719	86.195511
3061.930904	5958.293167	1910.531250	-111.366905
3061.930904	5958.293167	1909.550781	-155.343460
3061.930904	5958.293167	1908.569336	-167.651123
3061.930904	5958.293167	1907.588867	0.297039
3061.930904	5958.293167	1906.607422	138.931534
3061.930904	5958.293167	1905.625977	131.382141
3061.930904	5958.293167	1904.644531	-2.793715
3061.930904	5958.293167	1903.662109	-80.960663
3061.930904	5958.293167	1902.680664	132.936920
3061.930904	5958.293167	1901.698242	-83.979561
3061.930904	5958.293167	1900.715820	49.491791
3061.930904	5958.293167	1899.733398	-70.087952
3061.930904	5958.293167	1898.750000	306.463043
3061.930904	5958.293167	1897.767578	99.278557
3061.930904	5958.293167	1896.784180	57.444313
3061.930904	5958.293167	1895.800781	-33.021507
3061.930904	5958.293167	1894.817383	216.729050
3061.930904	5958.293167	1893.833984	14.422791
3061.930904	5958.293167	1892.850586	-27.520161
3061.930904	5958.293167	1891.866211	8.227951
3061.930904	5958.293167	1890.881836	-201.347931
3061.930904	5958.293167	1889.897461	-109.833664
3061.930904	5958.293167	1888.913086	95.686806
3061.930904	5958.293167	1887.927734	-82.386848
3061.930904	5958.293167	1886.943359	16.179155
3061.930904	5958.293167	1885.958008	119.500435
3061.930904	5958.293167	1884.972656	142.681122
3061.930904	5958.293167	1883.987305	56.662476
3061.930904	5958.293167	1883.001953	77.299797
3061.930904	5958.293167	1882.015625	197.253937
3061.930904	5958.293167	1881.029297	382.541199
3061.930904	5958.293167	1880.042969	223.575409
3061.930904	5958.293167	1879.056641	-51.700413
3061.930904	5958.293167	1878.070313	-278.499451
3061.930904	5958.293167	1877.083984	289.123230
3061.930904	5958.293167	1876.096680	129.991974
3061.930904	5958.293167	1875.109375	48.312771
3061.930904	5958.293167	1874.122070	240.112518
3061.930904	5958.293167	1873.134766	167.957199
3061.930904	5958.293167	1872.146484	-90.583229
3061.930904	5958.293167	1871.159180	-112.021362
3061.930904	5958.293167	1870.170898	311.507751
3061.930904	5958.293167	1869.182617	-82.619667
3061.930904	5958.293167	1868.194336	-41.476421
3061.930904	5958.293167	1867.205078	214.700287
3061.930904	5958.293167	1866.216797	47.707226
3061.930904	5958.293167	1865.227539	434.054810
3061.930904	5958.293167	1864.238281	440.820831
3061.930904	5958.293167	1863.249023	-11.495338
3061.930904	5958.293167	1862.259766	69.998199
3061.930904	5958.293167	1861.269531	-181.893509
3061.930904	5958.293167	1860.279297	44.216286
3061.930904	5958.293167	1859.290039	301.505798
3061.930904	5958.293167	1858.298828	346.183685
3061.930904	5958.293167	1857.308594	132.541794
3061.930904	5958.293167	1856.318359	280.718903
3061.930904	5958.293167	1855.327148	163.378586
3061.930904	5958.293167	1854.335938	118.294991
3061.930904	5958.293167	1853.344727	135.777893
3061.930904	5958.293167	1852.353516	71.148811
3061.930904	5958.293167	1851.362305	90.758553
3061.930904	5958.293167	1850.370117	529.500488
3061.930904	5958.293167	1849.377930	281.280243
3061.930904	5958.293167	1848.385742	372.645844
3061.930904	5958.293167	1847.393555	367.487152
3061.930904	5958.293167	1846.401367	439.225281
3061.930904	5958.293167	1845.408203	385.577057
3061.930904	5958.293167	1844.415039	379.925385
3061.930904	5958.293167	1843.421875	285.064392
3061.930904	5958.293167	1842.428711	7.206194
3061.930904	5958.293167	1841.435547	482.252380
3061.930904	5958.293167	1840.441406	401.331116
3061.930904	5958.293167	1839.448242	226.486374
3061.930904	5958.293167	1838.454102	698.273865
3061.930904	5958.293167	1837.459961	200.946777
3061.930904	5958.293167	1836.464844	-5.578415
3061.930904	5958.293167	1835.470703	410.159790
3061.930904	5958.293167	1834.475586	421.916809
3061.930904	5958.293167	1833.480469	380.630188
3061.930904	5958.293167	1832.485352	154.238632
3061.930904	5958.293167	1831.490234	30.979748
3061.930904	5958.293167	1830.495117	214.850891
3061.930904	5958.293167	1829.499023	-48.008114
3061.930904	5958.293167	1828.502930	152.181091
3061.930904	5958.293167	1827.506836	361.679565
3061.930904	5958.293167	1826.510742	184.664383
3061.930904	5958.293167	1825.513672	249.727753
3061.930904	5958.293167	1824.517578	367.314087
3061.930904	5958.293167	1823.520508	431.873779
3061.930904	5958.293167	1822.523438	191.756851
3061.930904	5958.293167	1821.526367	-46.101757
3061.930904	5958.293167	1820.529297	113.660690
3061.930904	5958.293167	1819.531250	412.068756
3061.930904	5958.293167	1818.533203	1.129600
3061.930904	5958.293167	1817.535156	93.014565
3061.930904	5958.293167	1816.537109	124.766144
3061.930904	5958.293167	1815.539063	65.294029
3061.930904	5958.293167	1814.540039	323.910797
3061.930904	5958.293167	1813.541992	82.058136
3061.930904	5958.293167	1812.542969	64.929779
3061.930904	5958.293167	1811.543945	241.311951
3061.930904	5958.293167	1810.543945	271.465546
3061.930904	5958.293167	1809.544922	-74.052467
3061.930904	5958.293167	1808.544922	209.045517
3061.930904	5958.293167	1807.544922	23.275276
3061.930904	5958.293167	1806.544922	164.718582
3061.930904	5958.293167	1805.544922	274.775574
3061.930904	5958.293167	1804.544922	100.235115
3061.930904	5958.293167	1803.543945	-139.018494
3061.930904	5958.293167	1802.542969	-51.298172
3061.930904	5958.293167	1801.541992	-73.717331
3061.930904	5958.293167	1800.541016	-101.182335
3061.930904	5958.293167	1799.539063	-83.593033
3061.930904	5958.293167	1798.538086	-18.552557
3061.930904	5958.293167	1797.536133	-1.558010
3061.930904	5958.293167	1796.534180	253.673187
3061.930904	5958.293167	1795.532227	134.090302
3061.930904	5958.293167	1794.529297	7.087154
3061.930904	5958.293167	1793.527344	1.436555
3061.930904	5958.293167	1792.524414	326.779419
3061.930904	5958.293167	1791.521484	144.106873
3061.930904	5958.293167	1790.518555	-115.043793
3061.930904	5958.293167	1789.514648	-160.026093
3061.930904	5958.293167	1788.511719	216.287338
3061.930904	5958.293167	1787.507813	225.415558
3061.930904	5958.293167	1786.503906	74.714577
3061.930904	5958.293167	1785.500000	66.581223
3061.930904	5958.293167	1784.496094	-1.361087
3061.930904	5958.293167	1783.491211	-117.203758
3061.930904	5958.293167	1782.486328	-290.415680
3061.930904	5958.293167	1781.481445	-228.404541
3061.930904	5958.293167	1780.476563	-102.527283
3061.930904	5958.293167	1779.471680	-12.685690
3061.930904	5958.293167	1778.465820	74.398582
3061.930904	5958.293167	1777.460938	-105.048416
3061.930904	5958.293167	1776.455078	-70.910263
3061.930904	5958.293167	1775.449219	-98.887871
3061.930904	5958.293167	1774.442383	86.577278
3061.930904	5958.293167	1773.436523	167.168915
3061.930904	5958.293167	1772.429688	-267.895355
3061.930904	5958.293167	1771.422852	118.292351
3061.930904	5958.293167	1770.416016	31.652864
3061.930904	5958.293167	1769.409180	113.202713
3061.930904	5958.293167	1768.402344	146.931137
3061.930904	5958.293167	1767.394531	-0.011555
3061.930904	5958.293167	1766.386719	-111.661003
3061.930904	5958.293167	1765.378906	-64.730980
3061.930904	5958.293167	1764.371094	15.033516
3061.930904	5958.293167	1763.362305	-43.093304
3061.930904	5958.293167	1762.354492	-96.769966
3061.930904	5958.293167	1761.345703	36.390385
3061.930904	5958.293167	1760.336914	124.141350
3061.930904	5958.293167	1759.328125	135.714706
3061.930904	5958.293167	1758.318359	-33.075729
3061.930904	5958.293167	1757.308594	-178.475296
3061.930904	5958.293167	1756.299805	-302.831451
3061.930904	5958.293167	1755.290039	-186.104767
3061.930904	5958.293167	1754.279297	119.502197
3061.930904	5958.293167	1753.269531	-98.196106
3061.930904	5958.293167	1752.258789	-195.556580
3061.930904	5958.293167	1751.249023	-314.486023
3061.930904	5958.293167	1750.238281	-64.881607
3061.930904	5958.293167	1749.226563	-108.914497
3061.930904	5958.293167	1748.215820	-110.702293
3061.930904	5958.293167	1747.204102	-124.696747
3061.930904	5958.293167	1746.193359	-25.594147
3061.930904	5958.293167	1745.181641	21.111496
3061.930904	5958.293167	1744.168945	43.786358
3061.930904	5958.293167	1743.157227	203.095627
3061.930904	5958.293167	1742.144531	66.830551
3061.930904	5958.293167	1741.132813	-83.865700
3061.930904	5958.293167	1740.120117	-20.132809
3061.930904	5958.293167	1739.106445	189.479599
3061.930904	5958.293167	1738.093750	-54.269924
3061.930904	5958.293167	1737.080078	102.662636
3061.930904	5958.293167	1736.067383	-26.134653
3061.930904	5958.293167	1735.053711	97.007973
3061.930904	5958.293167	1734.040039	191.459167
3061.930904	5958.293167	1733.025391	52.144733
3061.930904	5958.293167	1732.011719	89.300041
3061.930904	5958.293167	1730.997070	100.129517
3061.930904	5958.293167	1729.982422	54.065804
3061.930904	5958.293167	1728.967773	224.336075
3061.930904	5958.293167	1727.952148	153.968216
3061.930904	5958.293167	1726.937500	52.708908
3061.930904	5958.293167	1725.921875	212.363052
3061.930904	5958.293167	1724.906250	136.267456
3061.930904	5958.293167	1723.890625	85.731560
3061.930904	5958.293167	1722.875000	145.426132
3061.930904	5958.293167	1721.858398	-28.142115
3061.930904	5958.293167	1720.841797	282.417816
3061.930904	5958.293167	1719.825195	213.987808
3061.930904	5958.293167	1718.808594	-2.856915
3061.930904	5958.293167	1717.791992	-90.707047
3061.930904	5958.293167	1716.774414	-49.680321
3061.930904	5958.293167	1715.756836	-173.465942
3061.930904	5958.293167	1714.739258	87.656044
3061.930904	5958.293167	1713.721680	85.315804
3061.930904	5958.293167	1712.704102	115.502907
3061.930904	5958.293167	1711.685547	140.594376
3061.930904	5958.293167	1710.667969	130.175827
3061.930904	5958.293167	1709.649414	-21.420151
3061.930904	5958.293167	1708.630859	206.775955
3061.930904	5958.293167	1707.611328	155.362747
3061.930904	5958.293167	1706.592773	638.389465
3061.930904	5958.293167	1705.573242	419.762512
3061.930904	5958.293167	1704.553711	273.558289
3061.930904	5958.293167	1703.534180	206.768738
3061.930904	5958.293167	1702.513672	364.592712
3061.930904	5958.293167	1701.494141	475.217377
3061.930904	5958.293167	1700.473633	646.325745
3061.930904	5958.293167	1699.453125	718.675537
3061.930904	5958.293167	1698.432617	764.915161
3061.930904	5958.293167	1697.412109	707.802307
3061.930904	5958.293167	1696.390625	1258.927124
3061.930904	5958.293167	1695.369141	864.048462
3061.930904	5958.293167	1694.347656	754.461548
3061.930904	5958.293167	1693.326172	1182.656616
3061.930904	5958.293167	1692.304688	889.985413
3061.930904	5958.293167	1691.282227	999.278931
3061.930904	5958.293167	1690.260742	745.877563
3061.930904	5958.293167	1689.238281	854.538513
3061.930904	5958.293167	1688.214844	747.780762
3061.930904	5958.293167	1687.192383	825.411377
3061.930904	5958.293167	1686.168945	893.311035
3061.930904	5958.293167	1685.146484	802.106323
3061.930904	5958.293167	1684.123047	997.829163
3061.930904	5958.293167	1683.099609	962.027710
3061.930904	5958.293167	1682.075195	827.847290
3061.930904	5958.293167	1681.051758	868.527954
3061.930904	5958.293167	1680.027344	745.504150
3061.930904	5958.293167	1679.002930	1018.866089
3061.930904	5958.293167	1677.978516	1130.885986
3061.930904	5958.293167	1676.953125	974.323364
3061.930904	5958.293167	1675.928711	1006.469788
3061.930904	5958.293167	1674.903320	1306.368652
3061.930904	5958.293167	1673.877930	1114.070801
3061.930904	5958.293167	1672.852539	963.524231
3061.930904	5958.293167	1671.826172	1124.921021
3061.930904	5958.293167	1670.800781	813.160889
3061.930904	5958.293167	1669.774414	1295.402222
3061.930904	5958.293167	1668.748047	1353.392456
3061.930904	5958.293167	1667.721680	1497.245850
3061.930904	5958.293167	1666.694336	1764.098755
3061.930904	5958.293167	1665.667969	1714.148315
3061.930904	5958.293167	1664.640625	1740.695435
3061.930904	5958.293167	1663.613281	1920.523804
3061.930904	5958.293167	1662.585938	1797.675781
3061.930904	5958.293167	1661.557617	1953.626587
3061.930904	5958.293167	1660.530273	2176.765137
3061.930904	5958.293167	1659.501953	2197.288818
3061.930904	5958.293167	1658.473633	2236.166016
3061.930904	5958.293167	1657.444336	2469.926514
3061.930904	5958.293167	1656.416016	2587.272949
3061.930904	5958.293167	1655.386719	2806.493164
3061.930904	5958.293167	1654.358398	2574.945557
3061.930904	5958.293167	1653.328125	2661.242920
3061.930904	5958.293167	1652.298828	3323.066162
3061.930904	5958.293167	1651.269531	3257.965820
3061.930904	5958.293167	1650.239258	3478.046387
3061.930904	5958.293167	1649.208984	3774.401611
3061.930904	5958.293167	1648.178711	3991.578125
3061.930904	5958.293167	1647.148438	4287.327148
3061.930904	5958.293167	1646.117188	4098.099121
3061.930904	5958.293167	1645.086914	4523.156738
3061.930904	5958.293167	1644.055664	5049.787598
3061.930904	5958.293167	1643.024414	4797.401367
3061.930904	5958.293167	1641.992188	5351.157715
3061.930904	5958.293167	1640.960938	5547.854004
3061.930904	5958.293167	1639.928711	5334.309082
3061.930904	5958.293167	1638.896484	5643.996582
3061.930904	5958.293167	1637.864258	5754.302246
3061.930904	5958.293167	1636.832031	5713.954102
3061.930904	5958.293167	1635.798828	6270.470703
3061.930904	5958.293167	1634.766602	6037.691406
3061.930904	5958.293167	1633.733398	6311.406250
3061.930904	5958.293167	1632.699219	6899.360352
3061.930904	5958.293167	1631.666016	6763.220215
3061.930904	5958.293167	1630.632813	7302.093750
3061.930904	5958.293167	1629.598633	7611.723145
3061.930904	5958.293167	1628.564453	7523.600586
3061.930904	5958.293167	1627.530273	8179.406738
3061.930904	5958.293167	1626.495117	8811.675781
3061.930904	5958.293167	1625.460938	8734.561523
3061.930904	5958.293167	1624.425781	8950.578125
3061.930904	5958.293167	1623.390625	9491.950195
3061.930904	5958.293167	1622.355469	9809.091797
3061.930904	5958.293167	1621.319336	10218.265625
3061.930904	5958.293167	1620.284180	10629.555664
3061.930904	5958.293167	1619.248047	10332.273438
3061.930904	5958.293167	1618.211914	10685.476563
3061.930904	5958.293167	1617.174805	11096.046875
3061.930904	5958.293167	1616.138672	11169.811523
3061.930904	5958.293167	1615.101563	11354.060547
3061.930904	5958.293167	1614.065430	11204.040039
3061.930904	5958.293167	1613.027344	11858.096680
3061.930904	5958.293167	1611.990234	12242.345703
3061.930904	5958.293167	1610.953125	11976.816406
3061.930904	5958.293167	1609.915039	11966.903320
3061.930904	5958.293167	1608.876953	12127.337891
3061.930904	5958.293167	1607.838867	12138.027344
3061.930904	5958.293167	1606.800781	12160.179688
3061.930904	5958.293167	1605.761719	12129.295898
3061.930904	5958.293167	1604.723633	12215.795898
3061.930904	5958.293167	1603.684570	12497.699219
3061.930904	5958.293167	1602.644531	12779.405273
3061.930904	5958.293167	1601.605469	12773.617188
3061.930904	5958.293167	1600.566406	12356.310547
3061.930904	5958.293167	1599.526367	12867.685547
3061.930904	5958.293167	1598.486328	12974.403320
3061.930904	5958.293167	1597.446289	12957.002930
3061.930904	5958.293167	1596.405273	12604.166016
3061.930904	5958.293167	1595.365234	12703.995117
3061.930904	5958.293167	1594.324219	13423.724609
3061.930904	5958.293167	1593.283203	13082.521484
3061.930904	5958.293167	1592.242188	12950.355469
3061.930904	5958.293167	1591.200195	13231.288086
3061.930904	5958.293167	1590.159180	13087.729492
3061.930904	5958.293167	1589.117188	13210.305664
3061.930904	5958.293167	1588.075195	12995.718750
3061.930904	5958.293167	1587.032227	13017.392578
3061.930904	5958.293167	1585.990234	13124.000000
3061.930904	5958.293167	1584.947266	12817.952148
3061.930904	5958.293167	1583.904297	12826.060547
3061.930904	5958.293167	1582.861328	12591.347656
3061.930904	5958.293167	1581.818359	12627.121094
3061.930904	5958.293167	1580.775391	12662.950195
3061.930904	5958.293167	1579.731445	12941.522461
3061.930904	5958.293167	1578.687500	12725.523438
3061.930904	5958.293167	1577.643555	12170.915039
3061.930904	5958.293167	1576.598633	12527.427734
3061.930904	5958.293167	1575.554688	12536.157227
3061.930904	5958.293167	1574.509766	12588.391602
3061.930904	5958.293167	1573.464844	12247.292969
3061.930904	5958.293167	1572.419922	11810.392578
3061.930904	5958.293167	1571.374023	11666.372070
3061.930904	5958.293167	1570.329102	11680.325195
3061.930904	5958.293167	1569.283203	11975.451172
3061.930904	5958.293167	1568.237305	11713.037109
3061.930904	5958.293167	1567.191406	11505.688477
3061.930904	5958.293167	1566.144531	11293.933594
3061.930904	5958.293167	1565.098633	11383.913086
3061.930904	5958.293167	1564.051758	11072.090820
3061.930904	5958.293167	1563.004883	11664.539063
3061.930904	5958.293167	1561.957031	11537.902344
3061.930904	5958.293167	1560.910156	11028.181641
3061.930904	5958.293167	1559.862305	11330.965820
3061.930904	5958.293167	1558.814453	11232.341797
3061.930904	5958.293167	1557.766602	11245.683594
3061.930904	5958.293167	1556.718750	11015.226563
3061.930904	5958.293167	1555.669922	10730.271484
3061.930904	5958.293167	1554.621094	10484.367188
3061.930904	5958.293167	1553.573242	10181.841797
3061.930904	5958.293167	1552.523438	10551.625000
3061.930904	5958.293167	1551.474609	9841.812500
3061.930904	5958.293167	1550.424805	9321.451172
3061.930904	5958.293167	1549.375000	9525.588867
3061.930904	5958.293167	1548.325195	9367.898438
3061.930904	5958.293167	1547.275391	8778.031250
3061.930904	5958.293167	1546.225586	8541.348633
3061.930904	5958.293167	1545.174805	8166.148438
3061.930904	5958.293167	1544.124023	8127.993164
3061.930904	5958.293167	1543.073242	8267.488281
3061.930904	5958.293167	1542.022461	7770.494141
3061.930904	5958.293167	1540.970703	7594.438965
3061.930904	5958.293167	1539.919922	7300.568848
3061.930904	5958.293167	1538.868164	7529.697754
3061.930904	5958.293167	1537.815430	6965.990234
3061.930904	5958.293167	1536.763672	7132.019531
3061.930904	5958.293167	1535.710938	6457.866699
3061.930904	5958.293167	1534.659180	6576.791016
3061.930904	5958.293167	1533.606445	6686.814941
3061.930904	5958.293167	1532.552734	6399.806641
3061.930904	5958.293167	1531.500000	6131.411621
3061.930904	5958.293167	1530.446289	5831.598633
3061.930904	5958.293167	1529.393555	5652.484863
3061.930904	5958.293167	1528.338867	5977.139160
3061.930904	5958.293167	1527.285156	5746.469238
3061.930904	5958.293167	1526.231445	5411.913574
3061.930904	5958.293167	1525.176758	5265.888672
3061.930904	5958.293167	1524.122070	5287.939941
3061.930904	5958.293167	1523.067383	4886.610840
3061.930904	5958.293167	1522.012695	4796.115234
3061.930904	5958.293167	1520.957031	4418.297852
3061.930904	5958.293167	1519.901367	4394.221680
3061.930904	5958.293167	1518.845703	4406.718262
3061.930904	5958.293167	1517.790039	3966.850830
3061.930904	5958.293167	1516.734375	3418.872803
3061.930904	5958.293167	1515.677734	3330.739014
3061.930904	5958.293167	1514.621094	3537.081299
3061.930904	5958.293167	1513.564453	2872.926758
3061.930904	5958.293167	1512.507813	2810.912109
3061.930904	5958.293167	1511.450195	2753.766602
3061.930904	5958.293167	1510.393555	2968.312744
3061.930904	5958.293167	1509.335938	2665.576172
3061.930904	5958.293167	1508.278320	2593.811279
3061.930904	5958.293167	1507.219727	2479.491455
3061.930904	5958.293167	1506.162109	2275.306396
3061.930904	5958.293167	1505.103516	2304.144531
3061.930904	5958.293167	1504.044922	2421.422852
3061.930904	5958.293167	1502.986328	1633.886841
3061.930904	5958.293167	1501.926758	1657.226318
3061.930904	5958.293167	1500.868164	1687.775879
3061.930904	5958.293167	1499.808594	1831.482178
3061.930904	5958.293167	1498.749023	1630.459106
3061.930904	5958.293167	1497.688477	1511.073608
3061.930904	5958.293167	1496.628906	1063.036133
3061.930904	5958.293167	1495.568359	1055.116455
3061.930904	5958.293167	1494.507813	1016.083313
3061.930904	5958.293167	1493.447266	1286.193726
3061.930904	5958.293167	1492.386719	639.747864
3061.930904	5958.293167	1491.325195	903.907898
3061.930904	5958.293167	1490.263672	785.589172
3061.930904	5958.293167	1489.202148	937.939392
3061.930904	5958.293167	1488.140625	687.750671
3061.930904	5958.293167	1487.079102	573.154968
3061.930904	5958.293167	1486.016602	850.543091
3061.930904	5958.293167	1484.954102	876.324036
3061.930904	5958.293167	1483.891602	873.317322
3061.930904	5958.293167	1482.829102	1082.158569
3061.930904	5958.293167	1481.765625	864.154358
3061.930904	5958.293167	1480.702148	797.289917
3061.930904	5958.293167	1479.638672	1027.548584
3061.930904	5958.293167	1478.575195	1601.917603
3061.930904	5958.293167	1477.511719	1158.911255
3061.930904	5958.293167	1476.447266	1659.724976
3061.930904	5958.293167	1475.382813	1015.775269
3061.930904	5958.293167	1474.318359	1378.131104
3061.930904	5958.293167	1473.253906	1388.451416
3061.930904	5958.293167	1472.189453	1320.801147
3061.930904	5958.293167	1471.124023	1255.768555
3061.930904	5958.293167	1470.058594	1375.259644
3061.930904	5958.293167	1468.993164	1369.530762
3061.930904	5958.293167	1467.927734	1007.971252
3061.930904	5958.293167	1466.861328	1039.264526
3061.930904	5958.293167	1465.794922	965.611755
3061.930904	5958.293167	1464.728516	1228.421265
3061.930904	5958.293167	1463.662109	1495.750122
3061.930904	5958.293167	1462.594727	1337.858032
3061.930904	5958.293167	1461.528320	739.392822
3061.930904	5958.293167	1460.460938	735.567383
3061.930904	5958.293167	1459.393555	1427.520874
3061.930904	5958.293167	1458.326172	1264.919556
3061.930904	5958.293167	1457.257813	1584.181519
3061.930904	5958.293167	1456.189453	1289.276367
3061.930904	5958.293167	1455.121094	1269.557739
3061.930904	5958.293167	1454.052734	1734.667969
3061.930904	5958.293167	1452.984375	1310.210449
3061.930904	5958.293167	1451.915039	918.731018
3061.930904	5958.293167	1450.845703	1024.340820
3061.930904	5958.293167	1449.776367	919.377686
3061.930904	5958.293167	1448.707031	1253.003296
3061.930904	5958.293167	1447.636719	1037.034912
3061.930904	5958.293167	1446.567383	918.343567
3061.930904	5958.293167	1445.497070	955.632690
3061.930904	5958.293167	1444.425781	598.167053
3061.930904	5958.293167	1443.355469	883.361572
3061.930904	5958.293167	1442.285156	1337.084839
3061.930904	5958.293167	1441.213867	798.231140
3061.930904	5958.293167	1440.142578	877.222473
3061.930904	5958.293167	1439.070313	1261.247070
3061.930904	5958.293167	1437.999023	1088.792480
3061.930904	5958.293167	1436.926758	947.425415
3061.930904	5958.293167	1435.854492	906.046143
3061.930904	5958.293167	1434.782227	879.929321
3061.930904	5958.293167	1433.709961	926.591675
3061.930904	5958.293167	1432.636719	1212.056274
3061.930904	5958.293167	1431.563477	643.662415
3061.930904	5958.293167	1430.490234	526.997070
3061.930904	5958.293167	1429.416992	193.553360
3061.930904	5958.293167	1428.343750	37.113358
3061.930904	5958.293167	1427.269531	168.921448
3061.930904	5958.293167	1426.195313	-143.713287
3061.930904	5958.293167	1425.121094	-1.883861
3061.930904	5958.293167	1424.046875	-225.769287
3061.930904	5958.293167	1422.971680	-10.810676
3061.930904	5958.293167	1421.896484	55.454948
3061.930904	5958.293167	1420.821289	134.383591
3061.930904	5958.293167	1419.746094	221.905472
3061.930904	5958.293167	1418.669922	-86.828697
3061.930904	5958.293167	1417.594727	-212.481796
3061.930904	5958.293167	1416.518555	311.271088
3061.930904	5958.293167	1415.442383	371.037842
3061.930904	5958.293167	1414.365234	519.338379
3061.930904	5958.293167	1413.289063	126.278694
3061.930904	5958.293167	1412.211914	436.867584
3061.930904	5958.293167	1411.134766	534.624634
3061.930904	5958.293167	1410.057617	689.170959
3061.930904	5958.293167	1408.979492	499.427521
3061.930904	5958.293167	1407.902344	861.349976
3061.930904	5958.293167	1406.824219	1380.886108
3061.930904	5958.293167	1405.746094	1685.525024
3061.930904	5958.293167	1404.666992	1680.365479
3061.930904	5958.293167	1403.588867	1775.542236
3061.930904	5958.293167	1402.509766	1559.956299
3061.930904	5958.293167	1401.430664	1696.239136
3061.930904	5958.293167	1400.351563	2226.784912
3061.930904	5958.293167	1399.271484	1885.569946
3061.930904	5958.293167	1398.192383	2051.453613
3061.930904	5958.293167	1397.112305	1755.529785
3061.930904	5958.293167	1396.031250	1779.526123
3061.930904	5958.293167	1394.951172	1877.970703
3061.930904	5958.293167	1393.871094	1863.984985
3061.930904	5958.293167	1392.790039	1790.536621
3061.930904	5958.293167	1391.708984	1279.798340
3061.930904	5958.293167	1390.626953	1614.340454
3061.930904	5958.293167	1389.545898	1503.626221
3061.930904	5958.293167	1388.463867	1362.191895
3061.930904	5958.293167	1387.381836	1180.426514
3061.930904	5958.293167	1386.299805	1335.676880
3061.930904	5958.293167	1385.217773	1240.785767
3061.930904	5958.293167	1384.134766	1178.783325
3061.930904	5958.293167	1383.051758	959.236023
3061.930904	5958.293167	1381.968750	686.943665
3061.930904	5958.293167	1380.885742	910.444092
3061.930904	5958.293167	1379.802734	587.060303
3061.930904	5958.293167	1378.718750	300.766479
3061.930904	5958.293167	1377.634766	1023.059692
3061.930904	5958.293167	1376.550781	850.688721
3061.930904	5958.293167	1375.465820	948.902405
3061.930904	5958.293167	1374.381836	1270.160156
3061.930904	5958.293167	1373.296875	1638.168823
3061.930904	5958.293167	1372.211914	1733.246948
3061.930904	5958.293167	1371.126953	1454.701416
3061.930904	5958.293167	1370.041016	1705.182129
3061.930904	5958.293167	1368.955078	1920.689453
3061.930904	5958.293167	1367.869141	1708.245117
3061.930904	5958.293167	1366.783203	1592.984131
3061.930904	5958.293167	1365.697266	1604.654785
3061.930904	5958.293167	1364.610352	1164.253052
3061.930904	5958.293167	1363.523438	1699.233398
3061.930904	5958.293167	1362.436523	1666.773560
3061.930904	5958.293167	1361.349609	1680.348267
3061.930904	5958.293167	1360.261719	1285.932129
3061.930904	5958.293167	1359.174805	1113.046997
3061.930904	5958.293167	1358.086914	1342.417847
3061.930904	5958.293167	1356.998047	1651.321411
3061.930904	5958.293167	1355.910156	1518.354736
3061.930904	5958.293167	1354.821289	1903.409668
3061.930904	5958.293167	1353.732422	1805.048950
3061.930904	5958.293167	1352.643555	1938.539673
3061.930904	5958.293167	1351.554688	1831.746948
3061.930904	5958.293167	1350.464844	1996.301636
3061.930904	5958.293167	1349.375000	2048.627686
3061.930904	5958.293167	1348.285156	2304.995850
3061.930904	5958.293167	1347.195313	1716.896118
3061.930904	5958.293167	1346.105469	2079.931152
3061.930904	5958.293167	1345.014648	2061.183838
3061.930904	5958.293167	1343.923828	1974.328857
3061.930904	5958.293167	1342.833008	2304.730957
3061.930904	5958.293167	1341.741211	1942.938599
3061.930904	5958.293167	1340.650391	1879.140015
3061.930904	5958.293167	1339.558594	1590.736328
3061.930904	5958.293167	1338.466797	1282.708496
3061.930904	5958.293167	1337.374023	1314.337524
3061.930904	5958.293167	1336.282227	1400.326904
3061.930904	5958.293167	1335.189453	1216.257202
3061.930904	5958.293167	1334.096680	1084.060669
3061.930904	5958.293167	1333.003906	1268.011475
3061.930904	5958.293167	1331.910156	1085.451416
3061.930904	5958.293167	1330.817383	1420.485229
3061.930904	5958.293167	1329.723633	1122.514648
3061.930904	5958.293167	1328.629883	1231.363525
3061.930904	5958.293167	1327.535156	1400.652710
3061.930904	5958.293167	1326.441406	1568.901245
3061.930904	5958.293167	1325.346680	1654.584473
3061.930904	5958.293167	1324.251953	1560.407227
3061.930904	5958.293167	1323.156250	1633.366821
3061.930904	5958.293167	1322.061523	1493.064575
3061.930904	5958.293167	1320.965820	1648.131714
3061.930904	5958.293167	1319.870117	1633.645996
3061.930904	5958.293167	1318.774414	1717.322876
3061.930904	5958.293167	1317.678711	1643.029907
3061.930904	5958.293167	1316.582031	1647.551880
3061.930904	5958.293167	1315.485352	1505.777344
3061.930904	5958.293167	1314.388672	1931.546753
3061.930904	5958.293167	1313.291016	1856.454224
3061.930904	5958.293167	1312.194336	2029.144287
3061.930904	5958.293167	1311.096680	2020.919189
3061.930904	5958.293167	1309.999023	1554.001343
3061.930904	5958.293167	1308.901367	1506.234497
3061.930904	5958.293167	1307.802734	1620.707397
3061.930904	5958.293167	1306.705078	1412.794312
3061.930904	5958.293167	1305.606445	1199.528198
3061.930904	5958.293167	1304.506836	1350.839600
3061.930904	5958.293167	1303.408203	1052.956299
3061.930904	5958.293167	1302.308594	1045.206177
3061.930904	5958.293167	1301.208984	982.108765
3061.930904	5958.293167	1300.109375	861.511902
3061.930904	5958.293167	1299.009766	1021.708252
3061.930904	5958.293167	1297.909180	1266.605957
3061.930904	5958.293167	1296.808594	1284.527832
3061.930904	5958.293167	1295.708008	1149.266602
3061.930904	5958.293167	1294.607422	1176.837769
3061.930904	5958.293167	1293.506836	1250.131592
3061.930904	5958.293167	1292.405273	1250.346802
3061.930904	5958.293167	1291.303711	1274.570068
3061.930904	5958.293167	1290.202148	1132.500122
3061.930904	5958.293167	1289.099609	1066.246948
3061.930904	5958.293167	1287.998047	831.332092
3061.930904	5958.293167	1286.895508	910.921387
3061.930904	5958.293167	1285.792969	586.212646
3061.930904	5958.293167	1284.689453	707.207703
3061.930904	5958.293167	1283.586914	599.249634
3061.930904	5958.293167	1282.483398	825.330872
3061.930904	5958.293167	1281.379883	421.718323
3061.930904	5958.293167	1280.276367	631.262939
3061.930904	5958.293167	1279.171875	830.405396
3061.930904	5958.293167	1278.067383	850.430969
3061.930904	5958.293167	1276.962891	1050.483765
3061.930904	5958.293167	1275.858398	674.625488
3061.930904	5958.293167	1274.753906	645.746155
3061.930904	5958.293167	1273.648438	725.104187
3061.930904	5958.293167	1272.542969	916.155212
3061.930904	5958.293167	1271.437500	620.007935
3061.930904	5958.293167	1270.331055	669.265198
3061.930904	5958.293167	1269.225586	733.649048
3061.930904	5958.293167	1268.119141	611.502869
3061.930904	5958.293167	1267.012695	495.925415
3061.930904	5958.293167	1265.906250	558.357300
3061.930904	5958.293167	1264.798828	455.527588
3061.930904	5958.293167	1263.691406	376.389679
3061.930904	5958.293167	1262.583984	381.470062
3061.930904	5958.293167	1261.476563	371.771790
3061.930904	5958.293167	1260.368164	123.919296
3061.930904	5958.293167	1259.260742	256.479645
3061.930904	5958.293167	1258.152344	248.993851
3061.930904	5958.293167	1257.043945	408.607147
3061.930904	5958.293167	1255.934570	37.364712
3061.930904	5958.293167	1254.825195	220.007034
3061.930904	5958.293167	1253.716797	28.064720
3061.930904	5958.293167	1252.606445	225.274109
3061.930904	5958.293167	1251.497070	106.844185
3061.930904	5958.293167	1250.387695	166.945526
3061.930904	5958.293167	1249.277344	124.018982
3061.930904	5958.293167	1248.166992	89.793961
3061.930904	5958.293167	1247.055664	299.182343
3061.930904	5958.293167	1245.945313	-2.062446
3061.930904	5958.293167	1244.833984	-263.273651
3061.930904	5958.293167	1243.722656	44.466785
3061.930904	5958.293167	1242.611328	260.616821
3061.930904	5958.293167	1241.499023	270.483643
3061.930904	5958.293167	1240.387695	236.131485
3061.930904	5958.293167	1239.275391	94.756027
3061.930904	5958.293167	1238.162109	54.399620
3061.930904	5958.293167	1237.049805	53.396992
3061.930904	5958.293167	1235.936523	4.079494
3061.930904	5958.293167	1234.823242	82.367775
3061.930904	5958.293167	1233.709961	-57.514664
3061.930904	5958.293167	1232.596680	177.200623
3061.930904	5958.293167	1231.482422	61.601337
3061.930904	5958.293167	1230.369141	134.376083
3061.930904	5958.293167	1229.253906	183.409622
3061.930904	5958.293167	1228.139648	34.197796
3061.930904	5958.293167	1227.025391	8.494413
3061.930904	5958.293167	1225.910156	-148.651367
3061.930904	5958.293167	1224.794922	6.179997
3061.930904	5958.293167	1223.679688	-249.389587
3061.930904	5958.293167	1222.563477	-180.101685
3061.930904	5958.293167	1221.447266	-32.503887
3061.930904	5958.293167	1220.331055	-29.562141
3061.930904	5958.293167	1219.214844	-76.693573
3061.930904	5958.293167	1218.098633	-8.551627
3061.930904	5958.293167	1216.981445	246.567780
3061.930904	5958.293167	1215.864258	192.198730
3061.930904	5958.293167	1214.747070	57.125282
3061.930904	5958.293167	1213.629883	39.795563
3061.930904	5958.293167	1212.511719	132.294739
3061.930904	5958.293167	1211.393555	360.922302
3061.930904	5958.293167	1210.275391	356.729889
3061.930904	5958.293167	1209.157227	318.872681
3061.930904	5958.293167	1208.038086	67.662575
3061.930904	5958.293167	1206.918945	240.949677
3061.930904	5958.293167	1205.799805	378.391174
3061.930904	5958.293167	1204.680664	430.722290
3061.930904	5958.293167	1203.560547	480.673035
3061.930904	5958.293167	1202.441406	355.792114
3061.930904	5958.293167	1201.321289	509.036591
3061.930904	5958.293167	1200.200195	434.005066
3061.930904	5958.293167	1199.080078	529.629150
3061.930904	5958.293167	1197.958984	509.098236
3061.930904	5958.293167	1196.837891	443.240997
3061.930904	5958.293167	1195.716797	423.767365
3061.930904	5958.293167	1194.594727	665.196411
3061.930904	5958.293167	1193.473633	652.323059
3061.930904	5958.293167	1192.351563	373.942291
3061.930904	5958.293167	1191.229492	476.898376
3061.930904	5958.293167	1190.106445	380.438751
3061.930904	5958.293167	1188.984375	426.577606
3061.930904	5958.293167	1187.861328	459.439514
3061.930904	5958.293167	1186.738281	282.650360
3061.930904	5958.293167	1185.614258	401.562866
3061.930904	5958.293167	1184.491211	356.681854
3061.930904	5958.293167	1183.367188	202.635513
3061.930904	5958.293167	1182.243164	385.104614
3061.930904	5958.293167	1181.119141	328.691925
3061.930904	5958.293167	1179.994141	266.175690
3061.930904	5958.293167	1178.869141	485.957642
3061.930904	5958.293167	1177.744141	355.419861
3061.930904	5958.293167	1176.619141	580.854614
3061.930904	5958.293167	1175.493164	559.680542
3061.930904	5958.293167	1174.368164	478.628601
3061.930904	5958.293167	1173.242188	484.083527
3061.930904	5958.293167	1172.115234	607.399841
3061.930904	5958.293167	1170.989258	531.188110
3061.930904	5958.293167	1169.862305	589.775757
3061.930904	5958.293167	1168.735352	774.553955
3061.930904	5958.293167	1167.608398	618.572815
3061.930904	5958.293167	1166.481445	587.236145
3061.930904	5958.293167	1165.353516	543.815247
3061.930904	5958.293167	1164.225586	660.949768
3061.930904	5958.293167	1163.097656	669.873596
3061.930904	5958.293167	1161.968750	624.894836
3061.930904	5958.293167	1160.840820	781.132263
3061.930904	5958.293167	1159.711914	644.382080
3061.930904	5958.293167	1158.583008	528.948730
3061.930904	5958.293167	1157.453125	584.176819
3061.930904	5958.293167	1156.324219	476.323273
3061.930904	5958.293167	1155.194336	377.183075
3061.930904	5958.293167	1154.064453	315.704010
3061.930904	5958.293167	1152.933594	260.519196
3061.930904	5958.293167	1151.803711	240.062729
3061.930904	5958.293167	1150.672852	142.755325
3061.930904	5958.293167	1149.541992	40.342396
3061.930904	5958.293167	1148.411133	-21.394920
3061.930904	5958.293167	1147.279297	-181.019501
3061.930904	5958.293167	1146.147461	-125.552910
3061.930904	5958.293167	1145.015625	-28.817442
3061.930904	5958.293167	1143.883789	-133.813065
3061.930904	5958.293167	1142.750977	-108.792778
3061.930904	5958.293167	1141.619141	-270.455658
3061.930904	5958.293167	1140.486328	-80.087204
3061.930904	5958.293167	1139.352539	28.407822
3061.930904	5958.293167	1138.219727	12.687120
3061.930904	5958.293167	1137.085938	-281.524231
3061.930904	5958.293167	1135.952148	-191.454742
3061.930904	5958.293167	1134.818359	-247.086548
3061.930904	5958.293167	1133.683594	-268.416321
3061.930904	5958.293167	1132.549805	-216.799576
3061.930904	5958.293167	1131.415039	9.258141
3061.930904	5958.293167	1130.279297	327.653046
3061.930904	5958.293167	1129.144531	374.783051
3061.930904	5958.293167	1128.008789	366.488983
3061.930904	5958.293167	1126.873047	228.886185
3061.930904	5958.293167	1125.737305	349.584625
3061.930904	5958.293167	1124.601563	191.916916
3061.930904	5958.293167	1123.464844	288.365021
3061.930904	5958.293167	1122.328125	170.387222
3061.930904	5958.293167	1121.191406	167.449051
3061.930904	5958.293167	1120.054688	161.494598
3061.930904	5958.293167	1118.916992	210.276443
3061.930904	5958.293167	1117.779297	172.621216
3061.930904	5958.293167	1116.641602	134.598099
3061.930904	5958.293167	1115.503906	89.139648
3061.930904	5958.293167	1114.365234	44.811924
3061.930904	5958.293167	1113.226563	22.436924
3061.930904	5958.293167	1112.087891	-88.171852
3061.930904	5958.293167	1110.949219	21.660479
3061.930904	5958.293167	1109.809570	-124.327171
3061.930904	5958.293167	1108.669922	-128.922852
3061.930904	5958.293167	1107.530273	-28.846132
3061.930904	5958.293167	1106.390625	29.673748
3061.930904	5958.293167	1105.250000	122.839546
3061.930904	5958.293167	1104.109375	-0.178475
3061.930904	5958.293167	1102.968750	117.173752
3061.930904	5958.293167	1101.828125	101.046028
3061.930904	5958.293167	1100.686523	78.196724
3061.930904	5958.293167	1099.544922	172.627533
3061.930904	5958.293167	1098.403320	45.771584
3061.930904	5958.293167	1097.261719	81.587440
3061.930904	5958.293167	1096.120117	85.637238
3061.930904	5958.293167	1094.977539	80.056892
3061.930904	5958.293167	1093.834961	57.476810
3061.930904	5958.293167	1092.691406	-85.528183
3061.930904	5958.293167	1091.548828	-237.294327
3061.930904	5958.293167	1090.405273	-168.000061
3061.930904	5958.293167	1089.261719	-89.994034
3061.930904	5958.293167	1088.118164	30.194387
3061.930904	5958.293167	1086.973633	-64.712936
3061.930904	5958.293167	1085.829102	84.373947
3061.930904	5958.293167	1084.684570	151.101578
3061.930904	5958.293167	1083.540039	-80.770180
3061.930904	5958.293167	1082.395508	-144.385727
3061.930904	5958.293167	1081.250000	9.715619
3061.930904	5958.293167	1080.104492	71.881516
3061.930904	5958.293167	1078.958984	239.522400
3061.930904	5958.293167	1077.812500	229.033615
3061.930904	5958.293167	1076.666016	225.217072
3061.930904	5958.293167	1075.519531	208.473587
3061.930904	5958.293167	1074.373047	275.834869
3061.930904	5958.293167	1073.226563	562.813110
3061.930904	5958.293167	1072.079102	368.852936
3061.930904	5958.293167	1070.931641	547.211365
3061.930904	5958.293167	1069.784180	541.531555
3061.930904	5958.293167	1068.635742	367.382294
3061.930904	5958.293167	1067.487305	281.324402
3061.930904	5958.293167	1066.338867	269.190735
3061.930904	5958.293167	1065.190430	274.569977
3061.930904	5958.293167	1064.041992	260.056732
3061.930904	5958.293167	1062.892578	394.393951
3061.930904	5958.293167	1061.743164	259.189453
3061.930904	5958.293167	1060.593750	138.450089
3061.930904	5958.293167	1059.443359	223.163971
3061.930904	5958.293167	1058.292969	191.481125
3061.930904	5958.293167	1057.142578	186.185883
3061.930904	5958.293167	1055.992188	236.183716
3061.930904	5958.293167	1054.841797	42.145794
3061.930904	5958.293167	1053.690430	39.943401
3061.930904	5958.293167	1052.539063	151.832108
3061.930904	5958.293167	1051.387695	181.381638
3061.930904	5958.293167	1050.235352	204.677170
3061.930904	5958.293167	1049.083984	88.052261
3061.930904	5958.293167	1047.931641	53.777153
3061.930904	5958.293167	1046.778320	65.865974
3061.930904	5958.293167	1045.625977	-114.253624
3061.930904	5958.293167	1044.472656	-170.655228
3061.930904	5958.293167	1043.319336	-81.570244
3061.930904	5958.293167	1042.166016	-44.559437
3061.930904	5958.293167	1041.012695	2.529366
3061.930904	5958.293167	1039.858398	-33.547703
3061.930904	5958.293167	1038.704102	-16.809452
3061.930904	5958.293167	1037.549805	-18.597727
3061.930904	5958.293167	1036.394531	60.196167
3061.930904	5958.293167	1035.239258	44.570278
3061.930904	5958.293167	1034.083984	41.399693
3061.930904	5958.293167	1032.928711	87.745094
3061.930904	5958.293167	1031.773438	77.135963
3061.930904	5958.293167	1030.617188	158.052444
3061.930904	5958.293167	1029.460938	239.127426
3061.930904	5958.293167	1028.304688	129.029205
3061.930904	5958.293167	1027.147461	265.467407
3061.930904	5958.293167	1025.991211	272.574341
3061.930904	5958.293167	1024.833984	343.059601
3061.930904	5958.293167	1023.675781	402.444092
3061.930904	5958.293167	1022.518555	646.297974
3061.930904	5958.293167	1021.360352	465.850250
3061.930904	5958.293167	1020.202148	487.840698
3061.930904	5958.293167	1019.043945	492.766052
3061.930904	5958.293167	1017.884766	403.151764
3061.930904	5958.293167	1016.726563	394.255371
3061.930904	5958.293167	1015.567383	470.232269
3061.930904	5958.293167	1014.407227	534.382996
3061.930904	5958.293167	1013.248047	495.324768
3061.930904	5958.293167	1012.087891	498.019562
3061.930904	5958.293167	1010.927734	494.718140
3061.930904	5958.293167	1009.767578	499.798431
3061.930904	5958.293167	1008.606445	523.332153
3061.930904	5958.293167	1007.446289	402.944366
3061.930904	5958.293167	1006.285156	714.447021
3061.930904	5958.293167	1005.123047	678.105957
3061.930904	5958.293167	1003.961914	630.333496
3061.930904	5958.293167	1002.799805	490.834259
3061.930904	5958.293167	1001.637695	622.612122
3061.930904	5958.293167	1000.475586	574.246643
3061.930904	5958.293167	999.312500	649.455444
3061.930904	5958.293167	998.149414	698.268982
3061.930904	5958.293167	996.986328	550.339111
3061.930904	5958.293167	995.823242	457.048248
3061.930904	5958.293167	994.659180	535.331482
3061.930904	5958.293167	993.496094	338.242706
3061.930904	5958.293167	992.332031	391.625061
3061.930904	5958.293167	991.166992	410.311188
3061.930904	5958.293167	990.002930	532.486023
3061.930904	5958.293167	988.837891	562.525879
3061.930904	5958.293167	987.672852	623.683594
3061.930904	5958.293167	986.506836	524.862793
3061.930904	5958.293167	985.341797	522.372437
3061.930904	5958.293167	984.175781	712.959412
3061.930904	5958.293167	983.009766	748.932495
3061.930904	5958.293167	981.843750	645.574951
3061.930904	5958.293167	980.676758	890.052795
3061.930904	5958.293167	979.509766	643.752075
3061.930904	5958.293167	978.342773	752.471741
3061.930904	5958.293167	977.175781	737.698181
3061.930904	5958.293167	976.007813	799.850220
3061.930904	5958.293167	974.839844	746.997009
3061.930904	5958.293167	973.671875	767.703186
3061.930904	5958.293167	972.503906	858.752258
3061.930904	5958.293167	971.334961	734.266846
3061.930904	5958.293167	970.166016	646.634033
3061.930904	5958.293167	968.997070	564.547424
3061.930904	5958.293167	967.828125	703.329712
3061.930904	5958.293167	966.658203	763.198120
3061.930904	5958.293167	965.488281	885.289124
3061.930904	5958.293167	964.318359	911.023071
3061.930904	5958.293167	963.148438	784.527405
3061.930904	5958.293167	961.977539	707.338623
3061.930904	5958.293167	960.806641	782.912842
3061.930904	5958.293167	959.635742	781.016235
3061.930904	5958.293167	958.463867	872.918823
3061.930904	5958.293167	957.292969	992.519592
3061.930904	5958.293167	956.121094	907.476868
3061.930904	5958.293167	954.948242	934.702637
3061.930904	5958.293167	953.776367	913.661987
3061.930904	5958.293167	952.603516	913.562561
3061.930904	5958.293167	951.430664	850.839478
3061.930904	5958.293167	950.257813	691.380310
3061.930904	5958.293167	949.084961	677.488586
3061.930904	5958.293167	947.911133	778.894897
3061.930904	5958.293167	946.737305	636.137268
3061.930904	5958.293167	945.563477	780.681458
3061.930904	5958.293167	944.388672	688.815857
3061.930904	5958.293167	943.213867	780.513000
3061.930904	5958.293167	942.039063	815.377380
3061.930904	5958.293167	940.864258	806.788757
3061.930904	5958.293167	939.688477	816.987793
3061.930904	5958.293167	938.513672	826.325867
3061.930904	5958.293167	937.337891	562.097656
3061.930904	5958.293167	936.161133	650.115784
3061.930904	5958.293167	934.985352	817.662964
3061.930904	5958.293167	933.808594	865.909241
3061.930904	5958.293167	932.631836	990.573792
3061.930904	5958.293167	931.454102	1060.520630
3061.930904	5958.293167	930.277344	890.038330
3061.930904	5958.293167	929.099609	924.357605
3061.930904	5958.293167	927.921875	1101.765015
3061.930904	5958.293167	926.743164	992.819092
3061.930904	5958.293167	925.565430	922.950867
3061.930904	5958.293167	924.386719	1008.227234
3061.930904	5958.293167	923.208008	1072.736450
3061.930904	5958.293167	922.028320	851.159180
3061.930904	5958.293167	920.849609	928.838623
3061.930904	5958.293167	919.669922	928.244080
3061.930904	5958.293167	919.474609	786.934570
3061.930904	5958.293167	918.309570	740.432312
3061.930904	5958.293167	917.143555	737.177979
3061.930904	5958.293167	915.977539	833.401917
3061.930904	5958.293167	914.810547	907.187683
3061.930904	5958.293167	913.644531	938.953247
3061.930904	5958.293167	912.477539	950.876221
3061.930904	5958.293167	911.310547	846.734558
3061.930904	5958.293167	910.143555	775.609619
3061.930904	5958.293167	908.975586	812.400330
3061.930904	5958.293167	907.807617	785.113892
3061.930904	5958.293167	906.639648	742.298340
3061.930904	5958.293167	905.471680	659.290649
3061.930904	5958.293167	904.303711	704.545166
3061.930904	5958.293167	903.134766	640.706116
3061.930904	5958.293167	901.965820	688.916382
3061.930904	5958.293167	900.796875	775.153687
3061.930904	5958.293167	899.626953	656.315613
3061.930904	5958.293167	898.457031	848.330750
3061.930904	5958.293167	897.287109	938.118164
3061.930904	5958.293167	896.117188	855.243469
3061.930904	5958.293167	894.947266	987.065186
3061.930904	5958.293167	893.776367	972.597412
3061.930904	5958.293167	892.605469	1036.046753
3061.930904	5958.293167	891.434570	1013.564819
3061.930904	5958.293167	890.262695	1147.036255
3061.930904	5958.293167	889.091797	1115.694824
3061.930904	5958.293167	887.919922	1330.160278
3061.930904	5958.293167	886.748047	1096.610596
3061.930904	5958.293167	885.575195	1233.490601
3061.930904	5958.293167	884.403320	1077.705078
3061.930904	5958.293167	883.230469	1003.171265
3061.930904	5958.293167	882.057617	878.515198
3061.930904	5958.293167	880.883789	956.212158
3061.930904	5958.293167	879.710938	919.388733
3061.930904	5958.293167	878.537109	874.797058
3061.930904	5958.293167	877.362305	697.145020
3061.930904	5958.293167	876.188477	635.391724
3061.930904	5958.293167	875.013672	661.525085
3061.930904	5958.293167	873.839844	505.598541
3061.930904	5958.293167	872.664063	369.039734
3061.930904	5958.293167	871.489258	560.565552
3061.930904	5958.293167	870.313477	581.061340
3061.930904	5958.293167	869.138672	612.417297
3061.930904	5958.293167	867.962891	554.871765
3061.930904	5958.293167	866.786133	364.542542
3061.930904	5958.293167	865.610352	523.121277
3061.930904	5958.293167	864.433594	363.044830
3061.930904	5958.293167	863.256836	314.397736
3061.930904	5958.293167	862.079102	312.934723
3061.930904	5958.293167	860.902344	270.000336
3061.930904	5958.293167	859.724609	222.749496
3061.930904	5958.293167	858.546875	326.462311
3061.930904	5958.293167	857.368164	133.885223
3061.930904	5958.293167	856.190430	206.158386
3061.930904	5958.293167	855.011719	252.150742
3061.930904	5958.293167	853.833008	231.420044
3061.930904	5958.293167	852.654297	144.849747
3061.930904	5958.293167	851.474609	223.408478
3061.930904	5958.293167	850.294922	147.642410
3061.930904	5958.293167	849.115234	255.481827
3061.930904	5958.293167	847.935547	83.548393
3061.930904	5958.293167	846.754883	218.132614
3061.930904	5958.293167	845.575195	326.490936
3061.930904	5958.293167	844.393555	223.421326
3061.930904	5958.293167	843.212891	414.894348
3061.930904	5958.293167	842.032227	310.872192
3061.930904	5958.293167	840.850586	251.400894
3061.930904	5958.293167	839.668945	379.450714
3061.930904	5958.293167	838.486328	411.510864
3061.930904	5958.293167	837.304688	319.912567
3061.930904	5958.293167	836.122070	269.471558
3061.930904	5958.293167	834.939453	363.543060
3061.930904	5958.293167	833.756836	288.633148
3061.930904	5958.293167	832.573242	98.601723
3061.930904	5958.293167	831.389648	50.538376
3061.930904	5958.293167	830.206055	189.701050
3061.930904	5958.293167	829.022461	107.121094
3061.930904	5958.293167	827.838867	27.886452
3061.930904	5958.293167	826.654297	97.167252
3061.930904	5958.293167	825.469727	199.099960
3061.930904	5958.293167	824.284180	-32.080944
3061.930904	5958.293167	823.099609	84.854637
3061.930904	5958.293167	821.914063	-39.792400
3061.930904	5958.293167	820.728516	67.794075
3061.930904	5958.293167	819.542969	-19.985720
3061.930904	5958.293167	818.356445	-75.926933
3061.930904	5958.293167	817.169922	-58.149002
3061.930904	5958.293167	815.983398	-125.005753
3061.930904	5958.293167	814.796875	-139.938919
3061.930904	5958.293167	813.609375	-175.831741
3061.930904	5958.293167	812.422852	-70.250946
3061.930904	5958.293167	811.235352	-97.820160
3061.930904	5958.293167	810.046875	-112.856323
3061.930904	5958.293167	808.859375	-258.402740
3061.930904	5958.293167	807.670898	-198.993423
3061.930904	5958.293167	806.482422	-128.753860
3061.930904	5958.293167	805.293945	-232.462067
3061.930904	5958.293167	804.104492	-321.941132
3061.930904	5958.293167	802.915039	-279.347900
3061.930904	5958.293167	801.725586	-17.866791
3061.930904	5958.293167	800.536133	-132.430237
3061.930904	5958.293167	799.345703	-137.550980
3061.930904	5958.293167	798.155273	-162.718063
3061.930904	5958.293167	796.964844	-182.871902
3061.930904	5958.293167	795.774414	-107.868958
3061.930904	5958.293167	794.583008	-182.292450
3061.930904	5958.293167	793.392578	-59.772072
3061.930904	5958.293167	792.200195	126.073433
3061.930904	5958.293167	791.008789	130.868301
3061.930904	5958.293167	789.816406	132.314194
3061.930904	5958.293167	788.625000	54.570221
3061.930904	5958.293167	787.432617	122.709068
3061.930904	5958.293167	786.239258	-5.850678
3061.930904	5958.293167	785.046875	83.934715
3061.930904	5958.293167	783.853516	143.686630
3061.930904	5958.293167	782.660156	56.843151
3061.930904	5958.293167	781.465820	104.080376
3061.930904	5958.293167	780.272461	-54.304279
3061.930904	5958.293167	779.078125	-8.722764
3061.930904	5958.293167	777.883789	288.971771
3061.930904	5958.293167	776.688477	-50.724434
3061.930904	5958.293167	775.494141	49.733856
3061.930904	5958.293167	774.298828	-21.995129
3061.930904	5958.293167	773.103516	157.397339
3061.930904	5958.293167	771.907227	39.956200
3061.930904	5958.293167	770.711914	35.601406
3061.930904	5958.293167	769.515625	73.618019
3061.930904	5958.293167	768.318359	186.379013
3061.930904	5958.293167	767.122070	164.556091
3061.930904	5958.293167	765.924805	93.742828
3061.930904	5958.293167	764.727539	325.157715
3061.930904	5958.293167	763.530273	385.491852
3061.930904	5958.293167	762.333008	478.166748
3061.930904	5958.293167	761.134766	439.705536
3061.930904	5958.293167	759.936523	515.734619
3061.930904	5958.293167	758.738281	413.423523
3061.930904	5958.293167	757.540039	413.144714
3061.930904	5958.293167	756.340820	242.911301
3061.930904	5958.293167	755.141602	193.755829
3061.930904	5958.293167	753.942383	164.507690
3061.930904	5958.293167	752.742188	112.060760
3061.930904	5958.293167	751.541992	20.703251
3061.930904	5958.293167	750.341797	168.711670
3061.930904	5958.293167	749.141602	-70.004700
3061.930904	5958.293167	747.941406	-4.003419
3061.930904	5958.293167	746.740234	39.611115
3061.930904	5958.293167	745.539063	-59.121189
3061.930904	5958.293167	744.337891	-89.984604
3061.930904	5958.293167	743.135742	-105.968430
3061.930904	5958.293167	741.933594	-148.415710
3061.930904	5958.293167	740.731445	-73.460472
3061.930904	5958.293167	739.529297	-134.107864
3061.930904	5958.293167	738.326172	-20.384516
3061.930904	5958.293167	737.124023	-15.776270
3061.930904	5958.293167	735.919922	40.008606
3061.930904	5958.293167	734.716797	-80.978737
3061.930904	5958.293167	733.513672	40.822773
3061.930904	5958.293167	732.309570	153.462402
3061.930904	5958.293167	731.105469	200.001053
3061.930904	5958.293167	729.900391	109.501541
3061.930904	5958.293167	728.696289	6.649742
3061.930904	5958.293167	727.491211	135.584518
3061.930904	5958.293167	726.286133	45.069782
3061.930904	5958.293167	725.080078	93.068489
3061.930904	5958.293167	723.874023	269.610107
3061.930904	5958.293167	722.668945	305.118713
3061.930904	5958.293167	721.461914	233.435684
3061.930904	5958.293167	720.255859	246.608353
3061.930904	5958.293167	719.048828	152.648010
3061.930904	5958.293167	717.841797	42.212959
3061.930904	5958.293167	716.634766	133.488632
3061.930904	5958.293167	715.427734	123.431885
3061.930904	5958.293167	714.219727	280.378113
3061.930904	5958.293167	713.011719	238.094925
3061.930904	5958.293167	711.803711	34.541054
3061.930904	5958.293167	710.594727	194.522339
3061.930904	5958.293167	709.385742	104.409920
3061.930904	5958.293167	708.176758	223.084259
3061.930904	5958.293167	706.967773	18.628944
3061.930904	5958.293167	705.758789	-143.077591
3061.930904	5958.293167	704.548828	-41.890072
3061.930904	5958.293167	703.338867	30.435741
3061.930904	5958.293167	702.127930	-57.496075
3061.930904	5958.293167	700.917969	-250.553650
3061.930904	5958.293167	699.707031	-131.682678
3061.930904	5958.293167	698.496094	-5.556817
3061.930904	5958.293167	697.285156	226.280273
3061.930904	5958.293167	696.073242	46.096279
3061.930904	5958.293167	694.861328	88.170753
3061.930904	5958.293167	693.649414	196.555649
3061.930904	5958.293167	692.436523	123.602341
3061.930904	5958.293167	691.224609	107.146606
3061.930904	5958.293167	690.011719	278.255127
3061.930904	5958.293167	688.798828	144.391251
3061.930904	5958.293167	687.584961	395.472351
3061.930904	5958.293167	686.372070	186.895248
3061.930904	5958.293167	685.158203	489.222015
3061.930904	5958.293167	683.943359	548.974792
3061.930904	5958.293167	682.729492	641.332214
3061.930904	5958.293167	681.514648	558.400574
3061.930904	5958.293167	680.299805	778.085083
3061.930904	5958.293167	679.084961	627.831909
3061.930904	5958.293167	677.869141	783.348511
3061.930904	5958.293167	676.653320	838.098999
3061.930904	5958.293167	675.437500	913.123108
3061.930904	5958.293167	674.221680	1063.161987
3061.930904	5958.293167	673.004883	1336.362061
3061.930904	5958.293167	671.789063	1359.331299
3061.930904	5958.293167	670.571289	1474.409180
3061.930904	5958.293167	669.354492	1383.515503
3061.930904	5958.293167	668.136719	1313.717163
3061.930904	5958.293167	666.919922	1339.300537
3061.930904	5958.293167	665.701172	1133.734619
3061.930904	5958.293167	664.483398	862.829468
3061.930904	5958.293167	663.264648	998.898621
3061.930904	5958.293167	662.045898	1023.005127
3061.930904	5958.293167	660.827148	1112.969971
3061.930904	5958.293167	659.608398	980.979370
3061.930904	5958.293167	658.388672	850.476929
3061.930904	5958.293167	657.168945	966.742920
3061.930904	5958.293167	655.949219	925.533875
3061.930904	5958.293167	654.728516	897.980469
3061.930904	5958.293167	653.507813	859.654358
3061.930904	5958.293167	652.287109	926.983948
3061.930904	5958.293167	651.066406	856.516785
3061.930904	5958.293167	649.844727	955.131104
3061.930904	5958.293167	648.623047	937.953796
3061.930904	5958.293167	647.401367	986.460205
3061.930904	5958.293167	646.179688	1078.647217
3061.930904	5958.293167	644.957031	1200.644165
3061.930904	5958.293167	643.734375	1150.016235
3061.930904	5958.293167	642.511719	1152.014282
3061.930904	5958.293167	641.289063	1011.568604
3061.930904	5958.293167	640.065430	1165.853149
3061.930904	5958.293167	638.841797	1246.728516
3061.930904	5958.293167	637.618164	1249.367432
3061.930904	5958.293167	636.393555	1314.261597
3061.930904	5958.293167	635.168945	1329.364136
3061.930904	5958.293167	633.944336	1172.150513
3061.930904	5958.293167	632.719727	1220.852173
3061.930904	5958.293167	631.494141	1235.994995
3061.930904	5958.293167	630.269531	1253.322876
3061.930904	5958.293167	629.042969	1119.516724
3061.930904	5958.293167	627.817383	996.868103
3061.930904	5958.293167	626.590820	1242.788696
3061.930904	5958.293167	625.365234	1025.619629
3061.930904	5958.293167	624.137695	1213.338135
3061.930904	5958.293167	622.911133	1084.799316
3061.930904	5958.293167	621.683594	981.120117
3061.930904	5958.293167	620.456055	996.227112
3061.930904	5958.293167	619.228516	781.133240
3061.930904	5958.293167	618.000977	858.828125
3061.930904	5958.293167	616.772461	878.726257
3061.930904	5958.293167	615.543945	840.878296
3061.930904	5958.293167	614.314453	782.506958
3061.930904	5958.293167	613.085938	765.930725
3061.930904	5958.293167	611.856445	645.550476
3061.930904	5958.293167	610.626953	755.285095
3061.930904	5958.293167	609.397461	776.577637
3061.930904	5958.293167	608.166992	837.118591
3061.930904	5958.293167	606.936523	684.058289
3061.930904	5958.293167	605.706055	647.044861
3061.930904	5958.293167	604.474609	663.000793
3061.930904	5958.293167	603.244141	630.213440
3061.930904	5958.293167	602.012695	475.217072
3061.930904	5958.293167	600.780273	568.479675
3061.930904	5958.293167	599.548828	486.327515
3061.930904	5958.293167	598.316406	627.287537
3061.930904	5958.293167	597.083984	529.957825
3061.930904	5958.293167	595.851563	495.223297
3061.930904	5958.293167	594.618164	430.317322
3061.930904	5958.293167	593.384766	527.899414
3061.930904	5958.293167	592.151367	662.165222
3061.930904	5958.293167	590.917969	559.191528
3061.930904	5958.293167	589.683594	670.939392
3061.930904	5958.293167	588.449219	630.909424
3061.930904	5958.293167	587.214844	838.512512
3061.930904	5958.293167	585.979492	736.572449
3061.930904	5958.293167	584.745117	833.123535
3061.930904	5958.293167	583.509766	836.730408
3061.930904	5958.293167	582.273438	743.434387
3061.930904	5958.293167	581.038086	864.576233
3061.930904	5958.293167	579.801758	997.346191
3061.930904	5958.293167	578.565430	878.095215
3061.930904	5958.293167	577.329102	1016.525818
3061.930904	5958.293167	576.091797	1121.569702
3061.930904	5958.293167	574.854492	1192.469360
3061.930904	5958.293167	573.617188	1140.097656
3061.930904	5958.293167	572.378906	1380.457764
3061.930904	5958.293167	571.141602	1129.049927
3061.930904	5958.293167	569.903320	1208.863403
3061.930904	5958.293167	568.664063	1196.766602
3061.930904	5958.293167	567.425781	853.790588
3061.930904	5958.293167	566.186523	689.452759
3061.930904	5958.293167	564.947266	917.793579
3061.930904	5958.293167	563.708008	918.766357
3061.930904	5958.293167	562.467773	766.234497
3061.930904	5958.293167	561.227539	893.922974
3061.930904	5958.293167	559.987305	1039.629395
3061.930904	5958.293167	558.747070	1212.151245
3061.930904	5958.293167	557.505859	1151.132446
3061.930904	5958.293167	556.264648	1191.483032
3061.930904	5958.293167	555.023438	1150.596680
3061.930904	5958.293167	553.781250	1015.688965
3061.930904	5958.293167	552.539063	990.921021
3061.930904	5958.293167	551.296875	886.600952
3061.930904	5958.293167	550.054688	905.960510
3061.930904	5958.293167	548.811523	1124.865112
3061.930904	5958.293167	547.569336	912.385254
3061.930904	5958.293167	546.325195	744.345947
3061.930904	5958.293167	545.082031	769.482361
3061.930904	5958.293167	543.837891	791.030701
3061.930904	5958.293167	542.593750	825.809326
3061.930904	5958.293167	541.349609	828.279358
3061.930904	5958.293167	540.105469	871.138428
3061.930904	5958.293167	538.860352	774.684143
3061.930904	5958.293167	537.615234	1039.527466
3061.930904	5958.293167	536.369141	986.264709
3061.930904	5958.293167	535.124023	909.593506
3061.930904	5958.293167	533.877930	832.590637
3061.930904	5958.293167	532.631836	1050.380005
3061.930904	5958.293167	531.384766	1067.577148
3061.930904	5958.293167	530.138672	1047.815430
3061.930904	5958.293167	528.891602	1016.549133
3061.930904	5958.293167	527.643555	933.146179
3061.930904	5958.293167	526.396484	758.687073
3061.930904	5958.293167	525.148438	700.244263
3061.930904	5958.293167	523.900391	819.900940
3061.930904	5958.293167	522.652344	584.914795
3061.930904	5958.293167	521.403320	446.005707
3061.930904	5958.293167	520.154297	541.629028
3061.930904	5958.293167	518.905273	445.966522
3061.930904	5958.293167	517.656250	315.057465
3061.930904	5958.293167	516.406250	286.476746
3061.930904	5958.293167	515.156250	474.702515
3061.930904	5958.293167	513.906250	379.565369
3061.930904	5958.293167	512.655273	335.819580
3061.930904	5958.293167	511.404297	584.248901
3061.930904	5958.293167	510.153320	226.938171
3061.930904	5958.293167	508.902344	280.962402
3061.930904	5958.293167	507.650391	213.171326
3061.930904	5958.293167	506.398438	384.138824
3061.930904	5958.293167	505.146484	259.508667
3061.930904	5958.293167	503.893555	333.052155
3061.930904	5958.293167	502.641602	525.390503
3061.930904	5958.293167	501.388672	427.836609
3061.930904	5958.293167	500.134766	487.885620
3061.930904	5958.293167	498.881836	481.921722
3061.930904	5958.293167	497.627930	521.686768
3061.930904	5958.293167	496.374023	473.252808
3061.930904	5958.293167	495.119141	306.529327
3061.930904	5958.293167	493.865234	197.560150
3061.930904	5958.293167	492.610352	314.144958
3061.930904	5958.293167	491.355469	199.262817
3061.930904	5958.293167	490.099609	170.506683
3061.930904	5958.293167	488.843750	314.152924
3061.930904	5958.293167	487.587891	94.326836
3061.930904	5958.293167	486.332031	277.165497
3061.930904	5958.293167	485.075195	129.863159
3061.930904	5958.293167	483.818359	-122.709312
3061.930904	5958.293167	482.561523	-119.123703
3061.930904	5958.293167	481.304688	54.290459
3061.930904	5958.293167	480.046875	-74.460167
3061.930904	5958.293167	478.789063	36.152020
3061.930904	5958.293167	477.531250	-76.973869
3061.930904	5958.293167	476.272461	45.959743
3061.930904	5958.293167	475.013672	103.197594
3061.930904	5958.293167	473.754883	-168.909958
3061.930904	5958.293167	472.496094	-23.428555
3061.930904	5958.293167	471.236328	-71.484550
3061.930904	5958.293167	469.976563	-149.575104
3061.930904	5958.293167	468.716797	-29.705263
3061.930904	5958.293167	467.456055	-356.374512
3061.930904	5958.293167	466.196289	-98.644043
3061.930904	5958.293167	464.935547	55.611382
3061.930904	5958.293167	463.673828	-27.517670
3061.930904	5958.293167	462.413086	-2.650929
3061.930904	5958.293167	461.151367	64.674606
3061.930904	5958.293167	459.889648	26.403297
3061.930904	5958.293167	458.626953	-107.982063
3061.930904	5958.293167	457.364258	115.900330
3061.930904	5958.293167	456.101563	62.615486
3061.930904	5958.293167	454.838867	-37.861454
3061.930904	5958.293167	453.575195	-233.530243
3061.930904	5958.293167	452.312500	-53.839298
3061.930904	5958.293167	451.047852	6.166296
3061.930904	5958.293167	449.784180	-51.721737
3061.930904	5958.293167	448.519531	57.846157
3061.930904	5958.293167	447.254883	73.092804
3061.930904	5958.293167	445.990234	-126.134201
3061.930904	5958.293167	444.725586	-120.182693
3061.930904	5958.293167	443.459961	-359.273468
3061.930904	5958.293167	442.194336	-118.407005
3061.930904	5958.293167	440.927734	7.756317
3061.930904	5958.293167	439.662109	-160.361023
3061.930904	5958.293167	438.395508	20.057322
3061.930904	5958.293167	437.127930	-111.825348
3061.930904	5958.293167	435.861328	85.931992
3061.930904	5958.293167	434.593750	-13.573070
3061.930904	5958.293167	433.326172	136.395584
3061.930904	5958.293167	432.058594	129.621323
3061.930904	5958.293167	430.790039	135.450912
3061.930904	5958.293167	429.521484	67.732841
3061.930904	5958.293167	428.252930	257.892395
3061.930904	5958.293167	426.984375	249.930801
3061.930904	5958.293167	425.714844	34.540001
3061.930904	5958.293167	424.445313	315.707672
3061.930904	5958.293167	423.174805	337.760254
3061.930904	5958.293167	421.905273	266.067505
3061.930904	5958.293167	420.634766	207.009842
3061.930904	5958.293167	419.364258	304.545959
3061.930904	5958.293167	418.092773	249.634354
3061.930904	5958.293167	416.822266	144.097626
3061.930904	5958.293167	415.550781	104.360756
3061.930904	5958.293167	414.278320	99.900772
3061.930904	5958.293167	413.006836	230.011093
3061.930904	5958.293167	411.734375	142.985474
3061.930904	5958.293167	410.461914	4.579941
3061.930904	5958.293167	409.188477	265.337097
3061.930904	5958.293167	407.916016	113.172768
3061.930904	5958.293167	406.642578	180.479507
3061.930904	5958.293167	405.368164	287.635651
3061.930904	5958.293167	404.094727	314.550964
3061.930904	5958.293167	402.820313	224.529388
3061.930904	5958.293167	401.545898	226.678329
3061.930904	5958.293167	400.270508	170.416656
3061.930904	5958.293167	398.996094	152.518402
3061.930904	5958.293167	397.720703	197.807617
3061.930904	5958.293167	396.444336	106.774033
3061.930904	5958.293167	395.168945	100.810463
3061.930904	5958.293167	393.892578	94.884201
3061.930904	5958.293167	392.616211	94.476768
3061.930904	5958.293167	391.339844	196.106354
3061.930904	5958.293167	390.062500	-69.660133
3061.930904	5958.293167	388.785156	179.847961
3061.930904	5958.293167	387.507813	254.232697
3061.930904	5958.293167	386.229492	388.449524
3061.930904	5958.293167	384.951172	269.877625
3061.930904	5958.293167	383.672852	389.247650
3061.930904	5958.293167	382.394531	318.879242
3061.930904	5958.293167	381.115234	538.324280
3061.930904	5958.293167	379.835938	595.234009
3061.930904	5958.293167	378.556641	691.659912
3061.930904	5958.293167	377.277344	678.445496
3061.930904	5958.293167	375.997070	280.746429
3061.930904	5958.293167	374.716797	580.183044
3061.930904	5958.293167	373.435547	374.828705
3061.930904	5958.293167	372.155273	267.971741
3061.930904	5958.293167	370.874023	340.904358
3061.930904	5958.293167	369.591797	253.768433
3061.930904	5958.293167	368.310547	-31.269178
3061.930904	5958.293167	367.028320	-103.299347
3061.930904	5958.293167	365.746094	58.481186
3061.930904	5958.293167	364.463867	50.930992
3061.930904	5958.293167	363.180664	-109.642609
3061.930904	5958.293167	361.897461	35.427853
3061.930904	5958.293167	360.614258	-122.781990
3061.930904	5958.293167	359.330078	-14.303487
3061.930904	5958.293167	358.045898	99.832489
3061.930904	5958.293167	356.761719	36.941784
3061.930904	5958.293167	355.477539	162.309616
3061.930904	5958.293167	354.192383	135.356628
3061.930904	5958.293167	352.907227	165.006805
3061.930904	5958.293167	351.622070	125.916077
3061.930904	5958.293167	350.336914	362.102142
3061.930904	5958.293167	349.050781	124.352669
3061.930904	5958.293167	347.764648	-116.430145
3061.930904	5958.293167	346.477539	36.759510
3061.930904	5958.293167	345.191406	-47.340271
3061.930904	5958.293167	343.904297	-83.768135
3061.930904	5958.293167	342.616211	43.194607
3061.930904	5958.293167	341.329102	91.888702
3061.930904	5958.293167	340.041016	-4.163957
3061.930904	5958.293167	338.752930	-58.160294
3061.930904	5958.293167	337.463867	106.407082
3061.930904	5958.293167	336.175781	232.620621
3061.930904	5958.293167	334.886719	-31.264475
3061.930904	5958.293167	333.596680	401.880341
3061.930904	5958.293167	332.307617	-108.434570
3061.930904	5958.293167	331.017578	-287.296631
3061.930904	5958.293167	329.727539	-142.642365
3061.930904	5958.293167	328.436523	-109.986671
3061.930904	5958.293167	327.146484	-86.028999
3061.930904	5958.293167	325.855469	-13.996587
3061.930904	5958.293167	324.563477	-148.775177
3061.930904	5958.293167	323.272461	-133.125198
3061.930904	5958.293167	321.980469	-155.856140
3061.930904	5958.293167	320.688477	-116.966057
3061.930904	5958.293167	319.395508	-48.969746
3061.930904	5958.293167	318.103516	68.930267
3061.930904	5958.293167	316.810547	6.615828
3061.930904	5958.293167	315.516602	-142.141815
3061.930904	5958.293167	314.223633	-255.065323
3061.930904	5958.293167	312.929688	-135.011322
3061.930904	5958.293167	311.635742	47.328526
3061.930904	5958.293167	310.340820	138.152328
3061.930904	5958.293167	309.045898	-49.065212
3061.930904	5958.293167	307.750977	155.017960
3061.930904	5958.293167	306.456055	93.944084
3061.930904	5958.293167	305.160156	216.463486
3061.930904	5958.293167	303.865234	408.242218
3061.930904	5958.293167	302.568359	339.824768
3061.930904	5958.293167	301.272461	250.748672
3061.930904	5958.293167	299.975586	529.311462
3061.930904	5958.293167	298.678711	508.506409
