#X		#Y		#Wave		#Intensity
13260.037660	3884.537833	1999.980469	35.813278
13260.037660	3884.537833	1999.016602	-60.877808
13260.037660	3884.537833	1998.052734	64.469162
13260.037660	3884.537833	1997.087891	75.895142
13260.037660	3884.537833	1996.123047	-95.913048
13260.037660	3884.537833	1995.158203	-111.478989
13260.037660	3884.537833	1994.193359	-27.859835
13260.037660	3884.537833	1993.228516	-30.835819
13260.037660	3884.537833	1992.262695	77.702370
13260.037660	3884.537833	1991.297852	67.482964
13260.037660	3884.537833	1990.332031	89.534775
13260.037660	3884.537833	1989.366211	-4.629448
13260.037660	3884.537833	1988.399414	86.878136
13260.037660	3884.537833	1987.433594	-71.389519
13260.037660	3884.537833	1986.466797	32.628689
13260.037660	3884.537833	1985.500977	-28.977352
13260.037660	3884.537833	1984.534180	-100.375076
13260.037660	3884.537833	1983.567383	-18.428778
13260.037660	3884.537833	1982.599609	-10.581275
13260.037660	3884.537833	1981.632813	234.525543
13260.037660	3884.537833	1980.665039	143.640137
13260.037660	3884.537833	1979.697266	42.969971
13260.037660	3884.537833	1978.729492	43.641167
13260.037660	3884.537833	1977.761719	2.395167
13260.037660	3884.537833	1976.792969	-46.188614
13260.037660	3884.537833	1975.825195	97.803261
13260.037660	3884.537833	1974.856445	12.303922
13260.037660	3884.537833	1973.887695	-8.972813
13260.037660	3884.537833	1972.918945	6.801221
13260.037660	3884.537833	1971.949219	-11.916595
13260.037660	3884.537833	1970.980469	13.794329
13260.037660	3884.537833	1970.010742	-71.406570
13260.037660	3884.537833	1969.041016	-35.764393
13260.037660	3884.537833	1968.071289	-17.354511
13260.037660	3884.537833	1967.101563	-11.241007
13260.037660	3884.537833	1966.130859	-32.199867
13260.037660	3884.537833	1965.161133	-23.569370
13260.037660	3884.537833	1964.190430	-2.604916
13260.037660	3884.537833	1963.219727	25.760515
13260.037660	3884.537833	1962.249023	-83.715622
13260.037660	3884.537833	1961.277344	-11.005736
13260.037660	3884.537833	1960.306641	2.636861
13260.037660	3884.537833	1959.334961	144.222839
13260.037660	3884.537833	1958.363281	-73.359840
13260.037660	3884.537833	1957.391602	-52.293945
13260.037660	3884.537833	1956.419922	89.259308
13260.037660	3884.537833	1955.447266	46.387913
13260.037660	3884.537833	1954.474609	62.531197
13260.037660	3884.537833	1953.501953	31.981667
13260.037660	3884.537833	1952.529297	21.104637
13260.037660	3884.537833	1951.556641	49.540852
13260.037660	3884.537833	1950.583984	-49.750557
13260.037660	3884.537833	1949.610352	54.817200
13260.037660	3884.537833	1948.636719	19.397995
13260.037660	3884.537833	1947.663086	-70.014259
13260.037660	3884.537833	1946.689453	-95.584305
13260.037660	3884.537833	1945.715820	-59.802032
13260.037660	3884.537833	1944.741211	44.656796
13260.037660	3884.537833	1943.767578	55.858685
13260.037660	3884.537833	1942.792969	62.144695
13260.037660	3884.537833	1941.818359	-7.592281
13260.037660	3884.537833	1940.842773	109.006279
13260.037660	3884.537833	1939.868164	-51.423599
13260.037660	3884.537833	1938.892578	111.681366
13260.037660	3884.537833	1937.916992	7.642434
13260.037660	3884.537833	1936.941406	62.862568
13260.037660	3884.537833	1935.965820	-43.604370
13260.037660	3884.537833	1934.990234	107.081154
13260.037660	3884.537833	1934.013672	20.203564
13260.037660	3884.537833	1933.037109	77.769371
13260.037660	3884.537833	1932.060547	127.954620
13260.037660	3884.537833	1931.083984	28.836254
13260.037660	3884.537833	1930.107422	-77.602020
13260.037660	3884.537833	1929.129883	116.849045
13260.037660	3884.537833	1928.153320	-67.864281
13260.037660	3884.537833	1927.175781	50.672787
13260.037660	3884.537833	1926.198242	78.691170
13260.037660	3884.537833	1925.219727	158.007080
13260.037660	3884.537833	1924.242188	146.850693
13260.037660	3884.537833	1923.263672	59.932140
13260.037660	3884.537833	1922.285156	60.967865
13260.037660	3884.537833	1921.306641	-89.451309
13260.037660	3884.537833	1920.328125	58.084332
13260.037660	3884.537833	1919.349609	-43.495480
13260.037660	3884.537833	1918.370117	138.102966
13260.037660	3884.537833	1917.391602	-0.112822
13260.037660	3884.537833	1916.412109	-57.777161
13260.037660	3884.537833	1915.431641	45.575333
13260.037660	3884.537833	1914.452148	-34.081341
13260.037660	3884.537833	1913.472656	-3.988101
13260.037660	3884.537833	1912.492188	-27.577356
13260.037660	3884.537833	1911.511719	36.579208
13260.037660	3884.537833	1910.531250	47.060894
13260.037660	3884.537833	1909.550781	50.199940
13260.037660	3884.537833	1908.569336	-70.953697
13260.037660	3884.537833	1907.588867	-65.413811
13260.037660	3884.537833	1906.607422	18.034508
13260.037660	3884.537833	1905.625977	77.070808
13260.037660	3884.537833	1904.644531	-41.677204
13260.037660	3884.537833	1903.662109	-9.486791
13260.037660	3884.537833	1902.680664	37.264816
13260.037660	3884.537833	1901.698242	-69.331711
13260.037660	3884.537833	1900.715820	67.370651
13260.037660	3884.537833	1899.733398	4.532393
13260.037660	3884.537833	1898.750000	-31.561840
13260.037660	3884.537833	1897.767578	-19.041378
13260.037660	3884.537833	1896.784180	-8.988147
13260.037660	3884.537833	1895.800781	20.475534
13260.037660	3884.537833	1894.817383	-1.135797
13260.037660	3884.537833	1893.833984	103.574249
13260.037660	3884.537833	1892.850586	-39.568745
13260.037660	3884.537833	1891.866211	-136.543945
13260.037660	3884.537833	1890.881836	19.033854
13260.037660	3884.537833	1889.897461	-19.708961
13260.037660	3884.537833	1888.913086	-90.025383
13260.037660	3884.537833	1887.927734	82.349968
13260.037660	3884.537833	1886.943359	26.537025
13260.037660	3884.537833	1885.958008	31.363939
13260.037660	3884.537833	1884.972656	55.562317
13260.037660	3884.537833	1883.987305	74.869431
13260.037660	3884.537833	1883.001953	-126.511131
13260.037660	3884.537833	1882.015625	40.637505
13260.037660	3884.537833	1881.029297	-66.198013
13260.037660	3884.537833	1880.042969	-97.901497
13260.037660	3884.537833	1879.056641	81.166702
13260.037660	3884.537833	1878.070313	112.366447
13260.037660	3884.537833	1877.083984	-11.483902
13260.037660	3884.537833	1876.096680	-28.774071
13260.037660	3884.537833	1875.109375	125.806519
13260.037660	3884.537833	1874.122070	-68.272392
13260.037660	3884.537833	1873.134766	52.311478
13260.037660	3884.537833	1872.146484	39.731773
13260.037660	3884.537833	1871.159180	12.610965
13260.037660	3884.537833	1870.170898	-79.841400
13260.037660	3884.537833	1869.182617	-46.536224
13260.037660	3884.537833	1868.194336	-93.066734
13260.037660	3884.537833	1867.205078	-35.663239
13260.037660	3884.537833	1866.216797	125.619316
13260.037660	3884.537833	1865.227539	-58.757854
13260.037660	3884.537833	1864.238281	128.979568
13260.037660	3884.537833	1863.249023	46.063541
13260.037660	3884.537833	1862.259766	6.620100
13260.037660	3884.537833	1861.269531	44.429020
13260.037660	3884.537833	1860.279297	-197.864166
13260.037660	3884.537833	1859.290039	-0.781255
13260.037660	3884.537833	1858.298828	58.630081
13260.037660	3884.537833	1857.308594	-29.198610
13260.037660	3884.537833	1856.318359	68.733574
13260.037660	3884.537833	1855.327148	9.814643
13260.037660	3884.537833	1854.335938	-56.348747
13260.037660	3884.537833	1853.344727	22.146782
13260.037660	3884.537833	1852.353516	8.976566
13260.037660	3884.537833	1851.362305	-21.091276
13260.037660	3884.537833	1850.370117	86.172897
13260.037660	3884.537833	1849.377930	10.259215
13260.037660	3884.537833	1848.385742	-7.844977
13260.037660	3884.537833	1847.393555	-47.649883
13260.037660	3884.537833	1846.401367	78.676086
13260.037660	3884.537833	1845.408203	183.253052
13260.037660	3884.537833	1844.415039	138.523438
13260.037660	3884.537833	1843.421875	-65.054214
13260.037660	3884.537833	1842.428711	63.457142
13260.037660	3884.537833	1841.435547	153.398376
13260.037660	3884.537833	1840.441406	-59.785343
13260.037660	3884.537833	1839.448242	56.535290
13260.037660	3884.537833	1838.454102	9.284215
13260.037660	3884.537833	1837.459961	36.539795
13260.037660	3884.537833	1836.464844	-27.578615
13260.037660	3884.537833	1835.470703	167.816833
13260.037660	3884.537833	1834.475586	-42.917068
13260.037660	3884.537833	1833.480469	-10.996757
13260.037660	3884.537833	1832.485352	47.298019
13260.037660	3884.537833	1831.490234	-9.714841
13260.037660	3884.537833	1830.495117	-9.121725
13260.037660	3884.537833	1829.499023	63.444557
13260.037660	3884.537833	1828.502930	191.147095
13260.037660	3884.537833	1827.506836	-86.716736
13260.037660	3884.537833	1826.510742	-59.849525
13260.037660	3884.537833	1825.513672	154.050354
13260.037660	3884.537833	1824.517578	48.910927
13260.037660	3884.537833	1823.520508	58.857868
13260.037660	3884.537833	1822.523438	23.225822
13260.037660	3884.537833	1821.526367	16.335117
13260.037660	3884.537833	1820.529297	-0.169211
13260.037660	3884.537833	1819.531250	38.400036
13260.037660	3884.537833	1818.533203	79.318527
13260.037660	3884.537833	1817.535156	144.138031
13260.037660	3884.537833	1816.537109	235.239899
13260.037660	3884.537833	1815.539063	271.216431
13260.037660	3884.537833	1814.540039	235.341110
13260.037660	3884.537833	1813.541992	-1.561461
13260.037660	3884.537833	1812.542969	29.557110
13260.037660	3884.537833	1811.543945	161.100113
13260.037660	3884.537833	1810.543945	182.543030
13260.037660	3884.537833	1809.544922	129.822571
13260.037660	3884.537833	1808.544922	105.775887
13260.037660	3884.537833	1807.544922	45.852783
13260.037660	3884.537833	1806.544922	71.954628
13260.037660	3884.537833	1805.544922	50.227409
13260.037660	3884.537833	1804.544922	116.867401
13260.037660	3884.537833	1803.543945	121.346466
13260.037660	3884.537833	1802.542969	87.583771
13260.037660	3884.537833	1801.541992	304.497772
13260.037660	3884.537833	1800.541016	156.067444
13260.037660	3884.537833	1799.539063	232.005249
13260.037660	3884.537833	1798.538086	226.754349
13260.037660	3884.537833	1797.536133	297.814850
13260.037660	3884.537833	1796.534180	220.926376
13260.037660	3884.537833	1795.532227	191.732498
13260.037660	3884.537833	1794.529297	207.817566
13260.037660	3884.537833	1793.527344	40.302761
13260.037660	3884.537833	1792.524414	39.661526
13260.037660	3884.537833	1791.521484	232.016953
13260.037660	3884.537833	1790.518555	116.910004
13260.037660	3884.537833	1789.514648	101.860962
13260.037660	3884.537833	1788.511719	174.912674
13260.037660	3884.537833	1787.507813	188.368820
13260.037660	3884.537833	1786.503906	170.836548
13260.037660	3884.537833	1785.500000	103.290901
13260.037660	3884.537833	1784.496094	-16.619232
13260.037660	3884.537833	1783.491211	13.384526
13260.037660	3884.537833	1782.486328	-8.993918
13260.037660	3884.537833	1781.481445	-7.611050
13260.037660	3884.537833	1780.476563	84.106331
13260.037660	3884.537833	1779.471680	61.628883
13260.037660	3884.537833	1778.465820	207.903290
13260.037660	3884.537833	1777.460938	-83.227646
13260.037660	3884.537833	1776.455078	15.426811
13260.037660	3884.537833	1775.449219	85.500458
13260.037660	3884.537833	1774.442383	72.371010
13260.037660	3884.537833	1773.436523	-33.405121
13260.037660	3884.537833	1772.429688	-108.310776
13260.037660	3884.537833	1771.422852	-74.015266
13260.037660	3884.537833	1770.416016	31.441326
13260.037660	3884.537833	1769.409180	-5.564102
13260.037660	3884.537833	1768.402344	-9.371930
13260.037660	3884.537833	1767.394531	-108.106133
13260.037660	3884.537833	1766.386719	-81.131668
13260.037660	3884.537833	1765.378906	45.394680
13260.037660	3884.537833	1764.371094	-43.911907
13260.037660	3884.537833	1763.362305	141.747314
13260.037660	3884.537833	1762.354492	-44.781483
13260.037660	3884.537833	1761.345703	114.673927
13260.037660	3884.537833	1760.336914	179.270737
13260.037660	3884.537833	1759.328125	54.318478
13260.037660	3884.537833	1758.318359	-148.776352
13260.037660	3884.537833	1757.308594	27.008783
13260.037660	3884.537833	1756.299805	-161.864014
13260.037660	3884.537833	1755.290039	-83.252190
13260.037660	3884.537833	1754.279297	99.410042
13260.037660	3884.537833	1753.269531	-84.746429
13260.037660	3884.537833	1752.258789	10.254285
13260.037660	3884.537833	1751.249023	-31.982685
13260.037660	3884.537833	1750.238281	107.828476
13260.037660	3884.537833	1749.226563	112.790657
13260.037660	3884.537833	1748.215820	58.628811
13260.037660	3884.537833	1747.204102	39.895660
13260.037660	3884.537833	1746.193359	84.934456
13260.037660	3884.537833	1745.181641	99.205505
13260.037660	3884.537833	1744.168945	-103.863113
13260.037660	3884.537833	1743.157227	-68.380104
13260.037660	3884.537833	1742.144531	-21.147058
13260.037660	3884.537833	1741.132813	-70.743256
13260.037660	3884.537833	1740.120117	-73.160866
13260.037660	3884.537833	1739.106445	-122.811134
13260.037660	3884.537833	1738.093750	-9.690147
13260.037660	3884.537833	1737.080078	-137.243866
13260.037660	3884.537833	1736.067383	58.304733
13260.037660	3884.537833	1735.053711	46.248318
13260.037660	3884.537833	1734.040039	-29.488951
13260.037660	3884.537833	1733.025391	52.674442
13260.037660	3884.537833	1732.011719	68.795059
13260.037660	3884.537833	1730.997070	-42.357601
13260.037660	3884.537833	1729.982422	4.318468
13260.037660	3884.537833	1728.967773	-95.076653
13260.037660	3884.537833	1727.952148	-20.231133
13260.037660	3884.537833	1726.937500	-74.926445
13260.037660	3884.537833	1725.921875	-35.492546
13260.037660	3884.537833	1724.906250	8.596094
13260.037660	3884.537833	1723.890625	-22.660534
13260.037660	3884.537833	1722.875000	129.546631
13260.037660	3884.537833	1721.858398	131.126923
13260.037660	3884.537833	1720.841797	-69.561020
13260.037660	3884.537833	1719.825195	16.621498
13260.037660	3884.537833	1718.808594	95.682274
13260.037660	3884.537833	1717.791992	36.015842
13260.037660	3884.537833	1716.774414	110.263786
13260.037660	3884.537833	1715.756836	-1.146697
13260.037660	3884.537833	1714.739258	73.005600
13260.037660	3884.537833	1713.721680	-21.990253
13260.037660	3884.537833	1712.704102	54.411655
13260.037660	3884.537833	1711.685547	-40.624298
13260.037660	3884.537833	1710.667969	-1.874123
13260.037660	3884.537833	1709.649414	48.549980
13260.037660	3884.537833	1708.630859	178.686310
13260.037660	3884.537833	1707.611328	29.594622
13260.037660	3884.537833	1706.592773	-9.245440
13260.037660	3884.537833	1705.573242	184.018509
13260.037660	3884.537833	1704.553711	166.181763
13260.037660	3884.537833	1703.534180	202.224304
13260.037660	3884.537833	1702.513672	53.078827
13260.037660	3884.537833	1701.494141	302.266296
13260.037660	3884.537833	1700.473633	24.246258
13260.037660	3884.537833	1699.453125	165.527008
13260.037660	3884.537833	1698.432617	72.554436
13260.037660	3884.537833	1697.412109	164.533157
13260.037660	3884.537833	1696.390625	226.003586
13260.037660	3884.537833	1695.369141	79.129494
13260.037660	3884.537833	1694.347656	126.479782
13260.037660	3884.537833	1693.326172	253.314758
13260.037660	3884.537833	1692.304688	232.711182
13260.037660	3884.537833	1691.282227	265.857269
13260.037660	3884.537833	1690.260742	-33.038769
13260.037660	3884.537833	1689.238281	121.626472
13260.037660	3884.537833	1688.214844	178.029251
13260.037660	3884.537833	1687.192383	180.637772
13260.037660	3884.537833	1686.168945	257.960510
13260.037660	3884.537833	1685.146484	129.676285
13260.037660	3884.537833	1684.123047	185.888626
13260.037660	3884.537833	1683.099609	153.318375
13260.037660	3884.537833	1682.075195	209.424973
13260.037660	3884.537833	1681.051758	291.156036
13260.037660	3884.537833	1680.027344	354.143219
13260.037660	3884.537833	1679.002930	172.097229
13260.037660	3884.537833	1677.978516	311.988892
13260.037660	3884.537833	1676.953125	510.088043
13260.037660	3884.537833	1675.928711	362.986725
13260.037660	3884.537833	1674.903320	432.708374
13260.037660	3884.537833	1673.877930	378.833466
13260.037660	3884.537833	1672.852539	199.103867
13260.037660	3884.537833	1671.826172	441.118896
13260.037660	3884.537833	1670.800781	505.972809
13260.037660	3884.537833	1669.774414	458.965179
13260.037660	3884.537833	1668.748047	465.498413
13260.037660	3884.537833	1667.721680	418.447723
13260.037660	3884.537833	1666.694336	483.102234
13260.037660	3884.537833	1665.667969	657.085754
13260.037660	3884.537833	1664.640625	747.195740
13260.037660	3884.537833	1663.613281	702.309265
13260.037660	3884.537833	1662.585938	950.468140
13260.037660	3884.537833	1661.557617	817.117615
13260.037660	3884.537833	1660.530273	816.317810
13260.037660	3884.537833	1659.501953	850.344910
13260.037660	3884.537833	1658.473633	835.520569
13260.037660	3884.537833	1657.444336	1064.643433
13260.037660	3884.537833	1656.416016	1077.595459
13260.037660	3884.537833	1655.386719	1002.238159
13260.037660	3884.537833	1654.358398	1101.058105
13260.037660	3884.537833	1653.328125	1039.583374
13260.037660	3884.537833	1652.298828	1015.251099
13260.037660	3884.537833	1651.269531	1053.562134
13260.037660	3884.537833	1650.239258	1080.216309
13260.037660	3884.537833	1649.208984	1007.066833
13260.037660	3884.537833	1648.178711	1052.214600
13260.037660	3884.537833	1647.148438	1229.505615
13260.037660	3884.537833	1646.117188	1353.359253
13260.037660	3884.537833	1645.086914	1331.092651
13260.037660	3884.537833	1644.055664	1262.440063
13260.037660	3884.537833	1643.024414	1346.729492
13260.037660	3884.537833	1641.992188	1641.786743
13260.037660	3884.537833	1640.960938	1489.632935
13260.037660	3884.537833	1639.928711	1532.044312
13260.037660	3884.537833	1638.896484	1544.308960
13260.037660	3884.537833	1637.864258	1653.774902
13260.037660	3884.537833	1636.832031	1758.541016
13260.037660	3884.537833	1635.798828	1719.748291
13260.037660	3884.537833	1634.766602	1667.068604
13260.037660	3884.537833	1633.733398	1815.632568
13260.037660	3884.537833	1632.699219	1959.476440
13260.037660	3884.537833	1631.666016	2022.312256
13260.037660	3884.537833	1630.632813	2221.503906
13260.037660	3884.537833	1629.598633	2335.056396
13260.037660	3884.537833	1628.564453	2152.720947
13260.037660	3884.537833	1627.530273	2192.250977
13260.037660	3884.537833	1626.495117	2391.134277
13260.037660	3884.537833	1625.460938	2610.710693
13260.037660	3884.537833	1624.425781	2809.385010
13260.037660	3884.537833	1623.390625	2957.164307
13260.037660	3884.537833	1622.355469	2929.424072
13260.037660	3884.537833	1621.319336	3047.062988
13260.037660	3884.537833	1620.284180	3088.493652
13260.037660	3884.537833	1619.248047	3245.229004
13260.037660	3884.537833	1618.211914	3168.914795
13260.037660	3884.537833	1617.174805	3157.171631
13260.037660	3884.537833	1616.138672	3316.040283
13260.037660	3884.537833	1615.101563	3527.837891
13260.037660	3884.537833	1614.065430	3534.414063
13260.037660	3884.537833	1613.027344	3536.339844
13260.037660	3884.537833	1611.990234	3727.172852
13260.037660	3884.537833	1610.953125	3729.029541
13260.037660	3884.537833	1609.915039	3832.188232
13260.037660	3884.537833	1608.876953	3741.873291
13260.037660	3884.537833	1607.838867	3796.607666
13260.037660	3884.537833	1606.800781	3878.921875
13260.037660	3884.537833	1605.761719	3703.441162
13260.037660	3884.537833	1604.723633	3776.502686
13260.037660	3884.537833	1603.684570	3835.707520
13260.037660	3884.537833	1602.644531	4113.350098
13260.037660	3884.537833	1601.605469	4091.953125
13260.037660	3884.537833	1600.566406	3992.384766
13260.037660	3884.537833	1599.526367	4042.233887
13260.037660	3884.537833	1598.486328	4046.087402
13260.037660	3884.537833	1597.446289	4100.471191
13260.037660	3884.537833	1596.405273	4248.995117
13260.037660	3884.537833	1595.365234	3945.003174
13260.037660	3884.537833	1594.324219	4019.991455
13260.037660	3884.537833	1593.283203	4193.658203
13260.037660	3884.537833	1592.242188	3949.487061
13260.037660	3884.537833	1591.200195	4038.154297
13260.037660	3884.537833	1590.159180	4172.673828
13260.037660	3884.537833	1589.117188	4125.894043
13260.037660	3884.537833	1588.075195	4228.203125
13260.037660	3884.537833	1587.032227	4213.503418
13260.037660	3884.537833	1585.990234	4029.151367
13260.037660	3884.537833	1584.947266	4101.583496
13260.037660	3884.537833	1583.904297	4215.229980
13260.037660	3884.537833	1582.861328	4404.438965
13260.037660	3884.537833	1581.818359	4293.460449
13260.037660	3884.537833	1580.775391	4356.591309
13260.037660	3884.537833	1579.731445	4367.011719
13260.037660	3884.537833	1578.687500	4446.107910
13260.037660	3884.537833	1577.643555	4206.984863
13260.037660	3884.537833	1576.598633	4308.949219
13260.037660	3884.537833	1575.554688	4541.305176
13260.037660	3884.537833	1574.509766	4684.333984
13260.037660	3884.537833	1573.464844	4751.823730
13260.037660	3884.537833	1572.419922	4688.934082
13260.037660	3884.537833	1571.374023	5037.609375
13260.037660	3884.537833	1570.329102	4869.529785
13260.037660	3884.537833	1569.283203	4884.346191
13260.037660	3884.537833	1568.237305	4919.721191
13260.037660	3884.537833	1567.191406	4884.260254
13260.037660	3884.537833	1566.144531	4972.147949
13260.037660	3884.537833	1565.098633	4913.854492
13260.037660	3884.537833	1564.051758	4912.657715
13260.037660	3884.537833	1563.004883	5071.261230
13260.037660	3884.537833	1561.957031	4996.993652
13260.037660	3884.537833	1560.910156	4936.459473
13260.037660	3884.537833	1559.862305	4944.387207
13260.037660	3884.537833	1558.814453	4854.232910
13260.037660	3884.537833	1557.766602	4809.730957
13260.037660	3884.537833	1556.718750	4633.003906
13260.037660	3884.537833	1555.669922	4734.463379
13260.037660	3884.537833	1554.621094	4598.851563
13260.037660	3884.537833	1553.573242	4476.980469
13260.037660	3884.537833	1552.523438	4464.508301
13260.037660	3884.537833	1551.474609	4442.946289
13260.037660	3884.537833	1550.424805	4432.779785
13260.037660	3884.537833	1549.375000	4092.463867
13260.037660	3884.537833	1548.325195	4157.516113
13260.037660	3884.537833	1547.275391	4238.486816
13260.037660	3884.537833	1546.225586	3896.166992
13260.037660	3884.537833	1545.174805	3888.438965
13260.037660	3884.537833	1544.124023	3903.474365
13260.037660	3884.537833	1543.073242	4002.665771
13260.037660	3884.537833	1542.022461	3640.239990
13260.037660	3884.537833	1540.970703	3830.399658
13260.037660	3884.537833	1539.919922	3620.469238
13260.037660	3884.537833	1538.868164	3808.315918
13260.037660	3884.537833	1537.815430	3784.794678
13260.037660	3884.537833	1536.763672	3588.666504
13260.037660	3884.537833	1535.710938	3562.960938
13260.037660	3884.537833	1534.659180	3609.956055
13260.037660	3884.537833	1533.606445	3493.483398
13260.037660	3884.537833	1532.552734	3456.511230
13260.037660	3884.537833	1531.500000	3328.807373
13260.037660	3884.537833	1530.446289	3521.083740
13260.037660	3884.537833	1529.393555	3568.131348
13260.037660	3884.537833	1528.338867	3592.485596
13260.037660	3884.537833	1527.285156	3480.806641
13260.037660	3884.537833	1526.231445	3387.331299
13260.037660	3884.537833	1525.176758	3416.309082
13260.037660	3884.537833	1524.122070	3481.560303
13260.037660	3884.537833	1523.067383	3517.354736
13260.037660	3884.537833	1522.012695	3621.121094
13260.037660	3884.537833	1520.957031	3321.714111
13260.037660	3884.537833	1519.901367	3611.206055
13260.037660	3884.537833	1518.845703	3724.020996
13260.037660	3884.537833	1517.790039	3651.207764
13260.037660	3884.537833	1516.734375	3596.557617
13260.037660	3884.537833	1515.677734	3480.857910
13260.037660	3884.537833	1514.621094	3711.350830
13260.037660	3884.537833	1513.564453	3715.608643
13260.037660	3884.537833	1512.507813	3618.136719
13260.037660	3884.537833	1511.450195	3742.291504
13260.037660	3884.537833	1510.393555	3672.042236
13260.037660	3884.537833	1509.335938	3540.826416
13260.037660	3884.537833	1508.278320	3493.299316
13260.037660	3884.537833	1507.219727	3398.376221
13260.037660	3884.537833	1506.162109	3373.551514
13260.037660	3884.537833	1505.103516	3506.835938
13260.037660	3884.537833	1504.044922	3346.600586
13260.037660	3884.537833	1502.986328	3247.411377
13260.037660	3884.537833	1501.926758	2909.067627
13260.037660	3884.537833	1500.868164	3141.767822
13260.037660	3884.537833	1499.808594	3110.462891
13260.037660	3884.537833	1498.749023	3081.465576
13260.037660	3884.537833	1497.688477	2932.995117
13260.037660	3884.537833	1496.628906	2809.432861
13260.037660	3884.537833	1495.568359	2762.593994
13260.037660	3884.537833	1494.507813	2425.088379
13260.037660	3884.537833	1493.447266	2491.091553
13260.037660	3884.537833	1492.386719	2439.965088
13260.037660	3884.537833	1491.325195	2100.594971
13260.037660	3884.537833	1490.263672	2144.227539
13260.037660	3884.537833	1489.202148	2383.764893
13260.037660	3884.537833	1488.140625	2371.138916
13260.037660	3884.537833	1487.079102	2043.486206
13260.037660	3884.537833	1486.016602	2040.019531
13260.037660	3884.537833	1484.954102	1975.860229
13260.037660	3884.537833	1483.891602	2055.725586
13260.037660	3884.537833	1482.829102	1944.458252
13260.037660	3884.537833	1481.765625	1954.683228
13260.037660	3884.537833	1480.702148	1967.202148
13260.037660	3884.537833	1479.638672	1943.788330
13260.037660	3884.537833	1478.575195	1859.779907
13260.037660	3884.537833	1477.511719	2101.541016
13260.037660	3884.537833	1476.447266	1817.788574
13260.037660	3884.537833	1475.382813	1760.975708
13260.037660	3884.537833	1474.318359	1735.641846
13260.037660	3884.537833	1473.253906	1847.266235
13260.037660	3884.537833	1472.189453	1687.553345
13260.037660	3884.537833	1471.124023	1693.748169
13260.037660	3884.537833	1470.058594	1637.130249
13260.037660	3884.537833	1468.993164	1834.080200
13260.037660	3884.537833	1467.927734	1943.606079
13260.037660	3884.537833	1466.861328	1940.957153
13260.037660	3884.537833	1465.794922	1676.344482
13260.037660	3884.537833	1464.728516	1642.641602
13260.037660	3884.537833	1463.662109	1814.876221
13260.037660	3884.537833	1462.594727	1801.639526
13260.037660	3884.537833	1461.528320	1953.316406
13260.037660	3884.537833	1460.460938	1738.499512
13260.037660	3884.537833	1459.393555	1728.200562
13260.037660	3884.537833	1458.326172	1890.298828
13260.037660	3884.537833	1457.257813	1751.822998
13260.037660	3884.537833	1456.189453	1803.559937
13260.037660	3884.537833	1455.121094	1619.463257
13260.037660	3884.537833	1454.052734	1854.869263
13260.037660	3884.537833	1452.984375	1927.259033
13260.037660	3884.537833	1451.915039	1764.508179
13260.037660	3884.537833	1450.845703	1713.593628
13260.037660	3884.537833	1449.776367	1709.890747
13260.037660	3884.537833	1448.707031	1860.866943
13260.037660	3884.537833	1447.636719	1730.541626
13260.037660	3884.537833	1446.567383	1655.262817
13260.037660	3884.537833	1445.497070	1605.312378
13260.037660	3884.537833	1444.425781	1736.684326
13260.037660	3884.537833	1443.355469	1653.408569
13260.037660	3884.537833	1442.285156	1492.237427
13260.037660	3884.537833	1441.213867	1339.053955
13260.037660	3884.537833	1440.142578	1474.617554
13260.037660	3884.537833	1439.070313	1458.606445
13260.037660	3884.537833	1437.999023	1475.394043
13260.037660	3884.537833	1436.926758	1382.854004
13260.037660	3884.537833	1435.854492	1476.555908
13260.037660	3884.537833	1434.782227	1494.135864
13260.037660	3884.537833	1433.709961	1366.756348
13260.037660	3884.537833	1432.636719	1121.434082
13260.037660	3884.537833	1431.563477	1167.606201
13260.037660	3884.537833	1430.490234	1054.323242
13260.037660	3884.537833	1429.416992	964.721985
13260.037660	3884.537833	1428.343750	1078.047119
13260.037660	3884.537833	1427.269531	1021.165894
13260.037660	3884.537833	1426.195313	894.132813
13260.037660	3884.537833	1425.121094	1049.258545
13260.037660	3884.537833	1424.046875	1002.212524
13260.037660	3884.537833	1422.971680	1037.035278
13260.037660	3884.537833	1421.896484	1322.117554
13260.037660	3884.537833	1420.821289	851.935486
13260.037660	3884.537833	1419.746094	872.383728
13260.037660	3884.537833	1418.669922	1060.029541
13260.037660	3884.537833	1417.594727	797.989502
13260.037660	3884.537833	1416.518555	815.455383
13260.037660	3884.537833	1415.442383	1001.063660
13260.037660	3884.537833	1414.365234	1065.961914
13260.037660	3884.537833	1413.289063	894.895996
13260.037660	3884.537833	1412.211914	977.516235
13260.037660	3884.537833	1411.134766	806.907043
13260.037660	3884.537833	1410.057617	1075.664429
13260.037660	3884.537833	1408.979492	1013.079773
13260.037660	3884.537833	1407.902344	1042.325928
13260.037660	3884.537833	1406.824219	1087.618286
13260.037660	3884.537833	1405.746094	1030.359497
13260.037660	3884.537833	1404.666992	1077.897705
13260.037660	3884.537833	1403.588867	1014.903137
13260.037660	3884.537833	1402.509766	912.188660
13260.037660	3884.537833	1401.430664	1176.877930
13260.037660	3884.537833	1400.351563	1111.405762
13260.037660	3884.537833	1399.271484	1368.327026
13260.037660	3884.537833	1398.192383	1231.226929
13260.037660	3884.537833	1397.112305	1458.265747
13260.037660	3884.537833	1396.031250	1311.959595
13260.037660	3884.537833	1394.951172	1455.689331
13260.037660	3884.537833	1393.871094	1605.618042
13260.037660	3884.537833	1392.790039	1637.881226
13260.037660	3884.537833	1391.708984	1660.229736
13260.037660	3884.537833	1390.626953	1805.631836
13260.037660	3884.537833	1389.545898	1687.639648
13260.037660	3884.537833	1388.463867	1812.862671
13260.037660	3884.537833	1387.381836	1703.627808
13260.037660	3884.537833	1386.299805	1632.768921
13260.037660	3884.537833	1385.217773	1568.902466
13260.037660	3884.537833	1384.134766	1585.631958
13260.037660	3884.537833	1383.051758	1702.017456
13260.037660	3884.537833	1381.968750	1430.928833
13260.037660	3884.537833	1380.885742	1577.453247
13260.037660	3884.537833	1379.802734	1434.500854
13260.037660	3884.537833	1378.718750	1202.540039
13260.037660	3884.537833	1377.634766	1470.834106
13260.037660	3884.537833	1376.550781	1687.663330
13260.037660	3884.537833	1375.465820	1418.838135
13260.037660	3884.537833	1374.381836	1578.166870
13260.037660	3884.537833	1373.296875	1603.401855
13260.037660	3884.537833	1372.211914	1971.253418
13260.037660	3884.537833	1371.126953	2127.294922
13260.037660	3884.537833	1370.041016	2283.352295
13260.037660	3884.537833	1368.955078	2577.675049
13260.037660	3884.537833	1367.869141	2679.596680
13260.037660	3884.537833	1366.783203	3021.885254
13260.037660	3884.537833	1365.697266	3081.925049
13260.037660	3884.537833	1364.610352	2938.897705
13260.037660	3884.537833	1363.523438	2732.644043
13260.037660	3884.537833	1362.436523	2599.462402
13260.037660	3884.537833	1361.349609	2561.024170
13260.037660	3884.537833	1360.261719	2238.858643
13260.037660	3884.537833	1359.174805	2120.723145
13260.037660	3884.537833	1358.086914	2195.379639
13260.037660	3884.537833	1356.998047	1977.018066
13260.037660	3884.537833	1355.910156	1799.888062
13260.037660	3884.537833	1354.821289	1761.713501
13260.037660	3884.537833	1353.732422	1712.584106
13260.037660	3884.537833	1352.643555	1700.008301
13260.037660	3884.537833	1351.554688	1332.519531
13260.037660	3884.537833	1350.464844	1410.625732
13260.037660	3884.537833	1349.375000	1420.718018
13260.037660	3884.537833	1348.285156	1285.256348
13260.037660	3884.537833	1347.195313	1105.879150
13260.037660	3884.537833	1346.105469	976.102844
13260.037660	3884.537833	1345.014648	796.614746
13260.037660	3884.537833	1343.923828	860.919800
13260.037660	3884.537833	1342.833008	668.036377
13260.037660	3884.537833	1341.741211	611.916626
13260.037660	3884.537833	1340.650391	415.811981
13260.037660	3884.537833	1339.558594	443.184601
13260.037660	3884.537833	1338.466797	345.036072
13260.037660	3884.537833	1337.374023	598.474121
13260.037660	3884.537833	1336.282227	305.760254
13260.037660	3884.537833	1335.189453	278.566223
13260.037660	3884.537833	1334.096680	412.793640
13260.037660	3884.537833	1333.003906	339.331909
13260.037660	3884.537833	1331.910156	197.251022
13260.037660	3884.537833	1330.817383	149.621262
13260.037660	3884.537833	1329.723633	363.357330
13260.037660	3884.537833	1328.629883	69.089874
13260.037660	3884.537833	1327.535156	121.568855
13260.037660	3884.537833	1326.441406	344.837555
13260.037660	3884.537833	1325.346680	221.594437
13260.037660	3884.537833	1324.251953	358.606567
13260.037660	3884.537833	1323.156250	339.114410
13260.037660	3884.537833	1322.061523	293.597107
13260.037660	3884.537833	1320.965820	425.603333
13260.037660	3884.537833	1319.870117	345.258240
13260.037660	3884.537833	1318.774414	342.803650
13260.037660	3884.537833	1317.678711	346.423798
13260.037660	3884.537833	1316.582031	212.465988
13260.037660	3884.537833	1315.485352	186.311859
13260.037660	3884.537833	1314.388672	149.806732
13260.037660	3884.537833	1313.291016	-106.252640
13260.037660	3884.537833	1312.194336	-45.039860
13260.037660	3884.537833	1311.096680	-64.698357
13260.037660	3884.537833	1309.999023	67.637474
13260.037660	3884.537833	1308.901367	3.778764
13260.037660	3884.537833	1307.802734	142.919037
13260.037660	3884.537833	1306.705078	92.116409
13260.037660	3884.537833	1305.606445	-30.087336
13260.037660	3884.537833	1304.506836	-16.197277
13260.037660	3884.537833	1303.408203	15.446777
13260.037660	3884.537833	1302.308594	-88.509445
13260.037660	3884.537833	1301.208984	68.908417
13260.037660	3884.537833	1300.109375	67.222382
13260.037660	3884.537833	1299.009766	-26.042604
13260.037660	3884.537833	1297.909180	-20.180740
13260.037660	3884.537833	1296.808594	56.233215
13260.037660	3884.537833	1295.708008	18.068913
13260.037660	3884.537833	1294.607422	53.155952
13260.037660	3884.537833	1293.506836	5.862991
13260.037660	3884.537833	1292.405273	-170.998383
13260.037660	3884.537833	1291.303711	56.281841
13260.037660	3884.537833	1290.202148	-53.926697
13260.037660	3884.537833	1289.099609	-19.239014
13260.037660	3884.537833	1287.998047	203.438675
13260.037660	3884.537833	1286.895508	155.185532
13260.037660	3884.537833	1285.792969	94.561798
13260.037660	3884.537833	1284.689453	87.652901
13260.037660	3884.537833	1283.586914	-16.632475
13260.037660	3884.537833	1282.483398	17.762836
13260.037660	3884.537833	1281.379883	121.904686
13260.037660	3884.537833	1280.276367	109.164589
13260.037660	3884.537833	1279.171875	17.467112
13260.037660	3884.537833	1278.067383	92.688454
13260.037660	3884.537833	1276.962891	57.406166
13260.037660	3884.537833	1275.858398	153.754456
13260.037660	3884.537833	1274.753906	41.156555
13260.037660	3884.537833	1273.648438	120.285362
13260.037660	3884.537833	1272.542969	139.586075
13260.037660	3884.537833	1271.437500	270.799316
13260.037660	3884.537833	1270.331055	131.204559
13260.037660	3884.537833	1269.225586	224.831940
13260.037660	3884.537833	1268.119141	222.776199
13260.037660	3884.537833	1267.012695	87.522285
13260.037660	3884.537833	1265.906250	99.571541
13260.037660	3884.537833	1264.798828	204.705627
13260.037660	3884.537833	1263.691406	53.414204
13260.037660	3884.537833	1262.583984	167.813828
13260.037660	3884.537833	1261.476563	69.769089
13260.037660	3884.537833	1260.368164	60.531586
13260.037660	3884.537833	1259.260742	109.036705
13260.037660	3884.537833	1258.152344	89.937706
13260.037660	3884.537833	1257.043945	-2.414756
13260.037660	3884.537833	1255.934570	69.073853
13260.037660	3884.537833	1254.825195	-9.640475
13260.037660	3884.537833	1253.716797	61.031860
13260.037660	3884.537833	1252.606445	-57.643463
13260.037660	3884.537833	1251.497070	-64.699089
13260.037660	3884.537833	1250.387695	-52.131222
13260.037660	3884.537833	1249.277344	69.125648
13260.037660	3884.537833	1248.166992	176.372910
13260.037660	3884.537833	1247.055664	267.715210
13260.037660	3884.537833	1245.945313	152.667801
13260.037660	3884.537833	1244.833984	-14.643293
13260.037660	3884.537833	1243.722656	88.103645
13260.037660	3884.537833	1242.611328	13.185266
13260.037660	3884.537833	1241.499023	-35.735989
13260.037660	3884.537833	1240.387695	20.500216
13260.037660	3884.537833	1239.275391	-11.380088
13260.037660	3884.537833	1238.162109	82.662552
13260.037660	3884.537833	1237.049805	71.794067
13260.037660	3884.537833	1235.936523	-105.443848
13260.037660	3884.537833	1234.823242	-68.939804
13260.037660	3884.537833	1233.709961	18.998848
13260.037660	3884.537833	1232.596680	44.714149
13260.037660	3884.537833	1231.482422	-134.647736
13260.037660	3884.537833	1230.369141	-152.374451
13260.037660	3884.537833	1229.253906	-110.281784
13260.037660	3884.537833	1228.139648	-82.555428
13260.037660	3884.537833	1227.025391	-159.097015
13260.037660	3884.537833	1225.910156	-133.673340
13260.037660	3884.537833	1224.794922	-71.428200
13260.037660	3884.537833	1223.679688	17.915968
13260.037660	3884.537833	1222.563477	-50.515911
13260.037660	3884.537833	1221.447266	-113.977150
13260.037660	3884.537833	1220.331055	-15.149155
13260.037660	3884.537833	1219.214844	-93.011200
13260.037660	3884.537833	1218.098633	-5.596254
13260.037660	3884.537833	1216.981445	40.626987
13260.037660	3884.537833	1215.864258	-49.788303
13260.037660	3884.537833	1214.747070	8.267473
13260.037660	3884.537833	1213.629883	-39.003315
13260.037660	3884.537833	1212.511719	-14.709892
13260.037660	3884.537833	1211.393555	-110.043327
13260.037660	3884.537833	1210.275391	109.101074
13260.037660	3884.537833	1209.157227	144.995026
13260.037660	3884.537833	1208.038086	196.467865
13260.037660	3884.537833	1206.918945	152.844040
13260.037660	3884.537833	1205.799805	151.666733
13260.037660	3884.537833	1204.680664	221.845337
13260.037660	3884.537833	1203.560547	158.803009
13260.037660	3884.537833	1202.441406	223.548584
13260.037660	3884.537833	1201.321289	171.998489
13260.037660	3884.537833	1200.200195	50.609066
13260.037660	3884.537833	1199.080078	29.457359
13260.037660	3884.537833	1197.958984	137.210907
13260.037660	3884.537833	1196.837891	32.409801
13260.037660	3884.537833	1195.716797	169.822800
13260.037660	3884.537833	1194.594727	131.579269
13260.037660	3884.537833	1193.473633	134.977783
13260.037660	3884.537833	1192.351563	68.201653
13260.037660	3884.537833	1191.229492	132.043823
13260.037660	3884.537833	1190.106445	106.578033
13260.037660	3884.537833	1188.984375	52.566635
13260.037660	3884.537833	1187.861328	39.609051
13260.037660	3884.537833	1186.738281	-3.469592
13260.037660	3884.537833	1185.614258	3.628115
13260.037660	3884.537833	1184.491211	-94.999611
13260.037660	3884.537833	1183.367188	79.486961
13260.037660	3884.537833	1182.243164	36.551590
13260.037660	3884.537833	1181.119141	-57.003735
13260.037660	3884.537833	1179.994141	112.441666
13260.037660	3884.537833	1178.869141	52.256821
13260.037660	3884.537833	1177.744141	34.594292
13260.037660	3884.537833	1176.619141	-129.906052
13260.037660	3884.537833	1175.493164	-161.428177
13260.037660	3884.537833	1174.368164	-125.085884
13260.037660	3884.537833	1173.242188	-29.941677
13260.037660	3884.537833	1172.115234	20.581833
13260.037660	3884.537833	1170.989258	52.875736
13260.037660	3884.537833	1169.862305	-151.586334
13260.037660	3884.537833	1168.735352	-60.691238
13260.037660	3884.537833	1167.608398	-115.901619
13260.037660	3884.537833	1166.481445	31.887257
13260.037660	3884.537833	1165.353516	-2.082797
13260.037660	3884.537833	1164.225586	-74.470100
13260.037660	3884.537833	1163.097656	-20.067383
13260.037660	3884.537833	1161.968750	-37.446304
13260.037660	3884.537833	1160.840820	-27.262581
13260.037660	3884.537833	1159.711914	65.084335
13260.037660	3884.537833	1158.583008	-11.368524
13260.037660	3884.537833	1157.453125	-8.357890
13260.037660	3884.537833	1156.324219	-9.226916
13260.037660	3884.537833	1155.194336	79.434479
13260.037660	3884.537833	1154.064453	80.611595
13260.037660	3884.537833	1152.933594	60.338203
13260.037660	3884.537833	1151.803711	45.413799
13260.037660	3884.537833	1150.672852	113.184929
13260.037660	3884.537833	1149.541992	198.036346
13260.037660	3884.537833	1148.411133	67.774033
13260.037660	3884.537833	1147.279297	143.618210
13260.037660	3884.537833	1146.147461	192.779861
13260.037660	3884.537833	1145.015625	69.017105
13260.037660	3884.537833	1143.883789	352.273590
13260.037660	3884.537833	1142.750977	208.008820
13260.037660	3884.537833	1141.619141	225.545944
13260.037660	3884.537833	1140.486328	209.634644
13260.037660	3884.537833	1139.352539	302.605255
13260.037660	3884.537833	1138.219727	299.759644
13260.037660	3884.537833	1137.085938	23.528498
13260.037660	3884.537833	1135.952148	73.893974
13260.037660	3884.537833	1134.818359	160.475052
13260.037660	3884.537833	1133.683594	200.566544
13260.037660	3884.537833	1132.549805	162.874786
13260.037660	3884.537833	1131.415039	216.671631
13260.037660	3884.537833	1130.279297	123.537941
13260.037660	3884.537833	1129.144531	182.781754
13260.037660	3884.537833	1128.008789	181.410645
13260.037660	3884.537833	1126.873047	250.488037
13260.037660	3884.537833	1125.737305	168.480591
13260.037660	3884.537833	1124.601563	176.618179
13260.037660	3884.537833	1123.464844	246.065582
13260.037660	3884.537833	1122.328125	219.899460
13260.037660	3884.537833	1121.191406	161.460083
13260.037660	3884.537833	1120.054688	330.605255
13260.037660	3884.537833	1118.916992	202.405914
13260.037660	3884.537833	1117.779297	259.447174
13260.037660	3884.537833	1116.641602	245.393494
13260.037660	3884.537833	1115.503906	239.052444
13260.037660	3884.537833	1114.365234	231.807846
13260.037660	3884.537833	1113.226563	283.881165
13260.037660	3884.537833	1112.087891	195.808014
13260.037660	3884.537833	1110.949219	327.661591
13260.037660	3884.537833	1109.809570	114.737724
13260.037660	3884.537833	1108.669922	383.399139
13260.037660	3884.537833	1107.530273	254.779633
13260.037660	3884.537833	1106.390625	5.635484
13260.037660	3884.537833	1105.250000	62.318123
13260.037660	3884.537833	1104.109375	49.388172
13260.037660	3884.537833	1102.968750	-153.540100
13260.037660	3884.537833	1101.828125	-67.342690
13260.037660	3884.537833	1100.686523	-55.674141
13260.037660	3884.537833	1099.544922	175.782669
13260.037660	3884.537833	1098.403320	127.611755
13260.037660	3884.537833	1097.261719	-14.453944
13260.037660	3884.537833	1096.120117	41.201820
13260.037660	3884.537833	1094.977539	-95.172340
13260.037660	3884.537833	1093.834961	-20.872368
13260.037660	3884.537833	1092.691406	-9.917298
13260.037660	3884.537833	1091.548828	28.971315
13260.037660	3884.537833	1090.405273	-35.506882
13260.037660	3884.537833	1089.261719	-43.440624
13260.037660	3884.537833	1088.118164	82.319092
13260.037660	3884.537833	1086.973633	81.390785
13260.037660	3884.537833	1085.829102	77.950493
13260.037660	3884.537833	1084.684570	89.761986
13260.037660	3884.537833	1083.540039	-36.510544
13260.037660	3884.537833	1082.395508	63.064655
13260.037660	3884.537833	1081.250000	53.633278
13260.037660	3884.537833	1080.104492	59.209488
13260.037660	3884.537833	1078.958984	14.460903
13260.037660	3884.537833	1077.812500	26.400795
13260.037660	3884.537833	1076.666016	-0.657218
13260.037660	3884.537833	1075.519531	36.132729
13260.037660	3884.537833	1074.373047	129.949524
13260.037660	3884.537833	1073.226563	321.833374
13260.037660	3884.537833	1072.079102	-5.275360
13260.037660	3884.537833	1070.931641	225.246735
13260.037660	3884.537833	1069.784180	223.902313
13260.037660	3884.537833	1068.635742	95.765396
13260.037660	3884.537833	1067.487305	95.004005
13260.037660	3884.537833	1066.338867	5.161804
13260.037660	3884.537833	1065.190430	209.696075
13260.037660	3884.537833	1064.041992	39.397076
13260.037660	3884.537833	1062.892578	139.048141
13260.037660	3884.537833	1061.743164	-36.561371
13260.037660	3884.537833	1060.593750	86.725044
13260.037660	3884.537833	1059.443359	69.099297
13260.037660	3884.537833	1058.292969	126.265442
13260.037660	3884.537833	1057.142578	86.041161
13260.037660	3884.537833	1055.992188	103.530739
13260.037660	3884.537833	1054.841797	286.349213
13260.037660	3884.537833	1053.690430	155.081406
13260.037660	3884.537833	1052.539063	80.290962
13260.037660	3884.537833	1051.387695	-30.239525
13260.037660	3884.537833	1050.235352	-29.767694
13260.037660	3884.537833	1049.083984	-45.600582
13260.037660	3884.537833	1047.931641	232.503525
13260.037660	3884.537833	1046.778320	-109.211014
13260.037660	3884.537833	1045.625977	23.645838
13260.037660	3884.537833	1044.472656	-90.771370
13260.037660	3884.537833	1043.319336	153.603455
13260.037660	3884.537833	1042.166016	140.711105
13260.037660	3884.537833	1041.012695	128.027115
13260.037660	3884.537833	1039.858398	98.731949
13260.037660	3884.537833	1038.704102	-17.504555
13260.037660	3884.537833	1037.549805	9.037750
13260.037660	3884.537833	1036.394531	140.707214
13260.037660	3884.537833	1035.239258	8.737307
13260.037660	3884.537833	1034.083984	-57.074177
13260.037660	3884.537833	1032.928711	108.476341
13260.037660	3884.537833	1031.773438	38.831703
13260.037660	3884.537833	1030.617188	-70.250267
13260.037660	3884.537833	1029.460938	-106.841507
13260.037660	3884.537833	1028.304688	-9.246209
13260.037660	3884.537833	1027.147461	-39.269665
13260.037660	3884.537833	1025.991211	-9.852128
13260.037660	3884.537833	1024.833984	107.930466
13260.037660	3884.537833	1023.675781	79.329964
13260.037660	3884.537833	1022.518555	-27.612160
13260.037660	3884.537833	1021.360352	55.631432
13260.037660	3884.537833	1020.202148	-14.090337
13260.037660	3884.537833	1019.043945	41.107838
13260.037660	3884.537833	1017.884766	181.733353
13260.037660	3884.537833	1016.726563	-102.663017
13260.037660	3884.537833	1015.567383	-72.028000
13260.037660	3884.537833	1014.407227	-88.620445
13260.037660	3884.537833	1013.248047	158.238678
13260.037660	3884.537833	1012.087891	62.517399
13260.037660	3884.537833	1010.927734	-18.502787
13260.037660	3884.537833	1009.767578	21.351084
13260.037660	3884.537833	1008.606445	248.199371
13260.037660	3884.537833	1007.446289	94.561920
13260.037660	3884.537833	1006.285156	158.228134
13260.037660	3884.537833	1005.123047	119.573006
13260.037660	3884.537833	1003.961914	228.992691
13260.037660	3884.537833	1002.799805	192.612717
13260.037660	3884.537833	1001.637695	161.182800
13260.037660	3884.537833	1000.475586	424.229950
13260.037660	3884.537833	999.312500	57.156456
13260.037660	3884.537833	998.149414	71.926514
13260.037660	3884.537833	996.986328	80.417267
13260.037660	3884.537833	995.823242	172.108398
13260.037660	3884.537833	994.659180	103.552437
13260.037660	3884.537833	993.496094	348.477448
13260.037660	3884.537833	992.332031	182.551178
13260.037660	3884.537833	991.166992	-84.557793
13260.037660	3884.537833	990.002930	-5.813491
13260.037660	3884.537833	988.837891	-14.451728
13260.037660	3884.537833	987.672852	-24.044439
13260.037660	3884.537833	986.506836	62.145180
13260.037660	3884.537833	985.341797	134.032410
13260.037660	3884.537833	984.175781	0.917740
13260.037660	3884.537833	983.009766	130.488708
13260.037660	3884.537833	981.843750	176.492157
13260.037660	3884.537833	980.676758	-50.067207
13260.037660	3884.537833	979.509766	-163.687256
13260.037660	3884.537833	978.342773	24.624510
13260.037660	3884.537833	977.175781	59.366421
13260.037660	3884.537833	976.007813	36.744194
13260.037660	3884.537833	974.839844	152.937897
13260.037660	3884.537833	973.671875	80.069443
13260.037660	3884.537833	972.503906	27.038559
13260.037660	3884.537833	971.334961	15.773960
13260.037660	3884.537833	970.166016	18.080421
13260.037660	3884.537833	968.997070	148.520782
13260.037660	3884.537833	967.828125	166.606613
13260.037660	3884.537833	966.658203	-134.902939
13260.037660	3884.537833	965.488281	-13.560827
13260.037660	3884.537833	964.318359	-77.052727
13260.037660	3884.537833	963.148438	65.256981
13260.037660	3884.537833	961.977539	10.613145
13260.037660	3884.537833	960.806641	-282.309479
13260.037660	3884.537833	959.635742	-122.008049
13260.037660	3884.537833	958.463867	11.164511
13260.037660	3884.537833	957.292969	95.621185
13260.037660	3884.537833	956.121094	241.070801
13260.037660	3884.537833	954.948242	222.465302
13260.037660	3884.537833	953.776367	173.816040
13260.037660	3884.537833	952.603516	410.888275
13260.037660	3884.537833	951.430664	321.976257
13260.037660	3884.537833	950.257813	293.710266
13260.037660	3884.537833	949.084961	331.218170
13260.037660	3884.537833	947.911133	216.473450
13260.037660	3884.537833	946.737305	283.651367
13260.037660	3884.537833	945.563477	353.634644
13260.037660	3884.537833	944.388672	393.929871
13260.037660	3884.537833	943.213867	290.912170
13260.037660	3884.537833	942.039063	113.286026
13260.037660	3884.537833	940.864258	326.184723
13260.037660	3884.537833	939.688477	169.580093
13260.037660	3884.537833	938.513672	409.123535
13260.037660	3884.537833	937.337891	156.721603
13260.037660	3884.537833	936.161133	473.681274
13260.037660	3884.537833	934.985352	325.585388
13260.037660	3884.537833	933.808594	114.948647
13260.037660	3884.537833	932.631836	97.974098
13260.037660	3884.537833	931.454102	155.532761
13260.037660	3884.537833	930.277344	221.939606
13260.037660	3884.537833	929.099609	44.009472
13260.037660	3884.537833	927.921875	164.006531
13260.037660	3884.537833	926.743164	164.751404
13260.037660	3884.537833	925.565430	138.694580
13260.037660	3884.537833	924.386719	85.797134
13260.037660	3884.537833	923.208008	15.024547
13260.037660	3884.537833	922.028320	224.050858
13260.037660	3884.537833	920.849609	34.164173
13260.037660	3884.537833	919.669922	36.152996
13260.037660	3884.537833	919.474609	97.558586
13260.037660	3884.537833	918.309570	26.671968
13260.037660	3884.537833	917.143555	134.241638
13260.037660	3884.537833	915.977539	3.847020
13260.037660	3884.537833	914.810547	54.834835
13260.037660	3884.537833	913.644531	70.103348
13260.037660	3884.537833	912.477539	100.199539
13260.037660	3884.537833	911.310547	79.745399
13260.037660	3884.537833	910.143555	32.537788
13260.037660	3884.537833	908.975586	101.156242
13260.037660	3884.537833	907.807617	-50.015465
13260.037660	3884.537833	906.639648	21.509970
13260.037660	3884.537833	905.471680	-79.174210
13260.037660	3884.537833	904.303711	-55.201797
13260.037660	3884.537833	903.134766	99.286423
13260.037660	3884.537833	901.965820	155.797867
13260.037660	3884.537833	900.796875	52.111332
13260.037660	3884.537833	899.626953	70.018112
13260.037660	3884.537833	898.457031	55.285938
13260.037660	3884.537833	897.287109	-152.119385
13260.037660	3884.537833	896.117188	7.996463
13260.037660	3884.537833	894.947266	-169.728348
13260.037660	3884.537833	893.776367	-63.031910
13260.037660	3884.537833	892.605469	-27.476006
13260.037660	3884.537833	891.434570	90.953026
13260.037660	3884.537833	890.262695	114.585876
13260.037660	3884.537833	889.091797	132.269867
13260.037660	3884.537833	887.919922	111.461807
13260.037660	3884.537833	886.748047	152.773819
13260.037660	3884.537833	885.575195	223.633224
13260.037660	3884.537833	884.403320	-4.243895
13260.037660	3884.537833	883.230469	51.802750
13260.037660	3884.537833	882.057617	146.240814
13260.037660	3884.537833	880.883789	-19.459003
13260.037660	3884.537833	879.710938	125.158745
13260.037660	3884.537833	878.537109	-70.040680
13260.037660	3884.537833	877.362305	293.076935
13260.037660	3884.537833	876.188477	15.209722
13260.037660	3884.537833	875.013672	-14.546616
13260.037660	3884.537833	873.839844	-70.870354
13260.037660	3884.537833	872.664063	35.139271
13260.037660	3884.537833	871.489258	149.945160
13260.037660	3884.537833	870.313477	-56.864452
13260.037660	3884.537833	869.138672	46.093773
13260.037660	3884.537833	867.962891	22.199055
13260.037660	3884.537833	866.786133	-10.539426
13260.037660	3884.537833	865.610352	-134.652359
13260.037660	3884.537833	864.433594	47.771626
13260.037660	3884.537833	863.256836	-40.961796
13260.037660	3884.537833	862.079102	52.976768
13260.037660	3884.537833	860.902344	105.634796
13260.037660	3884.537833	859.724609	37.534435
13260.037660	3884.537833	858.546875	-192.467361
13260.037660	3884.537833	857.368164	-7.356684
13260.037660	3884.537833	856.190430	157.071701
13260.037660	3884.537833	855.011719	97.817909
13260.037660	3884.537833	853.833008	85.649040
13260.037660	3884.537833	852.654297	20.542028
13260.037660	3884.537833	851.474609	143.644058
13260.037660	3884.537833	850.294922	204.954636
13260.037660	3884.537833	849.115234	-36.501942
13260.037660	3884.537833	847.935547	-192.643784
13260.037660	3884.537833	846.754883	-225.328156
13260.037660	3884.537833	845.575195	73.922676
13260.037660	3884.537833	844.393555	50.002586
13260.037660	3884.537833	843.212891	34.897732
13260.037660	3884.537833	842.032227	-6.623655
13260.037660	3884.537833	840.850586	45.790619
13260.037660	3884.537833	839.668945	-48.537197
13260.037660	3884.537833	838.486328	-4.939490
13260.037660	3884.537833	837.304688	9.307519
13260.037660	3884.537833	836.122070	-90.821609
13260.037660	3884.537833	834.939453	17.259510
13260.037660	3884.537833	833.756836	16.835829
13260.037660	3884.537833	832.573242	-77.370872
13260.037660	3884.537833	831.389648	-10.380189
13260.037660	3884.537833	830.206055	-2.006794
13260.037660	3884.537833	829.022461	-81.504349
13260.037660	3884.537833	827.838867	-93.616257
13260.037660	3884.537833	826.654297	-175.986481
13260.037660	3884.537833	825.469727	-100.256248
13260.037660	3884.537833	824.284180	95.433891
13260.037660	3884.537833	823.099609	59.896500
13260.037660	3884.537833	821.914063	156.016220
13260.037660	3884.537833	820.728516	-145.663132
13260.037660	3884.537833	819.542969	82.049576
13260.037660	3884.537833	818.356445	137.185120
13260.037660	3884.537833	817.169922	-208.137482
13260.037660	3884.537833	815.983398	-36.066044
13260.037660	3884.537833	814.796875	138.859589
13260.037660	3884.537833	813.609375	-95.236549
13260.037660	3884.537833	812.422852	-31.342804
13260.037660	3884.537833	811.235352	-40.467598
13260.037660	3884.537833	810.046875	-58.341259
13260.037660	3884.537833	808.859375	-3.237329
13260.037660	3884.537833	807.670898	-172.843918
13260.037660	3884.537833	806.482422	66.072105
13260.037660	3884.537833	805.293945	-94.718636
13260.037660	3884.537833	804.104492	-170.865570
13260.037660	3884.537833	802.915039	-92.445160
13260.037660	3884.537833	801.725586	67.569046
13260.037660	3884.537833	800.536133	26.424192
13260.037660	3884.537833	799.345703	-105.027702
13260.037660	3884.537833	798.155273	51.992317
13260.037660	3884.537833	796.964844	-56.099186
13260.037660	3884.537833	795.774414	100.856018
13260.037660	3884.537833	794.583008	68.508286
13260.037660	3884.537833	793.392578	126.414421
13260.037660	3884.537833	792.200195	123.188492
13260.037660	3884.537833	791.008789	-57.520359
13260.037660	3884.537833	789.816406	-19.970081
13260.037660	3884.537833	788.625000	17.568926
13260.037660	3884.537833	787.432617	8.573581
13260.037660	3884.537833	786.239258	69.360764
13260.037660	3884.537833	785.046875	191.166855
13260.037660	3884.537833	783.853516	144.378448
13260.037660	3884.537833	782.660156	24.979412
13260.037660	3884.537833	781.465820	21.828058
13260.037660	3884.537833	780.272461	91.287659
13260.037660	3884.537833	779.078125	27.157877
13260.037660	3884.537833	777.883789	186.591492
13260.037660	3884.537833	776.688477	0.578137
13260.037660	3884.537833	775.494141	90.316467
13260.037660	3884.537833	774.298828	-8.554500
13260.037660	3884.537833	773.103516	2.842085
13260.037660	3884.537833	771.907227	8.439683
13260.037660	3884.537833	770.711914	161.906616
13260.037660	3884.537833	769.515625	-52.831490
13260.037660	3884.537833	768.318359	74.510384
13260.037660	3884.537833	767.122070	256.856354
13260.037660	3884.537833	765.924805	94.389908
13260.037660	3884.537833	764.727539	56.538052
13260.037660	3884.537833	763.530273	-71.063652
13260.037660	3884.537833	762.333008	137.231094
13260.037660	3884.537833	761.134766	67.563698
13260.037660	3884.537833	759.936523	81.852875
13260.037660	3884.537833	758.738281	15.123792
13260.037660	3884.537833	757.540039	46.778553
13260.037660	3884.537833	756.340820	121.805725
13260.037660	3884.537833	755.141602	3.068313
13260.037660	3884.537833	753.942383	-46.235703
13260.037660	3884.537833	752.742188	-14.587015
13260.037660	3884.537833	751.541992	-37.856049
13260.037660	3884.537833	750.341797	-23.555784
13260.037660	3884.537833	749.141602	-17.927227
13260.037660	3884.537833	747.941406	-55.620090
13260.037660	3884.537833	746.740234	71.281868
13260.037660	3884.537833	745.539063	102.867645
13260.037660	3884.537833	744.337891	-44.501736
13260.037660	3884.537833	743.135742	-99.472572
13260.037660	3884.537833	741.933594	76.372734
13260.037660	3884.537833	740.731445	133.884430
13260.037660	3884.537833	739.529297	81.788246
13260.037660	3884.537833	738.326172	-30.833633
13260.037660	3884.537833	737.124023	23.773752
13260.037660	3884.537833	735.919922	38.009998
13260.037660	3884.537833	734.716797	11.896640
13260.037660	3884.537833	733.513672	253.696991
13260.037660	3884.537833	732.309570	57.614758
13260.037660	3884.537833	731.105469	109.247688
13260.037660	3884.537833	729.900391	91.760414
13260.037660	3884.537833	728.696289	42.612488
13260.037660	3884.537833	727.491211	56.789322
13260.037660	3884.537833	726.286133	-35.500027
13260.037660	3884.537833	725.080078	85.105324
13260.037660	3884.537833	723.874023	188.396439
13260.037660	3884.537833	722.668945	87.489151
13260.037660	3884.537833	721.461914	141.851166
13260.037660	3884.537833	720.255859	15.112492
13260.037660	3884.537833	719.048828	129.792130
13260.037660	3884.537833	717.841797	186.955582
13260.037660	3884.537833	716.634766	126.321129
13260.037660	3884.537833	715.427734	131.750122
13260.037660	3884.537833	714.219727	71.130661
13260.037660	3884.537833	713.011719	67.935493
13260.037660	3884.537833	711.803711	191.003967
13260.037660	3884.537833	710.594727	64.380905
13260.037660	3884.537833	709.385742	147.211395
13260.037660	3884.537833	708.176758	164.027695
13260.037660	3884.537833	706.967773	160.750656
13260.037660	3884.537833	705.758789	77.186920
13260.037660	3884.537833	704.548828	254.475449
13260.037660	3884.537833	703.338867	176.628098
13260.037660	3884.537833	702.127930	204.805771
13260.037660	3884.537833	700.917969	281.649963
13260.037660	3884.537833	699.707031	232.434616
13260.037660	3884.537833	698.496094	314.932373
13260.037660	3884.537833	697.285156	274.282349
13260.037660	3884.537833	696.073242	230.768906
13260.037660	3884.537833	694.861328	461.954773
13260.037660	3884.537833	693.649414	292.502472
13260.037660	3884.537833	692.436523	369.083527
13260.037660	3884.537833	691.224609	188.241043
13260.037660	3884.537833	690.011719	381.990845
13260.037660	3884.537833	688.798828	272.639435
13260.037660	3884.537833	687.584961	303.347443
13260.037660	3884.537833	686.372070	276.872498
13260.037660	3884.537833	685.158203	376.078918
13260.037660	3884.537833	683.943359	298.143860
13260.037660	3884.537833	682.729492	357.277649
13260.037660	3884.537833	681.514648	413.506195
13260.037660	3884.537833	680.299805	532.479248
13260.037660	3884.537833	679.084961	397.399506
13260.037660	3884.537833	677.869141	516.271667
13260.037660	3884.537833	676.653320	523.820313
13260.037660	3884.537833	675.437500	537.041077
13260.037660	3884.537833	674.221680	607.251709
13260.037660	3884.537833	673.004883	457.903778
13260.037660	3884.537833	671.789063	328.538971
13260.037660	3884.537833	670.571289	441.401855
13260.037660	3884.537833	669.354492	451.626709
13260.037660	3884.537833	668.136719	299.466064
13260.037660	3884.537833	666.919922	266.937897
13260.037660	3884.537833	665.701172	302.720581
13260.037660	3884.537833	664.483398	213.210968
13260.037660	3884.537833	663.264648	234.693024
13260.037660	3884.537833	662.045898	438.228119
13260.037660	3884.537833	660.827148	399.847015
13260.037660	3884.537833	659.608398	406.951538
13260.037660	3884.537833	658.388672	300.279572
13260.037660	3884.537833	657.168945	398.301208
13260.037660	3884.537833	655.949219	317.183014
13260.037660	3884.537833	654.728516	412.243317
13260.037660	3884.537833	653.507813	458.928406
13260.037660	3884.537833	652.287109	261.276428
13260.037660	3884.537833	651.066406	299.376831
13260.037660	3884.537833	649.844727	172.745514
13260.037660	3884.537833	648.623047	406.635651
13260.037660	3884.537833	647.401367	277.117126
13260.037660	3884.537833	646.179688	431.356995
13260.037660	3884.537833	644.957031	279.111389
13260.037660	3884.537833	643.734375	333.934387
13260.037660	3884.537833	642.511719	357.499878
13260.037660	3884.537833	641.289063	270.446686
13260.037660	3884.537833	640.065430	554.699707
13260.037660	3884.537833	638.841797	419.379669
13260.037660	3884.537833	637.618164	267.074554
13260.037660	3884.537833	636.393555	398.053497
13260.037660	3884.537833	635.168945	492.116455
13260.037660	3884.537833	633.944336	266.141541
13260.037660	3884.537833	632.719727	422.381378
13260.037660	3884.537833	631.494141	420.015625
13260.037660	3884.537833	630.269531	287.442383
13260.037660	3884.537833	629.042969	174.681091
13260.037660	3884.537833	627.817383	276.884155
13260.037660	3884.537833	626.590820	356.373901
13260.037660	3884.537833	625.365234	328.348572
13260.037660	3884.537833	624.137695	317.246216
13260.037660	3884.537833	622.911133	193.060486
13260.037660	3884.537833	621.683594	325.994873
13260.037660	3884.537833	620.456055	173.515457
13260.037660	3884.537833	619.228516	263.937988
13260.037660	3884.537833	618.000977	145.324341
13260.037660	3884.537833	616.772461	258.202026
13260.037660	3884.537833	615.543945	283.487061
13260.037660	3884.537833	614.314453	288.958862
13260.037660	3884.537833	613.085938	362.090942
13260.037660	3884.537833	611.856445	130.511108
13260.037660	3884.537833	610.626953	290.968567
13260.037660	3884.537833	609.397461	279.322205
13260.037660	3884.537833	608.166992	276.086670
13260.037660	3884.537833	606.936523	100.889755
13260.037660	3884.537833	605.706055	66.601593
13260.037660	3884.537833	604.474609	51.996559
13260.037660	3884.537833	603.244141	150.008377
13260.037660	3884.537833	602.012695	278.902588
13260.037660	3884.537833	600.780273	-48.381416
13260.037660	3884.537833	599.548828	176.100647
13260.037660	3884.537833	598.316406	282.245941
13260.037660	3884.537833	597.083984	177.287231
13260.037660	3884.537833	595.851563	325.482941
13260.037660	3884.537833	594.618164	251.395401
13260.037660	3884.537833	593.384766	213.842957
13260.037660	3884.537833	592.151367	229.668579
13260.037660	3884.537833	590.917969	225.766083
13260.037660	3884.537833	589.683594	140.329025
13260.037660	3884.537833	588.449219	276.813690
13260.037660	3884.537833	587.214844	137.942062
13260.037660	3884.537833	585.979492	-180.636292
13260.037660	3884.537833	584.745117	298.200775
13260.037660	3884.537833	583.509766	91.905991
13260.037660	3884.537833	582.273438	399.200775
13260.037660	3884.537833	581.038086	434.169434
13260.037660	3884.537833	579.801758	297.965271
13260.037660	3884.537833	578.565430	332.848145
13260.037660	3884.537833	577.329102	165.790741
13260.037660	3884.537833	576.091797	399.629517
13260.037660	3884.537833	574.854492	333.436157
13260.037660	3884.537833	573.617188	314.863983
13260.037660	3884.537833	572.378906	212.208939
13260.037660	3884.537833	571.141602	221.594131
13260.037660	3884.537833	569.903320	239.332596
13260.037660	3884.537833	568.664063	276.617249
13260.037660	3884.537833	567.425781	154.299438
13260.037660	3884.537833	566.186523	171.916229
13260.037660	3884.537833	564.947266	293.009918
13260.037660	3884.537833	563.708008	330.093353
13260.037660	3884.537833	562.467773	330.763214
13260.037660	3884.537833	561.227539	244.715775
13260.037660	3884.537833	559.987305	97.167091
13260.037660	3884.537833	558.747070	237.523224
13260.037660	3884.537833	557.505859	87.171341
13260.037660	3884.537833	556.264648	20.661882
13260.037660	3884.537833	555.023438	-23.507723
13260.037660	3884.537833	553.781250	7.704948
13260.037660	3884.537833	552.539063	-92.348732
13260.037660	3884.537833	551.296875	-61.196663
13260.037660	3884.537833	550.054688	-60.786652
13260.037660	3884.537833	548.811523	45.617577
13260.037660	3884.537833	547.569336	-43.317444
13260.037660	3884.537833	546.325195	-45.790092
13260.037660	3884.537833	545.082031	32.578232
13260.037660	3884.537833	543.837891	13.313306
13260.037660	3884.537833	542.593750	125.029045
13260.037660	3884.537833	541.349609	2.602485
13260.037660	3884.537833	540.105469	136.516174
13260.037660	3884.537833	538.860352	-13.759732
13260.037660	3884.537833	537.615234	53.221848
13260.037660	3884.537833	536.369141	-27.408751
13260.037660	3884.537833	535.124023	-55.130455
13260.037660	3884.537833	533.877930	28.459364
13260.037660	3884.537833	532.631836	48.003700
13260.037660	3884.537833	531.384766	-71.566788
13260.037660	3884.537833	530.138672	-1.974525
13260.037660	3884.537833	528.891602	-24.186037
13260.037660	3884.537833	527.643555	42.558216
13260.037660	3884.537833	526.396484	-74.172119
13260.037660	3884.537833	525.148438	-15.798145
13260.037660	3884.537833	523.900391	-140.817810
13260.037660	3884.537833	522.652344	-71.355316
13260.037660	3884.537833	521.403320	-115.787506
13260.037660	3884.537833	520.154297	36.923340
13260.037660	3884.537833	518.905273	-257.340576
13260.037660	3884.537833	517.656250	-96.339592
13260.037660	3884.537833	516.406250	131.181763
13260.037660	3884.537833	515.156250	78.430710
13260.037660	3884.537833	513.906250	-60.270077
13260.037660	3884.537833	512.655273	-71.357445
13260.037660	3884.537833	511.404297	-57.482567
13260.037660	3884.537833	510.153320	155.955078
13260.037660	3884.537833	508.902344	39.554066
13260.037660	3884.537833	507.650391	42.341965
13260.037660	3884.537833	506.398438	178.095322
13260.037660	3884.537833	505.146484	50.723251
13260.037660	3884.537833	503.893555	119.995575
13260.037660	3884.537833	502.641602	-12.812032
13260.037660	3884.537833	501.388672	39.874775
13260.037660	3884.537833	500.134766	15.083334
13260.037660	3884.537833	498.881836	-17.971819
13260.037660	3884.537833	497.627930	109.418037
13260.037660	3884.537833	496.374023	192.535660
13260.037660	3884.537833	495.119141	145.708069
13260.037660	3884.537833	493.865234	245.418686
13260.037660	3884.537833	492.610352	259.449097
13260.037660	3884.537833	491.355469	309.418365
13260.037660	3884.537833	490.099609	262.720520
13260.037660	3884.537833	488.843750	58.667343
13260.037660	3884.537833	487.587891	36.958927
13260.037660	3884.537833	486.332031	62.220581
13260.037660	3884.537833	485.075195	7.472806
13260.037660	3884.537833	483.818359	63.152763
13260.037660	3884.537833	482.561523	-32.873081
13260.037660	3884.537833	481.304688	-236.377441
13260.037660	3884.537833	480.046875	-23.392038
13260.037660	3884.537833	478.789063	-124.727974
13260.037660	3884.537833	477.531250	-96.435875
13260.037660	3884.537833	476.272461	17.310467
13260.037660	3884.537833	475.013672	42.893597
13260.037660	3884.537833	473.754883	16.179768
13260.037660	3884.537833	472.496094	72.140175
13260.037660	3884.537833	471.236328	-23.303728
13260.037660	3884.537833	469.976563	21.727352
13260.037660	3884.537833	468.716797	83.302628
13260.037660	3884.537833	467.456055	26.589642
13260.037660	3884.537833	466.196289	79.989136
13260.037660	3884.537833	464.935547	83.912941
13260.037660	3884.537833	463.673828	-107.337868
13260.037660	3884.537833	462.413086	-133.505524
13260.037660	3884.537833	461.151367	52.023048
13260.037660	3884.537833	459.889648	25.941347
13260.037660	3884.537833	458.626953	68.607727
13260.037660	3884.537833	457.364258	413.447876
13260.037660	3884.537833	456.101563	291.360504
13260.037660	3884.537833	454.838867	312.149506
13260.037660	3884.537833	453.575195	91.433426
13260.037660	3884.537833	452.312500	21.809534
13260.037660	3884.537833	451.047852	303.466095
13260.037660	3884.537833	449.784180	50.150742
13260.037660	3884.537833	448.519531	27.373676
13260.037660	3884.537833	447.254883	117.083015
13260.037660	3884.537833	445.990234	-171.495071
13260.037660	3884.537833	444.725586	-117.297615
13260.037660	3884.537833	443.459961	87.639236
13260.037660	3884.537833	442.194336	18.586254
13260.037660	3884.537833	440.927734	92.042801
13260.037660	3884.537833	439.662109	42.295231
13260.037660	3884.537833	438.395508	39.163204
13260.037660	3884.537833	437.127930	216.737473
13260.037660	3884.537833	435.861328	134.309143
13260.037660	3884.537833	434.593750	49.228039
13260.037660	3884.537833	433.326172	13.468841
13260.037660	3884.537833	432.058594	89.898514
13260.037660	3884.537833	430.790039	-52.400299
13260.037660	3884.537833	429.521484	-66.115067
13260.037660	3884.537833	428.252930	35.004528
13260.037660	3884.537833	426.984375	239.951309
13260.037660	3884.537833	425.714844	35.063271
13260.037660	3884.537833	424.445313	152.587265
13260.037660	3884.537833	423.174805	-8.440283
13260.037660	3884.537833	421.905273	122.749352
13260.037660	3884.537833	420.634766	174.749557
13260.037660	3884.537833	419.364258	16.622286
13260.037660	3884.537833	418.092773	210.531723
13260.037660	3884.537833	416.822266	93.411232
13260.037660	3884.537833	415.550781	28.165565
13260.037660	3884.537833	414.278320	-4.328518
13260.037660	3884.537833	413.006836	-77.696442
13260.037660	3884.537833	411.734375	-77.452026
13260.037660	3884.537833	410.461914	176.187302
13260.037660	3884.537833	409.188477	78.283684
13260.037660	3884.537833	407.916016	89.348488
13260.037660	3884.537833	406.642578	127.613014
13260.037660	3884.537833	405.368164	-46.516903
13260.037660	3884.537833	404.094727	-79.072021
13260.037660	3884.537833	402.820313	100.599426
13260.037660	3884.537833	401.545898	5.360401
13260.037660	3884.537833	400.270508	32.507843
13260.037660	3884.537833	398.996094	108.532166
13260.037660	3884.537833	397.720703	-46.650177
13260.037660	3884.537833	396.444336	-131.169556
13260.037660	3884.537833	395.168945	23.418934
13260.037660	3884.537833	393.892578	20.254129
13260.037660	3884.537833	392.616211	57.734810
13260.037660	3884.537833	391.339844	59.781273
13260.037660	3884.537833	390.062500	91.572693
13260.037660	3884.537833	388.785156	30.918688
13260.037660	3884.537833	387.507813	5.433842
13260.037660	3884.537833	386.229492	118.197800
13260.037660	3884.537833	384.951172	51.695667
13260.037660	3884.537833	383.672852	-9.525979
13260.037660	3884.537833	382.394531	5.023888
13260.037660	3884.537833	381.115234	35.635246
13260.037660	3884.537833	379.835938	139.210602
13260.037660	3884.537833	378.556641	142.248566
13260.037660	3884.537833	377.277344	226.332291
13260.037660	3884.537833	375.997070	312.836792
13260.037660	3884.537833	374.716797	252.795837
13260.037660	3884.537833	373.435547	81.486450
13260.037660	3884.537833	372.155273	34.487137
13260.037660	3884.537833	370.874023	203.713760
13260.037660	3884.537833	369.591797	61.362732
13260.037660	3884.537833	368.310547	113.517410
13260.037660	3884.537833	367.028320	-34.860466
13260.037660	3884.537833	365.746094	-5.077336
13260.037660	3884.537833	364.463867	-5.439545
13260.037660	3884.537833	363.180664	164.065521
13260.037660	3884.537833	361.897461	-96.607162
13260.037660	3884.537833	360.614258	112.487854
13260.037660	3884.537833	359.330078	34.690552
13260.037660	3884.537833	358.045898	10.445891
13260.037660	3884.537833	356.761719	23.497377
13260.037660	3884.537833	355.477539	22.510786
13260.037660	3884.537833	354.192383	-100.489426
13260.037660	3884.537833	352.907227	-18.953266
13260.037660	3884.537833	351.622070	-27.081112
13260.037660	3884.537833	350.336914	185.322021
13260.037660	3884.537833	349.050781	-47.950417
13260.037660	3884.537833	347.764648	-6.824919
13260.037660	3884.537833	346.477539	192.583237
13260.037660	3884.537833	345.191406	218.717972
13260.037660	3884.537833	343.904297	-57.676327
13260.037660	3884.537833	342.616211	1.931665
13260.037660	3884.537833	341.329102	-41.629112
13260.037660	3884.537833	340.041016	75.500526
13260.037660	3884.537833	338.752930	-90.942665
13260.037660	3884.537833	337.463867	35.089718
13260.037660	3884.537833	336.175781	14.838885
13260.037660	3884.537833	334.886719	154.994766
13260.037660	3884.537833	333.596680	97.722755
13260.037660	3884.537833	332.307617	-3.585091
13260.037660	3884.537833	331.017578	-14.560465
13260.037660	3884.537833	329.727539	5.589578
13260.037660	3884.537833	328.436523	86.342735
13260.037660	3884.537833	327.146484	-143.072342
13260.037660	3884.537833	325.855469	-48.665562
13260.037660	3884.537833	324.563477	240.412003
13260.037660	3884.537833	323.272461	128.030930
13260.037660	3884.537833	321.980469	-9.859674
13260.037660	3884.537833	320.688477	1.166519
13260.037660	3884.537833	319.395508	-24.185009
13260.037660	3884.537833	318.103516	-123.434395
13260.037660	3884.537833	316.810547	-15.051516
13260.037660	3884.537833	315.516602	-200.608414
13260.037660	3884.537833	314.223633	-52.635639
13260.037660	3884.537833	312.929688	-134.274750
13260.037660	3884.537833	311.635742	4.752859
13260.037660	3884.537833	310.340820	50.784077
13260.037660	3884.537833	309.045898	-28.277840
13260.037660	3884.537833	307.750977	62.137180
13260.037660	3884.537833	306.456055	-66.316521
13260.037660	3884.537833	305.160156	86.910347
13260.037660	3884.537833	303.865234	291.529266
13260.037660	3884.537833	302.568359	199.515121
13260.037660	3884.537833	301.272461	324.690826
13260.037660	3884.537833	299.975586	396.661316
13260.037660	3884.537833	298.678711	340.584442
