#X		#Y		#Wave		#Intensity
13260.760691	3883.313667	1999.980469	-130.054794
13260.760691	3883.313667	1999.016602	-447.716125
13260.760691	3883.313667	1998.052734	-181.017258
13260.760691	3883.313667	1997.087891	-317.408356
13260.760691	3883.313667	1996.123047	-135.640030
13260.760691	3883.313667	1995.158203	-180.831985
13260.760691	3883.313667	1994.193359	7.865888
13260.760691	3883.313667	1993.228516	-329.853973
13260.760691	3883.313667	1992.262695	-114.176414
13260.760691	3883.313667	1991.297852	-43.455185
13260.760691	3883.313667	1990.332031	-100.212524
13260.760691	3883.313667	1989.366211	109.087196
13260.760691	3883.313667	1988.399414	96.970078
13260.760691	3883.313667	1987.433594	-15.221054
13260.760691	3883.313667	1986.466797	138.644135
13260.760691	3883.313667	1985.500977	165.291168
13260.760691	3883.313667	1984.534180	190.925446
13260.760691	3883.313667	1983.567383	-46.425926
13260.760691	3883.313667	1982.599609	261.521667
13260.760691	3883.313667	1981.632813	89.111938
13260.760691	3883.313667	1980.665039	81.411568
13260.760691	3883.313667	1979.697266	132.152634
13260.760691	3883.313667	1978.729492	184.540344
13260.760691	3883.313667	1977.761719	125.033081
13260.760691	3883.313667	1976.792969	84.554482
13260.760691	3883.313667	1975.825195	161.845444
13260.760691	3883.313667	1974.856445	21.280886
13260.760691	3883.313667	1973.887695	109.558304
13260.760691	3883.313667	1972.918945	130.578812
13260.760691	3883.313667	1971.949219	183.055283
13260.760691	3883.313667	1970.980469	89.468048
13260.760691	3883.313667	1970.010742	76.725334
13260.760691	3883.313667	1969.041016	270.517639
13260.760691	3883.313667	1968.071289	140.914673
13260.760691	3883.313667	1967.101563	126.699295
13260.760691	3883.313667	1966.130859	112.041405
13260.760691	3883.313667	1965.161133	242.294632
13260.760691	3883.313667	1964.190430	167.708191
13260.760691	3883.313667	1963.219727	-20.479359
13260.760691	3883.313667	1962.249023	337.533295
13260.760691	3883.313667	1961.277344	111.779373
13260.760691	3883.313667	1960.306641	99.889618
13260.760691	3883.313667	1959.334961	208.259186
13260.760691	3883.313667	1958.363281	-3.452635
13260.760691	3883.313667	1957.391602	219.965729
13260.760691	3883.313667	1956.419922	-1.987613
13260.760691	3883.313667	1955.447266	66.011589
13260.760691	3883.313667	1954.474609	72.340302
13260.760691	3883.313667	1953.501953	154.668884
13260.760691	3883.313667	1952.529297	69.724792
13260.760691	3883.313667	1951.556641	78.015221
13260.760691	3883.313667	1950.583984	49.329075
13260.760691	3883.313667	1949.610352	-70.334618
13260.760691	3883.313667	1948.636719	-32.922165
13260.760691	3883.313667	1947.663086	109.942772
13260.760691	3883.313667	1946.689453	-14.840523
13260.760691	3883.313667	1945.715820	88.569160
13260.760691	3883.313667	1944.741211	93.743347
13260.760691	3883.313667	1943.767578	-38.475426
13260.760691	3883.313667	1942.792969	13.255260
13260.760691	3883.313667	1941.818359	-74.814369
13260.760691	3883.313667	1940.842773	-18.222017
13260.760691	3883.313667	1939.868164	4.050023
13260.760691	3883.313667	1938.892578	67.982063
13260.760691	3883.313667	1937.916992	-37.147041
13260.760691	3883.313667	1936.941406	31.729542
13260.760691	3883.313667	1935.965820	-36.534676
13260.760691	3883.313667	1934.990234	5.475935
13260.760691	3883.313667	1934.013672	-23.481014
13260.760691	3883.313667	1933.037109	136.131943
13260.760691	3883.313667	1932.060547	51.014481
13260.760691	3883.313667	1931.083984	117.725235
13260.760691	3883.313667	1930.107422	-30.794678
13260.760691	3883.313667	1929.129883	92.342812
13260.760691	3883.313667	1928.153320	-187.985382
13260.760691	3883.313667	1927.175781	8.700093
13260.760691	3883.313667	1926.198242	29.403360
13260.760691	3883.313667	1925.219727	-84.227654
13260.760691	3883.313667	1924.242188	83.353607
13260.760691	3883.313667	1923.263672	43.304836
13260.760691	3883.313667	1922.285156	-126.073723
13260.760691	3883.313667	1921.306641	-102.301956
13260.760691	3883.313667	1920.328125	-217.594360
13260.760691	3883.313667	1919.349609	72.590111
13260.760691	3883.313667	1918.370117	-13.124269
13260.760691	3883.313667	1917.391602	-79.128555
13260.760691	3883.313667	1916.412109	-3.438994
13260.760691	3883.313667	1915.431641	-71.578690
13260.760691	3883.313667	1914.452148	-146.851547
13260.760691	3883.313667	1913.472656	-136.585541
13260.760691	3883.313667	1912.492188	-228.586761
13260.760691	3883.313667	1911.511719	-110.740318
13260.760691	3883.313667	1910.531250	-163.403076
13260.760691	3883.313667	1909.550781	-3.873552
13260.760691	3883.313667	1908.569336	-153.691605
13260.760691	3883.313667	1907.588867	-179.052780
13260.760691	3883.313667	1906.607422	-165.284241
13260.760691	3883.313667	1905.625977	-136.754852
13260.760691	3883.313667	1904.644531	-239.555313
13260.760691	3883.313667	1903.662109	-239.931854
13260.760691	3883.313667	1902.680664	-137.929367
13260.760691	3883.313667	1901.698242	-179.388168
13260.760691	3883.313667	1900.715820	-298.532471
13260.760691	3883.313667	1899.733398	-74.512611
13260.760691	3883.313667	1898.750000	-232.255692
13260.760691	3883.313667	1897.767578	-204.994659
13260.760691	3883.313667	1896.784180	-177.607346
13260.760691	3883.313667	1895.800781	10.329729
13260.760691	3883.313667	1894.817383	-343.593414
13260.760691	3883.313667	1893.833984	94.834183
13260.760691	3883.313667	1892.850586	-166.396423
13260.760691	3883.313667	1891.866211	-342.398163
13260.760691	3883.313667	1890.881836	23.310497
13260.760691	3883.313667	1889.897461	-115.996620
13260.760691	3883.313667	1888.913086	-0.254859
13260.760691	3883.313667	1887.927734	-117.436653
13260.760691	3883.313667	1886.943359	64.001694
13260.760691	3883.313667	1885.958008	-84.471840
13260.760691	3883.313667	1884.972656	-19.334307
13260.760691	3883.313667	1883.987305	-17.177958
13260.760691	3883.313667	1883.001953	-22.204544
13260.760691	3883.313667	1882.015625	77.099640
13260.760691	3883.313667	1881.029297	-0.488458
13260.760691	3883.313667	1880.042969	-92.507858
13260.760691	3883.313667	1879.056641	69.983765
13260.760691	3883.313667	1878.070313	-65.475670
13260.760691	3883.313667	1877.083984	7.469059
13260.760691	3883.313667	1876.096680	-57.584579
13260.760691	3883.313667	1875.109375	-1.506241
13260.760691	3883.313667	1874.122070	25.551189
13260.760691	3883.313667	1873.134766	1.816572
13260.760691	3883.313667	1872.146484	-133.181152
13260.760691	3883.313667	1871.159180	2.862212
13260.760691	3883.313667	1870.170898	56.638916
13260.760691	3883.313667	1869.182617	-136.257614
13260.760691	3883.313667	1868.194336	60.213612
13260.760691	3883.313667	1867.205078	2.785333
13260.760691	3883.313667	1866.216797	22.726057
13260.760691	3883.313667	1865.227539	139.313766
13260.760691	3883.313667	1864.238281	28.736217
13260.760691	3883.313667	1863.249023	140.420792
13260.760691	3883.313667	1862.259766	111.959885
13260.760691	3883.313667	1861.269531	196.970581
13260.760691	3883.313667	1860.279297	134.643402
13260.760691	3883.313667	1859.290039	142.299805
13260.760691	3883.313667	1858.298828	123.353104
13260.760691	3883.313667	1857.308594	232.246231
13260.760691	3883.313667	1856.318359	131.151657
13260.760691	3883.313667	1855.327148	522.074646
13260.760691	3883.313667	1854.335938	471.460541
13260.760691	3883.313667	1853.344727	278.529388
13260.760691	3883.313667	1852.353516	225.400497
13260.760691	3883.313667	1851.362305	205.939346
13260.760691	3883.313667	1850.370117	222.526550
13260.760691	3883.313667	1849.377930	267.911530
13260.760691	3883.313667	1848.385742	344.479187
13260.760691	3883.313667	1847.393555	105.396652
13260.760691	3883.313667	1846.401367	321.375977
13260.760691	3883.313667	1845.408203	527.504150
13260.760691	3883.313667	1844.415039	345.881714
13260.760691	3883.313667	1843.421875	332.638580
13260.760691	3883.313667	1842.428711	434.737823
13260.760691	3883.313667	1841.435547	363.427582
13260.760691	3883.313667	1840.441406	335.264801
13260.760691	3883.313667	1839.448242	326.178833
13260.760691	3883.313667	1838.454102	405.868195
13260.760691	3883.313667	1837.459961	439.662933
13260.760691	3883.313667	1836.464844	446.806824
13260.760691	3883.313667	1835.470703	482.584198
13260.760691	3883.313667	1834.475586	486.899139
13260.760691	3883.313667	1833.480469	332.461487
13260.760691	3883.313667	1832.485352	261.913025
13260.760691	3883.313667	1831.490234	364.042114
13260.760691	3883.313667	1830.495117	513.909607
13260.760691	3883.313667	1829.499023	459.450195
13260.760691	3883.313667	1828.502930	474.353424
13260.760691	3883.313667	1827.506836	512.986816
13260.760691	3883.313667	1826.510742	349.836090
13260.760691	3883.313667	1825.513672	572.614441
13260.760691	3883.313667	1824.517578	416.160339
13260.760691	3883.313667	1823.520508	527.995117
13260.760691	3883.313667	1822.523438	574.776733
13260.760691	3883.313667	1821.526367	482.240204
13260.760691	3883.313667	1820.529297	631.448608
13260.760691	3883.313667	1819.531250	636.538391
13260.760691	3883.313667	1818.533203	571.847595
13260.760691	3883.313667	1817.535156	722.391602
13260.760691	3883.313667	1816.537109	762.409485
13260.760691	3883.313667	1815.539063	670.413818
13260.760691	3883.313667	1814.540039	767.183289
13260.760691	3883.313667	1813.541992	755.895447
13260.760691	3883.313667	1812.542969	605.478638
13260.760691	3883.313667	1811.543945	763.341553
13260.760691	3883.313667	1810.543945	739.001099
13260.760691	3883.313667	1809.544922	546.927795
13260.760691	3883.313667	1808.544922	596.002380
13260.760691	3883.313667	1807.544922	680.529907
13260.760691	3883.313667	1806.544922	513.703186
13260.760691	3883.313667	1805.544922	638.051819
13260.760691	3883.313667	1804.544922	506.337250
13260.760691	3883.313667	1803.543945	797.014343
13260.760691	3883.313667	1802.542969	635.831665
13260.760691	3883.313667	1801.541992	856.306641
13260.760691	3883.313667	1800.541016	706.271057
13260.760691	3883.313667	1799.539063	641.769287
13260.760691	3883.313667	1798.538086	715.277283
13260.760691	3883.313667	1797.536133	726.273315
13260.760691	3883.313667	1796.534180	679.574280
13260.760691	3883.313667	1795.532227	618.135376
13260.760691	3883.313667	1794.529297	716.005188
13260.760691	3883.313667	1793.527344	751.415039
13260.760691	3883.313667	1792.524414	762.495728
13260.760691	3883.313667	1791.521484	630.120178
13260.760691	3883.313667	1790.518555	833.271484
13260.760691	3883.313667	1789.514648	647.555725
13260.760691	3883.313667	1788.511719	580.535461
13260.760691	3883.313667	1787.507813	829.741516
13260.760691	3883.313667	1786.503906	792.664795
13260.760691	3883.313667	1785.500000	745.587463
13260.760691	3883.313667	1784.496094	869.381653
13260.760691	3883.313667	1783.491211	538.126831
13260.760691	3883.313667	1782.486328	844.064087
13260.760691	3883.313667	1781.481445	970.981873
13260.760691	3883.313667	1780.476563	742.999573
13260.760691	3883.313667	1779.471680	547.872620
13260.760691	3883.313667	1778.465820	868.122681
13260.760691	3883.313667	1777.460938	797.965332
13260.760691	3883.313667	1776.455078	884.112976
13260.760691	3883.313667	1775.449219	924.554077
13260.760691	3883.313667	1774.442383	551.095764
13260.760691	3883.313667	1773.436523	642.755737
13260.760691	3883.313667	1772.429688	517.730164
13260.760691	3883.313667	1771.422852	525.151306
13260.760691	3883.313667	1770.416016	767.005798
13260.760691	3883.313667	1769.409180	448.154297
13260.760691	3883.313667	1768.402344	515.616699
13260.760691	3883.313667	1767.394531	748.520386
13260.760691	3883.313667	1766.386719	504.044678
13260.760691	3883.313667	1765.378906	602.941223
13260.760691	3883.313667	1764.371094	490.225464
13260.760691	3883.313667	1763.362305	433.839294
13260.760691	3883.313667	1762.354492	521.506470
13260.760691	3883.313667	1761.345703	518.489502
13260.760691	3883.313667	1760.336914	453.301544
13260.760691	3883.313667	1759.328125	565.207520
13260.760691	3883.313667	1758.318359	330.698822
13260.760691	3883.313667	1757.308594	228.290573
13260.760691	3883.313667	1756.299805	239.003937
13260.760691	3883.313667	1755.290039	469.204895
13260.760691	3883.313667	1754.279297	360.298737
13260.760691	3883.313667	1753.269531	295.837128
13260.760691	3883.313667	1752.258789	405.813873
13260.760691	3883.313667	1751.249023	406.406128
13260.760691	3883.313667	1750.238281	233.750122
13260.760691	3883.313667	1749.226563	226.012329
13260.760691	3883.313667	1748.215820	359.543427
13260.760691	3883.313667	1747.204102	121.357498
13260.760691	3883.313667	1746.193359	303.281219
13260.760691	3883.313667	1745.181641	281.334442
13260.760691	3883.313667	1744.168945	211.513168
13260.760691	3883.313667	1743.157227	60.874310
13260.760691	3883.313667	1742.144531	223.656265
13260.760691	3883.313667	1741.132813	182.815842
13260.760691	3883.313667	1740.120117	138.981964
13260.760691	3883.313667	1739.106445	16.647165
13260.760691	3883.313667	1738.093750	66.023865
13260.760691	3883.313667	1737.080078	69.914627
13260.760691	3883.313667	1736.067383	-30.513577
13260.760691	3883.313667	1735.053711	87.721397
13260.760691	3883.313667	1734.040039	122.800850
13260.760691	3883.313667	1733.025391	13.440853
13260.760691	3883.313667	1732.011719	-155.340088
13260.760691	3883.313667	1730.997070	111.153816
13260.760691	3883.313667	1729.982422	204.987320
13260.760691	3883.313667	1728.967773	-10.337612
13260.760691	3883.313667	1727.952148	155.223801
13260.760691	3883.313667	1726.937500	2.355264
13260.760691	3883.313667	1725.921875	114.867538
13260.760691	3883.313667	1724.906250	123.193855
13260.760691	3883.313667	1723.890625	302.678406
13260.760691	3883.313667	1722.875000	288.601013
13260.760691	3883.313667	1721.858398	259.764404
13260.760691	3883.313667	1720.841797	166.854370
13260.760691	3883.313667	1719.825195	212.100204
13260.760691	3883.313667	1718.808594	256.738129
13260.760691	3883.313667	1717.791992	585.141174
13260.760691	3883.313667	1716.774414	463.973083
13260.760691	3883.313667	1715.756836	349.313385
13260.760691	3883.313667	1714.739258	548.854675
13260.760691	3883.313667	1713.721680	583.351257
13260.760691	3883.313667	1712.704102	574.990906
13260.760691	3883.313667	1711.685547	727.969299
13260.760691	3883.313667	1710.667969	887.414795
13260.760691	3883.313667	1709.649414	1090.747925
13260.760691	3883.313667	1708.630859	695.168884
13260.760691	3883.313667	1707.611328	756.514099
13260.760691	3883.313667	1706.592773	714.141907
13260.760691	3883.313667	1705.573242	736.810059
13260.760691	3883.313667	1704.553711	559.638855
13260.760691	3883.313667	1703.534180	745.277039
13260.760691	3883.313667	1702.513672	604.482605
13260.760691	3883.313667	1701.494141	552.288391
13260.760691	3883.313667	1700.473633	412.822357
13260.760691	3883.313667	1699.453125	190.887604
13260.760691	3883.313667	1698.432617	378.277618
13260.760691	3883.313667	1697.412109	190.464615
13260.760691	3883.313667	1696.390625	72.337021
13260.760691	3883.313667	1695.369141	190.085953
13260.760691	3883.313667	1694.347656	-137.309265
13260.760691	3883.313667	1693.326172	185.237183
13260.760691	3883.313667	1692.304688	-161.797180
13260.760691	3883.313667	1691.282227	-193.599228
13260.760691	3883.313667	1690.260742	-158.032837
13260.760691	3883.313667	1689.238281	33.551334
13260.760691	3883.313667	1688.214844	-415.897644
13260.760691	3883.313667	1687.192383	-239.376419
13260.760691	3883.313667	1686.168945	-383.565308
13260.760691	3883.313667	1685.146484	16.114233
13260.760691	3883.313667	1684.123047	-122.056931
13260.760691	3883.313667	1683.099609	-375.075562
13260.760691	3883.313667	1682.075195	-341.424927
13260.760691	3883.313667	1681.051758	-357.207245
13260.760691	3883.313667	1680.027344	-126.184959
13260.760691	3883.313667	1679.002930	-143.032471
13260.760691	3883.313667	1677.978516	-148.679565
13260.760691	3883.313667	1676.953125	-364.765594
13260.760691	3883.313667	1675.928711	-159.106049
13260.760691	3883.313667	1674.903320	-261.790436
13260.760691	3883.313667	1673.877930	-211.052322
13260.760691	3883.313667	1672.852539	-277.298737
13260.760691	3883.313667	1671.826172	-3.871897
13260.760691	3883.313667	1670.800781	57.109390
13260.760691	3883.313667	1669.774414	-31.503721
13260.760691	3883.313667	1668.748047	179.878754
13260.760691	3883.313667	1667.721680	223.130356
13260.760691	3883.313667	1666.694336	272.850616
13260.760691	3883.313667	1665.667969	345.493103
13260.760691	3883.313667	1664.640625	580.493469
13260.760691	3883.313667	1663.613281	575.390991
13260.760691	3883.313667	1662.585938	879.236328
13260.760691	3883.313667	1661.557617	1124.353027
13260.760691	3883.313667	1660.530273	1334.200562
13260.760691	3883.313667	1659.501953	1148.328247
13260.760691	3883.313667	1658.473633	1777.912354
13260.760691	3883.313667	1657.444336	1481.986450
13260.760691	3883.313667	1656.416016	1910.736938
13260.760691	3883.313667	1655.386719	2373.719238
13260.760691	3883.313667	1654.358398	2905.923828
13260.760691	3883.313667	1653.328125	2996.255127
13260.760691	3883.313667	1652.298828	4086.819092
13260.760691	3883.313667	1651.269531	4438.566406
13260.760691	3883.313667	1650.239258	4815.286133
13260.760691	3883.313667	1649.208984	5309.859863
13260.760691	3883.313667	1648.178711	5776.091309
13260.760691	3883.313667	1647.148438	6128.190918
13260.760691	3883.313667	1646.117188	6565.556152
13260.760691	3883.313667	1645.086914	6900.537109
13260.760691	3883.313667	1644.055664	7019.452148
13260.760691	3883.313667	1643.024414	7290.980469
13260.760691	3883.313667	1641.992188	7216.814453
13260.760691	3883.313667	1640.960938	7334.759277
13260.760691	3883.313667	1639.928711	7512.516113
13260.760691	3883.313667	1638.896484	7532.485840
13260.760691	3883.313667	1637.864258	7707.306641
13260.760691	3883.313667	1636.832031	7476.744629
13260.760691	3883.313667	1635.798828	7551.416504
13260.760691	3883.313667	1634.766602	7764.742676
13260.760691	3883.313667	1633.733398	7922.144531
13260.760691	3883.313667	1632.699219	8042.166504
13260.760691	3883.313667	1631.666016	8187.455078
13260.760691	3883.313667	1630.632813	8843.421875
13260.760691	3883.313667	1629.598633	8925.585938
13260.760691	3883.313667	1628.564453	9432.757813
13260.760691	3883.313667	1627.530273	9814.769531
13260.760691	3883.313667	1626.495117	10836.278320
13260.760691	3883.313667	1625.460938	11169.007813
13260.760691	3883.313667	1624.425781	11609.881836
13260.760691	3883.313667	1623.390625	11604.819336
13260.760691	3883.313667	1622.355469	11883.533203
13260.760691	3883.313667	1621.319336	12533.475586
13260.760691	3883.313667	1620.284180	12163.209961
13260.760691	3883.313667	1619.248047	11684.427734
13260.760691	3883.313667	1618.211914	11643.955078
13260.760691	3883.313667	1617.174805	11873.103516
13260.760691	3883.313667	1616.138672	11783.958008
13260.760691	3883.313667	1615.101563	12360.860352
13260.760691	3883.313667	1614.065430	11930.335938
13260.760691	3883.313667	1613.027344	12114.958984
13260.760691	3883.313667	1611.990234	12608.244141
13260.760691	3883.313667	1610.953125	12601.405273
13260.760691	3883.313667	1609.915039	12691.129883
13260.760691	3883.313667	1608.876953	12912.001953
13260.760691	3883.313667	1607.838867	13243.228516
13260.760691	3883.313667	1606.800781	13638.723633
13260.760691	3883.313667	1605.761719	13946.481445
13260.760691	3883.313667	1604.723633	13796.326172
13260.760691	3883.313667	1603.684570	14126.870117
13260.760691	3883.313667	1602.644531	14744.648438
13260.760691	3883.313667	1601.605469	14904.686523
13260.760691	3883.313667	1600.566406	14880.735352
13260.760691	3883.313667	1599.526367	15527.862305
13260.760691	3883.313667	1598.486328	15921.956055
13260.760691	3883.313667	1597.446289	16384.837891
13260.760691	3883.313667	1596.405273	16443.166016
13260.760691	3883.313667	1595.365234	16931.076172
13260.760691	3883.313667	1594.324219	17903.248047
13260.760691	3883.313667	1593.283203	17986.605469
13260.760691	3883.313667	1592.242188	18595.613281
13260.760691	3883.313667	1591.200195	19034.521484
13260.760691	3883.313667	1590.159180	19468.826172
13260.760691	3883.313667	1589.117188	20180.517578
13260.760691	3883.313667	1588.075195	20575.492188
13260.760691	3883.313667	1587.032227	21016.167969
13260.760691	3883.313667	1585.990234	22013.974609
13260.760691	3883.313667	1584.947266	21780.470703
13260.760691	3883.313667	1583.904297	21900.097656
13260.760691	3883.313667	1582.861328	21753.992188
13260.760691	3883.313667	1581.818359	22217.443359
13260.760691	3883.313667	1580.775391	22408.273438
13260.760691	3883.313667	1579.731445	22257.867188
13260.760691	3883.313667	1578.687500	21853.517578
13260.760691	3883.313667	1577.643555	21625.738281
13260.760691	3883.313667	1576.598633	22100.722656
13260.760691	3883.313667	1575.554688	22031.185547
13260.760691	3883.313667	1574.509766	22034.960938
13260.760691	3883.313667	1573.464844	21517.410156
13260.760691	3883.313667	1572.419922	21091.716797
13260.760691	3883.313667	1571.374023	21498.539063
13260.760691	3883.313667	1570.329102	21237.990234
13260.760691	3883.313667	1569.283203	20906.812500
13260.760691	3883.313667	1568.237305	20973.570313
13260.760691	3883.313667	1567.191406	21314.675781
13260.760691	3883.313667	1566.144531	20890.587891
13260.760691	3883.313667	1565.098633	20798.126953
13260.760691	3883.313667	1564.051758	20482.089844
13260.760691	3883.313667	1563.004883	21045.308594
13260.760691	3883.313667	1561.957031	20935.167969
13260.760691	3883.313667	1560.910156	21007.974609
13260.760691	3883.313667	1559.862305	20451.246094
13260.760691	3883.313667	1558.814453	20478.947266
13260.760691	3883.313667	1557.766602	21200.214844
13260.760691	3883.313667	1556.718750	21009.431641
13260.760691	3883.313667	1555.669922	21033.224609
13260.760691	3883.313667	1554.621094	21061.863281
13260.760691	3883.313667	1553.573242	21008.843750
13260.760691	3883.313667	1552.523438	21716.951172
13260.760691	3883.313667	1551.474609	21582.367188
13260.760691	3883.313667	1550.424805	21352.425781
13260.760691	3883.313667	1549.375000	21070.535156
13260.760691	3883.313667	1548.325195	21415.142578
13260.760691	3883.313667	1547.275391	21851.005859
13260.760691	3883.313667	1546.225586	22079.960938
13260.760691	3883.313667	1545.174805	21713.003906
13260.760691	3883.313667	1544.124023	21801.500000
13260.760691	3883.313667	1543.073242	22022.246094
13260.760691	3883.313667	1542.022461	21956.773438
13260.760691	3883.313667	1540.970703	22428.154297
13260.760691	3883.313667	1539.919922	22449.771484
13260.760691	3883.313667	1538.868164	22746.667969
13260.760691	3883.313667	1537.815430	23186.912109
13260.760691	3883.313667	1536.763672	23652.455078
13260.760691	3883.313667	1535.710938	23700.257813
13260.760691	3883.313667	1534.659180	23814.386719
13260.760691	3883.313667	1533.606445	23806.226563
13260.760691	3883.313667	1532.552734	23691.740234
13260.760691	3883.313667	1531.500000	22976.433594
13260.760691	3883.313667	1530.446289	23321.359375
13260.760691	3883.313667	1529.393555	23410.337891
13260.760691	3883.313667	1528.338867	22980.208984
13260.760691	3883.313667	1527.285156	22625.615234
13260.760691	3883.313667	1526.231445	22244.419922
13260.760691	3883.313667	1525.176758	22643.511719
13260.760691	3883.313667	1524.122070	22648.601563
13260.760691	3883.313667	1523.067383	22336.962891
13260.760691	3883.313667	1522.012695	22426.898438
13260.760691	3883.313667	1520.957031	22512.691406
13260.760691	3883.313667	1519.901367	23103.923828
13260.760691	3883.313667	1518.845703	22350.611328
13260.760691	3883.313667	1517.790039	22582.753906
13260.760691	3883.313667	1516.734375	21760.712891
13260.760691	3883.313667	1515.677734	21579.781250
13260.760691	3883.313667	1514.621094	21112.148438
13260.760691	3883.313667	1513.564453	20459.763672
13260.760691	3883.313667	1512.507813	19647.626953
13260.760691	3883.313667	1511.450195	18734.546875
13260.760691	3883.313667	1510.393555	18407.886719
13260.760691	3883.313667	1509.335938	17442.273438
13260.760691	3883.313667	1508.278320	17171.271484
13260.760691	3883.313667	1507.219727	16406.136719
13260.760691	3883.313667	1506.162109	15411.558594
13260.760691	3883.313667	1505.103516	14788.220703
13260.760691	3883.313667	1504.044922	14190.541992
13260.760691	3883.313667	1502.986328	14076.737305
13260.760691	3883.313667	1501.926758	13566.301758
13260.760691	3883.313667	1500.868164	12864.928711
13260.760691	3883.313667	1499.808594	13195.326172
13260.760691	3883.313667	1498.749023	12614.977539
13260.760691	3883.313667	1497.688477	12335.323242
13260.760691	3883.313667	1496.628906	11504.073242
13260.760691	3883.313667	1495.568359	11440.113281
13260.760691	3883.313667	1494.507813	11732.880859
13260.760691	3883.313667	1493.447266	11703.937500
13260.760691	3883.313667	1492.386719	10860.117188
13260.760691	3883.313667	1491.325195	10517.228516
13260.760691	3883.313667	1490.263672	10499.380859
13260.760691	3883.313667	1489.202148	10952.732422
13260.760691	3883.313667	1488.140625	9918.631836
13260.760691	3883.313667	1487.079102	9184.909180
13260.760691	3883.313667	1486.016602	9025.851563
13260.760691	3883.313667	1484.954102	9292.699219
13260.760691	3883.313667	1483.891602	8606.424805
13260.760691	3883.313667	1482.829102	7880.609375
13260.760691	3883.313667	1481.765625	6951.106934
13260.760691	3883.313667	1480.702148	6600.348145
13260.760691	3883.313667	1479.638672	6353.789063
13260.760691	3883.313667	1478.575195	5728.334473
13260.760691	3883.313667	1477.511719	5809.104492
13260.760691	3883.313667	1476.447266	5270.687012
13260.760691	3883.313667	1475.382813	4991.332520
13260.760691	3883.313667	1474.318359	4885.603027
13260.760691	3883.313667	1473.253906	4544.988281
13260.760691	3883.313667	1472.189453	4301.593262
13260.760691	3883.313667	1471.124023	4267.574219
13260.760691	3883.313667	1470.058594	3762.854736
13260.760691	3883.313667	1468.993164	3602.108887
13260.760691	3883.313667	1467.927734	3115.573486
13260.760691	3883.313667	1466.861328	2896.012939
13260.760691	3883.313667	1465.794922	2549.395020
13260.760691	3883.313667	1464.728516	2309.482910
13260.760691	3883.313667	1463.662109	2234.981934
13260.760691	3883.313667	1462.594727	2215.948486
13260.760691	3883.313667	1461.528320	2043.346313
13260.760691	3883.313667	1460.460938	1352.146240
13260.760691	3883.313667	1459.393555	1965.154663
13260.760691	3883.313667	1458.326172	1671.666382
13260.760691	3883.313667	1457.257813	1800.760254
13260.760691	3883.313667	1456.189453	1577.295288
13260.760691	3883.313667	1455.121094	1059.034668
13260.760691	3883.313667	1454.052734	1278.405396
13260.760691	3883.313667	1452.984375	1231.541748
13260.760691	3883.313667	1451.915039	849.560913
13260.760691	3883.313667	1450.845703	125.646225
13260.760691	3883.313667	1449.776367	727.033142
13260.760691	3883.313667	1448.707031	156.441498
13260.760691	3883.313667	1447.636719	275.866028
13260.760691	3883.313667	1446.567383	62.840210
13260.760691	3883.313667	1445.497070	38.962589
13260.760691	3883.313667	1444.425781	62.907898
13260.760691	3883.313667	1443.355469	187.642715
13260.760691	3883.313667	1442.285156	377.424622
13260.760691	3883.313667	1441.213867	227.138916
13260.760691	3883.313667	1440.142578	227.047272
13260.760691	3883.313667	1439.070313	111.965973
13260.760691	3883.313667	1437.999023	432.490997
13260.760691	3883.313667	1436.926758	735.528381
13260.760691	3883.313667	1435.854492	455.914978
13260.760691	3883.313667	1434.782227	587.354004
13260.760691	3883.313667	1433.709961	341.126892
13260.760691	3883.313667	1432.636719	354.858337
13260.760691	3883.313667	1431.563477	549.475769
13260.760691	3883.313667	1430.490234	-3.430965
13260.760691	3883.313667	1429.416992	426.102753
13260.760691	3883.313667	1428.343750	810.822815
13260.760691	3883.313667	1427.269531	617.458740
13260.760691	3883.313667	1426.195313	428.961456
13260.760691	3883.313667	1425.121094	74.189957
13260.760691	3883.313667	1424.046875	359.714081
13260.760691	3883.313667	1422.971680	554.093994
13260.760691	3883.313667	1421.896484	263.945587
13260.760691	3883.313667	1420.821289	454.830627
13260.760691	3883.313667	1419.746094	318.596100
13260.760691	3883.313667	1418.669922	216.281296
13260.760691	3883.313667	1417.594727	-68.139473
13260.760691	3883.313667	1416.518555	616.511414
13260.760691	3883.313667	1415.442383	17.001547
13260.760691	3883.313667	1414.365234	-63.650745
13260.760691	3883.313667	1413.289063	-300.519928
13260.760691	3883.313667	1412.211914	-460.657379
13260.760691	3883.313667	1411.134766	92.517723
13260.760691	3883.313667	1410.057617	342.480682
13260.760691	3883.313667	1408.979492	87.096809
13260.760691	3883.313667	1407.902344	104.229675
13260.760691	3883.313667	1406.824219	605.271973
13260.760691	3883.313667	1405.746094	1042.832153
13260.760691	3883.313667	1404.666992	934.867737
13260.760691	3883.313667	1403.588867	1355.830444
13260.760691	3883.313667	1402.509766	1367.618042
13260.760691	3883.313667	1401.430664	1656.484497
13260.760691	3883.313667	1400.351563	1993.693604
13260.760691	3883.313667	1399.271484	1957.729370
13260.760691	3883.313667	1398.192383	1577.415405
13260.760691	3883.313667	1397.112305	1677.663818
13260.760691	3883.313667	1396.031250	1729.834106
13260.760691	3883.313667	1394.951172	1711.628052
13260.760691	3883.313667	1393.871094	1545.515259
13260.760691	3883.313667	1392.790039	1698.616577
13260.760691	3883.313667	1391.708984	1502.796265
13260.760691	3883.313667	1390.626953	1696.176270
13260.760691	3883.313667	1389.545898	1928.143066
13260.760691	3883.313667	1388.463867	2182.177490
13260.760691	3883.313667	1387.381836	2164.735107
13260.760691	3883.313667	1386.299805	2488.891113
13260.760691	3883.313667	1385.217773	2224.248535
13260.760691	3883.313667	1384.134766	2613.960205
13260.760691	3883.313667	1383.051758	2923.618896
13260.760691	3883.313667	1381.968750	2458.468262
13260.760691	3883.313667	1380.885742	2657.567383
13260.760691	3883.313667	1379.802734	2875.624756
13260.760691	3883.313667	1378.718750	2793.667236
13260.760691	3883.313667	1377.634766	2873.276123
13260.760691	3883.313667	1376.550781	2874.546387
13260.760691	3883.313667	1375.465820	2922.107910
13260.760691	3883.313667	1374.381836	3285.984619
13260.760691	3883.313667	1373.296875	3261.991211
13260.760691	3883.313667	1372.211914	3126.822998
13260.760691	3883.313667	1371.126953	3504.871582
13260.760691	3883.313667	1370.041016	2915.609375
13260.760691	3883.313667	1368.955078	2617.819824
13260.760691	3883.313667	1367.869141	2871.901855
13260.760691	3883.313667	1366.783203	2740.503906
13260.760691	3883.313667	1365.697266	2801.790771
13260.760691	3883.313667	1364.610352	2244.991699
13260.760691	3883.313667	1363.523438	1979.566406
13260.760691	3883.313667	1362.436523	1841.495605
13260.760691	3883.313667	1361.349609	1534.189331
13260.760691	3883.313667	1360.261719	1667.692139
13260.760691	3883.313667	1359.174805	1220.412109
13260.760691	3883.313667	1358.086914	1010.200073
13260.760691	3883.313667	1356.998047	1270.772461
13260.760691	3883.313667	1355.910156	1452.049438
13260.760691	3883.313667	1354.821289	1770.533691
13260.760691	3883.313667	1353.732422	1099.300049
13260.760691	3883.313667	1352.643555	1551.192017
13260.760691	3883.313667	1351.554688	1860.967163
13260.760691	3883.313667	1350.464844	1759.314941
13260.760691	3883.313667	1349.375000	2237.089111
13260.760691	3883.313667	1348.285156	2369.996582
13260.760691	3883.313667	1347.195313	1979.950684
13260.760691	3883.313667	1346.105469	2066.943115
13260.760691	3883.313667	1345.014648	1982.962891
13260.760691	3883.313667	1343.923828	1655.247559
13260.760691	3883.313667	1342.833008	1826.347168
13260.760691	3883.313667	1341.741211	1792.697632
13260.760691	3883.313667	1340.650391	1810.195313
13260.760691	3883.313667	1339.558594	1931.861450
13260.760691	3883.313667	1338.466797	1920.082886
13260.760691	3883.313667	1337.374023	1725.332520
13260.760691	3883.313667	1336.282227	1793.811157
13260.760691	3883.313667	1335.189453	1413.446045
13260.760691	3883.313667	1334.096680	1639.344727
13260.760691	3883.313667	1333.003906	2017.107910
13260.760691	3883.313667	1331.910156	1963.843384
13260.760691	3883.313667	1330.817383	1637.586670
13260.760691	3883.313667	1329.723633	1813.785522
13260.760691	3883.313667	1328.629883	1995.673706
13260.760691	3883.313667	1327.535156	2141.286621
13260.760691	3883.313667	1326.441406	2267.441162
13260.760691	3883.313667	1325.346680	2129.283691
13260.760691	3883.313667	1324.251953	1932.651733
13260.760691	3883.313667	1323.156250	2250.125244
13260.760691	3883.313667	1322.061523	1998.743652
13260.760691	3883.313667	1320.965820	2029.469727
13260.760691	3883.313667	1319.870117	1975.369263
13260.760691	3883.313667	1318.774414	1646.276733
13260.760691	3883.313667	1317.678711	1388.847046
13260.760691	3883.313667	1316.582031	1785.854126
13260.760691	3883.313667	1315.485352	1595.072754
13260.760691	3883.313667	1314.388672	1477.700562
13260.760691	3883.313667	1313.291016	1449.309814
13260.760691	3883.313667	1312.194336	1177.068481
13260.760691	3883.313667	1311.096680	1492.481934
13260.760691	3883.313667	1309.999023	1418.596313
13260.760691	3883.313667	1308.901367	1708.089355
13260.760691	3883.313667	1307.802734	1922.257935
13260.760691	3883.313667	1306.705078	2047.086426
13260.760691	3883.313667	1305.606445	2359.712646
13260.760691	3883.313667	1304.506836	2283.511230
13260.760691	3883.313667	1303.408203	2515.354736
13260.760691	3883.313667	1302.308594	2935.473389
13260.760691	3883.313667	1301.208984	3000.234131
13260.760691	3883.313667	1300.109375	3323.685547
13260.760691	3883.313667	1299.009766	2944.107666
13260.760691	3883.313667	1297.909180	3057.670654
13260.760691	3883.313667	1296.808594	3245.588135
13260.760691	3883.313667	1295.708008	3084.779785
13260.760691	3883.313667	1294.607422	2967.907715
13260.760691	3883.313667	1293.506836	2747.517090
13260.760691	3883.313667	1292.405273	2887.819580
13260.760691	3883.313667	1291.303711	2776.404785
13260.760691	3883.313667	1290.202148	3084.017090
13260.760691	3883.313667	1289.099609	2862.013428
13260.760691	3883.313667	1287.998047	2769.971680
13260.760691	3883.313667	1286.895508	3157.349609
13260.760691	3883.313667	1285.792969	3366.130127
13260.760691	3883.313667	1284.689453	3034.339600
13260.760691	3883.313667	1283.586914	2981.701416
13260.760691	3883.313667	1282.483398	2776.906494
13260.760691	3883.313667	1281.379883	2919.549805
13260.760691	3883.313667	1280.276367	2867.489014
13260.760691	3883.313667	1279.171875	2675.169189
13260.760691	3883.313667	1278.067383	2611.262451
13260.760691	3883.313667	1276.962891	2439.292480
13260.760691	3883.313667	1275.858398	2289.909180
13260.760691	3883.313667	1274.753906	2482.718506
13260.760691	3883.313667	1273.648438	2714.301270
13260.760691	3883.313667	1272.542969	2834.125244
13260.760691	3883.313667	1271.437500	2746.962402
13260.760691	3883.313667	1270.331055	2527.173096
13260.760691	3883.313667	1269.225586	2497.430176
13260.760691	3883.313667	1268.119141	2660.402832
13260.760691	3883.313667	1267.012695	2907.654297
13260.760691	3883.313667	1265.906250	2884.342041
13260.760691	3883.313667	1264.798828	3022.863525
13260.760691	3883.313667	1263.691406	2808.700684
13260.760691	3883.313667	1262.583984	2678.603271
13260.760691	3883.313667	1261.476563	2679.770508
13260.760691	3883.313667	1260.368164	2611.088379
13260.760691	3883.313667	1259.260742	2552.431152
13260.760691	3883.313667	1258.152344	2290.391357
13260.760691	3883.313667	1257.043945	1971.805786
13260.760691	3883.313667	1255.934570	2067.976807
13260.760691	3883.313667	1254.825195	2144.830566
13260.760691	3883.313667	1253.716797	2088.013184
13260.760691	3883.313667	1252.606445	2183.109131
13260.760691	3883.313667	1251.497070	2008.504395
13260.760691	3883.313667	1250.387695	1946.033203
13260.760691	3883.313667	1249.277344	1821.729614
13260.760691	3883.313667	1248.166992	2121.038086
13260.760691	3883.313667	1247.055664	2136.413086
13260.760691	3883.313667	1245.945313	1868.319092
13260.760691	3883.313667	1244.833984	2057.625488
13260.760691	3883.313667	1243.722656	1983.843140
13260.760691	3883.313667	1242.611328	1900.446655
13260.760691	3883.313667	1241.499023	2331.265381
13260.760691	3883.313667	1240.387695	2230.361328
13260.760691	3883.313667	1239.275391	2228.430664
13260.760691	3883.313667	1238.162109	2044.204102
13260.760691	3883.313667	1237.049805	2288.416992
13260.760691	3883.313667	1235.936523	2318.795166
13260.760691	3883.313667	1234.823242	2265.534424
13260.760691	3883.313667	1233.709961	2146.599609
13260.760691	3883.313667	1232.596680	2000.887695
13260.760691	3883.313667	1231.482422	1746.129028
13260.760691	3883.313667	1230.369141	2015.347412
13260.760691	3883.313667	1229.253906	2045.199219
13260.760691	3883.313667	1228.139648	1875.602539
13260.760691	3883.313667	1227.025391	1657.544189
13260.760691	3883.313667	1225.910156	1833.985229
13260.760691	3883.313667	1224.794922	1356.509888
13260.760691	3883.313667	1223.679688	1682.306030
13260.760691	3883.313667	1222.563477	1578.911011
13260.760691	3883.313667	1221.447266	1766.710083
13260.760691	3883.313667	1220.331055	1796.642822
13260.760691	3883.313667	1219.214844	1899.864014
13260.760691	3883.313667	1218.098633	1987.536133
13260.760691	3883.313667	1216.981445	1744.765015
13260.760691	3883.313667	1215.864258	1847.070679
13260.760691	3883.313667	1214.747070	1979.777832
13260.760691	3883.313667	1213.629883	1915.033447
13260.760691	3883.313667	1212.511719	1703.929688
13260.760691	3883.313667	1211.393555	1715.607666
13260.760691	3883.313667	1210.275391	1756.368896
13260.760691	3883.313667	1209.157227	1575.721680
13260.760691	3883.313667	1208.038086	1631.365601
13260.760691	3883.313667	1206.918945	1453.225220
13260.760691	3883.313667	1205.799805	1271.828857
13260.760691	3883.313667	1204.680664	1174.073486
13260.760691	3883.313667	1203.560547	1114.980713
13260.760691	3883.313667	1202.441406	1198.314331
13260.760691	3883.313667	1201.321289	823.605042
13260.760691	3883.313667	1200.200195	1002.155884
13260.760691	3883.313667	1199.080078	1091.047974
13260.760691	3883.313667	1197.958984	1096.690186
13260.760691	3883.313667	1196.837891	1061.656616
13260.760691	3883.313667	1195.716797	1263.272705
13260.760691	3883.313667	1194.594727	1501.973145
13260.760691	3883.313667	1193.473633	1666.316895
13260.760691	3883.313667	1192.351563	1593.518433
13260.760691	3883.313667	1191.229492	1346.348145
13260.760691	3883.313667	1190.106445	1116.230713
13260.760691	3883.313667	1188.984375	1163.290771
13260.760691	3883.313667	1187.861328	1171.159546
13260.760691	3883.313667	1186.738281	1260.090698
13260.760691	3883.313667	1185.614258	1451.719482
13260.760691	3883.313667	1184.491211	1313.673462
13260.760691	3883.313667	1183.367188	1317.458252
13260.760691	3883.313667	1182.243164	1563.796753
13260.760691	3883.313667	1181.119141	1621.004883
13260.760691	3883.313667	1179.994141	1575.182007
13260.760691	3883.313667	1178.869141	1917.119995
13260.760691	3883.313667	1177.744141	1889.550903
13260.760691	3883.313667	1176.619141	1642.824097
13260.760691	3883.313667	1175.493164	1629.083130
13260.760691	3883.313667	1174.368164	1426.107788
13260.760691	3883.313667	1173.242188	1748.988647
13260.760691	3883.313667	1172.115234	1421.308838
13260.760691	3883.313667	1170.989258	1467.591553
13260.760691	3883.313667	1169.862305	1456.434082
13260.760691	3883.313667	1168.735352	1516.520874
13260.760691	3883.313667	1167.608398	1351.383179
13260.760691	3883.313667	1166.481445	1364.390259
13260.760691	3883.313667	1165.353516	1278.111938
13260.760691	3883.313667	1164.225586	945.821899
13260.760691	3883.313667	1163.097656	709.113831
13260.760691	3883.313667	1161.968750	822.223389
13260.760691	3883.313667	1160.840820	687.263794
13260.760691	3883.313667	1159.711914	871.358154
13260.760691	3883.313667	1158.583008	569.050781
13260.760691	3883.313667	1157.453125	358.547058
13260.760691	3883.313667	1156.324219	399.903839
13260.760691	3883.313667	1155.194336	82.195541
13260.760691	3883.313667	1154.064453	-74.840996
13260.760691	3883.313667	1152.933594	-9.342920
13260.760691	3883.313667	1151.803711	-78.212227
13260.760691	3883.313667	1150.672852	-68.364548
13260.760691	3883.313667	1149.541992	-64.155640
13260.760691	3883.313667	1148.411133	-38.637489
13260.760691	3883.313667	1147.279297	-157.219818
13260.760691	3883.313667	1146.147461	110.480850
13260.760691	3883.313667	1145.015625	240.963425
13260.760691	3883.313667	1143.883789	124.560875
13260.760691	3883.313667	1142.750977	430.284454
13260.760691	3883.313667	1141.619141	602.266724
13260.760691	3883.313667	1140.486328	486.669647
13260.760691	3883.313667	1139.352539	599.399780
13260.760691	3883.313667	1138.219727	557.444946
13260.760691	3883.313667	1137.085938	827.000793
13260.760691	3883.313667	1135.952148	883.414551
13260.760691	3883.313667	1134.818359	1037.244263
13260.760691	3883.313667	1133.683594	943.413391
13260.760691	3883.313667	1132.549805	1130.485107
13260.760691	3883.313667	1131.415039	835.216858
13260.760691	3883.313667	1130.279297	762.816223
13260.760691	3883.313667	1129.144531	653.288025
13260.760691	3883.313667	1128.008789	1002.852722
13260.760691	3883.313667	1126.873047	801.874023
13260.760691	3883.313667	1125.737305	862.551086
13260.760691	3883.313667	1124.601563	734.795715
13260.760691	3883.313667	1123.464844	1091.025146
13260.760691	3883.313667	1122.328125	1074.678711
13260.760691	3883.313667	1121.191406	695.822937
13260.760691	3883.313667	1120.054688	711.447998
13260.760691	3883.313667	1118.916992	445.763031
13260.760691	3883.313667	1117.779297	722.890503
13260.760691	3883.313667	1116.641602	467.781860
13260.760691	3883.313667	1115.503906	438.593536
13260.760691	3883.313667	1114.365234	353.596039
13260.760691	3883.313667	1113.226563	496.866516
13260.760691	3883.313667	1112.087891	614.938538
13260.760691	3883.313667	1110.949219	854.709106
13260.760691	3883.313667	1109.809570	963.818665
13260.760691	3883.313667	1108.669922	612.507935
13260.760691	3883.313667	1107.530273	722.279541
13260.760691	3883.313667	1106.390625	566.770874
13260.760691	3883.313667	1105.250000	428.451263
13260.760691	3883.313667	1104.109375	61.465469
13260.760691	3883.313667	1102.968750	-176.334167
13260.760691	3883.313667	1101.828125	-198.392075
13260.760691	3883.313667	1100.686523	61.449409
13260.760691	3883.313667	1099.544922	-177.358749
13260.760691	3883.313667	1098.403320	-205.858490
13260.760691	3883.313667	1097.261719	-54.265530
13260.760691	3883.313667	1096.120117	-313.121704
13260.760691	3883.313667	1094.977539	8.360035
13260.760691	3883.313667	1093.834961	4.607260
13260.760691	3883.313667	1092.691406	-39.634575
13260.760691	3883.313667	1091.548828	-242.040329
13260.760691	3883.313667	1090.405273	-15.454593
13260.760691	3883.313667	1089.261719	-199.545883
13260.760691	3883.313667	1088.118164	-83.595894
13260.760691	3883.313667	1086.973633	-136.466141
13260.760691	3883.313667	1085.829102	9.269833
13260.760691	3883.313667	1084.684570	33.896873
13260.760691	3883.313667	1083.540039	-124.618469
13260.760691	3883.313667	1082.395508	-172.094757
13260.760691	3883.313667	1081.250000	-210.746552
13260.760691	3883.313667	1080.104492	-205.494995
13260.760691	3883.313667	1078.958984	-189.752258
13260.760691	3883.313667	1077.812500	-351.546295
13260.760691	3883.313667	1076.666016	-238.543167
13260.760691	3883.313667	1075.519531	-96.190010
13260.760691	3883.313667	1074.373047	-60.170261
13260.760691	3883.313667	1073.226563	-63.454426
13260.760691	3883.313667	1072.079102	313.394836
13260.760691	3883.313667	1070.931641	302.260345
13260.760691	3883.313667	1069.784180	195.433472
13260.760691	3883.313667	1068.635742	95.819420
13260.760691	3883.313667	1067.487305	154.063934
13260.760691	3883.313667	1066.338867	159.538635
13260.760691	3883.313667	1065.190430	130.165924
13260.760691	3883.313667	1064.041992	-128.328979
13260.760691	3883.313667	1062.892578	15.158782
13260.760691	3883.313667	1061.743164	-54.863670
13260.760691	3883.313667	1060.593750	100.336838
13260.760691	3883.313667	1059.443359	55.131824
13260.760691	3883.313667	1058.292969	301.676117
13260.760691	3883.313667	1057.142578	99.699097
13260.760691	3883.313667	1055.992188	196.859924
13260.760691	3883.313667	1054.841797	116.304115
13260.760691	3883.313667	1053.690430	284.032562
13260.760691	3883.313667	1052.539063	152.750839
13260.760691	3883.313667	1051.387695	138.366364
13260.760691	3883.313667	1050.235352	149.326385
13260.760691	3883.313667	1049.083984	78.360672
13260.760691	3883.313667	1047.931641	-97.223587
13260.760691	3883.313667	1046.778320	-82.832375
13260.760691	3883.313667	1045.625977	372.135437
13260.760691	3883.313667	1044.472656	380.063202
13260.760691	3883.313667	1043.319336	480.565887
13260.760691	3883.313667	1042.166016	134.988754
13260.760691	3883.313667	1041.012695	-48.045601
13260.760691	3883.313667	1039.858398	100.434807
13260.760691	3883.313667	1038.704102	185.216370
13260.760691	3883.313667	1037.549805	200.667938
13260.760691	3883.313667	1036.394531	-137.688599
13260.760691	3883.313667	1035.239258	116.090523
13260.760691	3883.313667	1034.083984	157.024673
13260.760691	3883.313667	1032.928711	3.769965
13260.760691	3883.313667	1031.773438	-214.290894
13260.760691	3883.313667	1030.617188	73.292297
13260.760691	3883.313667	1029.460938	132.912384
13260.760691	3883.313667	1028.304688	140.930725
13260.760691	3883.313667	1027.147461	101.292763
13260.760691	3883.313667	1025.991211	218.253998
13260.760691	3883.313667	1024.833984	130.910110
13260.760691	3883.313667	1023.675781	138.213486
13260.760691	3883.313667	1022.518555	174.398148
13260.760691	3883.313667	1021.360352	415.483826
13260.760691	3883.313667	1020.202148	230.229492
13260.760691	3883.313667	1019.043945	-58.690731
13260.760691	3883.313667	1017.884766	340.305145
13260.760691	3883.313667	1016.726563	208.473923
13260.760691	3883.313667	1015.567383	55.269958
13260.760691	3883.313667	1014.407227	58.644009
13260.760691	3883.313667	1013.248047	218.194595
13260.760691	3883.313667	1012.087891	318.577545
13260.760691	3883.313667	1010.927734	-13.142740
13260.760691	3883.313667	1009.767578	78.196411
13260.760691	3883.313667	1008.606445	-108.260620
13260.760691	3883.313667	1007.446289	-38.355614
13260.760691	3883.313667	1006.285156	152.668060
13260.760691	3883.313667	1005.123047	42.784878
13260.760691	3883.313667	1003.961914	-91.009201
13260.760691	3883.313667	1002.799805	-649.746216
13260.760691	3883.313667	1001.637695	-301.548798
13260.760691	3883.313667	1000.475586	-168.111359
13260.760691	3883.313667	999.312500	-42.840309
13260.760691	3883.313667	998.149414	2.074325
13260.760691	3883.313667	996.986328	-67.991531
13260.760691	3883.313667	995.823242	17.539253
13260.760691	3883.313667	994.659180	-1.441856
13260.760691	3883.313667	993.496094	-362.599884
13260.760691	3883.313667	992.332031	-268.559296
13260.760691	3883.313667	991.166992	65.008316
13260.760691	3883.313667	990.002930	189.998123
13260.760691	3883.313667	988.837891	-105.768532
13260.760691	3883.313667	987.672852	-71.465416
13260.760691	3883.313667	986.506836	96.990753
13260.760691	3883.313667	985.341797	-22.725489
13260.760691	3883.313667	984.175781	286.849915
13260.760691	3883.313667	983.009766	277.368439
13260.760691	3883.313667	981.843750	279.089142
13260.760691	3883.313667	980.676758	233.811035
13260.760691	3883.313667	979.509766	152.387543
13260.760691	3883.313667	978.342773	50.692997
13260.760691	3883.313667	977.175781	-13.849423
13260.760691	3883.313667	976.007813	41.642475
13260.760691	3883.313667	974.839844	73.888321
13260.760691	3883.313667	973.671875	195.149231
13260.760691	3883.313667	972.503906	222.108215
13260.760691	3883.313667	971.334961	170.623260
13260.760691	3883.313667	970.166016	434.879761
13260.760691	3883.313667	968.997070	428.658386
13260.760691	3883.313667	967.828125	888.214539
13260.760691	3883.313667	966.658203	1211.874146
13260.760691	3883.313667	965.488281	1252.856689
13260.760691	3883.313667	964.318359	1326.597168
13260.760691	3883.313667	963.148438	1288.313965
13260.760691	3883.313667	961.977539	1378.677979
13260.760691	3883.313667	960.806641	1229.218140
13260.760691	3883.313667	959.635742	1209.658447
13260.760691	3883.313667	958.463867	1186.820068
13260.760691	3883.313667	957.292969	1190.102417
13260.760691	3883.313667	956.121094	1182.768799
13260.760691	3883.313667	954.948242	1153.152100
13260.760691	3883.313667	953.776367	1304.487305
13260.760691	3883.313667	952.603516	1347.973877
13260.760691	3883.313667	951.430664	1307.114746
13260.760691	3883.313667	950.257813	1591.548340
13260.760691	3883.313667	949.084961	1537.522217
13260.760691	3883.313667	947.911133	1689.560913
13260.760691	3883.313667	946.737305	1861.457275
13260.760691	3883.313667	945.563477	1579.931396
13260.760691	3883.313667	944.388672	1923.103149
13260.760691	3883.313667	943.213867	2055.898682
13260.760691	3883.313667	942.039063	2254.725586
13260.760691	3883.313667	940.864258	2066.864746
13260.760691	3883.313667	939.688477	2291.316406
13260.760691	3883.313667	938.513672	2484.662842
13260.760691	3883.313667	937.337891	2216.904541
13260.760691	3883.313667	936.161133	2072.152344
13260.760691	3883.313667	934.985352	1945.199951
13260.760691	3883.313667	933.808594	1867.068848
13260.760691	3883.313667	932.631836	1806.791504
13260.760691	3883.313667	931.454102	1287.926025
13260.760691	3883.313667	930.277344	1109.485718
13260.760691	3883.313667	929.099609	777.487427
13260.760691	3883.313667	927.921875	742.581177
13260.760691	3883.313667	926.743164	623.062744
13260.760691	3883.313667	925.565430	324.225830
13260.760691	3883.313667	924.386719	347.929901
13260.760691	3883.313667	923.208008	87.429001
13260.760691	3883.313667	922.028320	418.084930
13260.760691	3883.313667	920.849609	119.068962
13260.760691	3883.313667	919.669922	117.751579
13260.760691	3883.313667	919.474609	334.062378
13260.760691	3883.313667	918.309570	474.931366
13260.760691	3883.313667	917.143555	664.240479
13260.760691	3883.313667	915.977539	848.271423
13260.760691	3883.313667	914.810547	490.231018
13260.760691	3883.313667	913.644531	896.402649
13260.760691	3883.313667	912.477539	806.630249
13260.760691	3883.313667	911.310547	916.082520
13260.760691	3883.313667	910.143555	499.270325
13260.760691	3883.313667	908.975586	703.081909
13260.760691	3883.313667	907.807617	758.666382
13260.760691	3883.313667	906.639648	1013.265198
13260.760691	3883.313667	905.471680	976.770020
13260.760691	3883.313667	904.303711	853.480835
13260.760691	3883.313667	903.134766	750.595947
13260.760691	3883.313667	901.965820	749.721802
13260.760691	3883.313667	900.796875	692.701233
13260.760691	3883.313667	899.626953	635.658142
13260.760691	3883.313667	898.457031	871.722473
13260.760691	3883.313667	897.287109	860.455811
13260.760691	3883.313667	896.117188	999.484009
13260.760691	3883.313667	894.947266	1062.003296
13260.760691	3883.313667	893.776367	755.170654
13260.760691	3883.313667	892.605469	878.766357
13260.760691	3883.313667	891.434570	1012.469055
13260.760691	3883.313667	890.262695	1163.910034
13260.760691	3883.313667	889.091797	1109.147339
13260.760691	3883.313667	887.919922	978.060120
13260.760691	3883.313667	886.748047	1022.532104
13260.760691	3883.313667	885.575195	1049.167236
13260.760691	3883.313667	884.403320	968.994202
13260.760691	3883.313667	883.230469	939.690674
13260.760691	3883.313667	882.057617	1294.181519
13260.760691	3883.313667	880.883789	906.517639
13260.760691	3883.313667	879.710938	1067.788330
13260.760691	3883.313667	878.537109	1030.866333
13260.760691	3883.313667	877.362305	971.109680
13260.760691	3883.313667	876.188477	880.917908
13260.760691	3883.313667	875.013672	704.464722
13260.760691	3883.313667	873.839844	611.854492
13260.760691	3883.313667	872.664063	382.268524
13260.760691	3883.313667	871.489258	507.973511
13260.760691	3883.313667	870.313477	199.912720
13260.760691	3883.313667	869.138672	525.987183
13260.760691	3883.313667	867.962891	367.686981
13260.760691	3883.313667	866.786133	698.711609
13260.760691	3883.313667	865.610352	875.034180
13260.760691	3883.313667	864.433594	830.871399
13260.760691	3883.313667	863.256836	964.092590
13260.760691	3883.313667	862.079102	831.348206
13260.760691	3883.313667	860.902344	746.812195
13260.760691	3883.313667	859.724609	518.035217
13260.760691	3883.313667	858.546875	279.271210
13260.760691	3883.313667	857.368164	144.406921
13260.760691	3883.313667	856.190430	153.867737
13260.760691	3883.313667	855.011719	90.009277
13260.760691	3883.313667	853.833008	183.034317
13260.760691	3883.313667	852.654297	397.448456
13260.760691	3883.313667	851.474609	404.517395
13260.760691	3883.313667	850.294922	350.976807
13260.760691	3883.313667	849.115234	393.541229
13260.760691	3883.313667	847.935547	282.026611
13260.760691	3883.313667	846.754883	-18.840372
13260.760691	3883.313667	845.575195	-170.516357
13260.760691	3883.313667	844.393555	243.536987
13260.760691	3883.313667	843.212891	493.391541
13260.760691	3883.313667	842.032227	39.016033
13260.760691	3883.313667	840.850586	150.148849
13260.760691	3883.313667	839.668945	400.065948
13260.760691	3883.313667	838.486328	304.374908
13260.760691	3883.313667	837.304688	440.811401
13260.760691	3883.313667	836.122070	148.622604
13260.760691	3883.313667	834.939453	257.447327
13260.760691	3883.313667	833.756836	484.755341
13260.760691	3883.313667	832.573242	444.941437
13260.760691	3883.313667	831.389648	725.173401
13260.760691	3883.313667	830.206055	710.665039
13260.760691	3883.313667	829.022461	708.831177
13260.760691	3883.313667	827.838867	566.082825
13260.760691	3883.313667	826.654297	400.816864
13260.760691	3883.313667	825.469727	555.321533
13260.760691	3883.313667	824.284180	531.191101
13260.760691	3883.313667	823.099609	612.813354
13260.760691	3883.313667	821.914063	515.903320
13260.760691	3883.313667	820.728516	145.020386
13260.760691	3883.313667	819.542969	262.114227
13260.760691	3883.313667	818.356445	-138.558762
13260.760691	3883.313667	817.169922	-217.308731
13260.760691	3883.313667	815.983398	-409.008362
13260.760691	3883.313667	814.796875	-251.368317
13260.760691	3883.313667	813.609375	-234.352829
13260.760691	3883.313667	812.422852	187.012238
13260.760691	3883.313667	811.235352	522.932922
13260.760691	3883.313667	810.046875	647.962280
13260.760691	3883.313667	808.859375	906.025085
13260.760691	3883.313667	807.670898	1352.239746
13260.760691	3883.313667	806.482422	1025.761841
13260.760691	3883.313667	805.293945	644.329529
13260.760691	3883.313667	804.104492	546.476990
13260.760691	3883.313667	802.915039	967.669922
13260.760691	3883.313667	801.725586	862.443298
13260.760691	3883.313667	800.536133	809.966736
13260.760691	3883.313667	799.345703	524.604431
13260.760691	3883.313667	798.155273	234.433075
13260.760691	3883.313667	796.964844	312.596771
13260.760691	3883.313667	795.774414	10.241550
13260.760691	3883.313667	794.583008	-306.924561
13260.760691	3883.313667	793.392578	69.376213
13260.760691	3883.313667	792.200195	82.786644
13260.760691	3883.313667	791.008789	-208.932999
13260.760691	3883.313667	789.816406	-35.231224
13260.760691	3883.313667	788.625000	-16.563419
13260.760691	3883.313667	787.432617	-10.323240
13260.760691	3883.313667	786.239258	-256.462494
13260.760691	3883.313667	785.046875	-362.476135
13260.760691	3883.313667	783.853516	-288.468506
13260.760691	3883.313667	782.660156	-324.329285
13260.760691	3883.313667	781.465820	-255.201736
13260.760691	3883.313667	780.272461	-103.628448
13260.760691	3883.313667	779.078125	-46.908710
13260.760691	3883.313667	777.883789	59.780281
13260.760691	3883.313667	776.688477	14.273788
13260.760691	3883.313667	775.494141	208.370422
13260.760691	3883.313667	774.298828	646.911743
13260.760691	3883.313667	773.103516	589.050354
13260.760691	3883.313667	771.907227	568.683899
13260.760691	3883.313667	770.711914	790.194519
13260.760691	3883.313667	769.515625	697.644653
13260.760691	3883.313667	768.318359	443.230316
13260.760691	3883.313667	767.122070	283.649445
13260.760691	3883.313667	765.924805	-142.320389
13260.760691	3883.313667	764.727539	-152.175766
13260.760691	3883.313667	763.530273	-5.117561
13260.760691	3883.313667	762.333008	-164.241196
13260.760691	3883.313667	761.134766	-325.732758
13260.760691	3883.313667	759.936523	-16.833382
13260.760691	3883.313667	758.738281	-83.654205
13260.760691	3883.313667	757.540039	247.547073
13260.760691	3883.313667	756.340820	397.135162
13260.760691	3883.313667	755.141602	482.063934
13260.760691	3883.313667	753.942383	653.997437
13260.760691	3883.313667	752.742188	510.294556
13260.760691	3883.313667	751.541992	659.871826
13260.760691	3883.313667	750.341797	91.526039
13260.760691	3883.313667	749.141602	12.712137
13260.760691	3883.313667	747.941406	221.994431
13260.760691	3883.313667	746.740234	309.579376
13260.760691	3883.313667	745.539063	47.193737
13260.760691	3883.313667	744.337891	57.905651
13260.760691	3883.313667	743.135742	73.603157
13260.760691	3883.313667	741.933594	-66.951958
13260.760691	3883.313667	740.731445	-95.834244
13260.760691	3883.313667	739.529297	140.610214
13260.760691	3883.313667	738.326172	379.451050
13260.760691	3883.313667	737.124023	509.153290
13260.760691	3883.313667	735.919922	286.963623
13260.760691	3883.313667	734.716797	426.560242
13260.760691	3883.313667	733.513672	561.149292
13260.760691	3883.313667	732.309570	861.599243
13260.760691	3883.313667	731.105469	882.161682
13260.760691	3883.313667	729.900391	556.179504
13260.760691	3883.313667	728.696289	584.213257
13260.760691	3883.313667	727.491211	721.095703
13260.760691	3883.313667	726.286133	1080.545288
13260.760691	3883.313667	725.080078	1469.512085
13260.760691	3883.313667	723.874023	1561.579834
13260.760691	3883.313667	722.668945	1317.375000
13260.760691	3883.313667	721.461914	1083.142090
13260.760691	3883.313667	720.255859	762.492554
13260.760691	3883.313667	719.048828	743.366455
13260.760691	3883.313667	717.841797	751.392212
13260.760691	3883.313667	716.634766	828.528015
13260.760691	3883.313667	715.427734	824.118835
13260.760691	3883.313667	714.219727	780.180847
13260.760691	3883.313667	713.011719	760.901306
13260.760691	3883.313667	711.803711	489.900360
13260.760691	3883.313667	710.594727	406.461792
13260.760691	3883.313667	709.385742	204.618469
13260.760691	3883.313667	708.176758	135.971085
13260.760691	3883.313667	706.967773	-115.147202
13260.760691	3883.313667	705.758789	97.188507
13260.760691	3883.313667	704.548828	178.765533
13260.760691	3883.313667	703.338867	383.437317
13260.760691	3883.313667	702.127930	649.545715
13260.760691	3883.313667	700.917969	634.705017
13260.760691	3883.313667	699.707031	688.746338
13260.760691	3883.313667	698.496094	890.400269
13260.760691	3883.313667	697.285156	754.693237
13260.760691	3883.313667	696.073242	1074.210938
13260.760691	3883.313667	694.861328	982.645081
13260.760691	3883.313667	693.649414	1095.190186
13260.760691	3883.313667	692.436523	826.421875
13260.760691	3883.313667	691.224609	690.441833
13260.760691	3883.313667	690.011719	837.119324
13260.760691	3883.313667	688.798828	1054.907959
13260.760691	3883.313667	687.584961	1292.164551
13260.760691	3883.313667	686.372070	1295.835205
13260.760691	3883.313667	685.158203	1390.276611
13260.760691	3883.313667	683.943359	1376.522949
13260.760691	3883.313667	682.729492	1023.856750
13260.760691	3883.313667	681.514648	798.864807
13260.760691	3883.313667	680.299805	858.521118
13260.760691	3883.313667	679.084961	849.332703
13260.760691	3883.313667	677.869141	808.136169
13260.760691	3883.313667	676.653320	526.483948
13260.760691	3883.313667	675.437500	548.869507
13260.760691	3883.313667	674.221680	600.532349
13260.760691	3883.313667	673.004883	718.215027
13260.760691	3883.313667	671.789063	502.450043
13260.760691	3883.313667	670.571289	433.633881
13260.760691	3883.313667	669.354492	489.622864
13260.760691	3883.313667	668.136719	305.452881
13260.760691	3883.313667	666.919922	725.962219
13260.760691	3883.313667	665.701172	529.284302
13260.760691	3883.313667	664.483398	868.503540
13260.760691	3883.313667	663.264648	781.678467
13260.760691	3883.313667	662.045898	980.949097
13260.760691	3883.313667	660.827148	1050.350220
13260.760691	3883.313667	659.608398	1378.758423
13260.760691	3883.313667	658.388672	1100.561768
13260.760691	3883.313667	657.168945	1210.949585
13260.760691	3883.313667	655.949219	1328.452881
13260.760691	3883.313667	654.728516	1198.971069
13260.760691	3883.313667	653.507813	1298.981201
13260.760691	3883.313667	652.287109	1156.998901
13260.760691	3883.313667	651.066406	1188.256470
13260.760691	3883.313667	649.844727	1006.938110
13260.760691	3883.313667	648.623047	1013.443420
13260.760691	3883.313667	647.401367	1671.274414
13260.760691	3883.313667	646.179688	1684.585693
13260.760691	3883.313667	644.957031	1539.158569
13260.760691	3883.313667	643.734375	2122.739014
13260.760691	3883.313667	642.511719	2513.272949
13260.760691	3883.313667	641.289063	2411.065430
13260.760691	3883.313667	640.065430	2162.479004
13260.760691	3883.313667	638.841797	1675.024902
13260.760691	3883.313667	637.618164	1228.990356
13260.760691	3883.313667	636.393555	1196.972656
13260.760691	3883.313667	635.168945	909.096313
13260.760691	3883.313667	633.944336	852.412781
13260.760691	3883.313667	632.719727	795.547791
13260.760691	3883.313667	631.494141	650.893066
13260.760691	3883.313667	630.269531	581.519287
13260.760691	3883.313667	629.042969	553.310242
13260.760691	3883.313667	627.817383	770.524719
13260.760691	3883.313667	626.590820	805.083313
13260.760691	3883.313667	625.365234	513.687256
13260.760691	3883.313667	624.137695	299.964630
13260.760691	3883.313667	622.911133	710.584778
13260.760691	3883.313667	621.683594	727.267944
13260.760691	3883.313667	620.456055	955.033997
13260.760691	3883.313667	619.228516	514.714539
13260.760691	3883.313667	618.000977	860.959595
13260.760691	3883.313667	616.772461	1095.182983
13260.760691	3883.313667	615.543945	853.452576
13260.760691	3883.313667	614.314453	808.125244
13260.760691	3883.313667	613.085938	869.338135
13260.760691	3883.313667	611.856445	1201.920532
13260.760691	3883.313667	610.626953	661.269409
13260.760691	3883.313667	609.397461	978.775513
13260.760691	3883.313667	608.166992	849.977112
13260.760691	3883.313667	606.936523	1019.058838
13260.760691	3883.313667	605.706055	964.972412
13260.760691	3883.313667	604.474609	971.240051
13260.760691	3883.313667	603.244141	1134.697510
13260.760691	3883.313667	602.012695	1174.388916
13260.760691	3883.313667	600.780273	1252.570557
13260.760691	3883.313667	599.548828	1161.110352
13260.760691	3883.313667	598.316406	1040.434814
13260.760691	3883.313667	597.083984	759.943481
13260.760691	3883.313667	595.851563	905.014343
13260.760691	3883.313667	594.618164	1023.204346
13260.760691	3883.313667	593.384766	563.367004
13260.760691	3883.313667	592.151367	787.509583
13260.760691	3883.313667	590.917969	815.619873
13260.760691	3883.313667	589.683594	594.664612
13260.760691	3883.313667	588.449219	752.816772
13260.760691	3883.313667	587.214844	661.968567
13260.760691	3883.313667	585.979492	307.782043
13260.760691	3883.313667	584.745117	392.878296
13260.760691	3883.313667	583.509766	554.958191
13260.760691	3883.313667	582.273438	497.197266
13260.760691	3883.313667	581.038086	58.133846
13260.760691	3883.313667	579.801758	209.946732
13260.760691	3883.313667	578.565430	96.265831
13260.760691	3883.313667	577.329102	153.611237
13260.760691	3883.313667	576.091797	389.095612
13260.760691	3883.313667	574.854492	371.277313
13260.760691	3883.313667	573.617188	153.323181
13260.760691	3883.313667	572.378906	400.154358
13260.760691	3883.313667	571.141602	145.816101
13260.760691	3883.313667	569.903320	197.179077
13260.760691	3883.313667	568.664063	219.457031
13260.760691	3883.313667	567.425781	-201.251038
13260.760691	3883.313667	566.186523	-126.287766
13260.760691	3883.313667	564.947266	3.815200
13260.760691	3883.313667	563.708008	138.520386
13260.760691	3883.313667	562.467773	-44.401669
13260.760691	3883.313667	561.227539	-73.532745
13260.760691	3883.313667	559.987305	-52.316299
13260.760691	3883.313667	558.747070	-40.863670
13260.760691	3883.313667	557.505859	-209.752029
13260.760691	3883.313667	556.264648	-179.331879
13260.760691	3883.313667	555.023438	11.848208
13260.760691	3883.313667	553.781250	-32.486221
13260.760691	3883.313667	552.539063	11.896916
13260.760691	3883.313667	551.296875	226.545013
13260.760691	3883.313667	550.054688	227.439163
13260.760691	3883.313667	548.811523	288.185760
13260.760691	3883.313667	547.569336	200.118958
13260.760691	3883.313667	546.325195	90.382797
13260.760691	3883.313667	545.082031	146.038132
13260.760691	3883.313667	543.837891	67.342041
13260.760691	3883.313667	542.593750	522.988831
13260.760691	3883.313667	541.349609	434.505096
13260.760691	3883.313667	540.105469	513.659607
13260.760691	3883.313667	538.860352	700.469116
13260.760691	3883.313667	537.615234	894.319885
13260.760691	3883.313667	536.369141	1040.140747
13260.760691	3883.313667	535.124023	910.633118
13260.760691	3883.313667	533.877930	1183.110352
13260.760691	3883.313667	532.631836	1369.308716
13260.760691	3883.313667	531.384766	1725.192627
13260.760691	3883.313667	530.138672	1992.434204
13260.760691	3883.313667	528.891602	2173.458740
13260.760691	3883.313667	527.643555	2031.693359
13260.760691	3883.313667	526.396484	1870.873657
13260.760691	3883.313667	525.148438	2216.613770
13260.760691	3883.313667	523.900391	2048.638916
13260.760691	3883.313667	522.652344	1809.097778
13260.760691	3883.313667	521.403320	1782.157959
13260.760691	3883.313667	520.154297	1578.601318
13260.760691	3883.313667	518.905273	1623.365479
13260.760691	3883.313667	517.656250	1465.319946
13260.760691	3883.313667	516.406250	1634.195313
13260.760691	3883.313667	515.156250	1619.388550
13260.760691	3883.313667	513.906250	1301.794556
13260.760691	3883.313667	512.655273	1287.157715
13260.760691	3883.313667	511.404297	1272.588013
13260.760691	3883.313667	510.153320	1327.201050
13260.760691	3883.313667	508.902344	833.881958
13260.760691	3883.313667	507.650391	993.517944
13260.760691	3883.313667	506.398438	1029.332153
13260.760691	3883.313667	505.146484	965.223206
13260.760691	3883.313667	503.893555	608.428406
13260.760691	3883.313667	502.641602	480.384674
13260.760691	3883.313667	501.388672	414.360992
13260.760691	3883.313667	500.134766	200.975128
13260.760691	3883.313667	498.881836	213.772827
13260.760691	3883.313667	497.627930	267.105560
13260.760691	3883.313667	496.374023	9.113394
13260.760691	3883.313667	495.119141	176.828949
13260.760691	3883.313667	493.865234	235.320358
13260.760691	3883.313667	492.610352	182.262085
13260.760691	3883.313667	491.355469	-160.405685
13260.760691	3883.313667	490.099609	-248.659790
13260.760691	3883.313667	488.843750	-244.105377
13260.760691	3883.313667	487.587891	-47.090290
13260.760691	3883.313667	486.332031	-433.814087
13260.760691	3883.313667	485.075195	-435.796295
13260.760691	3883.313667	483.818359	-537.217224
13260.760691	3883.313667	482.561523	-171.151657
13260.760691	3883.313667	481.304688	-440.539795
13260.760691	3883.313667	480.046875	-576.846252
13260.760691	3883.313667	478.789063	-215.125427
13260.760691	3883.313667	477.531250	-168.513214
13260.760691	3883.313667	476.272461	-102.749512
13260.760691	3883.313667	475.013672	-84.157211
13260.760691	3883.313667	473.754883	24.654713
13260.760691	3883.313667	472.496094	152.600555
13260.760691	3883.313667	471.236328	20.337032
13260.760691	3883.313667	469.976563	-5.120355
13260.760691	3883.313667	468.716797	125.851135
13260.760691	3883.313667	467.456055	240.455124
13260.760691	3883.313667	466.196289	85.652000
13260.760691	3883.313667	464.935547	193.642242
13260.760691	3883.313667	463.673828	8.692897
13260.760691	3883.313667	462.413086	110.096413
13260.760691	3883.313667	461.151367	124.286255
13260.760691	3883.313667	459.889648	152.917084
13260.760691	3883.313667	458.626953	207.786133
13260.760691	3883.313667	457.364258	55.090042
13260.760691	3883.313667	456.101563	157.734314
13260.760691	3883.313667	454.838867	506.108490
13260.760691	3883.313667	453.575195	500.601257
13260.760691	3883.313667	452.312500	459.991516
13260.760691	3883.313667	451.047852	785.313416
13260.760691	3883.313667	449.784180	820.686523
13260.760691	3883.313667	448.519531	1268.967651
13260.760691	3883.313667	447.254883	1064.309937
13260.760691	3883.313667	445.990234	841.163025
13260.760691	3883.313667	444.725586	729.142151
13260.760691	3883.313667	443.459961	815.340027
13260.760691	3883.313667	442.194336	805.198425
13260.760691	3883.313667	440.927734	686.996948
13260.760691	3883.313667	439.662109	1091.801270
13260.760691	3883.313667	438.395508	734.017029
13260.760691	3883.313667	437.127930	781.429199
13260.760691	3883.313667	435.861328	619.665344
13260.760691	3883.313667	434.593750	693.456848
13260.760691	3883.313667	433.326172	805.086487
13260.760691	3883.313667	432.058594	780.524231
13260.760691	3883.313667	430.790039	636.301147
13260.760691	3883.313667	429.521484	689.791626
13260.760691	3883.313667	428.252930	515.536072
13260.760691	3883.313667	426.984375	719.802917
13260.760691	3883.313667	425.714844	630.568970
13260.760691	3883.313667	424.445313	675.412354
13260.760691	3883.313667	423.174805	1218.144653
13260.760691	3883.313667	421.905273	1014.361694
13260.760691	3883.313667	420.634766	1674.438477
13260.760691	3883.313667	419.364258	1912.031982
13260.760691	3883.313667	418.092773	1886.920166
13260.760691	3883.313667	416.822266	2206.683350
13260.760691	3883.313667	415.550781	2029.311768
13260.760691	3883.313667	414.278320	2060.734863
13260.760691	3883.313667	413.006836	2061.737549
13260.760691	3883.313667	411.734375	2065.128174
13260.760691	3883.313667	410.461914	1773.359985
13260.760691	3883.313667	409.188477	1566.043945
13260.760691	3883.313667	407.916016	1571.904297
13260.760691	3883.313667	406.642578	1598.796875
13260.760691	3883.313667	405.368164	1585.830566
13260.760691	3883.313667	404.094727	1680.442017
13260.760691	3883.313667	402.820313	1643.888184
13260.760691	3883.313667	401.545898	1515.995239
13260.760691	3883.313667	400.270508	1666.304077
13260.760691	3883.313667	398.996094	1528.777344
13260.760691	3883.313667	397.720703	1645.905518
13260.760691	3883.313667	396.444336	1622.516357
13260.760691	3883.313667	395.168945	1535.783203
13260.760691	3883.313667	393.892578	1803.877563
13260.760691	3883.313667	392.616211	1492.292480
13260.760691	3883.313667	391.339844	1605.469238
13260.760691	3883.313667	390.062500	1592.125488
13260.760691	3883.313667	388.785156	1583.019165
13260.760691	3883.313667	387.507813	1155.732300
13260.760691	3883.313667	386.229492	1113.073242
13260.760691	3883.313667	384.951172	1132.857544
13260.760691	3883.313667	383.672852	1112.395508
13260.760691	3883.313667	382.394531	1212.547119
13260.760691	3883.313667	381.115234	1244.367432
13260.760691	3883.313667	379.835938	1130.951172
13260.760691	3883.313667	378.556641	1401.265137
13260.760691	3883.313667	377.277344	1281.608765
13260.760691	3883.313667	375.997070	1305.519043
13260.760691	3883.313667	374.716797	1368.077026
13260.760691	3883.313667	373.435547	1452.897095
13260.760691	3883.313667	372.155273	1308.560059
13260.760691	3883.313667	370.874023	1393.554199
13260.760691	3883.313667	369.591797	1328.449951
13260.760691	3883.313667	368.310547	1555.249878
13260.760691	3883.313667	367.028320	1676.013916
13260.760691	3883.313667	365.746094	1590.787598
13260.760691	3883.313667	364.463867	1690.152344
13260.760691	3883.313667	363.180664	1622.980103
13260.760691	3883.313667	361.897461	1658.846802
13260.760691	3883.313667	360.614258	1732.572510
13260.760691	3883.313667	359.330078	1662.886841
13260.760691	3883.313667	358.045898	1558.956787
13260.760691	3883.313667	356.761719	1761.975342
13260.760691	3883.313667	355.477539	1730.888916
13260.760691	3883.313667	354.192383	1758.114258
13260.760691	3883.313667	352.907227	1704.354614
13260.760691	3883.313667	351.622070	1604.370361
13260.760691	3883.313667	350.336914	1302.738037
13260.760691	3883.313667	349.050781	1026.661377
13260.760691	3883.313667	347.764648	908.184509
13260.760691	3883.313667	346.477539	847.422729
13260.760691	3883.313667	345.191406	811.875244
13260.760691	3883.313667	343.904297	780.498535
13260.760691	3883.313667	342.616211	748.551514
13260.760691	3883.313667	341.329102	500.682953
13260.760691	3883.313667	340.041016	541.475220
13260.760691	3883.313667	338.752930	625.347534
13260.760691	3883.313667	337.463867	377.262207
13260.760691	3883.313667	336.175781	380.387848
13260.760691	3883.313667	334.886719	51.491367
13260.760691	3883.313667	333.596680	169.916473
13260.760691	3883.313667	332.307617	224.452591
13260.760691	3883.313667	331.017578	43.847229
13260.760691	3883.313667	329.727539	106.521477
13260.760691	3883.313667	328.436523	305.834534
13260.760691	3883.313667	327.146484	66.560364
13260.760691	3883.313667	325.855469	213.112717
13260.760691	3883.313667	324.563477	541.913513
13260.760691	3883.313667	323.272461	563.497253
13260.760691	3883.313667	321.980469	390.825165
13260.760691	3883.313667	320.688477	623.847656
13260.760691	3883.313667	319.395508	226.293732
13260.760691	3883.313667	318.103516	363.284607
13260.760691	3883.313667	316.810547	-151.073547
13260.760691	3883.313667	315.516602	-57.853977
13260.760691	3883.313667	314.223633	-51.141994
13260.760691	3883.313667	312.929688	23.094700
13260.760691	3883.313667	311.635742	-240.716202
13260.760691	3883.313667	310.340820	-317.527618
13260.760691	3883.313667	309.045898	-375.631378
13260.760691	3883.313667	307.750977	-309.329651
13260.760691	3883.313667	306.456055	-33.735241
13260.760691	3883.313667	305.160156	-133.855515
13260.760691	3883.313667	303.865234	186.704834
13260.760691	3883.313667	302.568359	356.527985
13260.760691	3883.313667	301.272461	311.579803
13260.760691	3883.313667	299.975586	221.587997
13260.760691	3883.313667	298.678711	304.906158
