#X		#Y		#Wave		#Intensity
-13835.588723	17562.853167	2000.043945	263.045319
-13835.588723	17562.853167	1999.080078	135.077774
-13835.588723	17562.853167	1998.116211	-237.498642
-13835.588723	17562.853167	1997.151367	374.138367
-13835.588723	17562.853167	1996.186523	277.172943
-13835.588723	17562.853167	1995.222656	168.093185
-13835.588723	17562.853167	1994.256836	17.170744
-13835.588723	17562.853167	1993.291992	151.301147
-13835.588723	17562.853167	1992.327148	-95.688011
-13835.588723	17562.853167	1991.361328	-127.022804
-13835.588723	17562.853167	1990.395508	34.894615
-13835.588723	17562.853167	1989.429688	53.420105
-13835.588723	17562.853167	1988.463867	-269.293457
-13835.588723	17562.853167	1987.497070	53.888664
-13835.588723	17562.853167	1986.531250	-95.249710
-13835.588723	17562.853167	1985.564453	247.888718
-13835.588723	17562.853167	1984.597656	76.843018
-13835.588723	17562.853167	1983.630859	19.704350
-13835.588723	17562.853167	1982.664063	-44.685959
-13835.588723	17562.853167	1981.696289	22.039080
-13835.588723	17562.853167	1980.728516	-17.354952
-13835.588723	17562.853167	1979.761719	69.354172
-13835.588723	17562.853167	1978.792969	-33.996380
-13835.588723	17562.853167	1977.825195	-272.989563
-13835.588723	17562.853167	1976.857422	-8.210526
-13835.588723	17562.853167	1975.888672	83.810768
-13835.588723	17562.853167	1974.919922	-88.136604
-13835.588723	17562.853167	1973.951172	-5.811648
-13835.588723	17562.853167	1972.982422	42.034561
-13835.588723	17562.853167	1972.013672	-139.415329
-13835.588723	17562.853167	1971.043945	362.302002
-13835.588723	17562.853167	1970.075195	311.671692
-13835.588723	17562.853167	1969.105469	-130.776932
-13835.588723	17562.853167	1968.135742	-16.043629
-13835.588723	17562.853167	1967.165039	98.706718
-13835.588723	17562.853167	1966.195313	70.588097
-13835.588723	17562.853167	1965.224609	-159.435638
-13835.588723	17562.853167	1964.253906	34.237484
-13835.588723	17562.853167	1963.283203	200.798935
-13835.588723	17562.853167	1962.312500	241.795761
-13835.588723	17562.853167	1961.341797	450.177460
-13835.588723	17562.853167	1960.370117	528.096619
-13835.588723	17562.853167	1959.399414	446.093079
-13835.588723	17562.853167	1958.427734	-130.270355
-13835.588723	17562.853167	1957.455078	92.897697
-13835.588723	17562.853167	1956.483398	-271.675293
-13835.588723	17562.853167	1955.511719	-90.324524
-13835.588723	17562.853167	1954.539063	14.782979
-13835.588723	17562.853167	1953.566406	68.253738
-13835.588723	17562.853167	1952.593750	227.366211
-13835.588723	17562.853167	1951.621094	62.152832
-13835.588723	17562.853167	1950.647461	-71.064804
-13835.588723	17562.853167	1949.674805	259.894348
-13835.588723	17562.853167	1948.701172	359.937958
-13835.588723	17562.853167	1947.727539	64.719902
-13835.588723	17562.853167	1946.753906	-7.051220
-13835.588723	17562.853167	1945.780273	19.352823
-13835.588723	17562.853167	1944.805664	197.847809
-13835.588723	17562.853167	1943.831055	182.482407
-13835.588723	17562.853167	1942.856445	-90.405563
-13835.588723	17562.853167	1941.881836	48.732731
-13835.588723	17562.853167	1940.907227	-27.936647
-13835.588723	17562.853167	1939.932617	108.646980
-13835.588723	17562.853167	1938.957031	9.895770
-13835.588723	17562.853167	1937.981445	217.437027
-13835.588723	17562.853167	1937.005859	32.913643
-13835.588723	17562.853167	1936.030273	100.706848
-13835.588723	17562.853167	1935.054688	432.924500
-13835.588723	17562.853167	1934.078125	-47.880444
-13835.588723	17562.853167	1933.101563	-29.154491
-13835.588723	17562.853167	1932.125000	-37.395084
-13835.588723	17562.853167	1931.148438	252.873047
-13835.588723	17562.853167	1930.171875	369.289276
-13835.588723	17562.853167	1929.194336	-32.948818
-13835.588723	17562.853167	1928.217773	112.752251
-13835.588723	17562.853167	1927.240234	177.667786
-13835.588723	17562.853167	1926.262695	-129.081711
-13835.588723	17562.853167	1925.284180	4.217004
-13835.588723	17562.853167	1924.306641	-55.646782
-13835.588723	17562.853167	1923.328125	514.867737
-13835.588723	17562.853167	1922.350586	-75.266312
-13835.588723	17562.853167	1921.372070	-147.422272
-13835.588723	17562.853167	1920.392578	-156.101044
-13835.588723	17562.853167	1919.414063	206.292007
-13835.588723	17562.853167	1918.434570	2.164598
-13835.588723	17562.853167	1917.456055	-204.376633
-13835.588723	17562.853167	1916.476563	91.794708
-13835.588723	17562.853167	1915.497070	163.350815
-13835.588723	17562.853167	1914.516602	171.411118
-13835.588723	17562.853167	1913.537109	-83.983635
-13835.588723	17562.853167	1912.556641	60.566120
-13835.588723	17562.853167	1911.576172	-319.142059
-13835.588723	17562.853167	1910.595703	-21.147673
-13835.588723	17562.853167	1909.615234	-296.013580
-13835.588723	17562.853167	1908.633789	384.301392
-13835.588723	17562.853167	1907.653320	187.311432
-13835.588723	17562.853167	1906.671875	63.411781
-13835.588723	17562.853167	1905.690430	78.310638
-13835.588723	17562.853167	1904.708984	239.234314
-13835.588723	17562.853167	1903.727539	159.045868
-13835.588723	17562.853167	1902.745117	120.212128
-13835.588723	17562.853167	1901.762695	-154.695129
-13835.588723	17562.853167	1900.780273	295.448944
-13835.588723	17562.853167	1899.797852	222.390335
-13835.588723	17562.853167	1898.815430	137.144577
-13835.588723	17562.853167	1897.832031	299.897064
-13835.588723	17562.853167	1896.849609	528.167358
-13835.588723	17562.853167	1895.866211	389.271606
-13835.588723	17562.853167	1894.882813	58.387665
-13835.588723	17562.853167	1893.898438	-75.615654
-13835.588723	17562.853167	1892.915039	-27.433125
-13835.588723	17562.853167	1891.930664	367.997192
-13835.588723	17562.853167	1890.947266	-67.277077
-13835.588723	17562.853167	1889.962891	-249.944168
-13835.588723	17562.853167	1888.977539	133.003647
-13835.588723	17562.853167	1887.993164	18.215971
-13835.588723	17562.853167	1887.007813	-159.675430
-13835.588723	17562.853167	1886.023438	169.498795
-13835.588723	17562.853167	1885.038086	1.237443
-13835.588723	17562.853167	1884.051758	162.810028
-13835.588723	17562.853167	1883.066406	304.866760
-13835.588723	17562.853167	1882.081055	172.873825
-13835.588723	17562.853167	1881.094727	86.926163
-13835.588723	17562.853167	1880.108398	37.308048
-13835.588723	17562.853167	1879.122070	62.765793
-13835.588723	17562.853167	1878.135742	107.537895
-13835.588723	17562.853167	1877.148438	307.246460
-13835.588723	17562.853167	1876.162109	-30.758305
-13835.588723	17562.853167	1875.174805	277.744080
-13835.588723	17562.853167	1874.187500	-108.649208
-13835.588723	17562.853167	1873.199219	340.019653
-13835.588723	17562.853167	1872.211914	6.886527
-13835.588723	17562.853167	1871.223633	-81.824615
-13835.588723	17562.853167	1870.236328	93.096489
-13835.588723	17562.853167	1869.248047	28.479132
-13835.588723	17562.853167	1868.258789	203.210175
-13835.588723	17562.853167	1867.270508	73.218956
-13835.588723	17562.853167	1866.282227	257.439728
-13835.588723	17562.853167	1865.292969	-7.939549
-13835.588723	17562.853167	1864.303711	-449.649261
-13835.588723	17562.853167	1863.314453	311.756195
-13835.588723	17562.853167	1862.324219	-16.433744
-13835.588723	17562.853167	1861.334961	-23.390728
-13835.588723	17562.853167	1860.344727	-168.008972
-13835.588723	17562.853167	1859.354492	124.286079
-13835.588723	17562.853167	1858.364258	-150.727921
-13835.588723	17562.853167	1857.374023	247.523605
-13835.588723	17562.853167	1856.383789	365.728485
-13835.588723	17562.853167	1855.392578	348.765625
-13835.588723	17562.853167	1854.401367	199.123917
-13835.588723	17562.853167	1853.410156	-8.379909
-13835.588723	17562.853167	1852.418945	95.129478
-13835.588723	17562.853167	1851.426758	-68.988678
-13835.588723	17562.853167	1850.435547	123.559853
-13835.588723	17562.853167	1849.443359	31.684553
-13835.588723	17562.853167	1848.451172	91.558136
-13835.588723	17562.853167	1847.458984	382.571564
-13835.588723	17562.853167	1846.466797	4.018134
-13835.588723	17562.853167	1845.473633	22.795895
-13835.588723	17562.853167	1844.480469	27.081621
-13835.588723	17562.853167	1843.487305	375.461578
-13835.588723	17562.853167	1842.494141	264.096283
-13835.588723	17562.853167	1841.500977	-328.412384
-13835.588723	17562.853167	1840.506836	284.282623
-13835.588723	17562.853167	1839.513672	-159.000122
-13835.588723	17562.853167	1838.519531	-5.883314
-13835.588723	17562.853167	1837.525391	442.810120
-13835.588723	17562.853167	1836.530273	-262.354218
-13835.588723	17562.853167	1835.536133	270.239441
-13835.588723	17562.853167	1834.541016	177.929047
-13835.588723	17562.853167	1833.545898	-248.276199
-13835.588723	17562.853167	1832.550781	-316.520508
-13835.588723	17562.853167	1831.555664	-89.432487
-13835.588723	17562.853167	1830.560547	-258.593842
-13835.588723	17562.853167	1829.564453	52.318542
-13835.588723	17562.853167	1828.568359	123.095360
-13835.588723	17562.853167	1827.572266	472.127502
-13835.588723	17562.853167	1826.576172	151.692657
-13835.588723	17562.853167	1825.580078	-63.126919
-13835.588723	17562.853167	1824.583008	-126.832466
-13835.588723	17562.853167	1823.585938	87.562141
-13835.588723	17562.853167	1822.588867	220.334534
-13835.588723	17562.853167	1821.591797	108.559212
-13835.588723	17562.853167	1820.594727	408.935638
-13835.588723	17562.853167	1819.596680	-11.959501
-13835.588723	17562.853167	1818.599609	580.471191
-13835.588723	17562.853167	1817.601563	255.419861
-13835.588723	17562.853167	1816.603516	562.572021
-13835.588723	17562.853167	1815.604492	204.051025
-13835.588723	17562.853167	1814.606445	216.622620
-13835.588723	17562.853167	1813.607422	324.869171
-13835.588723	17562.853167	1812.608398	200.960724
-13835.588723	17562.853167	1811.609375	478.936615
-13835.588723	17562.853167	1810.610352	464.988495
-13835.588723	17562.853167	1809.610352	348.184753
-13835.588723	17562.853167	1808.611328	267.256348
-13835.588723	17562.853167	1807.611328	334.515686
-13835.588723	17562.853167	1806.611328	-288.956818
-13835.588723	17562.853167	1805.610352	373.274323
-13835.588723	17562.853167	1804.610352	144.139496
-13835.588723	17562.853167	1803.609375	48.806328
-13835.588723	17562.853167	1802.608398	-17.863430
-13835.588723	17562.853167	1801.607422	213.903854
-13835.588723	17562.853167	1800.606445	221.159149
-13835.588723	17562.853167	1799.605469	230.762009
-13835.588723	17562.853167	1798.603516	194.987518
-13835.588723	17562.853167	1797.601563	187.818680
-13835.588723	17562.853167	1796.599609	245.025208
-13835.588723	17562.853167	1795.597656	402.341614
-13835.588723	17562.853167	1794.595703	92.213379
-13835.588723	17562.853167	1793.592773	68.243553
-13835.588723	17562.853167	1792.589844	170.579330
-13835.588723	17562.853167	1791.587891	303.825043
-13835.588723	17562.853167	1790.583984	413.156555
-13835.588723	17562.853167	1789.581055	458.093567
-13835.588723	17562.853167	1788.577148	193.353561
-13835.588723	17562.853167	1787.574219	240.633453
-13835.588723	17562.853167	1786.570313	166.435745
-13835.588723	17562.853167	1785.566406	-102.959389
-13835.588723	17562.853167	1784.561523	334.554688
-13835.588723	17562.853167	1783.557617	621.964233
-13835.588723	17562.853167	1782.552734	-249.361359
-13835.588723	17562.853167	1781.547852	-76.188683
-13835.588723	17562.853167	1780.542969	-105.255913
-13835.588723	17562.853167	1779.538086	177.132370
-13835.588723	17562.853167	1778.532227	-132.554077
-13835.588723	17562.853167	1777.527344	-185.457642
-13835.588723	17562.853167	1776.521484	63.415756
-13835.588723	17562.853167	1775.515625	65.069199
-13835.588723	17562.853167	1774.508789	12.058254
-13835.588723	17562.853167	1773.502930	23.158726
-13835.588723	17562.853167	1772.496094	91.208199
-13835.588723	17562.853167	1771.489258	102.221581
-13835.588723	17562.853167	1770.482422	-3.105742
-13835.588723	17562.853167	1769.475586	164.488022
-13835.588723	17562.853167	1768.467773	258.429352
-13835.588723	17562.853167	1767.460938	-5.904089
-13835.588723	17562.853167	1766.453125	189.957779
-13835.588723	17562.853167	1765.445313	-3.188739
-13835.588723	17562.853167	1764.437500	-27.960785
-13835.588723	17562.853167	1763.428711	184.290649
-13835.588723	17562.853167	1762.420898	-79.939339
-13835.588723	17562.853167	1761.412109	113.221405
-13835.588723	17562.853167	1760.403320	339.444275
-13835.588723	17562.853167	1759.393555	-5.301484
-13835.588723	17562.853167	1758.384766	599.705994
-13835.588723	17562.853167	1757.375000	484.654968
-13835.588723	17562.853167	1756.366211	158.923752
-13835.588723	17562.853167	1755.356445	507.841156
-13835.588723	17562.853167	1754.345703	42.543839
-13835.588723	17562.853167	1753.335938	284.816467
-13835.588723	17562.853167	1752.325195	139.022873
-13835.588723	17562.853167	1751.315430	-4.380325
-13835.588723	17562.853167	1750.304688	-218.705200
-13835.588723	17562.853167	1749.292969	16.212275
-13835.588723	17562.853167	1748.282227	-30.272678
-13835.588723	17562.853167	1747.270508	81.562874
-13835.588723	17562.853167	1746.259766	-177.628876
-13835.588723	17562.853167	1745.248047	-344.625092
-13835.588723	17562.853167	1744.235352	-48.660191
-13835.588723	17562.853167	1743.223633	-159.007599
-13835.588723	17562.853167	1742.211914	-193.788361
-13835.588723	17562.853167	1741.199219	61.755322
-13835.588723	17562.853167	1740.186523	-6.161659
-13835.588723	17562.853167	1739.173828	-121.277534
-13835.588723	17562.853167	1738.160156	183.552094
-13835.588723	17562.853167	1737.147461	-66.070862
-13835.588723	17562.853167	1736.133789	-355.720917
-13835.588723	17562.853167	1735.120117	-131.280716
-13835.588723	17562.853167	1734.106445	-102.621292
-13835.588723	17562.853167	1733.091797	-95.219444
-13835.588723	17562.853167	1732.078125	-297.578491
-13835.588723	17562.853167	1731.063477	150.379150
-13835.588723	17562.853167	1730.048828	-318.197754
-13835.588723	17562.853167	1729.034180	219.022842
-13835.588723	17562.853167	1728.019531	-21.040983
-13835.588723	17562.853167	1727.003906	-178.651382
-13835.588723	17562.853167	1725.988281	-82.022728
-13835.588723	17562.853167	1724.972656	16.891899
-13835.588723	17562.853167	1723.957031	-192.489471
-13835.588723	17562.853167	1722.941406	56.903519
-13835.588723	17562.853167	1721.924805	-206.566345
-13835.588723	17562.853167	1720.909180	52.078690
-13835.588723	17562.853167	1719.892578	-234.861710
-13835.588723	17562.853167	1718.875977	-44.543159
-13835.588723	17562.853167	1717.858398	178.568909
-13835.588723	17562.853167	1716.841797	157.198547
-13835.588723	17562.853167	1715.824219	147.543655
-13835.588723	17562.853167	1714.806641	142.565964
-13835.588723	17562.853167	1713.789063	55.359261
-13835.588723	17562.853167	1712.770508	57.379898
-13835.588723	17562.853167	1711.752930	261.254517
-13835.588723	17562.853167	1710.734375	-27.862152
-13835.588723	17562.853167	1709.715820	-178.449692
-13835.588723	17562.853167	1708.697266	252.835754
-13835.588723	17562.853167	1707.678711	-118.298698
-13835.588723	17562.853167	1706.659180	157.958633
-13835.588723	17562.853167	1705.640625	82.367516
-13835.588723	17562.853167	1704.621094	112.265999
-13835.588723	17562.853167	1703.600586	144.458817
-13835.588723	17562.853167	1702.581055	-43.665188
-13835.588723	17562.853167	1701.561523	-48.993603
-13835.588723	17562.853167	1700.541016	130.710907
-13835.588723	17562.853167	1699.520508	155.734634
-13835.588723	17562.853167	1698.500000	215.843384
-13835.588723	17562.853167	1697.478516	421.051727
-13835.588723	17562.853167	1696.458008	108.854324
-13835.588723	17562.853167	1695.436523	-76.883858
-13835.588723	17562.853167	1694.415039	72.022095
-13835.588723	17562.853167	1693.393555	260.611389
-13835.588723	17562.853167	1692.372070	107.610786
-13835.588723	17562.853167	1691.349609	52.855064
-13835.588723	17562.853167	1690.327148	100.966751
-13835.588723	17562.853167	1689.304688	198.121796
-13835.588723	17562.853167	1688.282227	91.878990
-13835.588723	17562.853167	1687.259766	497.386932
-13835.588723	17562.853167	1686.236328	783.558533
-13835.588723	17562.853167	1685.213867	506.670105
-13835.588723	17562.853167	1684.190430	575.488647
-13835.588723	17562.853167	1683.166016	291.678314
-13835.588723	17562.853167	1682.142578	647.593811
-13835.588723	17562.853167	1681.119141	363.831604
-13835.588723	17562.853167	1680.094727	630.862976
-13835.588723	17562.853167	1679.070313	652.795166
-13835.588723	17562.853167	1678.045898	756.331482
-13835.588723	17562.853167	1677.020508	775.837769
-13835.588723	17562.853167	1675.996094	625.098755
-13835.588723	17562.853167	1674.970703	910.345764
-13835.588723	17562.853167	1673.945313	582.436157
-13835.588723	17562.853167	1672.919922	263.956177
-13835.588723	17562.853167	1671.893555	516.404358
-13835.588723	17562.853167	1670.868164	747.772583
-13835.588723	17562.853167	1669.841797	499.237518
-13835.588723	17562.853167	1668.815430	530.207275
-13835.588723	17562.853167	1667.789063	353.932220
-13835.588723	17562.853167	1666.761719	429.094482
-13835.588723	17562.853167	1665.735352	618.244690
-13835.588723	17562.853167	1664.708008	423.367920
-13835.588723	17562.853167	1663.680664	603.091309
-13835.588723	17562.853167	1662.653320	571.067383
-13835.588723	17562.853167	1661.625000	885.517456
-13835.588723	17562.853167	1660.597656	762.730530
-13835.588723	17562.853167	1659.569336	728.301025
-13835.588723	17562.853167	1658.541016	735.692017
-13835.588723	17562.853167	1657.512695	861.571838
-13835.588723	17562.853167	1656.483398	908.388123
-13835.588723	17562.853167	1655.455078	1106.148926
-13835.588723	17562.853167	1654.425781	1185.374390
-13835.588723	17562.853167	1653.396484	1050.937622
-13835.588723	17562.853167	1652.366211	1218.309937
-13835.588723	17562.853167	1651.336914	886.597168
-13835.588723	17562.853167	1650.306641	1251.151123
-13835.588723	17562.853167	1649.276367	1272.169556
-13835.588723	17562.853167	1648.246094	1309.402954
-13835.588723	17562.853167	1647.215820	1198.179688
-13835.588723	17562.853167	1646.185547	1420.879272
-13835.588723	17562.853167	1645.154297	1193.722534
-13835.588723	17562.853167	1644.123047	952.735596
-13835.588723	17562.853167	1643.091797	1511.321167
-13835.588723	17562.853167	1642.060547	1641.046021
-13835.588723	17562.853167	1641.028320	1115.131226
-13835.588723	17562.853167	1639.997070	1534.358887
-13835.588723	17562.853167	1638.964844	1951.092285
-13835.588723	17562.853167	1637.931641	1786.538940
-13835.588723	17562.853167	1636.899414	1633.621582
-13835.588723	17562.853167	1635.867188	1346.526123
-13835.588723	17562.853167	1634.833984	1429.727417
-13835.588723	17562.853167	1633.800781	1381.028931
-13835.588723	17562.853167	1632.767578	1561.317871
-13835.588723	17562.853167	1631.734375	1568.090698
-13835.588723	17562.853167	1630.700195	1722.814819
-13835.588723	17562.853167	1629.666016	1819.680176
-13835.588723	17562.853167	1628.631836	1877.210815
-13835.588723	17562.853167	1627.597656	1731.375977
-13835.588723	17562.853167	1626.563477	1262.160767
-13835.588723	17562.853167	1625.528320	1749.356323
-13835.588723	17562.853167	1624.493164	1841.465454
-13835.588723	17562.853167	1623.458008	2035.121460
-13835.588723	17562.853167	1622.422852	1686.223511
-13835.588723	17562.853167	1621.387695	1683.647095
-13835.588723	17562.853167	1620.351563	1588.765625
-13835.588723	17562.853167	1619.315430	1528.523315
-13835.588723	17562.853167	1618.279297	1715.108154
-13835.588723	17562.853167	1617.243164	1770.169312
-13835.588723	17562.853167	1616.207031	1739.894897
-13835.588723	17562.853167	1615.169922	1532.119141
-13835.588723	17562.853167	1614.132813	1654.016846
-13835.588723	17562.853167	1613.095703	1732.080811
-13835.588723	17562.853167	1612.058594	1664.971924
-13835.588723	17562.853167	1611.020508	2123.075195
-13835.588723	17562.853167	1609.983398	1344.286255
-13835.588723	17562.853167	1608.945313	1875.960815
-13835.588723	17562.853167	1607.907227	1827.301147
-13835.588723	17562.853167	1606.868164	1833.895386
-13835.588723	17562.853167	1605.830078	1799.076538
-13835.588723	17562.853167	1604.791016	1796.481812
-13835.588723	17562.853167	1603.751953	1701.883545
-13835.588723	17562.853167	1602.712891	2262.794189
-13835.588723	17562.853167	1601.673828	2198.050049
-13835.588723	17562.853167	1600.633789	2319.552490
-13835.588723	17562.853167	1599.594727	2133.017090
-13835.588723	17562.853167	1598.554688	1787.991333
-13835.588723	17562.853167	1597.513672	2470.147705
-13835.588723	17562.853167	1596.473633	1879.412964
-13835.588723	17562.853167	1595.433594	1897.559204
-13835.588723	17562.853167	1594.392578	2140.741455
-13835.588723	17562.853167	1593.351563	2092.270996
-13835.588723	17562.853167	1592.310547	2080.558838
-13835.588723	17562.853167	1591.268555	2103.287354
-13835.588723	17562.853167	1590.227539	2087.019531
-13835.588723	17562.853167	1589.185547	2355.232910
-13835.588723	17562.853167	1588.143555	2249.504639
-13835.588723	17562.853167	1587.100586	2164.466064
-13835.588723	17562.853167	1586.058594	1994.657104
-13835.588723	17562.853167	1585.015625	1928.078613
-13835.588723	17562.853167	1583.972656	2480.334961
-13835.588723	17562.853167	1582.929688	2377.067139
-13835.588723	17562.853167	1581.886719	2342.592773
-13835.588723	17562.853167	1580.843750	2335.638916
-13835.588723	17562.853167	1579.799805	1818.032959
-13835.588723	17562.853167	1578.755859	2285.167969
-13835.588723	17562.853167	1577.711914	1886.857544
-13835.588723	17562.853167	1576.666992	2404.194336
-13835.588723	17562.853167	1575.623047	2006.072998
-13835.588723	17562.853167	1574.578125	2434.014648
-13835.588723	17562.853167	1573.533203	2145.885254
-13835.588723	17562.853167	1572.488281	2189.497559
-13835.588723	17562.853167	1571.443359	1919.880249
-13835.588723	17562.853167	1570.397461	2032.157715
-13835.588723	17562.853167	1569.351563	1767.304565
-13835.588723	17562.853167	1568.305664	2192.689209
-13835.588723	17562.853167	1567.259766	2014.796509
-13835.588723	17562.853167	1566.213867	1868.982910
-13835.588723	17562.853167	1565.166992	1805.474731
-13835.588723	17562.853167	1564.120117	1926.977173
-13835.588723	17562.853167	1563.073242	1564.502686
-13835.588723	17562.853167	1562.026367	1934.860718
-13835.588723	17562.853167	1560.978516	2024.426270
-13835.588723	17562.853167	1559.930664	1924.634766
-13835.588723	17562.853167	1558.883789	2055.312256
-13835.588723	17562.853167	1557.834961	1807.394287
-13835.588723	17562.853167	1556.787109	1755.712524
-13835.588723	17562.853167	1555.739258	1740.567749
-13835.588723	17562.853167	1554.690430	1420.050171
-13835.588723	17562.853167	1553.641602	1427.856445
-13835.588723	17562.853167	1552.592773	1371.909424
-13835.588723	17562.853167	1551.542969	1705.549438
-13835.588723	17562.853167	1550.494141	1599.559570
-13835.588723	17562.853167	1549.444336	1816.994385
-13835.588723	17562.853167	1548.394531	1401.507690
-13835.588723	17562.853167	1547.344727	1869.369873
-13835.588723	17562.853167	1546.293945	1699.909546
-13835.588723	17562.853167	1545.244141	1541.944824
-13835.588723	17562.853167	1544.193359	1582.003174
-13835.588723	17562.853167	1543.142578	1462.894531
-13835.588723	17562.853167	1542.090820	1407.553345
-13835.588723	17562.853167	1541.040039	1256.808594
-13835.588723	17562.853167	1539.988281	1288.020630
-13835.588723	17562.853167	1538.936523	1017.026367
-13835.588723	17562.853167	1537.884766	1332.400757
-13835.588723	17562.853167	1536.833008	1166.121338
-13835.588723	17562.853167	1535.780273	1245.255737
-13835.588723	17562.853167	1534.727539	1360.749878
-13835.588723	17562.853167	1533.674805	1153.881958
-13835.588723	17562.853167	1532.622070	1121.938232
-13835.588723	17562.853167	1531.569336	1428.212280
-13835.588723	17562.853167	1530.515625	1403.162842
-13835.588723	17562.853167	1529.461914	1282.911377
-13835.588723	17562.853167	1528.408203	1371.439087
-13835.588723	17562.853167	1527.354492	1026.883667
-13835.588723	17562.853167	1526.299805	1167.703979
-13835.588723	17562.853167	1525.246094	1288.145142
-13835.588723	17562.853167	1524.191406	737.792114
-13835.588723	17562.853167	1523.136719	844.812683
-13835.588723	17562.853167	1522.081055	877.107361
-13835.588723	17562.853167	1521.026367	873.229492
-13835.588723	17562.853167	1519.970703	1025.670532
-13835.588723	17562.853167	1518.915039	1001.535828
-13835.588723	17562.853167	1517.859375	925.423767
-13835.588723	17562.853167	1516.802734	743.051697
-13835.588723	17562.853167	1515.747070	664.917358
-13835.588723	17562.853167	1514.690430	1073.270874
-13835.588723	17562.853167	1513.633789	936.455505
-13835.588723	17562.853167	1512.577148	603.038269
-13835.588723	17562.853167	1511.519531	681.315063
-13835.588723	17562.853167	1510.461914	807.113098
-13835.588723	17562.853167	1509.405273	625.591125
-13835.588723	17562.853167	1508.346680	299.612000
-13835.588723	17562.853167	1507.289063	61.955219
-13835.588723	17562.853167	1506.231445	278.467560
-13835.588723	17562.853167	1505.172852	117.863235
-13835.588723	17562.853167	1504.114258	345.742340
-13835.588723	17562.853167	1503.055664	225.996384
-13835.588723	17562.853167	1501.996094	162.812439
-13835.588723	17562.853167	1500.937500	336.666473
-13835.588723	17562.853167	1499.877930	86.424225
-13835.588723	17562.853167	1498.818359	420.548615
-13835.588723	17562.853167	1497.757813	111.945877
-13835.588723	17562.853167	1496.698242	256.739655
-13835.588723	17562.853167	1495.637695	421.855011
-13835.588723	17562.853167	1494.577148	235.426315
-13835.588723	17562.853167	1493.516602	64.942680
-13835.588723	17562.853167	1492.456055	588.490845
-13835.588723	17562.853167	1491.394531	28.540054
-13835.588723	17562.853167	1490.333008	52.165771
-13835.588723	17562.853167	1489.271484	-83.974968
-13835.588723	17562.853167	1488.209961	9.645934
-13835.588723	17562.853167	1487.148438	-0.193402
-13835.588723	17562.853167	1486.085938	-50.429508
-13835.588723	17562.853167	1485.023438	223.418823
-13835.588723	17562.853167	1483.960938	245.348434
-13835.588723	17562.853167	1482.898438	118.957726
-13835.588723	17562.853167	1481.834961	172.599609
-13835.588723	17562.853167	1480.772461	-135.573959
-13835.588723	17562.853167	1479.708984	-180.533585
-13835.588723	17562.853167	1478.644531	-61.383720
-13835.588723	17562.853167	1477.581055	-76.902718
-13835.588723	17562.853167	1476.517578	257.996887
-13835.588723	17562.853167	1475.453125	291.996674
-13835.588723	17562.853167	1474.388672	119.678413
-13835.588723	17562.853167	1473.323242	237.012955
-13835.588723	17562.853167	1472.258789	589.943481
-13835.588723	17562.853167	1471.193359	186.879959
-13835.588723	17562.853167	1470.127930	275.501282
-13835.588723	17562.853167	1469.062500	527.577637
-13835.588723	17562.853167	1467.997070	517.554993
-13835.588723	17562.853167	1466.930664	605.912659
-13835.588723	17562.853167	1465.865234	338.584686
-13835.588723	17562.853167	1464.798828	132.052582
-13835.588723	17562.853167	1463.731445	353.164948
-13835.588723	17562.853167	1462.665039	547.695007
-13835.588723	17562.853167	1461.597656	444.285065
-13835.588723	17562.853167	1460.530273	723.210571
-13835.588723	17562.853167	1459.462891	377.062073
-13835.588723	17562.853167	1458.395508	704.636963
-13835.588723	17562.853167	1457.327148	559.997559
-13835.588723	17562.853167	1456.259766	295.575745
-13835.588723	17562.853167	1455.191406	599.245728
-13835.588723	17562.853167	1454.123047	696.586853
-13835.588723	17562.853167	1453.053711	522.052551
-13835.588723	17562.853167	1451.985352	532.749573
-13835.588723	17562.853167	1450.916016	418.877075
-13835.588723	17562.853167	1449.846680	714.564880
-13835.588723	17562.853167	1448.776367	396.571472
-13835.588723	17562.853167	1447.707031	567.033813
-13835.588723	17562.853167	1446.636719	211.757553
-13835.588723	17562.853167	1445.566406	286.375824
-13835.588723	17562.853167	1444.496094	202.771896
-13835.588723	17562.853167	1443.425781	-228.522491
-13835.588723	17562.853167	1442.354492	149.021317
-13835.588723	17562.853167	1441.283203	119.750793
-13835.588723	17562.853167	1440.211914	90.939812
-13835.588723	17562.853167	1439.140625	-80.403404
-13835.588723	17562.853167	1438.069336	-238.790146
-13835.588723	17562.853167	1436.997070	175.097900
-13835.588723	17562.853167	1435.924805	100.818474
-13835.588723	17562.853167	1434.852539	-62.210091
-13835.588723	17562.853167	1433.780273	218.082901
-13835.588723	17562.853167	1432.707031	125.527977
-13835.588723	17562.853167	1431.633789	100.791664
-13835.588723	17562.853167	1430.560547	106.929008
-13835.588723	17562.853167	1429.487305	-59.993252
-13835.588723	17562.853167	1428.413086	-153.124603
-13835.588723	17562.853167	1427.339844	-346.829041
-13835.588723	17562.853167	1426.265625	-141.425308
-13835.588723	17562.853167	1425.191406	-62.482040
-13835.588723	17562.853167	1424.116211	-296.945129
-13835.588723	17562.853167	1423.041992	-248.019455
-13835.588723	17562.853167	1421.966797	-154.093124
-13835.588723	17562.853167	1420.891602	-430.043884
-13835.588723	17562.853167	1419.816406	36.464390
-13835.588723	17562.853167	1418.740234	40.181747
-13835.588723	17562.853167	1417.665039	-448.547302
-13835.588723	17562.853167	1416.588867	-179.394699
-13835.588723	17562.853167	1415.512695	203.745392
-13835.588723	17562.853167	1414.435547	-245.981995
-13835.588723	17562.853167	1413.359375	252.364258
-13835.588723	17562.853167	1412.282227	-70.918106
-13835.588723	17562.853167	1411.205078	166.284058
-13835.588723	17562.853167	1410.127930	105.767746
-13835.588723	17562.853167	1409.049805	-110.977661
-13835.588723	17562.853167	1407.972656	101.233658
-13835.588723	17562.853167	1406.894531	357.454620
-13835.588723	17562.853167	1405.816406	100.063309
-13835.588723	17562.853167	1404.737305	38.319054
-13835.588723	17562.853167	1403.659180	63.105812
-13835.588723	17562.853167	1402.580078	254.145508
-13835.588723	17562.853167	1401.500977	364.698395
-13835.588723	17562.853167	1400.421875	-229.614380
-13835.588723	17562.853167	1399.341797	35.842140
-13835.588723	17562.853167	1398.262695	-107.733063
-13835.588723	17562.853167	1397.182617	-34.187126
-13835.588723	17562.853167	1396.102539	-304.252686
-13835.588723	17562.853167	1395.021484	35.248684
-13835.588723	17562.853167	1393.941406	225.139847
-13835.588723	17562.853167	1392.860352	113.062958
-13835.588723	17562.853167	1391.779297	-104.719109
-13835.588723	17562.853167	1390.698242	-215.640015
-13835.588723	17562.853167	1389.616211	-207.044159
-13835.588723	17562.853167	1388.535156	-94.285873
-13835.588723	17562.853167	1387.453125	-41.139690
-13835.588723	17562.853167	1386.371094	-98.542679
-13835.588723	17562.853167	1385.288086	135.489365
-13835.588723	17562.853167	1384.206055	101.671349
-13835.588723	17562.853167	1383.123047	117.917206
-13835.588723	17562.853167	1382.040039	409.804932
-13835.588723	17562.853167	1380.957031	-63.103134
-13835.588723	17562.853167	1379.873047	57.927761
-13835.588723	17562.853167	1378.789063	-100.653709
-13835.588723	17562.853167	1377.705078	429.339722
-13835.588723	17562.853167	1376.621094	268.341400
-13835.588723	17562.853167	1375.537109	128.022964
-13835.588723	17562.853167	1374.452148	316.295563
-13835.588723	17562.853167	1373.367188	205.286865
-13835.588723	17562.853167	1372.282227	19.812925
-13835.588723	17562.853167	1371.197266	79.779732
-13835.588723	17562.853167	1370.112305	85.511177
-13835.588723	17562.853167	1369.026367	399.958069
-13835.588723	17562.853167	1367.940430	161.243439
-13835.588723	17562.853167	1366.854492	359.476288
-13835.588723	17562.853167	1365.767578	327.490570
-13835.588723	17562.853167	1364.681641	683.406494
-13835.588723	17562.853167	1363.594727	765.536926
-13835.588723	17562.853167	1362.507813	758.601868
-13835.588723	17562.853167	1361.419922	999.170105
-13835.588723	17562.853167	1360.333008	812.368530
-13835.588723	17562.853167	1359.245117	527.940796
-13835.588723	17562.853167	1358.157227	683.227295
-13835.588723	17562.853167	1357.069336	818.985413
-13835.588723	17562.853167	1355.981445	930.347534
-13835.588723	17562.853167	1354.892578	1181.410400
-13835.588723	17562.853167	1353.803711	1136.779663
-13835.588723	17562.853167	1352.714844	1140.978271
-13835.588723	17562.853167	1351.625000	1418.501709
-13835.588723	17562.853167	1350.536133	1231.388550
-13835.588723	17562.853167	1349.446289	1181.361206
-13835.588723	17562.853167	1348.356445	880.532410
-13835.588723	17562.853167	1347.266602	813.210022
-13835.588723	17562.853167	1346.175781	843.945007
-13835.588723	17562.853167	1345.085938	745.020691
-13835.588723	17562.853167	1343.995117	462.625366
-13835.588723	17562.853167	1342.903320	877.016602
-13835.588723	17562.853167	1341.812500	935.602112
-13835.588723	17562.853167	1340.720703	889.852051
-13835.588723	17562.853167	1339.629883	940.380554
-13835.588723	17562.853167	1338.538086	690.689697
-13835.588723	17562.853167	1337.445313	577.454773
-13835.588723	17562.853167	1336.353516	565.406433
-13835.588723	17562.853167	1335.260742	753.359863
-13835.588723	17562.853167	1334.167969	721.890869
-13835.588723	17562.853167	1333.075195	611.182190
-13835.588723	17562.853167	1331.981445	625.797913
-13835.588723	17562.853167	1330.888672	620.791565
-13835.588723	17562.853167	1329.794922	429.514526
-13835.588723	17562.853167	1328.701172	528.194336
-13835.588723	17562.853167	1327.606445	663.239014
-13835.588723	17562.853167	1326.512695	146.673996
-13835.588723	17562.853167	1325.417969	537.917847
-13835.588723	17562.853167	1324.323242	602.142822
-13835.588723	17562.853167	1323.227539	477.062225
-13835.588723	17562.853167	1322.132813	139.923080
-13835.588723	17562.853167	1321.037109	366.691650
-13835.588723	17562.853167	1319.941406	-0.717964
-13835.588723	17562.853167	1318.845703	525.162109
-13835.588723	17562.853167	1317.750000	461.545807
-13835.588723	17562.853167	1316.653320	408.533600
-13835.588723	17562.853167	1315.556641	352.488281
-13835.588723	17562.853167	1314.459961	338.323029
-13835.588723	17562.853167	1313.363281	262.661926
-13835.588723	17562.853167	1312.265625	407.457306
-13835.588723	17562.853167	1311.167969	418.821533
-13835.588723	17562.853167	1310.070313	449.011505
-13835.588723	17562.853167	1308.972656	537.889526
-13835.588723	17562.853167	1307.874023	587.005920
-13835.588723	17562.853167	1306.776367	527.417358
-13835.588723	17562.853167	1305.677734	480.432617
-13835.588723	17562.853167	1304.579102	109.284492
-13835.588723	17562.853167	1303.479492	100.949478
-13835.588723	17562.853167	1302.380859	405.190430
-13835.588723	17562.853167	1301.281250	390.691833
-13835.588723	17562.853167	1300.181641	204.154846
-13835.588723	17562.853167	1299.081055	156.653946
-13835.588723	17562.853167	1297.981445	163.291061
-13835.588723	17562.853167	1296.880859	473.118530
-13835.588723	17562.853167	1295.780273	475.169189
-13835.588723	17562.853167	1294.679688	752.211487
-13835.588723	17562.853167	1293.578125	-50.097752
-13835.588723	17562.853167	1292.476563	338.496674
-13835.588723	17562.853167	1291.375000	409.720215
-13835.588723	17562.853167	1290.273438	-32.772030
-13835.588723	17562.853167	1289.171875	-172.106155
-13835.588723	17562.853167	1288.069336	131.785217
-13835.588723	17562.853167	1286.966797	213.176331
-13835.588723	17562.853167	1285.864258	168.304321
-13835.588723	17562.853167	1284.761719	-128.847626
-13835.588723	17562.853167	1283.658203	145.092880
-13835.588723	17562.853167	1282.554688	160.638000
-13835.588723	17562.853167	1281.451172	203.153732
-13835.588723	17562.853167	1280.347656	-21.450966
-13835.588723	17562.853167	1279.244141	75.643028
-13835.588723	17562.853167	1278.139648	156.558411
-13835.588723	17562.853167	1277.035156	323.135040
-13835.588723	17562.853167	1275.930664	414.914703
-13835.588723	17562.853167	1274.825195	-142.221939
-13835.588723	17562.853167	1273.720703	35.366367
-13835.588723	17562.853167	1272.615234	412.036041
-13835.588723	17562.853167	1271.508789	213.426636
-13835.588723	17562.853167	1270.403320	169.186829
-13835.588723	17562.853167	1269.297852	148.673965
-13835.588723	17562.853167	1268.191406	99.237816
-13835.588723	17562.853167	1267.084961	-164.755051
-13835.588723	17562.853167	1265.977539	-33.083660
-13835.588723	17562.853167	1264.871094	-90.603905
-13835.588723	17562.853167	1263.763672	-187.770935
-13835.588723	17562.853167	1262.656250	-124.980186
-13835.588723	17562.853167	1261.548828	-119.451706
-13835.588723	17562.853167	1260.440430	-38.561909
-13835.588723	17562.853167	1259.333008	138.477249
-13835.588723	17562.853167	1258.224609	310.207214
-13835.588723	17562.853167	1257.115234	220.185455
-13835.588723	17562.853167	1256.006836	-10.179236
-13835.588723	17562.853167	1254.897461	-17.536516
-13835.588723	17562.853167	1253.788086	149.612259
-13835.588723	17562.853167	1252.678711	-81.003792
-13835.588723	17562.853167	1251.569336	266.102295
-13835.588723	17562.853167	1250.458984	77.909912
-13835.588723	17562.853167	1249.349609	225.178894
-13835.588723	17562.853167	1248.239258	28.830418
-13835.588723	17562.853167	1247.127930	48.761673
-13835.588723	17562.853167	1246.017578	446.825958
-13835.588723	17562.853167	1244.906250	136.593109
-13835.588723	17562.853167	1243.794922	295.955872
-13835.588723	17562.853167	1242.683594	223.205856
-13835.588723	17562.853167	1241.571289	-102.149902
-13835.588723	17562.853167	1240.459961	84.167290
-13835.588723	17562.853167	1239.347656	81.196373
-13835.588723	17562.853167	1238.234375	149.475113
-13835.588723	17562.853167	1237.122070	86.899200
-13835.588723	17562.853167	1236.008789	-89.773506
-13835.588723	17562.853167	1234.896484	429.024445
-13835.588723	17562.853167	1233.782227	482.286163
-13835.588723	17562.853167	1232.668945	300.734558
-13835.588723	17562.853167	1231.555664	77.583778
-13835.588723	17562.853167	1230.441406	238.786469
-13835.588723	17562.853167	1229.327148	302.461517
-13835.588723	17562.853167	1228.211914	295.666992
-13835.588723	17562.853167	1227.097656	281.259125
-13835.588723	17562.853167	1225.982422	356.781281
-13835.588723	17562.853167	1224.867188	94.113991
-13835.588723	17562.853167	1223.751953	262.373047
-13835.588723	17562.853167	1222.635742	33.538486
-13835.588723	17562.853167	1221.520508	238.735886
-13835.588723	17562.853167	1220.404297	192.063477
-13835.588723	17562.853167	1219.287109	181.555054
-13835.588723	17562.853167	1218.170898	-49.574059
-13835.588723	17562.853167	1217.053711	-36.053688
-13835.588723	17562.853167	1215.936523	83.215324
-13835.588723	17562.853167	1214.819336	296.458160
-13835.588723	17562.853167	1213.702148	142.298386
-13835.588723	17562.853167	1212.583984	85.040375
-13835.588723	17562.853167	1211.465820	245.947311
-13835.588723	17562.853167	1210.347656	-8.501716
-13835.588723	17562.853167	1209.229492	7.387212
-13835.588723	17562.853167	1208.110352	-119.581573
-13835.588723	17562.853167	1206.992188	143.291611
-13835.588723	17562.853167	1205.873047	-105.437874
-13835.588723	17562.853167	1204.752930	54.576225
-13835.588723	17562.853167	1203.633789	-45.126522
-13835.588723	17562.853167	1202.513672	-121.705635
-13835.588723	17562.853167	1201.393555	44.734932
-13835.588723	17562.853167	1200.273438	-204.399933
-13835.588723	17562.853167	1199.152344	-144.786407
-13835.588723	17562.853167	1198.032227	194.478455
-13835.588723	17562.853167	1196.911133	220.172531
-13835.588723	17562.853167	1195.790039	129.852112
-13835.588723	17562.853167	1194.667969	-19.709816
-13835.588723	17562.853167	1193.545898	194.300858
-13835.588723	17562.853167	1192.424805	369.850708
-13835.588723	17562.853167	1191.301758	153.616699
-13835.588723	17562.853167	1190.179688	96.641846
-13835.588723	17562.853167	1189.056641	90.235031
-13835.588723	17562.853167	1187.933594	205.413635
-13835.588723	17562.853167	1186.810547	133.039597
-13835.588723	17562.853167	1185.687500	-92.939156
-13835.588723	17562.853167	1184.563477	40.250164
-13835.588723	17562.853167	1183.440430	-61.246693
-13835.588723	17562.853167	1182.316406	262.742157
-13835.588723	17562.853167	1181.191406	41.074741
-13835.588723	17562.853167	1180.067383	9.807118
-13835.588723	17562.853167	1178.942383	-14.049126
-13835.588723	17562.853167	1177.817383	271.031494
-13835.588723	17562.853167	1176.692383	-47.518734
-13835.588723	17562.853167	1175.566406	-199.333435
-13835.588723	17562.853167	1174.440430	-321.133148
-13835.588723	17562.853167	1173.314453	-218.665192
-13835.588723	17562.853167	1172.188477	48.010590
-13835.588723	17562.853167	1171.062500	-61.892220
-13835.588723	17562.853167	1169.935547	-27.476196
-13835.588723	17562.853167	1168.808594	42.061825
-13835.588723	17562.853167	1167.681641	38.501877
-13835.588723	17562.853167	1166.553711	238.596725
-13835.588723	17562.853167	1165.426758	140.868393
-13835.588723	17562.853167	1164.298828	-184.227158
-13835.588723	17562.853167	1163.170898	-303.835754
-13835.588723	17562.853167	1162.041992	-28.314133
-13835.588723	17562.853167	1160.914063	185.125763
-13835.588723	17562.853167	1159.785156	10.146536
-13835.588723	17562.853167	1158.656250	13.903406
-13835.588723	17562.853167	1157.526367	14.406612
-13835.588723	17562.853167	1156.397461	-244.973297
-13835.588723	17562.853167	1155.267578	-180.613144
-13835.588723	17562.853167	1154.137695	44.275311
-13835.588723	17562.853167	1153.006836	29.092756
-13835.588723	17562.853167	1151.876953	-291.522186
-13835.588723	17562.853167	1150.746094	-26.440939
-13835.588723	17562.853167	1149.615234	-81.337845
-13835.588723	17562.853167	1148.484375	-353.784302
-13835.588723	17562.853167	1147.352539	-189.965836
-13835.588723	17562.853167	1146.220703	-309.939392
-13835.588723	17562.853167	1145.088867	-344.834961
-13835.588723	17562.853167	1143.957031	-143.743362
-13835.588723	17562.853167	1142.825195	-188.755539
-13835.588723	17562.853167	1141.692383	-354.416626
-13835.588723	17562.853167	1140.559570	-212.419922
-13835.588723	17562.853167	1139.426758	-164.516464
-13835.588723	17562.853167	1138.292969	-349.148071
-13835.588723	17562.853167	1137.159180	49.709000
-13835.588723	17562.853167	1136.025391	67.260780
-13835.588723	17562.853167	1134.891602	-116.837418
-13835.588723	17562.853167	1133.757813	-41.131466
-13835.588723	17562.853167	1132.623047	-32.366234
-13835.588723	17562.853167	1131.488281	-37.591820
-13835.588723	17562.853167	1130.353516	-185.490768
-13835.588723	17562.853167	1129.217773	53.926231
-13835.588723	17562.853167	1128.083008	40.474670
-13835.588723	17562.853167	1126.947266	-22.328876
-13835.588723	17562.853167	1125.811523	190.104599
-13835.588723	17562.853167	1124.674805	-70.280777
-13835.588723	17562.853167	1123.539063	-11.571188
-13835.588723	17562.853167	1122.402344	129.376312
-13835.588723	17562.853167	1121.265625	509.375702
-13835.588723	17562.853167	1120.127930	344.118896
-13835.588723	17562.853167	1118.990234	251.613373
-13835.588723	17562.853167	1117.853516	51.367023
-13835.588723	17562.853167	1116.714844	169.036743
-13835.588723	17562.853167	1115.577148	207.466064
-13835.588723	17562.853167	1114.439453	265.555786
-13835.588723	17562.853167	1113.300781	194.438736
-13835.588723	17562.853167	1112.162109	3.496081
-13835.588723	17562.853167	1111.022461	179.059753
-13835.588723	17562.853167	1109.883789	249.192230
-13835.588723	17562.853167	1108.744141	122.729874
-13835.588723	17562.853167	1107.604492	290.273010
-13835.588723	17562.853167	1106.463867	424.592682
-13835.588723	17562.853167	1105.324219	482.972870
-13835.588723	17562.853167	1104.183594	392.786377
-13835.588723	17562.853167	1103.042969	-138.051651
-13835.588723	17562.853167	1101.902344	319.032440
-13835.588723	17562.853167	1100.760742	242.276138
-13835.588723	17562.853167	1099.619141	323.569519
-13835.588723	17562.853167	1098.477539	282.466705
-13835.588723	17562.853167	1097.335938	447.471069
-13835.588723	17562.853167	1096.193359	463.218201
-13835.588723	17562.853167	1095.051758	549.517334
-13835.588723	17562.853167	1093.909180	497.013062
-13835.588723	17562.853167	1092.765625	700.735962
-13835.588723	17562.853167	1091.623047	568.958679
-13835.588723	17562.853167	1090.479492	685.298035
-13835.588723	17562.853167	1089.335938	562.119751
-13835.588723	17562.853167	1088.192383	626.259216
-13835.588723	17562.853167	1087.047852	448.861267
-13835.588723	17562.853167	1085.903320	461.030151
-13835.588723	17562.853167	1084.758789	380.087677
-13835.588723	17562.853167	1083.614258	515.267944
-13835.588723	17562.853167	1082.469727	454.543182
-13835.588723	17562.853167	1081.324219	531.542114
-13835.588723	17562.853167	1080.178711	346.887115
-13835.588723	17562.853167	1079.033203	93.452881
-13835.588723	17562.853167	1077.886719	595.738953
-13835.588723	17562.853167	1076.740234	585.604370
-13835.588723	17562.853167	1075.593750	310.734406
-13835.588723	17562.853167	1074.447266	691.708923
-13835.588723	17562.853167	1073.300781	573.760071
-13835.588723	17562.853167	1072.153320	447.324432
-13835.588723	17562.853167	1071.005859	718.849609
-13835.588723	17562.853167	1069.858398	510.372406
-13835.588723	17562.853167	1068.709961	650.118286
-13835.588723	17562.853167	1067.561523	727.445313
-13835.588723	17562.853167	1066.413086	354.038788
-13835.588723	17562.853167	1065.264648	459.804901
-13835.588723	17562.853167	1064.116211	437.940796
-13835.588723	17562.853167	1062.966797	574.909668
-13835.588723	17562.853167	1061.817383	390.173615
-13835.588723	17562.853167	1060.667969	423.379150
-13835.588723	17562.853167	1059.517578	370.795807
-13835.588723	17562.853167	1058.368164	303.577454
-13835.588723	17562.853167	1057.217773	707.247681
-13835.588723	17562.853167	1056.067383	147.376663
-13835.588723	17562.853167	1054.916016	129.772659
-13835.588723	17562.853167	1053.764648	174.502197
-13835.588723	17562.853167	1052.613281	548.707825
-13835.588723	17562.853167	1051.461914	604.325195
-13835.588723	17562.853167	1050.310547	513.291809
-13835.588723	17562.853167	1049.158203	495.708527
-13835.588723	17562.853167	1048.005859	463.892426
-13835.588723	17562.853167	1046.853516	423.490021
-13835.588723	17562.853167	1045.700195	698.890991
-13835.588723	17562.853167	1044.547852	556.744080
-13835.588723	17562.853167	1043.394531	604.375183
-13835.588723	17562.853167	1042.240234	581.452148
-13835.588723	17562.853167	1041.086914	454.255157
-13835.588723	17562.853167	1039.932617	453.789307
-13835.588723	17562.853167	1038.778320	36.071819
-13835.588723	17562.853167	1037.624023	700.093140
-13835.588723	17562.853167	1036.469727	623.158203
-13835.588723	17562.853167	1035.314453	665.935059
-13835.588723	17562.853167	1034.159180	830.740356
-13835.588723	17562.853167	1033.003906	566.511719
-13835.588723	17562.853167	1031.847656	664.696411
-13835.588723	17562.853167	1030.692383	678.107849
-13835.588723	17562.853167	1029.536133	939.061829
-13835.588723	17562.853167	1028.378906	558.790833
-13835.588723	17562.853167	1027.222656	674.970337
-13835.588723	17562.853167	1026.065430	846.997559
-13835.588723	17562.853167	1024.908203	417.330597
-13835.588723	17562.853167	1023.750977	359.538208
-13835.588723	17562.853167	1022.593750	517.091431
-13835.588723	17562.853167	1021.435547	395.258942
-13835.588723	17562.853167	1020.277344	573.917236
-13835.588723	17562.853167	1019.119141	687.853821
-13835.588723	17562.853167	1017.959961	617.544189
-13835.588723	17562.853167	1016.800781	300.919708
-13835.588723	17562.853167	1015.641602	299.396973
-13835.588723	17562.853167	1014.482422	235.519379
-13835.588723	17562.853167	1013.323242	575.054993
-13835.588723	17562.853167	1012.163086	587.926086
-13835.588723	17562.853167	1011.002930	637.426025
-13835.588723	17562.853167	1009.842773	599.096313
-13835.588723	17562.853167	1008.681641	366.939148
-13835.588723	17562.853167	1007.520508	345.800873
-13835.588723	17562.853167	1006.359375	494.072723
-13835.588723	17562.853167	1005.198242	412.128296
-13835.588723	17562.853167	1004.037109	253.563858
-13835.588723	17562.853167	1002.875000	451.275635
-13835.588723	17562.853167	1001.712891	449.389893
-13835.588723	17562.853167	1000.550781	524.266602
-13835.588723	17562.853167	999.387695	392.081055
-13835.588723	17562.853167	998.224609	614.651245
-13835.588723	17562.853167	997.061523	346.667236
-13835.588723	17562.853167	995.898438	-70.809761
-13835.588723	17562.853167	994.734375	270.055389
-13835.588723	17562.853167	993.571289	348.645111
-13835.588723	17562.853167	992.407227	273.203125
-13835.588723	17562.853167	991.242188	424.577545
-13835.588723	17562.853167	990.078125	276.411133
-13835.588723	17562.853167	988.913086	-106.945473
-13835.588723	17562.853167	987.748047	163.049271
-13835.588723	17562.853167	986.583008	244.687119
-13835.588723	17562.853167	985.416992	129.347473
-13835.588723	17562.853167	984.250977	236.994034
-13835.588723	17562.853167	983.084961	518.643188
-13835.588723	17562.853167	981.918945	382.717560
-13835.588723	17562.853167	980.751953	149.818970
-13835.588723	17562.853167	979.584961	84.800102
-13835.588723	17562.853167	978.417969	265.273102
-13835.588723	17562.853167	977.250977	148.330566
-13835.588723	17562.853167	976.083008	-74.086174
-13835.588723	17562.853167	974.915039	180.420898
-13835.588723	17562.853167	973.747070	401.346741
-13835.588723	17562.853167	972.579102	138.742950
-13835.588723	17562.853167	971.410156	-146.478683
-13835.588723	17562.853167	970.242188	360.147827
-13835.588723	17562.853167	969.072266	422.650848
-13835.588723	17562.853167	967.903320	124.091614
-13835.588723	17562.853167	966.733398	2.911628
-13835.588723	17562.853167	965.563477	185.747849
-13835.588723	17562.853167	964.393555	66.524956
-13835.588723	17562.853167	963.223633	382.607147
-13835.588723	17562.853167	962.052734	56.417347
-13835.588723	17562.853167	960.881836	-157.371994
-13835.588723	17562.853167	959.710938	72.693123
-13835.588723	17562.853167	958.540039	123.771812
-13835.588723	17562.853167	957.368164	162.593430
-13835.588723	17562.853167	956.196289	389.846313
-13835.588723	17562.853167	955.024414	75.908325
-13835.588723	17562.853167	953.851563	-5.172999
-13835.588723	17562.853167	952.679688	219.855682
-13835.588723	17562.853167	951.506836	305.715393
-13835.588723	17562.853167	950.333984	216.247208
-13835.588723	17562.853167	949.160156	386.515930
-13835.588723	17562.853167	947.986328	13.780768
-13835.588723	17562.853167	946.812500	-97.957375
-13835.588723	17562.853167	945.638672	103.134499
-13835.588723	17562.853167	944.464844	10.701843
-13835.588723	17562.853167	943.290039	-12.837235
-13835.588723	17562.853167	942.115234	251.077515
-13835.588723	17562.853167	940.940430	99.290779
-13835.588723	17562.853167	939.764648	132.554489
-13835.588723	17562.853167	938.588867	-35.096317
-13835.588723	17562.853167	937.413086	-180.389206
-13835.588723	17562.853167	936.237305	73.463890
-13835.588723	17562.853167	935.060547	115.661942
-13835.588723	17562.853167	933.883789	164.374985
-13835.588723	17562.853167	932.707031	190.678192
-13835.588723	17562.853167	931.530273	283.871338
-13835.588723	17562.853167	930.352539	-325.926849
-13835.588723	17562.853167	929.175781	84.064667
-13835.588723	17562.853167	927.998047	185.939697
-13835.588723	17562.853167	926.819336	66.937325
-13835.588723	17562.853167	925.641602	135.364319
-13835.588723	17562.853167	924.462891	150.124710
-13835.588723	17562.853167	923.284180	91.262054
-13835.588723	17562.853167	922.104492	-18.904144
-13835.588723	17562.853167	920.924805	140.652161
-13835.588723	17562.853167	919.746094	147.904449
-13835.588723	17562.853167	919.551758	11.562352
-13835.588723	17562.853167	918.386719	108.471092
-13835.588723	17562.853167	917.220703	-99.903160
-13835.588723	17562.853167	916.054688	-34.282288
-13835.588723	17562.853167	914.887695	200.510361
-13835.588723	17562.853167	913.721680	181.348785
-13835.588723	17562.853167	912.554688	-138.346329
-13835.588723	17562.853167	911.387695	-3.956843
-13835.588723	17562.853167	910.220703	210.438049
-13835.588723	17562.853167	909.052734	-149.233231
-13835.588723	17562.853167	907.885742	251.846985
-13835.588723	17562.853167	906.717773	7.862706
-13835.588723	17562.853167	905.548828	-413.915741
-13835.588723	17562.853167	904.380859	-213.188095
-13835.588723	17562.853167	903.211914	227.434555
-13835.588723	17562.853167	902.042969	-67.597397
-13835.588723	17562.853167	900.874023	-38.218655
-13835.588723	17562.853167	899.704102	204.330917
-13835.588723	17562.853167	898.535156	-130.591415
-13835.588723	17562.853167	897.365234	9.688003
-13835.588723	17562.853167	896.194336	305.253906
-13835.588723	17562.853167	895.024414	165.707855
-13835.588723	17562.853167	893.853516	-133.554016
-13835.588723	17562.853167	892.682617	-11.256896
-13835.588723	17562.853167	891.511719	-119.690987
-13835.588723	17562.853167	890.340820	-90.632835
-13835.588723	17562.853167	889.168945	9.329745
-13835.588723	17562.853167	887.997070	-112.420929
-13835.588723	17562.853167	886.825195	-218.634094
-13835.588723	17562.853167	885.653320	-158.666382
-13835.588723	17562.853167	884.480469	-291.455353
-13835.588723	17562.853167	883.307617	-78.733849
-13835.588723	17562.853167	882.134766	-118.536301
-13835.588723	17562.853167	880.961914	-32.166649
-13835.588723	17562.853167	879.788086	324.171814
-13835.588723	17562.853167	878.614258	93.945511
-13835.588723	17562.853167	877.440430	7.596549
-13835.588723	17562.853167	876.266602	-27.864613
-13835.588723	17562.853167	875.091797	100.323494
-13835.588723	17562.853167	873.916992	-39.093399
-13835.588723	17562.853167	872.742188	29.322878
-13835.588723	17562.853167	871.567383	-6.182876
-13835.588723	17562.853167	870.391602	-50.525078
-13835.588723	17562.853167	869.215820	-165.557571
-13835.588723	17562.853167	868.040039	-0.051236
-13835.588723	17562.853167	866.864258	13.002378
-13835.588723	17562.853167	865.687500	41.493443
-13835.588723	17562.853167	864.510742	74.376701
-13835.588723	17562.853167	863.333984	327.924225
-13835.588723	17562.853167	862.157227	71.658089
-13835.588723	17562.853167	860.979492	49.327732
-13835.588723	17562.853167	859.802734	49.047222
-13835.588723	17562.853167	858.625000	90.656693
-13835.588723	17562.853167	857.446289	149.881241
-13835.588723	17562.853167	856.268555	-154.629883
-13835.588723	17562.853167	855.089844	28.012178
-13835.588723	17562.853167	853.911133	-287.380402
-13835.588723	17562.853167	852.731445	18.560806
-13835.588723	17562.853167	851.552734	-228.442657
-13835.588723	17562.853167	850.373047	116.980385
-13835.588723	17562.853167	849.193359	-39.691917
-13835.588723	17562.853167	848.013672	17.197105
-13835.588723	17562.853167	846.833008	-62.376759
-13835.588723	17562.853167	845.652344	157.297043
-13835.588723	17562.853167	844.471680	93.113419
-13835.588723	17562.853167	843.291016	167.502426
-13835.588723	17562.853167	842.110352	-11.004314
-13835.588723	17562.853167	840.928711	111.732933
-13835.588723	17562.853167	839.747070	212.438354
-13835.588723	17562.853167	838.564453	-20.908478
-13835.588723	17562.853167	837.382813	-87.197426
-13835.588723	17562.853167	836.200195	24.461941
-13835.588723	17562.853167	835.017578	-92.321472
-13835.588723	17562.853167	833.834961	-110.256401
-13835.588723	17562.853167	832.651367	-200.621170
-13835.588723	17562.853167	831.467773	-407.273712
-13835.588723	17562.853167	830.284180	-58.692329
-13835.588723	17562.853167	829.100586	136.175903
-13835.588723	17562.853167	827.916992	72.145607
-13835.588723	17562.853167	826.732422	152.875870
-13835.588723	17562.853167	825.547852	-36.102612
-13835.588723	17562.853167	824.363281	103.798164
-13835.588723	17562.853167	823.177734	129.682556
-13835.588723	17562.853167	821.992188	135.835098
-13835.588723	17562.853167	820.806641	361.048859
-13835.588723	17562.853167	819.621094	-184.781570
-13835.588723	17562.853167	818.434570	-150.100739
-13835.588723	17562.853167	817.249023	-253.365112
-13835.588723	17562.853167	816.062500	-8.557593
-13835.588723	17562.853167	814.875000	122.356956
-13835.588723	17562.853167	813.688477	246.648605
-13835.588723	17562.853167	812.500977	23.080458
-13835.588723	17562.853167	811.313477	-108.541588
-13835.588723	17562.853167	810.125977	-211.684372
-13835.588723	17562.853167	808.937500	-111.470329
-13835.588723	17562.853167	807.749023	-107.470558
-13835.588723	17562.853167	806.560547	-77.249603
-13835.588723	17562.853167	805.372070	-199.977509
-13835.588723	17562.853167	804.182617	-174.116608
-13835.588723	17562.853167	802.994141	-89.309059
-13835.588723	17562.853167	801.803711	261.847443
-13835.588723	17562.853167	800.614258	-85.698212
-13835.588723	17562.853167	799.424805	-22.789249
-13835.588723	17562.853167	798.234375	103.377525
-13835.588723	17562.853167	797.043945	-84.665604
-13835.588723	17562.853167	795.852539	37.095482
-13835.588723	17562.853167	794.662109	-28.741243
-13835.588723	17562.853167	793.470703	424.352661
-13835.588723	17562.853167	792.279297	-31.729271
-13835.588723	17562.853167	791.087891	-67.006851
-13835.588723	17562.853167	789.895508	13.211662
-13835.588723	17562.853167	788.703125	-37.316929
-13835.588723	17562.853167	787.510742	-48.624226
-13835.588723	17562.853167	786.318359	94.672218
-13835.588723	17562.853167	785.125000	-53.821861
-13835.588723	17562.853167	783.931641	17.579973
-13835.588723	17562.853167	782.738281	-82.974243
-13835.588723	17562.853167	781.544922	-55.125572
-13835.588723	17562.853167	780.350586	27.092972
-13835.588723	17562.853167	779.156250	313.701782
-13835.588723	17562.853167	777.961914	-89.098442
-13835.588723	17562.853167	776.767578	-141.735931
-13835.588723	17562.853167	775.572266	14.299200
-13835.588723	17562.853167	774.376953	320.199158
-13835.588723	17562.853167	773.181641	319.625549
-13835.588723	17562.853167	771.986328	193.056351
-13835.588723	17562.853167	770.790039	29.614594
-13835.588723	17562.853167	769.593750	289.617493
-13835.588723	17562.853167	768.397461	132.710968
-13835.588723	17562.853167	767.201172	679.042847
-13835.588723	17562.853167	766.003906	153.216568
-13835.588723	17562.853167	764.806641	237.205566
-13835.588723	17562.853167	763.609375	366.690857
-13835.588723	17562.853167	762.412109	500.443268
-13835.588723	17562.853167	761.213867	74.763412
-13835.588723	17562.853167	760.015625	251.843460
-13835.588723	17562.853167	758.817383	-30.608267
-13835.588723	17562.853167	757.618164	94.386459
-13835.588723	17562.853167	756.419922	43.835865
-13835.588723	17562.853167	755.220703	151.396286
-13835.588723	17562.853167	754.021484	46.685730
-13835.588723	17562.853167	752.821289	355.498718
-13835.588723	17562.853167	751.621094	207.459137
-13835.588723	17562.853167	750.420898	9.685361
-13835.588723	17562.853167	749.220703	106.213722
-13835.588723	17562.853167	748.020508	-115.300293
-13835.588723	17562.853167	746.819336	4.957214
-13835.588723	17562.853167	745.618164	75.407043
-13835.588723	17562.853167	744.416992	206.329636
-13835.588723	17562.853167	743.214844	69.171631
-13835.588723	17562.853167	742.012695	98.426109
-13835.588723	17562.853167	740.810547	116.838341
-13835.588723	17562.853167	739.608398	340.405518
-13835.588723	17562.853167	738.406250	242.083878
-13835.588723	17562.853167	737.203125	-152.018066
-13835.588723	17562.853167	736.000000	-86.203987
-13835.588723	17562.853167	734.795898	14.081897
-13835.588723	17562.853167	733.592773	511.303528
-13835.588723	17562.853167	732.388672	514.274414
-13835.588723	17562.853167	731.184570	118.198822
-13835.588723	17562.853167	729.979492	319.563965
-13835.588723	17562.853167	728.775391	221.132858
-13835.588723	17562.853167	727.570313	-258.808563
-13835.588723	17562.853167	726.365234	69.533813
-13835.588723	17562.853167	725.160156	147.770447
-13835.588723	17562.853167	723.954102	314.253632
-13835.588723	17562.853167	722.748047	213.570602
-13835.588723	17562.853167	721.541992	69.821968
-13835.588723	17562.853167	720.334961	-106.198654
-13835.588723	17562.853167	719.128906	103.063271
-13835.588723	17562.853167	717.921875	26.000517
-13835.588723	17562.853167	716.714844	170.512955
-13835.588723	17562.853167	715.506836	-414.248566
-13835.588723	17562.853167	714.298828	7.612024
-13835.588723	17562.853167	713.090820	78.789085
-13835.588723	17562.853167	711.882813	-183.300323
-13835.588723	17562.853167	710.674805	51.116318
-13835.588723	17562.853167	709.465820	14.648648
-13835.588723	17562.853167	708.256836	-187.271927
-13835.588723	17562.853167	707.047852	134.894684
-13835.588723	17562.853167	705.837891	-148.675568
-13835.588723	17562.853167	704.627930	-266.873444
-13835.588723	17562.853167	703.417969	-170.440079
-13835.588723	17562.853167	702.208008	97.574829
-13835.588723	17562.853167	700.998047	-44.382389
-13835.588723	17562.853167	699.787109	-87.665298
-13835.588723	17562.853167	698.576172	325.816071
-13835.588723	17562.853167	697.364258	108.670975
-13835.588723	17562.853167	696.153320	144.510300
-13835.588723	17562.853167	694.941406	291.723236
-13835.588723	17562.853167	693.729492	55.241817
-13835.588723	17562.853167	692.516602	99.446541
-13835.588723	17562.853167	691.304688	-38.502388
-13835.588723	17562.853167	690.091797	305.373688
-13835.588723	17562.853167	688.878906	336.444489
-13835.588723	17562.853167	687.665039	194.045456
-13835.588723	17562.853167	686.451172	130.819916
-13835.588723	17562.853167	685.237305	131.739716
-13835.588723	17562.853167	684.023438	327.255249
-13835.588723	17562.853167	682.809570	289.486847
-13835.588723	17562.853167	681.594727	232.418106
-13835.588723	17562.853167	680.379883	446.806000
-13835.588723	17562.853167	679.165039	599.042358
-13835.588723	17562.853167	677.949219	251.085251
-13835.588723	17562.853167	676.733398	428.783661
-13835.588723	17562.853167	675.517578	332.910339
-13835.588723	17562.853167	674.301758	337.370850
-13835.588723	17562.853167	673.084961	504.025452
-13835.588723	17562.853167	671.869141	106.958260
-13835.588723	17562.853167	670.651367	356.667145
-13835.588723	17562.853167	669.434570	288.244843
-13835.588723	17562.853167	668.216797	264.570404
-13835.588723	17562.853167	667.000000	530.900452
-13835.588723	17562.853167	665.781250	133.835587
-13835.588723	17562.853167	664.563477	152.596420
-13835.588723	17562.853167	663.344727	28.448233
-13835.588723	17562.853167	662.125977	345.412872
-13835.588723	17562.853167	660.907227	257.325775
-13835.588723	17562.853167	659.688477	181.969711
-13835.588723	17562.853167	658.468750	336.575439
-13835.588723	17562.853167	657.249023	344.104553
-13835.588723	17562.853167	656.029297	191.875092
-13835.588723	17562.853167	654.808594	516.391052
-13835.588723	17562.853167	653.587891	72.477676
-13835.588723	17562.853167	652.367188	379.681488
-13835.588723	17562.853167	651.146484	495.226807
-13835.588723	17562.853167	649.924805	531.947632
-13835.588723	17562.853167	648.704102	196.481796
-13835.588723	17562.853167	647.482422	337.229919
-13835.588723	17562.853167	646.259766	258.922058
-13835.588723	17562.853167	645.037109	490.782501
-13835.588723	17562.853167	643.815430	195.604263
-13835.588723	17562.853167	642.591797	592.863342
-13835.588723	17562.853167	641.369141	223.282806
-13835.588723	17562.853167	640.145508	123.391357
-13835.588723	17562.853167	638.921875	524.382568
-13835.588723	17562.853167	637.698242	487.949829
-13835.588723	17562.853167	636.474609	540.550232
-13835.588723	17562.853167	635.250000	200.606964
-13835.588723	17562.853167	634.025391	259.423462
-13835.588723	17562.853167	632.800781	258.751770
-13835.588723	17562.853167	631.575195	448.780670
-13835.588723	17562.853167	630.349609	136.325531
-13835.588723	17562.853167	629.124023	561.322144
-13835.588723	17562.853167	627.898438	375.907471
-13835.588723	17562.853167	626.671875	234.955719
-13835.588723	17562.853167	625.445313	-210.967346
-13835.588723	17562.853167	624.218750	386.988251
-13835.588723	17562.853167	622.992188	156.947906
-13835.588723	17562.853167	621.764648	411.547394
-13835.588723	17562.853167	620.537109	-15.354133
-13835.588723	17562.853167	619.309570	-181.971008
-13835.588723	17562.853167	618.081055	258.383209
-13835.588723	17562.853167	616.852539	169.837494
-13835.588723	17562.853167	615.624023	-73.084053
-13835.588723	17562.853167	614.395508	28.525457
-13835.588723	17562.853167	613.166992	113.102257
-13835.588723	17562.853167	611.937500	34.875580
-13835.588723	17562.853167	610.708008	131.914429
-13835.588723	17562.853167	609.477539	87.334686
-13835.588723	17562.853167	608.248047	-219.118454
-13835.588723	17562.853167	607.017578	-101.231567
-13835.588723	17562.853167	605.787109	81.947563
-13835.588723	17562.853167	604.555664	-152.818771
-13835.588723	17562.853167	603.325195	-128.085541
-13835.588723	17562.853167	602.093750	-318.577148
-13835.588723	17562.853167	600.861328	-180.113037
-13835.588723	17562.853167	599.629883	-14.378540
-13835.588723	17562.853167	598.397461	35.280590
-13835.588723	17562.853167	597.165039	-127.997192
-13835.588723	17562.853167	595.932617	-23.704830
-13835.588723	17562.853167	594.699219	-85.941528
-13835.588723	17562.853167	593.465820	-512.558777
-13835.588723	17562.853167	592.232422	400.054077
-13835.588723	17562.853167	590.999023	-37.150391
-13835.588723	17562.853167	589.764648	-131.181641
-13835.588723	17562.853167	588.530273	-92.677902
-13835.588723	17562.853167	587.295898	-214.137726
-13835.588723	17562.853167	586.061523	-182.071335
-13835.588723	17562.853167	584.826172	400.863373
-13835.588723	17562.853167	583.590820	327.540192
-13835.588723	17562.853167	582.355469	65.015404
-13835.588723	17562.853167	581.119141	260.666260
-13835.588723	17562.853167	579.882813	298.601135
-13835.588723	17562.853167	578.646484	27.675299
-13835.588723	17562.853167	577.410156	340.658051
-13835.588723	17562.853167	576.172852	445.578888
-13835.588723	17562.853167	574.935547	458.040741
-13835.588723	17562.853167	573.698242	84.268044
-13835.588723	17562.853167	572.460938	298.151337
-13835.588723	17562.853167	571.222656	25.179152
-13835.588723	17562.853167	569.984375	79.487801
-13835.588723	17562.853167	568.746094	35.172974
-13835.588723	17562.853167	567.506836	173.238831
-13835.588723	17562.853167	566.267578	3.077705
-13835.588723	17562.853167	565.028320	-106.269295
-13835.588723	17562.853167	563.789063	163.635422
-13835.588723	17562.853167	562.548828	360.073364
-13835.588723	17562.853167	561.309570	-143.104080
-13835.588723	17562.853167	560.068359	260.552856
-13835.588723	17562.853167	558.828125	75.762749
-13835.588723	17562.853167	557.586914	-2.233784
-13835.588723	17562.853167	556.345703	-136.712006
-13835.588723	17562.853167	555.104492	-43.113079
-13835.588723	17562.853167	553.863281	96.449966
-13835.588723	17562.853167	552.621094	-182.305771
-13835.588723	17562.853167	551.378906	339.807434
-13835.588723	17562.853167	550.136719	82.002777
-13835.588723	17562.853167	548.893555	4.028624
-13835.588723	17562.853167	547.650391	201.885254
-13835.588723	17562.853167	546.407227	343.254639
-13835.588723	17562.853167	545.164063	45.976933
-13835.588723	17562.853167	543.919922	59.947033
-13835.588723	17562.853167	542.675781	-15.852346
-13835.588723	17562.853167	541.431641	50.319355
-13835.588723	17562.853167	540.186523	-12.910513
-13835.588723	17562.853167	538.941406	222.237610
-13835.588723	17562.853167	537.696289	54.734745
-13835.588723	17562.853167	536.451172	173.018677
-13835.588723	17562.853167	535.205078	268.332031
-13835.588723	17562.853167	533.959961	-28.254848
-13835.588723	17562.853167	532.712891	-233.001007
-13835.588723	17562.853167	531.466797	-160.510193
-13835.588723	17562.853167	530.219727	-200.516174
-13835.588723	17562.853167	528.972656	-113.429085
-13835.588723	17562.853167	527.725586	31.954374
-13835.588723	17562.853167	526.478516	-22.541445
-13835.588723	17562.853167	525.230469	14.597608
-13835.588723	17562.853167	523.982422	174.533417
-13835.588723	17562.853167	522.734375	-198.159760
-13835.588723	17562.853167	521.485352	-254.489258
-13835.588723	17562.853167	520.236328	-75.756294
-13835.588723	17562.853167	518.987305	190.269485
-13835.588723	17562.853167	517.737305	3.072936
-13835.588723	17562.853167	516.488281	601.584351
-13835.588723	17562.853167	515.238281	109.044930
-13835.588723	17562.853167	513.988281	9.391279
-13835.588723	17562.853167	512.737305	-142.091049
-13835.588723	17562.853167	511.486328	323.256989
-13835.588723	17562.853167	510.235352	41.096962
-13835.588723	17562.853167	508.984375	-116.345131
-13835.588723	17562.853167	507.732422	-64.074860
-13835.588723	17562.853167	506.480469	2.755755
-13835.588723	17562.853167	505.228516	79.995491
-13835.588723	17562.853167	503.976563	-4.489403
-13835.588723	17562.853167	502.723633	-28.749561
-13835.588723	17562.853167	501.470703	23.765545
-13835.588723	17562.853167	500.217773	155.076157
-13835.588723	17562.853167	498.963867	155.861969
-13835.588723	17562.853167	497.709961	343.155426
-13835.588723	17562.853167	496.456055	-24.621244
-13835.588723	17562.853167	495.202148	127.567375
-13835.588723	17562.853167	493.947266	236.281540
-13835.588723	17562.853167	492.692383	111.135017
-13835.588723	17562.853167	491.437500	41.985039
-13835.588723	17562.853167	490.181641	198.436554
-13835.588723	17562.853167	488.926758	661.020813
-13835.588723	17562.853167	487.670898	302.480927
-13835.588723	17562.853167	486.414063	798.054565
-13835.588723	17562.853167	485.158203	501.787842
-13835.588723	17562.853167	483.901367	455.775177
-13835.588723	17562.853167	482.644531	438.773132
-13835.588723	17562.853167	481.386719	279.299896
-13835.588723	17562.853167	480.128906	638.353638
-13835.588723	17562.853167	478.871094	398.496948
-13835.588723	17562.853167	477.613281	454.014740
-13835.588723	17562.853167	476.355469	720.088257
-13835.588723	17562.853167	475.096680	655.932129
-13835.588723	17562.853167	473.837891	975.588135
-13835.588723	17562.853167	472.578125	498.969757
-13835.588723	17562.853167	471.319336	558.773865
-13835.588723	17562.853167	470.059570	754.665894
-13835.588723	17562.853167	468.799805	732.010681
-13835.588723	17562.853167	467.539063	762.978577
-13835.588723	17562.853167	466.278320	1070.054810
-13835.588723	17562.853167	465.017578	1006.226929
-13835.588723	17562.853167	463.756836	816.812256
-13835.588723	17562.853167	462.495117	932.235779
-13835.588723	17562.853167	461.233398	1039.380005
-13835.588723	17562.853167	459.971680	819.227356
-13835.588723	17562.853167	458.709961	702.052673
-13835.588723	17562.853167	457.447266	955.229004
-13835.588723	17562.853167	456.184570	879.180298
-13835.588723	17562.853167	454.921875	1091.036011
-13835.588723	17562.853167	453.658203	1146.509766
-13835.588723	17562.853167	452.394531	922.368164
-13835.588723	17562.853167	451.130859	823.630127
-13835.588723	17562.853167	449.867188	1250.864746
-13835.588723	17562.853167	448.602539	919.846497
-13835.588723	17562.853167	447.337891	812.750610
-13835.588723	17562.853167	446.073242	1106.008301
-13835.588723	17562.853167	444.807617	1148.587646
-13835.588723	17562.853167	443.542969	1139.727173
-13835.588723	17562.853167	442.276367	1087.655762
-13835.588723	17562.853167	441.010742	1291.913818
-13835.588723	17562.853167	439.744141	1212.885132
-13835.588723	17562.853167	438.478516	1129.631226
-13835.588723	17562.853167	437.210938	1236.901123
-13835.588723	17562.853167	435.944336	1161.511841
-13835.588723	17562.853167	434.676758	1364.656494
-13835.588723	17562.853167	433.409180	1385.142456
-13835.588723	17562.853167	432.141602	1053.057617
-13835.588723	17562.853167	430.873047	1253.337280
-13835.588723	17562.853167	429.604492	1316.074585
-13835.588723	17562.853167	428.335938	1251.580078
-13835.588723	17562.853167	427.067383	1194.993774
-13835.588723	17562.853167	425.797852	1614.870361
-13835.588723	17562.853167	424.528320	1567.785889
-13835.588723	17562.853167	423.258789	1297.417358
-13835.588723	17562.853167	421.988281	1394.853882
-13835.588723	17562.853167	420.717773	1463.214844
-13835.588723	17562.853167	419.447266	1336.938721
-13835.588723	17562.853167	418.175781	1396.216919
-13835.588723	17562.853167	416.905273	1391.662354
-13835.588723	17562.853167	415.633789	1417.237549
-13835.588723	17562.853167	414.362305	1468.819580
-13835.588723	17562.853167	413.089844	1748.493530
-13835.588723	17562.853167	411.817383	1602.865967
-13835.588723	17562.853167	410.544922	1454.645020
-13835.588723	17562.853167	409.272461	1234.430664
-13835.588723	17562.853167	407.999023	1737.829956
-13835.588723	17562.853167	406.725586	1614.160522
-13835.588723	17562.853167	405.452148	1355.226440
-13835.588723	17562.853167	404.177734	1599.175293
-13835.588723	17562.853167	402.903320	1320.426880
-13835.588723	17562.853167	401.628906	1373.118286
-13835.588723	17562.853167	400.354492	1563.448486
-13835.588723	17562.853167	399.079102	1119.292236
-13835.588723	17562.853167	397.803711	1419.722412
-13835.588723	17562.853167	396.528320	1301.643188
-13835.588723	17562.853167	395.251953	1612.074707
-13835.588723	17562.853167	393.976563	1320.949097
-13835.588723	17562.853167	392.700195	1466.272583
-13835.588723	17562.853167	391.422852	1608.317627
-13835.588723	17562.853167	390.145508	1244.707153
-13835.588723	17562.853167	388.869141	1565.265503
-13835.588723	17562.853167	387.590820	1849.777954
-13835.588723	17562.853167	386.313477	1494.637329
-13835.588723	17562.853167	385.035156	1378.005249
-13835.588723	17562.853167	383.756836	1530.170776
-13835.588723	17562.853167	382.478516	1601.544678
-13835.588723	17562.853167	381.199219	1590.069092
-13835.588723	17562.853167	379.919922	1073.469727
-13835.588723	17562.853167	378.640625	1539.883667
-13835.588723	17562.853167	377.360352	1632.948120
-13835.588723	17562.853167	376.080078	1304.178833
-13835.588723	17562.853167	374.799805	1213.054077
-13835.588723	17562.853167	373.519531	1341.103027
-13835.588723	17562.853167	372.238281	1171.035034
-13835.588723	17562.853167	370.957031	1118.586060
-13835.588723	17562.853167	369.675781	1118.751099
-13835.588723	17562.853167	368.394531	1224.113403
-13835.588723	17562.853167	367.112305	1013.107666
-13835.588723	17562.853167	365.830078	1136.064697
-13835.588723	17562.853167	364.546875	778.605347
-13835.588723	17562.853167	363.264648	789.338074
-13835.588723	17562.853167	361.981445	1064.617676
-13835.588723	17562.853167	360.698242	1183.316162
-13835.588723	17562.853167	359.414063	1052.329590
-13835.588723	17562.853167	358.129883	948.906982
-13835.588723	17562.853167	356.845703	599.929504
-13835.588723	17562.853167	355.561523	880.944458
-13835.588723	17562.853167	354.276367	1047.493042
-13835.588723	17562.853167	352.991211	863.154785
-13835.588723	17562.853167	351.706055	716.015564
-13835.588723	17562.853167	350.420898	941.292053
-13835.588723	17562.853167	349.134766	829.657166
-13835.588723	17562.853167	347.848633	447.933594
-13835.588723	17562.853167	346.561523	726.780212
-13835.588723	17562.853167	345.275391	640.488098
-13835.588723	17562.853167	343.988281	711.661560
-13835.588723	17562.853167	342.700195	506.322662
-13835.588723	17562.853167	341.413086	609.651672
-13835.588723	17562.853167	340.125000	375.834961
-13835.588723	17562.853167	338.836914	468.381622
-13835.588723	17562.853167	337.548828	586.611511
-13835.588723	17562.853167	336.259766	571.071960
-13835.588723	17562.853167	334.970703	375.477173
-13835.588723	17562.853167	333.681641	438.953339
-13835.588723	17562.853167	332.391602	426.768890
-13835.588723	17562.853167	331.101563	294.638214
-13835.588723	17562.853167	329.811523	-60.156750
-13835.588723	17562.853167	328.521484	185.553741
-13835.588723	17562.853167	327.230469	29.018183
-13835.588723	17562.853167	325.939453	148.447037
-13835.588723	17562.853167	324.648438	169.399490
-13835.588723	17562.853167	323.356445	139.894485
-13835.588723	17562.853167	322.064453	-68.717415
-13835.588723	17562.853167	320.772461	-112.769264
-13835.588723	17562.853167	319.480469	-219.620743
-13835.588723	17562.853167	318.187500	-160.515686
-13835.588723	17562.853167	316.894531	-94.273788
-13835.588723	17562.853167	315.601563	189.801620
-13835.588723	17562.853167	314.307617	261.526367
-13835.588723	17562.853167	313.013672	297.679291
-13835.588723	17562.853167	311.719727	-151.451965
-13835.588723	17562.853167	310.425781	-40.356758
-13835.588723	17562.853167	309.130859	-93.991211
-13835.588723	17562.853167	307.835938	-236.029861
-13835.588723	17562.853167	306.541016	-187.903046
-13835.588723	17562.853167	305.245117	-98.511406
-13835.588723	17562.853167	303.949219	126.320679
-13835.588723	17562.853167	302.653320	576.463501
-13835.588723	17562.853167	301.356445	79.300446
-13835.588723	17562.853167	300.060547	510.516144
-13835.588723	17562.853167	298.763672	422.929016
