#X		#Y		#Wave		#Intensity
3065.064043	5955.110333	1999.980469	-447.160461
3065.064043	5955.110333	1999.016602	-185.542816
3065.064043	5955.110333	1998.052734	-112.372185
3065.064043	5955.110333	1997.087891	-197.027161
3065.064043	5955.110333	1996.123047	-176.763214
3065.064043	5955.110333	1995.158203	-133.337616
3065.064043	5955.110333	1994.193359	-81.575073
3065.064043	5955.110333	1993.228516	122.192833
3065.064043	5955.110333	1992.262695	19.922321
3065.064043	5955.110333	1991.297852	-143.150894
3065.064043	5955.110333	1990.332031	-67.445206
3065.064043	5955.110333	1989.366211	98.465858
3065.064043	5955.110333	1988.399414	166.564514
3065.064043	5955.110333	1987.433594	65.185440
3065.064043	5955.110333	1986.466797	338.571747
3065.064043	5955.110333	1985.500977	-0.044325
3065.064043	5955.110333	1984.534180	92.989777
3065.064043	5955.110333	1983.567383	150.311798
3065.064043	5955.110333	1982.599609	164.571487
3065.064043	5955.110333	1981.632813	242.061157
3065.064043	5955.110333	1980.665039	417.378418
3065.064043	5955.110333	1979.697266	297.788940
3065.064043	5955.110333	1978.729492	157.597992
3065.064043	5955.110333	1977.761719	251.150955
3065.064043	5955.110333	1976.792969	116.749275
3065.064043	5955.110333	1975.825195	6.283219
3065.064043	5955.110333	1974.856445	196.143509
3065.064043	5955.110333	1973.887695	-39.137901
3065.064043	5955.110333	1972.918945	168.968018
3065.064043	5955.110333	1971.949219	63.120529
3065.064043	5955.110333	1970.980469	5.990813
3065.064043	5955.110333	1970.010742	335.318207
3065.064043	5955.110333	1969.041016	304.076019
3065.064043	5955.110333	1968.071289	365.934174
3065.064043	5955.110333	1967.101563	161.138123
3065.064043	5955.110333	1966.130859	288.476196
3065.064043	5955.110333	1965.161133	225.641830
3065.064043	5955.110333	1964.190430	246.096085
3065.064043	5955.110333	1963.219727	428.608429
3065.064043	5955.110333	1962.249023	366.946320
3065.064043	5955.110333	1961.277344	297.529541
3065.064043	5955.110333	1960.306641	365.581879
3065.064043	5955.110333	1959.334961	293.023987
3065.064043	5955.110333	1958.363281	183.274689
3065.064043	5955.110333	1957.391602	164.258591
3065.064043	5955.110333	1956.419922	46.614529
3065.064043	5955.110333	1955.447266	272.918945
3065.064043	5955.110333	1954.474609	221.142410
3065.064043	5955.110333	1953.501953	149.500183
3065.064043	5955.110333	1952.529297	126.814453
3065.064043	5955.110333	1951.556641	310.299408
3065.064043	5955.110333	1950.583984	157.047607
3065.064043	5955.110333	1949.610352	195.224838
3065.064043	5955.110333	1948.636719	464.032196
3065.064043	5955.110333	1947.663086	106.642715
3065.064043	5955.110333	1946.689453	289.217285
3065.064043	5955.110333	1945.715820	39.744362
3065.064043	5955.110333	1944.741211	163.179703
3065.064043	5955.110333	1943.767578	149.137756
3065.064043	5955.110333	1942.792969	-9.671882
3065.064043	5955.110333	1941.818359	74.277489
3065.064043	5955.110333	1940.842773	60.080208
3065.064043	5955.110333	1939.868164	107.146233
3065.064043	5955.110333	1938.892578	48.786591
3065.064043	5955.110333	1937.916992	66.397514
3065.064043	5955.110333	1936.941406	37.455647
3065.064043	5955.110333	1935.965820	-45.347935
3065.064043	5955.110333	1934.990234	155.960648
3065.064043	5955.110333	1934.013672	327.832245
3065.064043	5955.110333	1933.037109	5.198227
3065.064043	5955.110333	1932.060547	133.058624
3065.064043	5955.110333	1931.083984	153.256882
3065.064043	5955.110333	1930.107422	60.964188
3065.064043	5955.110333	1929.129883	25.020498
3065.064043	5955.110333	1928.153320	-42.618797
3065.064043	5955.110333	1927.175781	202.818405
3065.064043	5955.110333	1926.198242	289.338654
3065.064043	5955.110333	1925.219727	19.044584
3065.064043	5955.110333	1924.242188	-35.989361
3065.064043	5955.110333	1923.263672	326.900940
3065.064043	5955.110333	1922.285156	35.064137
3065.064043	5955.110333	1921.306641	60.961433
3065.064043	5955.110333	1920.328125	-284.221680
3065.064043	5955.110333	1919.349609	-50.516796
3065.064043	5955.110333	1918.370117	-268.387115
3065.064043	5955.110333	1917.391602	-5.244267
3065.064043	5955.110333	1916.412109	-266.717529
3065.064043	5955.110333	1915.431641	-191.294296
3065.064043	5955.110333	1914.452148	-149.911224
3065.064043	5955.110333	1913.472656	-64.513016
3065.064043	5955.110333	1912.492188	172.157013
3065.064043	5955.110333	1911.511719	-195.724762
3065.064043	5955.110333	1910.531250	-73.407166
3065.064043	5955.110333	1909.550781	-50.912659
3065.064043	5955.110333	1908.569336	-371.846252
3065.064043	5955.110333	1907.588867	-46.954796
3065.064043	5955.110333	1906.607422	-50.861450
3065.064043	5955.110333	1905.625977	3.816943
3065.064043	5955.110333	1904.644531	2.615410
3065.064043	5955.110333	1903.662109	-8.188576
3065.064043	5955.110333	1902.680664	-233.018204
3065.064043	5955.110333	1901.698242	-262.964905
3065.064043	5955.110333	1900.715820	23.512892
3065.064043	5955.110333	1899.733398	-137.546829
3065.064043	5955.110333	1898.750000	224.457397
3065.064043	5955.110333	1897.767578	-342.374542
3065.064043	5955.110333	1896.784180	-14.235167
3065.064043	5955.110333	1895.800781	-26.373487
3065.064043	5955.110333	1894.817383	139.023010
3065.064043	5955.110333	1893.833984	-174.166885
3065.064043	5955.110333	1892.850586	-137.302826
3065.064043	5955.110333	1891.866211	-114.908562
3065.064043	5955.110333	1890.881836	-123.968895
3065.064043	5955.110333	1889.897461	-45.506008
3065.064043	5955.110333	1888.913086	-180.571518
3065.064043	5955.110333	1887.927734	-165.007584
3065.064043	5955.110333	1886.943359	37.507866
3065.064043	5955.110333	1885.958008	-145.695007
3065.064043	5955.110333	1884.972656	39.965870
3065.064043	5955.110333	1883.987305	-152.667175
3065.064043	5955.110333	1883.001953	-248.144516
3065.064043	5955.110333	1882.015625	-71.982201
3065.064043	5955.110333	1881.029297	-38.800175
3065.064043	5955.110333	1880.042969	-41.895199
3065.064043	5955.110333	1879.056641	-76.405922
3065.064043	5955.110333	1878.070313	-304.619507
3065.064043	5955.110333	1877.083984	-164.534149
3065.064043	5955.110333	1876.096680	-160.040985
3065.064043	5955.110333	1875.109375	-312.852783
3065.064043	5955.110333	1874.122070	158.973419
3065.064043	5955.110333	1873.134766	13.536805
3065.064043	5955.110333	1872.146484	-90.661255
3065.064043	5955.110333	1871.159180	-260.087982
3065.064043	5955.110333	1870.170898	-134.318314
3065.064043	5955.110333	1869.182617	-122.218109
3065.064043	5955.110333	1868.194336	56.745056
3065.064043	5955.110333	1867.205078	134.134979
3065.064043	5955.110333	1866.216797	-68.846336
3065.064043	5955.110333	1865.227539	110.079819
3065.064043	5955.110333	1864.238281	158.482651
3065.064043	5955.110333	1863.249023	-203.779434
3065.064043	5955.110333	1862.259766	-135.996521
3065.064043	5955.110333	1861.269531	-118.952660
3065.064043	5955.110333	1860.279297	-210.561264
3065.064043	5955.110333	1859.290039	183.035721
3065.064043	5955.110333	1858.298828	4.495963
3065.064043	5955.110333	1857.308594	171.052063
3065.064043	5955.110333	1856.318359	74.564362
3065.064043	5955.110333	1855.327148	-17.097111
3065.064043	5955.110333	1854.335938	-171.459152
3065.064043	5955.110333	1853.344727	100.959427
3065.064043	5955.110333	1852.353516	33.331215
3065.064043	5955.110333	1851.362305	180.184250
3065.064043	5955.110333	1850.370117	-8.031632
3065.064043	5955.110333	1849.377930	-15.542324
3065.064043	5955.110333	1848.385742	131.051300
3065.064043	5955.110333	1847.393555	24.636667
3065.064043	5955.110333	1846.401367	38.581646
3065.064043	5955.110333	1845.408203	88.548599
3065.064043	5955.110333	1844.415039	205.804169
3065.064043	5955.110333	1843.421875	310.891998
3065.064043	5955.110333	1842.428711	343.660522
3065.064043	5955.110333	1841.435547	229.565536
3065.064043	5955.110333	1840.441406	228.448669
3065.064043	5955.110333	1839.448242	198.365189
3065.064043	5955.110333	1838.454102	96.040489
3065.064043	5955.110333	1837.459961	334.980225
3065.064043	5955.110333	1836.464844	251.638870
3065.064043	5955.110333	1835.470703	240.289551
3065.064043	5955.110333	1834.475586	113.479019
3065.064043	5955.110333	1833.480469	224.377563
3065.064043	5955.110333	1832.485352	-5.941611
3065.064043	5955.110333	1831.490234	347.149445
3065.064043	5955.110333	1830.495117	174.196640
3065.064043	5955.110333	1829.499023	34.743534
3065.064043	5955.110333	1828.502930	185.549179
3065.064043	5955.110333	1827.506836	432.097107
3065.064043	5955.110333	1826.510742	448.081848
3065.064043	5955.110333	1825.513672	358.341309
3065.064043	5955.110333	1824.517578	141.359360
3065.064043	5955.110333	1823.520508	192.783203
3065.064043	5955.110333	1822.523438	198.445404
3065.064043	5955.110333	1821.526367	-83.691742
3065.064043	5955.110333	1820.529297	269.056793
3065.064043	5955.110333	1819.531250	254.908920
3065.064043	5955.110333	1818.533203	367.500854
3065.064043	5955.110333	1817.535156	91.869331
3065.064043	5955.110333	1816.537109	170.482742
3065.064043	5955.110333	1815.539063	66.901367
3065.064043	5955.110333	1814.540039	128.266098
3065.064043	5955.110333	1813.541992	565.079468
3065.064043	5955.110333	1812.542969	125.804955
3065.064043	5955.110333	1811.543945	128.988922
3065.064043	5955.110333	1810.543945	26.679743
3065.064043	5955.110333	1809.544922	177.632004
3065.064043	5955.110333	1808.544922	342.602509
3065.064043	5955.110333	1807.544922	270.611389
3065.064043	5955.110333	1806.544922	356.110077
3065.064043	5955.110333	1805.544922	173.696472
3065.064043	5955.110333	1804.544922	363.753784
3065.064043	5955.110333	1803.543945	321.766510
3065.064043	5955.110333	1802.542969	358.320862
3065.064043	5955.110333	1801.541992	511.567719
3065.064043	5955.110333	1800.541016	117.816322
3065.064043	5955.110333	1799.539063	299.099182
3065.064043	5955.110333	1798.538086	312.997650
3065.064043	5955.110333	1797.536133	450.640350
3065.064043	5955.110333	1796.534180	485.359589
3065.064043	5955.110333	1795.532227	305.125122
3065.064043	5955.110333	1794.529297	138.942963
3065.064043	5955.110333	1793.527344	287.212067
3065.064043	5955.110333	1792.524414	318.304688
3065.064043	5955.110333	1791.521484	411.027527
3065.064043	5955.110333	1790.518555	238.928818
3065.064043	5955.110333	1789.514648	154.695023
3065.064043	5955.110333	1788.511719	244.050812
3065.064043	5955.110333	1787.507813	394.943787
3065.064043	5955.110333	1786.503906	262.131805
3065.064043	5955.110333	1785.500000	243.296249
3065.064043	5955.110333	1784.496094	666.794312
3065.064043	5955.110333	1783.491211	540.123535
3065.064043	5955.110333	1782.486328	146.713196
3065.064043	5955.110333	1781.481445	190.764542
3065.064043	5955.110333	1780.476563	379.521759
3065.064043	5955.110333	1779.471680	-57.464214
3065.064043	5955.110333	1778.465820	320.730621
3065.064043	5955.110333	1777.460938	437.010620
3065.064043	5955.110333	1776.455078	281.975342
3065.064043	5955.110333	1775.449219	525.789368
3065.064043	5955.110333	1774.442383	334.438141
3065.064043	5955.110333	1773.436523	38.325069
3065.064043	5955.110333	1772.429688	252.461411
3065.064043	5955.110333	1771.422852	544.501648
3065.064043	5955.110333	1770.416016	192.825470
3065.064043	5955.110333	1769.409180	139.935776
3065.064043	5955.110333	1768.402344	15.524902
3065.064043	5955.110333	1767.394531	488.576477
3065.064043	5955.110333	1766.386719	97.750984
3065.064043	5955.110333	1765.378906	489.248779
3065.064043	5955.110333	1764.371094	301.733307
3065.064043	5955.110333	1763.362305	227.679230
3065.064043	5955.110333	1762.354492	179.375290
3065.064043	5955.110333	1761.345703	481.388519
3065.064043	5955.110333	1760.336914	195.381866
3065.064043	5955.110333	1759.328125	276.251526
3065.064043	5955.110333	1758.318359	115.136833
3065.064043	5955.110333	1757.308594	185.748932
3065.064043	5955.110333	1756.299805	331.741791
3065.064043	5955.110333	1755.290039	311.600586
3065.064043	5955.110333	1754.279297	352.591919
3065.064043	5955.110333	1753.269531	90.382500
3065.064043	5955.110333	1752.258789	159.039627
3065.064043	5955.110333	1751.249023	310.100708
3065.064043	5955.110333	1750.238281	340.108368
3065.064043	5955.110333	1749.226563	265.681091
3065.064043	5955.110333	1748.215820	-9.973381
3065.064043	5955.110333	1747.204102	170.175858
3065.064043	5955.110333	1746.193359	101.824402
3065.064043	5955.110333	1745.181641	148.849579
3065.064043	5955.110333	1744.168945	186.007034
3065.064043	5955.110333	1743.157227	-100.704643
3065.064043	5955.110333	1742.144531	-71.337662
3065.064043	5955.110333	1741.132813	125.278046
3065.064043	5955.110333	1740.120117	9.887826
3065.064043	5955.110333	1739.106445	21.560143
3065.064043	5955.110333	1738.093750	108.387253
3065.064043	5955.110333	1737.080078	237.237671
3065.064043	5955.110333	1736.067383	-39.912060
3065.064043	5955.110333	1735.053711	64.612007
3065.064043	5955.110333	1734.040039	-128.295609
3065.064043	5955.110333	1733.025391	-213.107864
3065.064043	5955.110333	1732.011719	36.408672
3065.064043	5955.110333	1730.997070	-152.787384
3065.064043	5955.110333	1729.982422	29.914946
3065.064043	5955.110333	1728.967773	68.527206
3065.064043	5955.110333	1727.952148	33.741161
3065.064043	5955.110333	1726.937500	81.049683
3065.064043	5955.110333	1725.921875	0.847902
3065.064043	5955.110333	1724.906250	73.293663
3065.064043	5955.110333	1723.890625	-19.335539
3065.064043	5955.110333	1722.875000	40.634327
3065.064043	5955.110333	1721.858398	-207.911209
3065.064043	5955.110333	1720.841797	114.718460
3065.064043	5955.110333	1719.825195	-193.202820
3065.064043	5955.110333	1718.808594	-45.321114
3065.064043	5955.110333	1717.791992	111.569176
3065.064043	5955.110333	1716.774414	23.655073
3065.064043	5955.110333	1715.756836	-304.181519
3065.064043	5955.110333	1714.739258	149.938980
3065.064043	5955.110333	1713.721680	-230.113541
3065.064043	5955.110333	1712.704102	-251.109802
3065.064043	5955.110333	1711.685547	-157.434280
3065.064043	5955.110333	1710.667969	-120.399719
3065.064043	5955.110333	1709.649414	-95.469467
3065.064043	5955.110333	1708.630859	-176.434921
3065.064043	5955.110333	1707.611328	14.375133
3065.064043	5955.110333	1706.592773	-139.898376
3065.064043	5955.110333	1705.573242	94.771347
3065.064043	5955.110333	1704.553711	5.533672
3065.064043	5955.110333	1703.534180	35.569542
3065.064043	5955.110333	1702.513672	-155.025116
3065.064043	5955.110333	1701.494141	0.963854
3065.064043	5955.110333	1700.473633	-138.597366
3065.064043	5955.110333	1699.453125	-130.841019
3065.064043	5955.110333	1698.432617	12.445297
3065.064043	5955.110333	1697.412109	-31.897032
3065.064043	5955.110333	1696.390625	-57.816288
3065.064043	5955.110333	1695.369141	-240.798996
3065.064043	5955.110333	1694.347656	-117.460670
3065.064043	5955.110333	1693.326172	14.921084
3065.064043	5955.110333	1692.304688	-159.409790
3065.064043	5955.110333	1691.282227	-305.918182
3065.064043	5955.110333	1690.260742	-204.745361
3065.064043	5955.110333	1689.238281	136.860626
3065.064043	5955.110333	1688.214844	-141.300156
3065.064043	5955.110333	1687.192383	-363.469116
3065.064043	5955.110333	1686.168945	-123.266594
3065.064043	5955.110333	1685.146484	-350.501434
3065.064043	5955.110333	1684.123047	-96.853325
3065.064043	5955.110333	1683.099609	-88.692307
3065.064043	5955.110333	1682.075195	-87.810944
3065.064043	5955.110333	1681.051758	174.303955
3065.064043	5955.110333	1680.027344	-130.995514
3065.064043	5955.110333	1679.002930	-88.762070
3065.064043	5955.110333	1677.978516	13.895207
3065.064043	5955.110333	1676.953125	106.929108
3065.064043	5955.110333	1675.928711	122.829414
3065.064043	5955.110333	1674.903320	182.770798
3065.064043	5955.110333	1673.877930	111.971138
3065.064043	5955.110333	1672.852539	61.983604
3065.064043	5955.110333	1671.826172	591.936096
3065.064043	5955.110333	1670.800781	422.708862
3065.064043	5955.110333	1669.774414	446.629364
3065.064043	5955.110333	1668.748047	325.998505
3065.064043	5955.110333	1667.721680	712.781677
3065.064043	5955.110333	1666.694336	635.990967
3065.064043	5955.110333	1665.667969	798.828369
3065.064043	5955.110333	1664.640625	684.510925
3065.064043	5955.110333	1663.613281	544.500305
3065.064043	5955.110333	1662.585938	902.137146
3065.064043	5955.110333	1661.557617	892.026672
3065.064043	5955.110333	1660.530273	988.784424
3065.064043	5955.110333	1659.501953	1206.198486
3065.064043	5955.110333	1658.473633	1423.401367
3065.064043	5955.110333	1657.444336	1073.378784
3065.064043	5955.110333	1656.416016	1057.963989
3065.064043	5955.110333	1655.386719	1116.719849
3065.064043	5955.110333	1654.358398	1310.089111
3065.064043	5955.110333	1653.328125	901.816284
3065.064043	5955.110333	1652.298828	1447.752441
3065.064043	5955.110333	1651.269531	1682.373413
3065.064043	5955.110333	1650.239258	1538.520020
3065.064043	5955.110333	1649.208984	1673.046509
3065.064043	5955.110333	1648.178711	1816.717407
3065.064043	5955.110333	1647.148438	1786.320557
3065.064043	5955.110333	1646.117188	2010.868774
3065.064043	5955.110333	1645.086914	2230.683105
3065.064043	5955.110333	1644.055664	2144.346191
3065.064043	5955.110333	1643.024414	1960.656372
3065.064043	5955.110333	1641.992188	2372.381836
3065.064043	5955.110333	1640.960938	2547.671875
3065.064043	5955.110333	1639.928711	2384.664307
3065.064043	5955.110333	1638.896484	3108.541504
3065.064043	5955.110333	1637.864258	2903.745850
3065.064043	5955.110333	1636.832031	2752.239258
3065.064043	5955.110333	1635.798828	3098.272705
3065.064043	5955.110333	1634.766602	3120.278809
3065.064043	5955.110333	1633.733398	3121.391357
3065.064043	5955.110333	1632.699219	3090.060059
3065.064043	5955.110333	1631.666016	3047.231934
3065.064043	5955.110333	1630.632813	3494.557617
3065.064043	5955.110333	1629.598633	3134.942871
3065.064043	5955.110333	1628.564453	3665.241943
3065.064043	5955.110333	1627.530273	3580.723389
3065.064043	5955.110333	1626.495117	3997.517090
3065.064043	5955.110333	1625.460938	4095.483154
3065.064043	5955.110333	1624.425781	4232.645996
3065.064043	5955.110333	1623.390625	4111.202637
3065.064043	5955.110333	1622.355469	4347.646973
3065.064043	5955.110333	1621.319336	4671.691895
3065.064043	5955.110333	1620.284180	4815.729980
3065.064043	5955.110333	1619.248047	4966.635742
3065.064043	5955.110333	1618.211914	5034.505859
3065.064043	5955.110333	1617.174805	5332.974121
3065.064043	5955.110333	1616.138672	5209.507324
3065.064043	5955.110333	1615.101563	5159.877441
3065.064043	5955.110333	1614.065430	5195.674805
3065.064043	5955.110333	1613.027344	5323.612305
3065.064043	5955.110333	1611.990234	5419.385742
3065.064043	5955.110333	1610.953125	5236.498047
3065.064043	5955.110333	1609.915039	5638.687988
3065.064043	5955.110333	1608.876953	5723.072266
3065.064043	5955.110333	1607.838867	5927.239258
3065.064043	5955.110333	1606.800781	5500.788086
3065.064043	5955.110333	1605.761719	5868.482422
3065.064043	5955.110333	1604.723633	5990.024414
3065.064043	5955.110333	1603.684570	6012.680664
3065.064043	5955.110333	1602.644531	6044.608398
3065.064043	5955.110333	1601.605469	6341.141602
3065.064043	5955.110333	1600.566406	6253.772949
3065.064043	5955.110333	1599.526367	6201.006348
3065.064043	5955.110333	1598.486328	6449.458496
3065.064043	5955.110333	1597.446289	6383.196777
3065.064043	5955.110333	1596.405273	6209.097656
3065.064043	5955.110333	1595.365234	6320.073730
3065.064043	5955.110333	1594.324219	6132.612305
3065.064043	5955.110333	1593.283203	6016.563965
3065.064043	5955.110333	1592.242188	5994.843750
3065.064043	5955.110333	1591.200195	5892.945801
3065.064043	5955.110333	1590.159180	5458.620605
3065.064043	5955.110333	1589.117188	5345.770996
3065.064043	5955.110333	1588.075195	5485.450684
3065.064043	5955.110333	1587.032227	5290.431641
3065.064043	5955.110333	1585.990234	5084.275391
3065.064043	5955.110333	1584.947266	5029.646484
3065.064043	5955.110333	1583.904297	5039.418457
3065.064043	5955.110333	1582.861328	4957.750488
3065.064043	5955.110333	1581.818359	4832.806152
3065.064043	5955.110333	1580.775391	4634.839844
3065.064043	5955.110333	1579.731445	4821.852539
3065.064043	5955.110333	1578.687500	4777.779297
3065.064043	5955.110333	1577.643555	4585.168945
3065.064043	5955.110333	1576.598633	4296.706543
3065.064043	5955.110333	1575.554688	4237.465820
3065.064043	5955.110333	1574.509766	4544.491211
3065.064043	5955.110333	1573.464844	3847.526123
3065.064043	5955.110333	1572.419922	4372.266602
3065.064043	5955.110333	1571.374023	3968.740723
3065.064043	5955.110333	1570.329102	3881.141602
3065.064043	5955.110333	1569.283203	3942.358398
3065.064043	5955.110333	1568.237305	4319.162598
3065.064043	5955.110333	1567.191406	4140.935547
3065.064043	5955.110333	1566.144531	3746.020752
3065.064043	5955.110333	1565.098633	4018.429199
3065.064043	5955.110333	1564.051758	3957.620117
3065.064043	5955.110333	1563.004883	3755.590820
3065.064043	5955.110333	1561.957031	3811.801758
3065.064043	5955.110333	1560.910156	3875.175293
3065.064043	5955.110333	1559.862305	3909.125977
3065.064043	5955.110333	1558.814453	3594.374756
3065.064043	5955.110333	1557.766602	3900.370117
3065.064043	5955.110333	1556.718750	3666.167969
3065.064043	5955.110333	1555.669922	3719.573730
3065.064043	5955.110333	1554.621094	3793.791016
3065.064043	5955.110333	1553.573242	3891.127686
3065.064043	5955.110333	1552.523438	3576.297607
3065.064043	5955.110333	1551.474609	3544.417236
3065.064043	5955.110333	1550.424805	3474.127197
3065.064043	5955.110333	1549.375000	2955.633545
3065.064043	5955.110333	1548.325195	3273.173096
3065.064043	5955.110333	1547.275391	3126.608398
3065.064043	5955.110333	1546.225586	3037.336914
3065.064043	5955.110333	1545.174805	3266.939941
3065.064043	5955.110333	1544.124023	3103.274170
3065.064043	5955.110333	1543.073242	3340.302979
3065.064043	5955.110333	1542.022461	3725.396240
3065.064043	5955.110333	1540.970703	4149.310547
3065.064043	5955.110333	1539.919922	4084.769531
3065.064043	5955.110333	1538.868164	4197.842773
3065.064043	5955.110333	1537.815430	3829.529785
3065.064043	5955.110333	1536.763672	3511.745117
3065.064043	5955.110333	1535.710938	3260.286865
3065.064043	5955.110333	1534.659180	3181.913574
3065.064043	5955.110333	1533.606445	2879.161377
3065.064043	5955.110333	1532.552734	2747.117676
3065.064043	5955.110333	1531.500000	2490.726074
3065.064043	5955.110333	1530.446289	2225.713867
3065.064043	5955.110333	1529.393555	2224.373047
3065.064043	5955.110333	1528.338867	2293.671631
3065.064043	5955.110333	1527.285156	1794.206177
3065.064043	5955.110333	1526.231445	1896.123657
3065.064043	5955.110333	1525.176758	1334.234497
3065.064043	5955.110333	1524.122070	1115.170532
3065.064043	5955.110333	1523.067383	830.886597
3065.064043	5955.110333	1522.012695	581.103516
3065.064043	5955.110333	1520.957031	322.740295
3065.064043	5955.110333	1519.901367	805.360718
3065.064043	5955.110333	1518.845703	160.733994
3065.064043	5955.110333	1517.790039	607.807129
3065.064043	5955.110333	1516.734375	378.452850
3065.064043	5955.110333	1515.677734	163.156570
3065.064043	5955.110333	1514.621094	267.337128
3065.064043	5955.110333	1513.564453	532.482361
3065.064043	5955.110333	1512.507813	103.726494
3065.064043	5955.110333	1511.450195	600.232178
3065.064043	5955.110333	1510.393555	265.161102
3065.064043	5955.110333	1509.335938	21.024931
3065.064043	5955.110333	1508.278320	98.269157
3065.064043	5955.110333	1507.219727	-83.903076
3065.064043	5955.110333	1506.162109	145.523880
3065.064043	5955.110333	1505.103516	431.724976
3065.064043	5955.110333	1504.044922	158.335266
3065.064043	5955.110333	1502.986328	120.248344
3065.064043	5955.110333	1501.926758	233.800064
3065.064043	5955.110333	1500.868164	146.952866
3065.064043	5955.110333	1499.808594	-25.165159
3065.064043	5955.110333	1498.749023	-95.276726
3065.064043	5955.110333	1497.688477	-117.577705
3065.064043	5955.110333	1496.628906	-177.736115
3065.064043	5955.110333	1495.568359	-66.126595
3065.064043	5955.110333	1494.507813	5.319283
3065.064043	5955.110333	1493.447266	65.918510
3065.064043	5955.110333	1492.386719	399.529083
3065.064043	5955.110333	1491.325195	197.383148
3065.064043	5955.110333	1490.263672	304.277710
3065.064043	5955.110333	1489.202148	172.928040
3065.064043	5955.110333	1488.140625	323.457550
3065.064043	5955.110333	1487.079102	890.733765
3065.064043	5955.110333	1486.016602	1471.725098
3065.064043	5955.110333	1484.954102	1625.501709
3065.064043	5955.110333	1483.891602	1984.350708
3065.064043	5955.110333	1482.829102	2622.362305
3065.064043	5955.110333	1481.765625	3136.904541
3065.064043	5955.110333	1480.702148	3145.958008
3065.064043	5955.110333	1479.638672	2984.682861
3065.064043	5955.110333	1478.575195	2972.270264
3065.064043	5955.110333	1477.511719	2427.888428
3065.064043	5955.110333	1476.447266	2198.550049
3065.064043	5955.110333	1475.382813	1745.289429
3065.064043	5955.110333	1474.318359	1786.331421
3065.064043	5955.110333	1473.253906	1670.954712
3065.064043	5955.110333	1472.189453	1766.854492
3065.064043	5955.110333	1471.124023	1484.221313
3065.064043	5955.110333	1470.058594	1695.376465
3065.064043	5955.110333	1468.993164	2270.300049
3065.064043	5955.110333	1467.927734	2179.489258
3065.064043	5955.110333	1466.861328	2189.873047
3065.064043	5955.110333	1465.794922	2315.141357
3065.064043	5955.110333	1464.728516	2456.559814
3065.064043	5955.110333	1463.662109	2201.607666
3065.064043	5955.110333	1462.594727	2652.459473
3065.064043	5955.110333	1461.528320	2578.534424
3065.064043	5955.110333	1460.460938	2643.209473
3065.064043	5955.110333	1459.393555	2710.769775
3065.064043	5955.110333	1458.326172	2169.374756
3065.064043	5955.110333	1457.257813	2136.860352
3065.064043	5955.110333	1456.189453	1688.377808
3065.064043	5955.110333	1455.121094	1567.756226
3065.064043	5955.110333	1454.052734	1572.193726
3065.064043	5955.110333	1452.984375	1103.578125
3065.064043	5955.110333	1451.915039	1170.663208
3065.064043	5955.110333	1450.845703	1166.590088
3065.064043	5955.110333	1449.776367	1044.060791
3065.064043	5955.110333	1448.707031	517.117004
3065.064043	5955.110333	1447.636719	819.951721
3065.064043	5955.110333	1446.567383	1206.695068
3065.064043	5955.110333	1445.497070	1427.666138
3065.064043	5955.110333	1444.425781	1249.827881
3065.064043	5955.110333	1443.355469	1517.872192
3065.064043	5955.110333	1442.285156	1361.775879
3065.064043	5955.110333	1441.213867	1690.402222
3065.064043	5955.110333	1440.142578	1711.147339
3065.064043	5955.110333	1439.070313	1708.293335
3065.064043	5955.110333	1437.999023	1719.393066
3065.064043	5955.110333	1436.926758	2000.072632
3065.064043	5955.110333	1435.854492	1745.152588
3065.064043	5955.110333	1434.782227	1553.513916
3065.064043	5955.110333	1433.709961	1505.250610
3065.064043	5955.110333	1432.636719	1391.336060
3065.064043	5955.110333	1431.563477	1387.456177
3065.064043	5955.110333	1430.490234	1086.114868
3065.064043	5955.110333	1429.416992	1233.206787
3065.064043	5955.110333	1428.343750	756.784607
3065.064043	5955.110333	1427.269531	831.171326
3065.064043	5955.110333	1426.195313	567.468506
3065.064043	5955.110333	1425.121094	846.996460
3065.064043	5955.110333	1424.046875	1016.440491
3065.064043	5955.110333	1422.971680	950.154358
3065.064043	5955.110333	1421.896484	1184.765259
3065.064043	5955.110333	1420.821289	1046.067871
3065.064043	5955.110333	1419.746094	1495.647949
3065.064043	5955.110333	1418.669922	1272.161255
3065.064043	5955.110333	1417.594727	1880.782227
3065.064043	5955.110333	1416.518555	1968.494629
3065.064043	5955.110333	1415.442383	2205.419434
3065.064043	5955.110333	1414.365234	2087.602539
3065.064043	5955.110333	1413.289063	2100.777588
3065.064043	5955.110333	1412.211914	2165.828125
3065.064043	5955.110333	1411.134766	2332.296875
3065.064043	5955.110333	1410.057617	2597.302734
3065.064043	5955.110333	1408.979492	2820.764160
3065.064043	5955.110333	1407.902344	3075.266846
3065.064043	5955.110333	1406.824219	3324.802490
3065.064043	5955.110333	1405.746094	3621.440186
3065.064043	5955.110333	1404.666992	3568.806396
3065.064043	5955.110333	1403.588867	4020.198975
3065.064043	5955.110333	1402.509766	4571.916992
3065.064043	5955.110333	1401.430664	4545.312988
3065.064043	5955.110333	1400.351563	4897.481934
3065.064043	5955.110333	1399.271484	4569.571289
3065.064043	5955.110333	1398.192383	4775.738770
3065.064043	5955.110333	1397.112305	4824.770996
3065.064043	5955.110333	1396.031250	4927.182617
3065.064043	5955.110333	1394.951172	4397.385742
3065.064043	5955.110333	1393.871094	4111.876953
3065.064043	5955.110333	1392.790039	3970.946533
3065.064043	5955.110333	1391.708984	3517.001953
3065.064043	5955.110333	1390.626953	3509.392822
3065.064043	5955.110333	1389.545898	3276.173340
3065.064043	5955.110333	1388.463867	3567.440430
3065.064043	5955.110333	1387.381836	3498.338379
3065.064043	5955.110333	1386.299805	3590.196533
3065.064043	5955.110333	1385.217773	3887.812256
3065.064043	5955.110333	1384.134766	3583.435547
3065.064043	5955.110333	1383.051758	3726.654785
3065.064043	5955.110333	1381.968750	3811.642822
3065.064043	5955.110333	1380.885742	4389.056641
3065.064043	5955.110333	1379.802734	4357.596191
3065.064043	5955.110333	1378.718750	4391.074707
3065.064043	5955.110333	1377.634766	4524.017090
3065.064043	5955.110333	1376.550781	4712.002441
3065.064043	5955.110333	1375.465820	4165.622070
3065.064043	5955.110333	1374.381836	4549.612793
3065.064043	5955.110333	1373.296875	4032.861084
3065.064043	5955.110333	1372.211914	3915.932617
3065.064043	5955.110333	1371.126953	4074.207275
3065.064043	5955.110333	1370.041016	4065.695313
3065.064043	5955.110333	1368.955078	4124.157715
3065.064043	5955.110333	1367.869141	3827.680664
3065.064043	5955.110333	1366.783203	3913.726074
3065.064043	5955.110333	1365.697266	3978.618652
3065.064043	5955.110333	1364.610352	3655.670898
3065.064043	5955.110333	1363.523438	3667.876953
3065.064043	5955.110333	1362.436523	3941.006348
3065.064043	5955.110333	1361.349609	4272.418945
3065.064043	5955.110333	1360.261719	4117.265137
3065.064043	5955.110333	1359.174805	4248.516113
3065.064043	5955.110333	1358.086914	4565.498535
3065.064043	5955.110333	1356.998047	4449.194336
3065.064043	5955.110333	1355.910156	4658.562012
3065.064043	5955.110333	1354.821289	4596.671387
3065.064043	5955.110333	1353.732422	4805.443848
3065.064043	5955.110333	1352.643555	5289.758301
3065.064043	5955.110333	1351.554688	5458.225586
3065.064043	5955.110333	1350.464844	5805.726074
3065.064043	5955.110333	1349.375000	5902.681152
3065.064043	5955.110333	1348.285156	6210.079102
3065.064043	5955.110333	1347.195313	6132.943848
3065.064043	5955.110333	1346.105469	6127.740723
3065.064043	5955.110333	1345.014648	6408.274414
3065.064043	5955.110333	1343.923828	6424.932617
3065.064043	5955.110333	1342.833008	6548.724121
3065.064043	5955.110333	1341.741211	6056.113770
3065.064043	5955.110333	1340.650391	6026.813477
3065.064043	5955.110333	1339.558594	5674.858398
3065.064043	5955.110333	1338.466797	5534.991211
3065.064043	5955.110333	1337.374023	5446.186035
3065.064043	5955.110333	1336.282227	4775.247070
3065.064043	5955.110333	1335.189453	4794.042480
3065.064043	5955.110333	1334.096680	4510.709473
3065.064043	5955.110333	1333.003906	4856.486328
3065.064043	5955.110333	1331.910156	4381.977051
3065.064043	5955.110333	1330.817383	4214.096191
3065.064043	5955.110333	1329.723633	4303.133301
3065.064043	5955.110333	1328.629883	4027.454346
3065.064043	5955.110333	1327.535156	3543.956055
3065.064043	5955.110333	1326.441406	3634.756104
3065.064043	5955.110333	1325.346680	3673.687256
3065.064043	5955.110333	1324.251953	3202.911865
3065.064043	5955.110333	1323.156250	2937.466064
3065.064043	5955.110333	1322.061523	2922.947266
3065.064043	5955.110333	1320.965820	2862.561768
3065.064043	5955.110333	1319.870117	2758.198486
3065.064043	5955.110333	1318.774414	2799.726807
3065.064043	5955.110333	1317.678711	2908.947754
3065.064043	5955.110333	1316.582031	2606.177979
3065.064043	5955.110333	1315.485352	2755.545410
3065.064043	5955.110333	1314.388672	3142.175537
3065.064043	5955.110333	1313.291016	3082.793213
3065.064043	5955.110333	1312.194336	3127.751221
3065.064043	5955.110333	1311.096680	3522.451660
3065.064043	5955.110333	1309.999023	3581.295898
3065.064043	5955.110333	1308.901367	3817.257080
3065.064043	5955.110333	1307.802734	4219.536621
3065.064043	5955.110333	1306.705078	4475.538086
3065.064043	5955.110333	1305.606445	4779.857422
3065.064043	5955.110333	1304.506836	5031.450195
3065.064043	5955.110333	1303.408203	5295.738770
3065.064043	5955.110333	1302.308594	5431.851074
3065.064043	5955.110333	1301.208984	5439.635254
3065.064043	5955.110333	1300.109375	5468.259766
3065.064043	5955.110333	1299.009766	5741.224609
3065.064043	5955.110333	1297.909180	5610.344727
3065.064043	5955.110333	1296.808594	5618.298828
3065.064043	5955.110333	1295.708008	5631.673828
3065.064043	5955.110333	1294.607422	5690.145996
3065.064043	5955.110333	1293.506836	5254.052246
3065.064043	5955.110333	1292.405273	5015.056152
3065.064043	5955.110333	1291.303711	4656.362305
3065.064043	5955.110333	1290.202148	4715.772949
3065.064043	5955.110333	1289.099609	4517.302246
3065.064043	5955.110333	1287.998047	4362.940430
3065.064043	5955.110333	1286.895508	4213.972656
3065.064043	5955.110333	1285.792969	4375.297363
3065.064043	5955.110333	1284.689453	4428.988770
3065.064043	5955.110333	1283.586914	4578.812988
3065.064043	5955.110333	1282.483398	4767.263184
3065.064043	5955.110333	1281.379883	4685.517090
3065.064043	5955.110333	1280.276367	5045.812988
3065.064043	5955.110333	1279.171875	5230.542480
3065.064043	5955.110333	1278.067383	5010.392578
3065.064043	5955.110333	1276.962891	4651.885254
3065.064043	5955.110333	1275.858398	4413.910645
3065.064043	5955.110333	1274.753906	4135.311035
3065.064043	5955.110333	1273.648438	3717.340332
3065.064043	5955.110333	1272.542969	3693.362061
3065.064043	5955.110333	1271.437500	3441.115234
3065.064043	5955.110333	1270.331055	3278.254395
3065.064043	5955.110333	1269.225586	3033.797852
3065.064043	5955.110333	1268.119141	2661.605957
3065.064043	5955.110333	1267.012695	2636.020996
3065.064043	5955.110333	1265.906250	2189.465332
3065.064043	5955.110333	1264.798828	2247.318359
3065.064043	5955.110333	1263.691406	2203.531494
3065.064043	5955.110333	1262.583984	1888.941284
3065.064043	5955.110333	1261.476563	1809.398804
3065.064043	5955.110333	1260.368164	2015.079956
3065.064043	5955.110333	1259.260742	2022.140381
3065.064043	5955.110333	1258.152344	1800.583008
3065.064043	5955.110333	1257.043945	2080.823975
3065.064043	5955.110333	1255.934570	1796.088379
3065.064043	5955.110333	1254.825195	1841.384155
3065.064043	5955.110333	1253.716797	2040.884033
3065.064043	5955.110333	1252.606445	1781.594971
3065.064043	5955.110333	1251.497070	1909.907349
3065.064043	5955.110333	1250.387695	1898.965454
3065.064043	5955.110333	1249.277344	1738.154175
3065.064043	5955.110333	1248.166992	1899.114746
3065.064043	5955.110333	1247.055664	2046.212524
3065.064043	5955.110333	1245.945313	1835.627808
3065.064043	5955.110333	1244.833984	1924.470093
3065.064043	5955.110333	1243.722656	1874.592163
3065.064043	5955.110333	1242.611328	1770.275024
3065.064043	5955.110333	1241.499023	1463.676270
3065.064043	5955.110333	1240.387695	1328.842529
3065.064043	5955.110333	1239.275391	1262.546631
3065.064043	5955.110333	1238.162109	1060.753052
3065.064043	5955.110333	1237.049805	1121.046021
3065.064043	5955.110333	1235.936523	744.160767
3065.064043	5955.110333	1234.823242	606.540894
3065.064043	5955.110333	1233.709961	806.649048
3065.064043	5955.110333	1232.596680	715.654968
3065.064043	5955.110333	1231.482422	854.649475
3065.064043	5955.110333	1230.369141	819.050110
3065.064043	5955.110333	1229.253906	931.715271
3065.064043	5955.110333	1228.139648	1152.012939
3065.064043	5955.110333	1227.025391	1192.991089
3065.064043	5955.110333	1225.910156	1089.556396
3065.064043	5955.110333	1224.794922	987.815674
3065.064043	5955.110333	1223.679688	1410.296265
3065.064043	5955.110333	1222.563477	1091.193726
3065.064043	5955.110333	1221.447266	1152.498169
3065.064043	5955.110333	1220.331055	1239.201660
3065.064043	5955.110333	1219.214844	1132.476318
3065.064043	5955.110333	1218.098633	1191.826294
3065.064043	5955.110333	1216.981445	1259.388306
3065.064043	5955.110333	1215.864258	946.139099
3065.064043	5955.110333	1214.747070	1204.981323
3065.064043	5955.110333	1213.629883	1198.233643
3065.064043	5955.110333	1212.511719	1148.692627
3065.064043	5955.110333	1211.393555	1164.853271
3065.064043	5955.110333	1210.275391	1312.059570
3065.064043	5955.110333	1209.157227	1171.634277
3065.064043	5955.110333	1208.038086	931.838379
3065.064043	5955.110333	1206.918945	981.554199
3065.064043	5955.110333	1205.799805	880.215820
3065.064043	5955.110333	1204.680664	833.062012
3065.064043	5955.110333	1203.560547	948.675720
3065.064043	5955.110333	1202.441406	779.078308
3065.064043	5955.110333	1201.321289	736.294312
3065.064043	5955.110333	1200.200195	874.601257
3065.064043	5955.110333	1199.080078	569.414001
3065.064043	5955.110333	1197.958984	616.668518
3065.064043	5955.110333	1196.837891	687.326538
3065.064043	5955.110333	1195.716797	653.043152
3065.064043	5955.110333	1194.594727	735.103516
3065.064043	5955.110333	1193.473633	600.968933
3065.064043	5955.110333	1192.351563	510.935394
3065.064043	5955.110333	1191.229492	468.135406
3065.064043	5955.110333	1190.106445	451.263885
3065.064043	5955.110333	1188.984375	108.431770
3065.064043	5955.110333	1187.861328	77.596153
3065.064043	5955.110333	1186.738281	146.796539
3065.064043	5955.110333	1185.614258	-172.928955
3065.064043	5955.110333	1184.491211	118.899139
3065.064043	5955.110333	1183.367188	-91.173325
3065.064043	5955.110333	1182.243164	3.706356
3065.064043	5955.110333	1181.119141	85.222923
3065.064043	5955.110333	1179.994141	262.669800
3065.064043	5955.110333	1178.869141	148.091583
3065.064043	5955.110333	1177.744141	7.331345
3065.064043	5955.110333	1176.619141	-120.656532
3065.064043	5955.110333	1175.493164	-85.069351
3065.064043	5955.110333	1174.368164	-44.641533
3065.064043	5955.110333	1173.242188	-187.345261
3065.064043	5955.110333	1172.115234	-127.314346
3065.064043	5955.110333	1170.989258	-82.741226
3065.064043	5955.110333	1169.862305	-75.905533
3065.064043	5955.110333	1168.735352	-288.237579
3065.064043	5955.110333	1167.608398	63.074646
3065.064043	5955.110333	1166.481445	-240.518066
3065.064043	5955.110333	1165.353516	-286.718079
3065.064043	5955.110333	1164.225586	-158.550674
3065.064043	5955.110333	1163.097656	-234.758377
3065.064043	5955.110333	1161.968750	-244.588837
3065.064043	5955.110333	1160.840820	-101.295876
3065.064043	5955.110333	1159.711914	-121.263237
3065.064043	5955.110333	1158.583008	93.113609
3065.064043	5955.110333	1157.453125	306.500549
3065.064043	5955.110333	1156.324219	177.920563
3065.064043	5955.110333	1155.194336	220.760193
3065.064043	5955.110333	1154.064453	529.487976
3065.064043	5955.110333	1152.933594	367.105316
3065.064043	5955.110333	1151.803711	453.193054
3065.064043	5955.110333	1150.672852	666.035156
3065.064043	5955.110333	1149.541992	161.573456
3065.064043	5955.110333	1148.411133	317.696747
3065.064043	5955.110333	1147.279297	122.438835
3065.064043	5955.110333	1146.147461	-92.445267
3065.064043	5955.110333	1145.015625	140.524994
3065.064043	5955.110333	1143.883789	-105.329933
3065.064043	5955.110333	1142.750977	173.808441
3065.064043	5955.110333	1141.619141	290.344421
3065.064043	5955.110333	1140.486328	466.733154
3065.064043	5955.110333	1139.352539	525.665771
3065.064043	5955.110333	1138.219727	617.610107
3065.064043	5955.110333	1137.085938	1037.924683
3065.064043	5955.110333	1135.952148	1286.622070
3065.064043	5955.110333	1134.818359	1450.042358
3065.064043	5955.110333	1133.683594	1437.534302
3065.064043	5955.110333	1132.549805	1507.104492
3065.064043	5955.110333	1131.415039	1752.106079
3065.064043	5955.110333	1130.279297	1953.509888
3065.064043	5955.110333	1129.144531	2011.380005
3065.064043	5955.110333	1128.008789	2017.928223
3065.064043	5955.110333	1126.873047	1700.482788
3065.064043	5955.110333	1125.737305	1156.052246
3065.064043	5955.110333	1124.601563	1090.379272
3065.064043	5955.110333	1123.464844	1113.865967
3065.064043	5955.110333	1122.328125	946.136353
3065.064043	5955.110333	1121.191406	1149.945068
3065.064043	5955.110333	1120.054688	728.239746
3065.064043	5955.110333	1118.916992	780.100037
3065.064043	5955.110333	1117.779297	752.220947
3065.064043	5955.110333	1116.641602	771.173340
3065.064043	5955.110333	1115.503906	636.498962
3065.064043	5955.110333	1114.365234	779.778809
3065.064043	5955.110333	1113.226563	670.116638
3065.064043	5955.110333	1112.087891	987.593323
3065.064043	5955.110333	1110.949219	835.699951
3065.064043	5955.110333	1109.809570	1386.393799
3065.064043	5955.110333	1108.669922	1052.463013
3065.064043	5955.110333	1107.530273	1401.461060
3065.064043	5955.110333	1106.390625	1858.857788
3065.064043	5955.110333	1105.250000	1752.717285
3065.064043	5955.110333	1104.109375	2181.627197
3065.064043	5955.110333	1102.968750	2381.426270
3065.064043	5955.110333	1101.828125	2538.441895
3065.064043	5955.110333	1100.686523	2685.870117
3065.064043	5955.110333	1099.544922	2702.311523
3065.064043	5955.110333	1098.403320	2427.708008
3065.064043	5955.110333	1097.261719	1889.914429
3065.064043	5955.110333	1096.120117	1566.847656
3065.064043	5955.110333	1094.977539	1226.639282
3065.064043	5955.110333	1093.834961	1099.657471
3065.064043	5955.110333	1092.691406	1138.402832
3065.064043	5955.110333	1091.548828	1014.787598
3065.064043	5955.110333	1090.405273	942.079163
3065.064043	5955.110333	1089.261719	677.201050
3065.064043	5955.110333	1088.118164	521.931824
3065.064043	5955.110333	1086.973633	266.907898
3065.064043	5955.110333	1085.829102	433.850342
3065.064043	5955.110333	1084.684570	120.947723
3065.064043	5955.110333	1083.540039	9.435652
3065.064043	5955.110333	1082.395508	-73.827293
3065.064043	5955.110333	1081.250000	-36.252010
3065.064043	5955.110333	1080.104492	72.363625
3065.064043	5955.110333	1078.958984	27.804035
3065.064043	5955.110333	1077.812500	156.316177
3065.064043	5955.110333	1076.666016	38.631905
3065.064043	5955.110333	1075.519531	-23.546379
3065.064043	5955.110333	1074.373047	33.761116
3065.064043	5955.110333	1073.226563	-157.959961
3065.064043	5955.110333	1072.079102	-7.351866
3065.064043	5955.110333	1070.931641	-105.447731
3065.064043	5955.110333	1069.784180	-115.560722
3065.064043	5955.110333	1068.635742	1.195912
3065.064043	5955.110333	1067.487305	-47.968418
3065.064043	5955.110333	1066.338867	81.465195
3065.064043	5955.110333	1065.190430	91.513710
3065.064043	5955.110333	1064.041992	242.789795
3065.064043	5955.110333	1062.892578	136.072266
3065.064043	5955.110333	1061.743164	477.371887
3065.064043	5955.110333	1060.593750	209.127563
3065.064043	5955.110333	1059.443359	81.994713
3065.064043	5955.110333	1058.292969	87.160286
3065.064043	5955.110333	1057.142578	121.461578
3065.064043	5955.110333	1055.992188	223.460541
3065.064043	5955.110333	1054.841797	-53.612946
3065.064043	5955.110333	1053.690430	108.317993
3065.064043	5955.110333	1052.539063	355.368530
3065.064043	5955.110333	1051.387695	288.139709
3065.064043	5955.110333	1050.235352	-33.301693
3065.064043	5955.110333	1049.083984	-114.962128
3065.064043	5955.110333	1047.931641	110.782738
3065.064043	5955.110333	1046.778320	-38.206589
3065.064043	5955.110333	1045.625977	-99.697731
3065.064043	5955.110333	1044.472656	248.366699
3065.064043	5955.110333	1043.319336	-49.573128
3065.064043	5955.110333	1042.166016	71.462738
3065.064043	5955.110333	1041.012695	27.583128
3065.064043	5955.110333	1039.858398	-111.270920
3065.064043	5955.110333	1038.704102	113.208321
3065.064043	5955.110333	1037.549805	371.696075
3065.064043	5955.110333	1036.394531	182.660522
3065.064043	5955.110333	1035.239258	337.214294
3065.064043	5955.110333	1034.083984	356.704529
3065.064043	5955.110333	1032.928711	287.400177
3065.064043	5955.110333	1031.773438	88.787056
3065.064043	5955.110333	1030.617188	207.496964
3065.064043	5955.110333	1029.460938	392.269897
3065.064043	5955.110333	1028.304688	68.415871
3065.064043	5955.110333	1027.147461	254.035187
3065.064043	5955.110333	1025.991211	317.027008
3065.064043	5955.110333	1024.833984	247.856171
3065.064043	5955.110333	1023.675781	-92.321861
3065.064043	5955.110333	1022.518555	112.015518
3065.064043	5955.110333	1021.360352	309.047546
3065.064043	5955.110333	1020.202148	229.227646
3065.064043	5955.110333	1019.043945	349.936096
3065.064043	5955.110333	1017.884766	232.620300
3065.064043	5955.110333	1016.726563	127.864059
3065.064043	5955.110333	1015.567383	-176.195099
3065.064043	5955.110333	1014.407227	146.289703
3065.064043	5955.110333	1013.248047	174.793198
3065.064043	5955.110333	1012.087891	80.460381
3065.064043	5955.110333	1010.927734	-15.565437
3065.064043	5955.110333	1009.767578	43.449482
3065.064043	5955.110333	1008.606445	26.221571
3065.064043	5955.110333	1007.446289	42.015148
3065.064043	5955.110333	1006.285156	345.349609
3065.064043	5955.110333	1005.123047	175.911621
3065.064043	5955.110333	1003.961914	238.405243
3065.064043	5955.110333	1002.799805	92.238190
3065.064043	5955.110333	1001.637695	282.005341
3065.064043	5955.110333	1000.475586	294.221558
3065.064043	5955.110333	999.312500	-58.633499
3065.064043	5955.110333	998.149414	-22.322283
3065.064043	5955.110333	996.986328	139.502090
3065.064043	5955.110333	995.823242	121.952148
3065.064043	5955.110333	994.659180	-30.094261
3065.064043	5955.110333	993.496094	-252.387451
3065.064043	5955.110333	992.332031	198.518463
3065.064043	5955.110333	991.166992	16.964369
3065.064043	5955.110333	990.002930	-217.579178
3065.064043	5955.110333	988.837891	-42.600128
3065.064043	5955.110333	987.672852	-371.735687
3065.064043	5955.110333	986.506836	258.329132
3065.064043	5955.110333	985.341797	-143.960205
3065.064043	5955.110333	984.175781	12.357180
3065.064043	5955.110333	983.009766	58.452770
3065.064043	5955.110333	981.843750	-9.020071
3065.064043	5955.110333	980.676758	195.614761
3065.064043	5955.110333	979.509766	354.948700
3065.064043	5955.110333	978.342773	765.799133
3065.064043	5955.110333	977.175781	443.084961
3065.064043	5955.110333	976.007813	591.847412
3065.064043	5955.110333	974.839844	345.109528
3065.064043	5955.110333	973.671875	496.993347
3065.064043	5955.110333	972.503906	520.517334
3065.064043	5955.110333	971.334961	107.486160
3065.064043	5955.110333	970.166016	218.678848
3065.064043	5955.110333	968.997070	180.221222
3065.064043	5955.110333	967.828125	121.274269
3065.064043	5955.110333	966.658203	252.896393
3065.064043	5955.110333	965.488281	-91.600174
3065.064043	5955.110333	964.318359	21.443554
3065.064043	5955.110333	963.148438	-243.633804
3065.064043	5955.110333	961.977539	-27.107983
3065.064043	5955.110333	960.806641	46.161411
3065.064043	5955.110333	959.635742	-219.916748
3065.064043	5955.110333	958.463867	36.481327
3065.064043	5955.110333	957.292969	184.280319
3065.064043	5955.110333	956.121094	-297.927612
3065.064043	5955.110333	954.948242	107.711586
3065.064043	5955.110333	953.776367	-48.982807
3065.064043	5955.110333	952.603516	229.227676
3065.064043	5955.110333	951.430664	436.446289
3065.064043	5955.110333	950.257813	335.749695
3065.064043	5955.110333	949.084961	877.103271
3065.064043	5955.110333	947.911133	1085.637085
3065.064043	5955.110333	946.737305	1032.057861
3065.064043	5955.110333	945.563477	818.235168
3065.064043	5955.110333	944.388672	890.422058
3065.064043	5955.110333	943.213867	1000.850586
3065.064043	5955.110333	942.039063	820.954834
3065.064043	5955.110333	940.864258	672.363892
3065.064043	5955.110333	939.688477	602.506531
3065.064043	5955.110333	938.513672	422.928650
3065.064043	5955.110333	937.337891	408.077026
3065.064043	5955.110333	936.161133	450.985138
3065.064043	5955.110333	934.985352	313.058197
3065.064043	5955.110333	933.808594	253.940201
3065.064043	5955.110333	932.631836	341.238159
3065.064043	5955.110333	931.454102	446.812134
3065.064043	5955.110333	930.277344	591.631836
3065.064043	5955.110333	929.099609	660.452393
3065.064043	5955.110333	927.921875	443.974548
3065.064043	5955.110333	926.743164	693.460510
3065.064043	5955.110333	925.565430	615.690613
3065.064043	5955.110333	924.386719	658.298584
3065.064043	5955.110333	923.208008	546.549683
3065.064043	5955.110333	922.028320	424.387604
3065.064043	5955.110333	920.849609	317.930481
3065.064043	5955.110333	919.669922	327.944824
3065.064043	5955.110333	919.474609	414.468567
3065.064043	5955.110333	918.309570	462.126587
3065.064043	5955.110333	917.143555	669.172058
3065.064043	5955.110333	915.977539	510.346619
3065.064043	5955.110333	914.810547	500.478577
3065.064043	5955.110333	913.644531	469.703583
3065.064043	5955.110333	912.477539	493.772308
3065.064043	5955.110333	911.310547	457.777802
3065.064043	5955.110333	910.143555	667.131897
3065.064043	5955.110333	908.975586	1017.309326
3065.064043	5955.110333	907.807617	1709.110107
3065.064043	5955.110333	906.639648	1941.534058
3065.064043	5955.110333	905.471680	2072.141113
3065.064043	5955.110333	904.303711	2168.786621
3065.064043	5955.110333	903.134766	1796.157715
3065.064043	5955.110333	901.965820	1006.656250
3065.064043	5955.110333	900.796875	587.484741
3065.064043	5955.110333	899.626953	504.555115
3065.064043	5955.110333	898.457031	312.247498
3065.064043	5955.110333	897.287109	114.795700
3065.064043	5955.110333	896.117188	448.554657
3065.064043	5955.110333	894.947266	175.633209
3065.064043	5955.110333	893.776367	139.650085
3065.064043	5955.110333	892.605469	-34.245155
3065.064043	5955.110333	891.434570	444.899994
3065.064043	5955.110333	890.262695	250.176819
3065.064043	5955.110333	889.091797	336.359711
3065.064043	5955.110333	887.919922	729.286194
3065.064043	5955.110333	886.748047	568.357666
3065.064043	5955.110333	885.575195	563.415405
3065.064043	5955.110333	884.403320	511.673157
3065.064043	5955.110333	883.230469	493.710449
3065.064043	5955.110333	882.057617	823.766602
3065.064043	5955.110333	880.883789	1119.915039
3065.064043	5955.110333	879.710938	764.254517
3065.064043	5955.110333	878.537109	1493.721558
3065.064043	5955.110333	877.362305	1812.836792
3065.064043	5955.110333	876.188477	2243.353271
3065.064043	5955.110333	875.013672	2300.121582
3065.064043	5955.110333	873.839844	1908.138916
3065.064043	5955.110333	872.664063	969.169434
3065.064043	5955.110333	871.489258	917.183472
3065.064043	5955.110333	870.313477	551.564331
3065.064043	5955.110333	869.138672	512.575134
3065.064043	5955.110333	867.962891	209.302139
3065.064043	5955.110333	866.786133	-21.347542
3065.064043	5955.110333	865.610352	-57.706390
3065.064043	5955.110333	864.433594	71.635880
3065.064043	5955.110333	863.256836	-127.891808
3065.064043	5955.110333	862.079102	78.986267
3065.064043	5955.110333	860.902344	-332.737915
3065.064043	5955.110333	859.724609	-172.558762
3065.064043	5955.110333	858.546875	-77.154671
3065.064043	5955.110333	857.368164	-51.654457
3065.064043	5955.110333	856.190430	-111.544434
3065.064043	5955.110333	855.011719	-223.153320
3065.064043	5955.110333	853.833008	19.319035
3065.064043	5955.110333	852.654297	-224.155975
3065.064043	5955.110333	851.474609	-160.141052
3065.064043	5955.110333	850.294922	-137.533218
3065.064043	5955.110333	849.115234	-179.548615
3065.064043	5955.110333	847.935547	-133.819458
3065.064043	5955.110333	846.754883	304.206543
3065.064043	5955.110333	845.575195	-76.137878
3065.064043	5955.110333	844.393555	31.306658
3065.064043	5955.110333	843.212891	17.387754
3065.064043	5955.110333	842.032227	-112.656853
3065.064043	5955.110333	840.850586	-265.911926
3065.064043	5955.110333	839.668945	-50.490959
3065.064043	5955.110333	838.486328	66.829720
3065.064043	5955.110333	837.304688	91.248726
3065.064043	5955.110333	836.122070	156.820282
3065.064043	5955.110333	834.939453	307.302124
3065.064043	5955.110333	833.756836	249.028717
3065.064043	5955.110333	832.573242	249.934341
3065.064043	5955.110333	831.389648	155.509293
3065.064043	5955.110333	830.206055	130.539185
3065.064043	5955.110333	829.022461	120.940453
3065.064043	5955.110333	827.838867	322.238892
3065.064043	5955.110333	826.654297	240.419174
3065.064043	5955.110333	825.469727	-44.627697
3065.064043	5955.110333	824.284180	-72.507088
3065.064043	5955.110333	823.099609	71.772102
3065.064043	5955.110333	821.914063	61.692039
3065.064043	5955.110333	820.728516	-38.414600
3065.064043	5955.110333	819.542969	126.052147
3065.064043	5955.110333	818.356445	143.947449
3065.064043	5955.110333	817.169922	351.779968
3065.064043	5955.110333	815.983398	12.532456
3065.064043	5955.110333	814.796875	32.713078
3065.064043	5955.110333	813.609375	276.075073
3065.064043	5955.110333	812.422852	280.591370
3065.064043	5955.110333	811.235352	603.123535
3065.064043	5955.110333	810.046875	350.872772
3065.064043	5955.110333	808.859375	496.097687
3065.064043	5955.110333	807.670898	371.948334
3065.064043	5955.110333	806.482422	693.760254
3065.064043	5955.110333	805.293945	679.596313
3065.064043	5955.110333	804.104492	547.462891
3065.064043	5955.110333	802.915039	768.787598
3065.064043	5955.110333	801.725586	672.311035
3065.064043	5955.110333	800.536133	1031.556885
3065.064043	5955.110333	799.345703	817.058472
3065.064043	5955.110333	798.155273	948.074036
3065.064043	5955.110333	796.964844	805.086182
3065.064043	5955.110333	795.774414	818.101135
3065.064043	5955.110333	794.583008	470.302216
3065.064043	5955.110333	793.392578	454.987732
3065.064043	5955.110333	792.200195	736.165649
3065.064043	5955.110333	791.008789	707.756409
3065.064043	5955.110333	789.816406	576.989075
3065.064043	5955.110333	788.625000	793.668701
3065.064043	5955.110333	787.432617	798.066833
3065.064043	5955.110333	786.239258	631.183533
3065.064043	5955.110333	785.046875	265.027679
3065.064043	5955.110333	783.853516	445.282318
3065.064043	5955.110333	782.660156	523.205017
3065.064043	5955.110333	781.465820	401.876404
3065.064043	5955.110333	780.272461	405.480133
3065.064043	5955.110333	779.078125	493.120209
3065.064043	5955.110333	777.883789	404.576233
3065.064043	5955.110333	776.688477	494.422455
3065.064043	5955.110333	775.494141	571.326050
3065.064043	5955.110333	774.298828	474.706390
3065.064043	5955.110333	773.103516	398.353455
3065.064043	5955.110333	771.907227	451.821503
3065.064043	5955.110333	770.711914	578.977905
3065.064043	5955.110333	769.515625	448.676758
3065.064043	5955.110333	768.318359	226.595825
3065.064043	5955.110333	767.122070	704.552673
3065.064043	5955.110333	765.924805	703.617249
3065.064043	5955.110333	764.727539	829.752441
3065.064043	5955.110333	763.530273	864.068237
3065.064043	5955.110333	762.333008	720.133545
3065.064043	5955.110333	761.134766	715.960510
3065.064043	5955.110333	759.936523	726.868042
3065.064043	5955.110333	758.738281	783.352905
3065.064043	5955.110333	757.540039	842.175476
3065.064043	5955.110333	756.340820	1020.222534
3065.064043	5955.110333	755.141602	954.120117
3065.064043	5955.110333	753.942383	804.037048
3065.064043	5955.110333	752.742188	796.045044
3065.064043	5955.110333	751.541992	841.188843
3065.064043	5955.110333	750.341797	794.740662
3065.064043	5955.110333	749.141602	628.840027
3065.064043	5955.110333	747.941406	1066.718384
3065.064043	5955.110333	746.740234	781.214172
3065.064043	5955.110333	745.539063	802.533386
3065.064043	5955.110333	744.337891	950.440430
3065.064043	5955.110333	743.135742	882.588196
3065.064043	5955.110333	741.933594	1014.813721
3065.064043	5955.110333	740.731445	1156.922729
3065.064043	5955.110333	739.529297	1402.656494
3065.064043	5955.110333	738.326172	1161.716064
3065.064043	5955.110333	737.124023	1120.757080
3065.064043	5955.110333	735.919922	1018.837158
3065.064043	5955.110333	734.716797	997.771973
3065.064043	5955.110333	733.513672	898.047668
3065.064043	5955.110333	732.309570	1025.905762
3065.064043	5955.110333	731.105469	900.503418
3065.064043	5955.110333	729.900391	782.532959
3065.064043	5955.110333	728.696289	871.781250
3065.064043	5955.110333	727.491211	816.661011
3065.064043	5955.110333	726.286133	609.683655
3065.064043	5955.110333	725.080078	928.265625
3065.064043	5955.110333	723.874023	809.364014
3065.064043	5955.110333	722.668945	1038.936768
3065.064043	5955.110333	721.461914	1202.520508
3065.064043	5955.110333	720.255859	1148.657837
3065.064043	5955.110333	719.048828	887.575562
3065.064043	5955.110333	717.841797	1474.511230
3065.064043	5955.110333	716.634766	1596.638428
3065.064043	5955.110333	715.427734	1821.947144
3065.064043	5955.110333	714.219727	1999.010620
3065.064043	5955.110333	713.011719	1999.243164
3065.064043	5955.110333	711.803711	1626.072144
3065.064043	5955.110333	710.594727	1567.961426
3065.064043	5955.110333	709.385742	1660.888062
3065.064043	5955.110333	708.176758	1514.164673
3065.064043	5955.110333	706.967773	1646.941406
3065.064043	5955.110333	705.758789	1293.302490
3065.064043	5955.110333	704.548828	1234.234375
3065.064043	5955.110333	703.338867	1051.601929
3065.064043	5955.110333	702.127930	936.789917
3065.064043	5955.110333	700.917969	1259.734375
3065.064043	5955.110333	699.707031	902.934998
3065.064043	5955.110333	698.496094	1066.819946
3065.064043	5955.110333	697.285156	1079.510620
3065.064043	5955.110333	696.073242	1255.424316
3065.064043	5955.110333	694.861328	1222.376831
3065.064043	5955.110333	693.649414	1292.182861
3065.064043	5955.110333	692.436523	1117.970337
3065.064043	5955.110333	691.224609	1089.350342
3065.064043	5955.110333	690.011719	1145.929443
3065.064043	5955.110333	688.798828	1413.237183
3065.064043	5955.110333	687.584961	1255.855957
3065.064043	5955.110333	686.372070	1236.412109
3065.064043	5955.110333	685.158203	1535.512939
3065.064043	5955.110333	683.943359	1472.914673
3065.064043	5955.110333	682.729492	1465.338501
3065.064043	5955.110333	681.514648	1648.177979
3065.064043	5955.110333	680.299805	1627.601074
3065.064043	5955.110333	679.084961	1982.913330
3065.064043	5955.110333	677.869141	1806.428711
3065.064043	5955.110333	676.653320	1622.294312
3065.064043	5955.110333	675.437500	1791.333374
3065.064043	5955.110333	674.221680	1664.488770
3065.064043	5955.110333	673.004883	1417.259277
3065.064043	5955.110333	671.789063	1189.978760
3065.064043	5955.110333	670.571289	1313.069214
3065.064043	5955.110333	669.354492	1135.554810
3065.064043	5955.110333	668.136719	1060.507935
3065.064043	5955.110333	666.919922	967.793091
3065.064043	5955.110333	665.701172	637.260254
3065.064043	5955.110333	664.483398	816.875183
3065.064043	5955.110333	663.264648	698.660400
3065.064043	5955.110333	662.045898	897.790710
3065.064043	5955.110333	660.827148	909.195618
3065.064043	5955.110333	659.608398	1062.839844
3065.064043	5955.110333	658.388672	961.395020
3065.064043	5955.110333	657.168945	977.204712
3065.064043	5955.110333	655.949219	910.417419
3065.064043	5955.110333	654.728516	968.298279
3065.064043	5955.110333	653.507813	803.814392
3065.064043	5955.110333	652.287109	866.331299
3065.064043	5955.110333	651.066406	803.888245
3065.064043	5955.110333	649.844727	970.790955
3065.064043	5955.110333	648.623047	778.304321
3065.064043	5955.110333	647.401367	1181.688477
3065.064043	5955.110333	646.179688	1213.277832
3065.064043	5955.110333	644.957031	1551.250854
3065.064043	5955.110333	643.734375	1647.199341
3065.064043	5955.110333	642.511719	1628.342529
3065.064043	5955.110333	641.289063	1509.700684
3065.064043	5955.110333	640.065430	1375.996948
3065.064043	5955.110333	638.841797	1488.694702
3065.064043	5955.110333	637.618164	1372.177612
3065.064043	5955.110333	636.393555	1452.162842
3065.064043	5955.110333	635.168945	1223.424805
3065.064043	5955.110333	633.944336	1056.835571
3065.064043	5955.110333	632.719727	1337.880493
3065.064043	5955.110333	631.494141	1220.784180
3065.064043	5955.110333	630.269531	1392.016235
3065.064043	5955.110333	629.042969	852.119751
3065.064043	5955.110333	627.817383	700.020508
3065.064043	5955.110333	626.590820	416.160919
3065.064043	5955.110333	625.365234	244.103149
3065.064043	5955.110333	624.137695	469.332733
3065.064043	5955.110333	622.911133	550.354980
3065.064043	5955.110333	621.683594	298.562866
3065.064043	5955.110333	620.456055	151.013855
3065.064043	5955.110333	619.228516	189.527725
3065.064043	5955.110333	618.000977	165.902832
3065.064043	5955.110333	616.772461	171.937637
3065.064043	5955.110333	615.543945	301.869781
3065.064043	5955.110333	614.314453	268.001617
3065.064043	5955.110333	613.085938	-50.981693
3065.064043	5955.110333	611.856445	-72.539505
3065.064043	5955.110333	610.626953	279.970520
3065.064043	5955.110333	609.397461	766.026672
3065.064043	5955.110333	608.166992	635.087463
3065.064043	5955.110333	606.936523	1056.320923
3065.064043	5955.110333	605.706055	808.886963
3065.064043	5955.110333	604.474609	460.000092
3065.064043	5955.110333	603.244141	497.256683
3065.064043	5955.110333	602.012695	2.501512
3065.064043	5955.110333	600.780273	14.964990
3065.064043	5955.110333	599.548828	-86.363579
3065.064043	5955.110333	598.316406	-34.414879
3065.064043	5955.110333	597.083984	-56.686344
3065.064043	5955.110333	595.851563	-27.082165
3065.064043	5955.110333	594.618164	14.817108
3065.064043	5955.110333	593.384766	41.848156
3065.064043	5955.110333	592.151367	177.520935
3065.064043	5955.110333	590.917969	327.933289
3065.064043	5955.110333	589.683594	105.461777
3065.064043	5955.110333	588.449219	-35.472805
3065.064043	5955.110333	587.214844	87.696205
3065.064043	5955.110333	585.979492	-122.281525
3065.064043	5955.110333	584.745117	240.124817
3065.064043	5955.110333	583.509766	377.945587
3065.064043	5955.110333	582.273438	286.394043
3065.064043	5955.110333	581.038086	382.264648
3065.064043	5955.110333	579.801758	591.468689
3065.064043	5955.110333	578.565430	817.854797
3065.064043	5955.110333	577.329102	879.116699
3065.064043	5955.110333	576.091797	974.848022
3065.064043	5955.110333	574.854492	1228.176514
3065.064043	5955.110333	573.617188	1417.427002
3065.064043	5955.110333	572.378906	1914.302368
3065.064043	5955.110333	571.141602	2497.167236
3065.064043	5955.110333	569.903320	3114.265137
3065.064043	5955.110333	568.664063	3458.095215
3065.064043	5955.110333	567.425781	3742.835205
3065.064043	5955.110333	566.186523	3911.938965
3065.064043	5955.110333	564.947266	3471.383057
3065.064043	5955.110333	563.708008	3520.187744
3065.064043	5955.110333	562.467773	3092.329590
3065.064043	5955.110333	561.227539	2419.067139
3065.064043	5955.110333	559.987305	1891.095947
3065.064043	5955.110333	558.747070	1572.173706
3065.064043	5955.110333	557.505859	1091.430420
3065.064043	5955.110333	556.264648	792.633301
3065.064043	5955.110333	555.023438	842.552185
3065.064043	5955.110333	553.781250	760.049316
3065.064043	5955.110333	552.539063	846.954346
3065.064043	5955.110333	551.296875	1159.573975
3065.064043	5955.110333	550.054688	1236.789063
3065.064043	5955.110333	548.811523	1010.097046
3065.064043	5955.110333	547.569336	602.280701
3065.064043	5955.110333	546.325195	415.277557
3065.064043	5955.110333	545.082031	311.806122
3065.064043	5955.110333	543.837891	196.256073
3065.064043	5955.110333	542.593750	112.737053
3065.064043	5955.110333	541.349609	279.131622
3065.064043	5955.110333	540.105469	426.025452
3065.064043	5955.110333	538.860352	587.682068
3065.064043	5955.110333	537.615234	399.544495
3065.064043	5955.110333	536.369141	387.765076
3065.064043	5955.110333	535.124023	354.160706
3065.064043	5955.110333	533.877930	54.204697
3065.064043	5955.110333	532.631836	-135.440125
3065.064043	5955.110333	531.384766	-102.423775
3065.064043	5955.110333	530.138672	-279.378052
3065.064043	5955.110333	528.891602	-92.065140
3065.064043	5955.110333	527.643555	-339.436737
3065.064043	5955.110333	526.396484	-129.836716
3065.064043	5955.110333	525.148438	-232.659409
3065.064043	5955.110333	523.900391	40.668552
3065.064043	5955.110333	522.652344	189.614594
3065.064043	5955.110333	521.403320	424.082031
3065.064043	5955.110333	520.154297	797.700073
3065.064043	5955.110333	518.905273	986.008179
3065.064043	5955.110333	517.656250	1303.678345
3065.064043	5955.110333	516.406250	1121.653320
3065.064043	5955.110333	515.156250	1290.893311
3065.064043	5955.110333	513.906250	790.157837
3065.064043	5955.110333	512.655273	799.022644
3065.064043	5955.110333	511.404297	640.036804
3065.064043	5955.110333	510.153320	332.789795
3065.064043	5955.110333	508.902344	3.986044
3065.064043	5955.110333	507.650391	-88.349388
3065.064043	5955.110333	506.398438	-80.639275
3065.064043	5955.110333	505.146484	95.177902
3065.064043	5955.110333	503.893555	-25.640263
3065.064043	5955.110333	502.641602	201.618088
3065.064043	5955.110333	501.388672	343.894989
3065.064043	5955.110333	500.134766	279.689423
3065.064043	5955.110333	498.881836	495.260468
3065.064043	5955.110333	497.627930	334.310577
3065.064043	5955.110333	496.374023	297.562775
3065.064043	5955.110333	495.119141	222.188873
3065.064043	5955.110333	493.865234	256.365784
3065.064043	5955.110333	492.610352	467.982300
3065.064043	5955.110333	491.355469	199.117371
3065.064043	5955.110333	490.099609	352.860870
3065.064043	5955.110333	488.843750	819.759766
3065.064043	5955.110333	487.587891	988.308777
3065.064043	5955.110333	486.332031	1324.355835
3065.064043	5955.110333	485.075195	1478.613892
3065.064043	5955.110333	483.818359	1708.177246
3065.064043	5955.110333	482.561523	1746.387329
3065.064043	5955.110333	481.304688	1794.491821
3065.064043	5955.110333	480.046875	1569.017822
3065.064043	5955.110333	478.789063	1070.149780
3065.064043	5955.110333	477.531250	494.214783
3065.064043	5955.110333	476.272461	611.161560
3065.064043	5955.110333	475.013672	326.442993
3065.064043	5955.110333	473.754883	117.068909
3065.064043	5955.110333	472.496094	2.339980
3065.064043	5955.110333	471.236328	139.425369
3065.064043	5955.110333	469.976563	92.828987
3065.064043	5955.110333	468.716797	164.917130
3065.064043	5955.110333	467.456055	326.589050
3065.064043	5955.110333	466.196289	210.421463
3065.064043	5955.110333	464.935547	116.211746
3065.064043	5955.110333	463.673828	505.374298
3065.064043	5955.110333	462.413086	508.072052
3065.064043	5955.110333	461.151367	832.082764
3065.064043	5955.110333	459.889648	629.772278
3065.064043	5955.110333	458.626953	565.267151
3065.064043	5955.110333	457.364258	500.914886
3065.064043	5955.110333	456.101563	419.821014
3065.064043	5955.110333	454.838867	601.805603
3065.064043	5955.110333	453.575195	482.348022
3065.064043	5955.110333	452.312500	514.944946
3065.064043	5955.110333	451.047852	234.216339
3065.064043	5955.110333	449.784180	373.057129
3065.064043	5955.110333	448.519531	51.661686
3065.064043	5955.110333	447.254883	299.010742
3065.064043	5955.110333	445.990234	-349.695068
3065.064043	5955.110333	444.725586	198.724869
3065.064043	5955.110333	443.459961	181.155670
3065.064043	5955.110333	442.194336	-113.202805
3065.064043	5955.110333	440.927734	8.891193
3065.064043	5955.110333	439.662109	44.308899
3065.064043	5955.110333	438.395508	-196.943405
3065.064043	5955.110333	437.127930	-180.804535
3065.064043	5955.110333	435.861328	-126.246162
3065.064043	5955.110333	434.593750	-230.435211
3065.064043	5955.110333	433.326172	-351.483185
3065.064043	5955.110333	432.058594	-338.010132
3065.064043	5955.110333	430.790039	-190.123611
3065.064043	5955.110333	429.521484	-136.096344
3065.064043	5955.110333	428.252930	-286.340729
3065.064043	5955.110333	426.984375	-4.535208
3065.064043	5955.110333	425.714844	-61.467224
3065.064043	5955.110333	424.445313	-245.748825
3065.064043	5955.110333	423.174805	71.270760
3065.064043	5955.110333	421.905273	107.287086
3065.064043	5955.110333	420.634766	-185.514542
3065.064043	5955.110333	419.364258	267.219330
3065.064043	5955.110333	418.092773	228.052795
3065.064043	5955.110333	416.822266	260.503326
3065.064043	5955.110333	415.550781	453.147186
3065.064043	5955.110333	414.278320	252.480103
3065.064043	5955.110333	413.006836	310.203094
3065.064043	5955.110333	411.734375	204.676437
3065.064043	5955.110333	410.461914	414.792664
3065.064043	5955.110333	409.188477	547.778259
3065.064043	5955.110333	407.916016	113.117867
3065.064043	5955.110333	406.642578	340.864288
3065.064043	5955.110333	405.368164	350.325623
3065.064043	5955.110333	404.094727	148.809341
3065.064043	5955.110333	402.820313	6.581054
3065.064043	5955.110333	401.545898	174.574875
3065.064043	5955.110333	400.270508	571.293701
3065.064043	5955.110333	398.996094	279.075592
3065.064043	5955.110333	397.720703	552.449707
3065.064043	5955.110333	396.444336	364.045929
3065.064043	5955.110333	395.168945	325.435944
3065.064043	5955.110333	393.892578	147.601013
3065.064043	5955.110333	392.616211	797.253784
3065.064043	5955.110333	391.339844	400.626770
3065.064043	5955.110333	390.062500	151.211594
3065.064043	5955.110333	388.785156	406.673889
3065.064043	5955.110333	387.507813	153.164230
3065.064043	5955.110333	386.229492	177.730713
3065.064043	5955.110333	384.951172	208.443314
3065.064043	5955.110333	383.672852	404.929199
3065.064043	5955.110333	382.394531	423.949615
3065.064043	5955.110333	381.115234	317.966736
3065.064043	5955.110333	379.835938	434.754028
3065.064043	5955.110333	378.556641	147.910614
3065.064043	5955.110333	377.277344	557.468445
3065.064043	5955.110333	375.997070	294.399017
3065.064043	5955.110333	374.716797	410.861176
3065.064043	5955.110333	373.435547	542.555298
3065.064043	5955.110333	372.155273	385.039795
3065.064043	5955.110333	370.874023	459.173126
3065.064043	5955.110333	369.591797	-43.563179
3065.064043	5955.110333	368.310547	134.602463
3065.064043	5955.110333	367.028320	287.334198
3065.064043	5955.110333	365.746094	331.476685
3065.064043	5955.110333	364.463867	378.695282
3065.064043	5955.110333	363.180664	86.925148
3065.064043	5955.110333	361.897461	211.412567
3065.064043	5955.110333	360.614258	474.097992
3065.064043	5955.110333	359.330078	96.365158
3065.064043	5955.110333	358.045898	272.120148
3065.064043	5955.110333	356.761719	42.560783
3065.064043	5955.110333	355.477539	-48.973259
3065.064043	5955.110333	354.192383	184.656219
3065.064043	5955.110333	352.907227	299.902771
3065.064043	5955.110333	351.622070	308.642670
3065.064043	5955.110333	350.336914	324.630310
3065.064043	5955.110333	349.050781	369.077972
3065.064043	5955.110333	347.764648	685.924683
3065.064043	5955.110333	346.477539	398.674225
3065.064043	5955.110333	345.191406	530.581726
3065.064043	5955.110333	343.904297	207.737305
3065.064043	5955.110333	342.616211	466.935272
3065.064043	5955.110333	341.329102	233.664032
3065.064043	5955.110333	340.041016	279.222168
3065.064043	5955.110333	338.752930	106.772263
3065.064043	5955.110333	337.463867	198.678909
3065.064043	5955.110333	336.175781	-26.697191
3065.064043	5955.110333	334.886719	-184.112930
3065.064043	5955.110333	333.596680	-200.433456
3065.064043	5955.110333	332.307617	-47.318726
3065.064043	5955.110333	331.017578	-197.491211
3065.064043	5955.110333	329.727539	-98.176071
3065.064043	5955.110333	328.436523	-195.904480
3065.064043	5955.110333	327.146484	-141.109924
3065.064043	5955.110333	325.855469	70.577126
3065.064043	5955.110333	324.563477	-363.208221
3065.064043	5955.110333	323.272461	-380.453186
3065.064043	5955.110333	321.980469	-146.783493
3065.064043	5955.110333	320.688477	-181.063736
3065.064043	5955.110333	319.395508	155.526260
3065.064043	5955.110333	318.103516	-56.273304
3065.064043	5955.110333	316.810547	-55.321682
3065.064043	5955.110333	315.516602	384.299377
3065.064043	5955.110333	314.223633	197.886078
3065.064043	5955.110333	312.929688	-46.985004
3065.064043	5955.110333	311.635742	247.725647
3065.064043	5955.110333	310.340820	210.586777
3065.064043	5955.110333	309.045898	343.073822
3065.064043	5955.110333	307.750977	106.233109
3065.064043	5955.110333	306.456055	-123.442696
3065.064043	5955.110333	305.160156	-42.826569
3065.064043	5955.110333	303.865234	136.465942
3065.064043	5955.110333	302.568359	9.538210
3065.064043	5955.110333	301.272461	51.653809
3065.064043	5955.110333	299.975586	299.900085
3065.064043	5955.110333	298.678711	235.049667
