#X		#Y		#Wave		#Intensity
2924.182021	5604.279167	1999.980469	60.399197
2924.182021	5604.279167	1999.016602	-67.956314
2924.182021	5604.279167	1998.052734	0.203641
2924.182021	5604.279167	1997.087891	-43.415329
2924.182021	5604.279167	1996.123047	-186.358246
2924.182021	5604.279167	1995.158203	39.630489
2924.182021	5604.279167	1994.193359	89.467476
2924.182021	5604.279167	1993.228516	35.069153
2924.182021	5604.279167	1992.262695	62.191071
2924.182021	5604.279167	1991.297852	-19.813128
2924.182021	5604.279167	1990.332031	-92.076645
2924.182021	5604.279167	1989.366211	107.691010
2924.182021	5604.279167	1988.399414	-162.850662
2924.182021	5604.279167	1987.433594	-20.385099
2924.182021	5604.279167	1986.466797	-53.725277
2924.182021	5604.279167	1985.500977	-25.398001
2924.182021	5604.279167	1984.534180	-36.790398
2924.182021	5604.279167	1983.567383	104.920525
2924.182021	5604.279167	1982.599609	9.196265
2924.182021	5604.279167	1981.632813	86.325172
2924.182021	5604.279167	1980.665039	-49.153828
2924.182021	5604.279167	1979.697266	-194.587570
2924.182021	5604.279167	1978.729492	47.608315
2924.182021	5604.279167	1977.761719	168.619629
2924.182021	5604.279167	1976.792969	22.877092
2924.182021	5604.279167	1975.825195	25.164944
2924.182021	5604.279167	1974.856445	74.233818
2924.182021	5604.279167	1973.887695	100.982986
2924.182021	5604.279167	1972.918945	-170.834946
2924.182021	5604.279167	1971.949219	75.260490
2924.182021	5604.279167	1970.980469	10.498243
2924.182021	5604.279167	1970.010742	-2.550260
2924.182021	5604.279167	1969.041016	-77.289536
2924.182021	5604.279167	1968.071289	-23.925549
2924.182021	5604.279167	1967.101563	135.298538
2924.182021	5604.279167	1966.130859	25.881659
2924.182021	5604.279167	1965.161133	5.114521
2924.182021	5604.279167	1964.190430	-20.628225
2924.182021	5604.279167	1963.219727	93.923515
2924.182021	5604.279167	1962.249023	220.691101
2924.182021	5604.279167	1961.277344	148.007645
2924.182021	5604.279167	1960.306641	151.591675
2924.182021	5604.279167	1959.334961	9.977957
2924.182021	5604.279167	1958.363281	-11.091949
2924.182021	5604.279167	1957.391602	80.941521
2924.182021	5604.279167	1956.419922	86.848763
2924.182021	5604.279167	1955.447266	26.343983
2924.182021	5604.279167	1954.474609	118.229065
2924.182021	5604.279167	1953.501953	77.351288
2924.182021	5604.279167	1952.529297	4.524670
2924.182021	5604.279167	1951.556641	-6.878287
2924.182021	5604.279167	1950.583984	104.512894
2924.182021	5604.279167	1949.610352	83.238937
2924.182021	5604.279167	1948.636719	81.601357
2924.182021	5604.279167	1947.663086	62.771156
2924.182021	5604.279167	1946.689453	191.198578
2924.182021	5604.279167	1945.715820	-38.690643
2924.182021	5604.279167	1944.741211	119.134033
2924.182021	5604.279167	1943.767578	132.177490
2924.182021	5604.279167	1942.792969	-87.774620
2924.182021	5604.279167	1941.818359	47.900043
2924.182021	5604.279167	1940.842773	-2.795617
2924.182021	5604.279167	1939.868164	-24.053307
2924.182021	5604.279167	1938.892578	104.188751
2924.182021	5604.279167	1937.916992	75.576996
2924.182021	5604.279167	1936.941406	-126.948837
2924.182021	5604.279167	1935.965820	69.842934
2924.182021	5604.279167	1934.990234	129.436829
2924.182021	5604.279167	1934.013672	201.259186
2924.182021	5604.279167	1933.037109	20.930687
2924.182021	5604.279167	1932.060547	-76.104362
2924.182021	5604.279167	1931.083984	74.058250
2924.182021	5604.279167	1930.107422	13.776758
2924.182021	5604.279167	1929.129883	100.295631
2924.182021	5604.279167	1928.153320	44.954361
2924.182021	5604.279167	1927.175781	102.125786
2924.182021	5604.279167	1926.198242	-31.396099
2924.182021	5604.279167	1925.219727	-30.416777
2924.182021	5604.279167	1924.242188	39.009315
2924.182021	5604.279167	1923.263672	-113.919853
2924.182021	5604.279167	1922.285156	77.676353
2924.182021	5604.279167	1921.306641	-21.430267
2924.182021	5604.279167	1920.328125	243.376785
2924.182021	5604.279167	1919.349609	-63.213783
2924.182021	5604.279167	1918.370117	-130.447128
2924.182021	5604.279167	1917.391602	-141.497452
2924.182021	5604.279167	1916.412109	147.614395
2924.182021	5604.279167	1915.431641	9.687365
2924.182021	5604.279167	1914.452148	93.807716
2924.182021	5604.279167	1913.472656	19.394171
2924.182021	5604.279167	1912.492188	-159.821991
2924.182021	5604.279167	1911.511719	-22.024370
2924.182021	5604.279167	1910.531250	-106.065666
2924.182021	5604.279167	1909.550781	-97.450005
2924.182021	5604.279167	1908.569336	-108.311417
2924.182021	5604.279167	1907.588867	19.709213
2924.182021	5604.279167	1906.607422	86.807861
2924.182021	5604.279167	1905.625977	22.402130
2924.182021	5604.279167	1904.644531	-122.307198
2924.182021	5604.279167	1903.662109	-64.902481
2924.182021	5604.279167	1902.680664	-68.345306
2924.182021	5604.279167	1901.698242	37.729271
2924.182021	5604.279167	1900.715820	-150.598312
2924.182021	5604.279167	1899.733398	8.998511
2924.182021	5604.279167	1898.750000	-60.057800
2924.182021	5604.279167	1897.767578	-82.871742
2924.182021	5604.279167	1896.784180	-32.732651
2924.182021	5604.279167	1895.800781	-16.627722
2924.182021	5604.279167	1894.817383	21.356400
2924.182021	5604.279167	1893.833984	-79.156021
2924.182021	5604.279167	1892.850586	-206.340561
2924.182021	5604.279167	1891.866211	-68.729958
2924.182021	5604.279167	1890.881836	-69.576248
2924.182021	5604.279167	1889.897461	19.417578
2924.182021	5604.279167	1888.913086	-44.541340
2924.182021	5604.279167	1887.927734	-62.357864
2924.182021	5604.279167	1886.943359	-252.443680
2924.182021	5604.279167	1885.958008	16.072983
2924.182021	5604.279167	1884.972656	-62.369678
2924.182021	5604.279167	1883.987305	-68.024590
2924.182021	5604.279167	1883.001953	54.834797
2924.182021	5604.279167	1882.015625	150.981262
2924.182021	5604.279167	1881.029297	48.340179
2924.182021	5604.279167	1880.042969	-59.109009
2924.182021	5604.279167	1879.056641	-74.450378
2924.182021	5604.279167	1878.070313	-89.788513
2924.182021	5604.279167	1877.083984	74.101074
2924.182021	5604.279167	1876.096680	80.524246
2924.182021	5604.279167	1875.109375	72.413147
2924.182021	5604.279167	1874.122070	-141.456024
2924.182021	5604.279167	1873.134766	182.023972
2924.182021	5604.279167	1872.146484	40.786873
2924.182021	5604.279167	1871.159180	83.456848
2924.182021	5604.279167	1870.170898	17.251093
2924.182021	5604.279167	1869.182617	115.505013
2924.182021	5604.279167	1868.194336	-11.156611
2924.182021	5604.279167	1867.205078	-99.108788
2924.182021	5604.279167	1866.216797	11.150681
2924.182021	5604.279167	1865.227539	-11.561600
2924.182021	5604.279167	1864.238281	40.614216
2924.182021	5604.279167	1863.249023	97.582161
2924.182021	5604.279167	1862.259766	55.483543
2924.182021	5604.279167	1861.269531	68.914894
2924.182021	5604.279167	1860.279297	120.945084
2924.182021	5604.279167	1859.290039	71.551277
2924.182021	5604.279167	1858.298828	70.412109
2924.182021	5604.279167	1857.308594	8.925487
2924.182021	5604.279167	1856.318359	82.529648
2924.182021	5604.279167	1855.327148	81.300415
2924.182021	5604.279167	1854.335938	26.985502
2924.182021	5604.279167	1853.344727	-10.464250
2924.182021	5604.279167	1852.353516	26.794592
2924.182021	5604.279167	1851.362305	136.309555
2924.182021	5604.279167	1850.370117	67.421906
2924.182021	5604.279167	1849.377930	126.214462
2924.182021	5604.279167	1848.385742	-5.353145
2924.182021	5604.279167	1847.393555	168.951187
2924.182021	5604.279167	1846.401367	157.736481
2924.182021	5604.279167	1845.408203	-99.082916
2924.182021	5604.279167	1844.415039	-91.078316
2924.182021	5604.279167	1843.421875	8.325158
2924.182021	5604.279167	1842.428711	170.203354
2924.182021	5604.279167	1841.435547	353.621399
2924.182021	5604.279167	1840.441406	245.885925
2924.182021	5604.279167	1839.448242	5.879714
2924.182021	5604.279167	1838.454102	-63.386177
2924.182021	5604.279167	1837.459961	-36.526649
2924.182021	5604.279167	1836.464844	199.360474
2924.182021	5604.279167	1835.470703	139.541183
2924.182021	5604.279167	1834.475586	29.229259
2924.182021	5604.279167	1833.480469	171.114716
2924.182021	5604.279167	1832.485352	284.065460
2924.182021	5604.279167	1831.490234	65.553848
2924.182021	5604.279167	1830.495117	-4.097123
2924.182021	5604.279167	1829.499023	106.228210
2924.182021	5604.279167	1828.502930	106.055145
2924.182021	5604.279167	1827.506836	132.206680
2924.182021	5604.279167	1826.510742	151.082993
2924.182021	5604.279167	1825.513672	117.112961
2924.182021	5604.279167	1824.517578	30.331598
2924.182021	5604.279167	1823.520508	171.272675
2924.182021	5604.279167	1822.523438	24.436548
2924.182021	5604.279167	1821.526367	141.209732
2924.182021	5604.279167	1820.529297	56.584251
2924.182021	5604.279167	1819.531250	228.250351
2924.182021	5604.279167	1818.533203	181.804398
2924.182021	5604.279167	1817.535156	171.216949
2924.182021	5604.279167	1816.537109	16.892155
2924.182021	5604.279167	1815.539063	20.539858
2924.182021	5604.279167	1814.540039	184.460327
2924.182021	5604.279167	1813.541992	183.121918
2924.182021	5604.279167	1812.542969	-91.057358
2924.182021	5604.279167	1811.543945	189.747009
2924.182021	5604.279167	1810.543945	245.537170
2924.182021	5604.279167	1809.544922	196.009720
2924.182021	5604.279167	1808.544922	57.948242
2924.182021	5604.279167	1807.544922	-18.004965
2924.182021	5604.279167	1806.544922	121.064140
2924.182021	5604.279167	1805.544922	92.729767
2924.182021	5604.279167	1804.544922	64.312233
2924.182021	5604.279167	1803.543945	143.285812
2924.182021	5604.279167	1802.542969	0.046214
2924.182021	5604.279167	1801.541992	97.908928
2924.182021	5604.279167	1800.541016	-16.818363
2924.182021	5604.279167	1799.539063	197.754303
2924.182021	5604.279167	1798.538086	257.046356
2924.182021	5604.279167	1797.536133	292.350281
2924.182021	5604.279167	1796.534180	177.263626
2924.182021	5604.279167	1795.532227	-126.287689
2924.182021	5604.279167	1794.529297	142.426682
2924.182021	5604.279167	1793.527344	89.105583
2924.182021	5604.279167	1792.524414	61.909706
2924.182021	5604.279167	1791.521484	275.308258
2924.182021	5604.279167	1790.518555	-11.832342
2924.182021	5604.279167	1789.514648	136.958084
2924.182021	5604.279167	1788.511719	-4.979925
2924.182021	5604.279167	1787.507813	45.902065
2924.182021	5604.279167	1786.503906	179.981064
2924.182021	5604.279167	1785.500000	35.396061
2924.182021	5604.279167	1784.496094	133.504776
2924.182021	5604.279167	1783.491211	205.281723
2924.182021	5604.279167	1782.486328	36.637619
2924.182021	5604.279167	1781.481445	77.255447
2924.182021	5604.279167	1780.476563	-105.798019
2924.182021	5604.279167	1779.471680	55.861420
2924.182021	5604.279167	1778.465820	155.527161
2924.182021	5604.279167	1777.460938	159.976822
2924.182021	5604.279167	1776.455078	50.236195
2924.182021	5604.279167	1775.449219	251.655319
2924.182021	5604.279167	1774.442383	46.678593
2924.182021	5604.279167	1773.436523	57.787727
2924.182021	5604.279167	1772.429688	-68.956200
2924.182021	5604.279167	1771.422852	150.837433
2924.182021	5604.279167	1770.416016	59.486549
2924.182021	5604.279167	1769.409180	36.868687
2924.182021	5604.279167	1768.402344	35.493229
2924.182021	5604.279167	1767.394531	98.036316
2924.182021	5604.279167	1766.386719	177.035706
2924.182021	5604.279167	1765.378906	156.285004
2924.182021	5604.279167	1764.371094	156.756561
2924.182021	5604.279167	1763.362305	43.313637
2924.182021	5604.279167	1762.354492	-53.611099
2924.182021	5604.279167	1761.345703	5.755942
2924.182021	5604.279167	1760.336914	-65.324997
2924.182021	5604.279167	1759.328125	-103.343391
2924.182021	5604.279167	1758.318359	-42.019497
2924.182021	5604.279167	1757.308594	-85.025284
2924.182021	5604.279167	1756.299805	158.310547
2924.182021	5604.279167	1755.290039	-34.079563
2924.182021	5604.279167	1754.279297	36.133987
2924.182021	5604.279167	1753.269531	42.323650
2924.182021	5604.279167	1752.258789	83.855797
2924.182021	5604.279167	1751.249023	-182.198364
2924.182021	5604.279167	1750.238281	-126.706314
2924.182021	5604.279167	1749.226563	169.766144
2924.182021	5604.279167	1748.215820	68.911087
2924.182021	5604.279167	1747.204102	36.489307
2924.182021	5604.279167	1746.193359	-50.379841
2924.182021	5604.279167	1745.181641	56.354034
2924.182021	5604.279167	1744.168945	9.386922
2924.182021	5604.279167	1743.157227	-6.981369
2924.182021	5604.279167	1742.144531	70.957100
2924.182021	5604.279167	1741.132813	-21.209269
2924.182021	5604.279167	1740.120117	-75.718285
2924.182021	5604.279167	1739.106445	-40.682457
2924.182021	5604.279167	1738.093750	-43.521404
2924.182021	5604.279167	1737.080078	-117.260704
2924.182021	5604.279167	1736.067383	42.381710
2924.182021	5604.279167	1735.053711	124.014587
2924.182021	5604.279167	1734.040039	-100.969376
2924.182021	5604.279167	1733.025391	34.600639
2924.182021	5604.279167	1732.011719	66.321175
2924.182021	5604.279167	1730.997070	-95.304375
2924.182021	5604.279167	1729.982422	-19.081978
2924.182021	5604.279167	1728.967773	-133.780853
2924.182021	5604.279167	1727.952148	-10.753119
2924.182021	5604.279167	1726.937500	3.820693
2924.182021	5604.279167	1725.921875	-31.179157
2924.182021	5604.279167	1724.906250	74.908813
2924.182021	5604.279167	1723.890625	77.303772
2924.182021	5604.279167	1722.875000	-82.742859
2924.182021	5604.279167	1721.858398	-247.571121
2924.182021	5604.279167	1720.841797	-52.677181
2924.182021	5604.279167	1719.825195	167.879868
2924.182021	5604.279167	1718.808594	-41.933655
2924.182021	5604.279167	1717.791992	93.685516
2924.182021	5604.279167	1716.774414	-149.189056
2924.182021	5604.279167	1715.756836	-150.118332
2924.182021	5604.279167	1714.739258	-36.075390
2924.182021	5604.279167	1713.721680	42.577095
2924.182021	5604.279167	1712.704102	-36.231560
2924.182021	5604.279167	1711.685547	32.745571
2924.182021	5604.279167	1710.667969	103.940239
2924.182021	5604.279167	1709.649414	38.871967
2924.182021	5604.279167	1708.630859	107.439659
2924.182021	5604.279167	1707.611328	-176.002686
2924.182021	5604.279167	1706.592773	-20.880817
2924.182021	5604.279167	1705.573242	-86.359573
2924.182021	5604.279167	1704.553711	7.485830
2924.182021	5604.279167	1703.534180	12.112192
2924.182021	5604.279167	1702.513672	58.789089
2924.182021	5604.279167	1701.494141	-86.773338
2924.182021	5604.279167	1700.473633	20.583340
2924.182021	5604.279167	1699.453125	-80.656914
2924.182021	5604.279167	1698.432617	-22.740343
2924.182021	5604.279167	1697.412109	13.973551
2924.182021	5604.279167	1696.390625	-26.697340
2924.182021	5604.279167	1695.369141	105.719696
2924.182021	5604.279167	1694.347656	-38.123093
2924.182021	5604.279167	1693.326172	164.210754
2924.182021	5604.279167	1692.304688	102.061020
2924.182021	5604.279167	1691.282227	21.104570
2924.182021	5604.279167	1690.260742	89.725746
2924.182021	5604.279167	1689.238281	27.294853
2924.182021	5604.279167	1688.214844	27.870220
2924.182021	5604.279167	1687.192383	12.003765
2924.182021	5604.279167	1686.168945	75.456902
2924.182021	5604.279167	1685.146484	190.190140
2924.182021	5604.279167	1684.123047	162.306366
2924.182021	5604.279167	1683.099609	-43.114952
2924.182021	5604.279167	1682.075195	159.951981
2924.182021	5604.279167	1681.051758	248.497726
2924.182021	5604.279167	1680.027344	143.213394
2924.182021	5604.279167	1679.002930	371.505035
2924.182021	5604.279167	1677.978516	385.014343
2924.182021	5604.279167	1676.953125	223.493378
2924.182021	5604.279167	1675.928711	106.264618
2924.182021	5604.279167	1674.903320	261.733276
2924.182021	5604.279167	1673.877930	319.158386
2924.182021	5604.279167	1672.852539	411.428833
2924.182021	5604.279167	1671.826172	417.350006
2924.182021	5604.279167	1670.800781	327.693481
2924.182021	5604.279167	1669.774414	314.826660
2924.182021	5604.279167	1668.748047	364.752167
2924.182021	5604.279167	1667.721680	377.327698
2924.182021	5604.279167	1666.694336	294.361267
2924.182021	5604.279167	1665.667969	344.019775
2924.182021	5604.279167	1664.640625	337.718781
2924.182021	5604.279167	1663.613281	475.575562
2924.182021	5604.279167	1662.585938	550.503601
2924.182021	5604.279167	1661.557617	662.514648
2924.182021	5604.279167	1660.530273	483.804688
2924.182021	5604.279167	1659.501953	574.719360
2924.182021	5604.279167	1658.473633	774.759094
2924.182021	5604.279167	1657.444336	579.612366
2924.182021	5604.279167	1656.416016	679.538086
2924.182021	5604.279167	1655.386719	507.576813
2924.182021	5604.279167	1654.358398	1034.647827
2924.182021	5604.279167	1653.328125	804.486145
2924.182021	5604.279167	1652.298828	915.617249
2924.182021	5604.279167	1651.269531	892.027405
2924.182021	5604.279167	1650.239258	993.673218
2924.182021	5604.279167	1649.208984	1213.543091
2924.182021	5604.279167	1648.178711	1270.896240
2924.182021	5604.279167	1647.148438	1374.554321
2924.182021	5604.279167	1646.117188	1413.173218
2924.182021	5604.279167	1645.086914	1456.380127
2924.182021	5604.279167	1644.055664	1392.877808
2924.182021	5604.279167	1643.024414	1586.575684
2924.182021	5604.279167	1641.992188	1502.098145
2924.182021	5604.279167	1640.960938	1635.373779
2924.182021	5604.279167	1639.928711	1555.457397
2924.182021	5604.279167	1638.896484	1748.762573
2924.182021	5604.279167	1637.864258	1601.626831
2924.182021	5604.279167	1636.832031	1866.515503
2924.182021	5604.279167	1635.798828	1888.247192
2924.182021	5604.279167	1634.766602	1937.716431
2924.182021	5604.279167	1633.733398	1926.961304
2924.182021	5604.279167	1632.699219	1976.287964
2924.182021	5604.279167	1631.666016	2104.202393
2924.182021	5604.279167	1630.632813	2201.978271
2924.182021	5604.279167	1629.598633	2241.874512
2924.182021	5604.279167	1628.564453	2346.434814
2924.182021	5604.279167	1627.530273	2180.581055
2924.182021	5604.279167	1626.495117	2345.099121
2924.182021	5604.279167	1625.460938	2479.520996
2924.182021	5604.279167	1624.425781	2685.432861
2924.182021	5604.279167	1623.390625	2625.725830
2924.182021	5604.279167	1622.355469	2649.121582
2924.182021	5604.279167	1621.319336	2591.689209
2924.182021	5604.279167	1620.284180	2829.639648
2924.182021	5604.279167	1619.248047	2610.666260
2924.182021	5604.279167	1618.211914	2673.166260
2924.182021	5604.279167	1617.174805	2781.729980
2924.182021	5604.279167	1616.138672	2887.953369
2924.182021	5604.279167	1615.101563	2947.998291
2924.182021	5604.279167	1614.065430	3109.443359
2924.182021	5604.279167	1613.027344	3157.862061
2924.182021	5604.279167	1611.990234	3102.601074
2924.182021	5604.279167	1610.953125	3093.426270
2924.182021	5604.279167	1609.915039	3201.684326
2924.182021	5604.279167	1608.876953	3282.266846
2924.182021	5604.279167	1607.838867	3229.296875
2924.182021	5604.279167	1606.800781	3351.274658
2924.182021	5604.279167	1605.761719	3362.728760
2924.182021	5604.279167	1604.723633	3532.956543
2924.182021	5604.279167	1603.684570	3565.084961
2924.182021	5604.279167	1602.644531	3866.270508
2924.182021	5604.279167	1601.605469	3560.325439
2924.182021	5604.279167	1600.566406	3631.539795
2924.182021	5604.279167	1599.526367	3875.106445
2924.182021	5604.279167	1598.486328	4295.543945
2924.182021	5604.279167	1597.446289	3918.560547
2924.182021	5604.279167	1596.405273	4311.270996
2924.182021	5604.279167	1595.365234	4292.755859
2924.182021	5604.279167	1594.324219	4384.469238
2924.182021	5604.279167	1593.283203	4391.222168
2924.182021	5604.279167	1592.242188	4260.274414
2924.182021	5604.279167	1591.200195	4248.717773
2924.182021	5604.279167	1590.159180	4294.576660
2924.182021	5604.279167	1589.117188	4147.727051
2924.182021	5604.279167	1588.075195	4308.304199
2924.182021	5604.279167	1587.032227	4140.911133
2924.182021	5604.279167	1585.990234	4118.078125
2924.182021	5604.279167	1584.947266	4136.526367
2924.182021	5604.279167	1583.904297	3996.872803
2924.182021	5604.279167	1582.861328	3942.091309
2924.182021	5604.279167	1581.818359	3891.951904
2924.182021	5604.279167	1580.775391	3651.766602
2924.182021	5604.279167	1579.731445	3636.117676
2924.182021	5604.279167	1578.687500	3705.231445
2924.182021	5604.279167	1577.643555	3552.322998
2924.182021	5604.279167	1576.598633	3372.037354
2924.182021	5604.279167	1575.554688	3562.579590
2924.182021	5604.279167	1574.509766	3455.670898
2924.182021	5604.279167	1573.464844	3454.072266
2924.182021	5604.279167	1572.419922	3525.706543
2924.182021	5604.279167	1571.374023	3343.558838
2924.182021	5604.279167	1570.329102	3239.280762
2924.182021	5604.279167	1569.283203	3098.514404
2924.182021	5604.279167	1568.237305	2989.854004
2924.182021	5604.279167	1567.191406	3045.789795
2924.182021	5604.279167	1566.144531	2887.036377
2924.182021	5604.279167	1565.098633	3255.966309
2924.182021	5604.279167	1564.051758	2907.853516
2924.182021	5604.279167	1563.004883	2868.125488
2924.182021	5604.279167	1561.957031	2613.920654
2924.182021	5604.279167	1560.910156	2750.114014
2924.182021	5604.279167	1559.862305	2963.876221
2924.182021	5604.279167	1558.814453	2744.234375
2924.182021	5604.279167	1557.766602	2814.386719
2924.182021	5604.279167	1556.718750	2394.362305
2924.182021	5604.279167	1555.669922	2697.218994
2924.182021	5604.279167	1554.621094	2439.347168
2924.182021	5604.279167	1553.573242	2443.735352
2924.182021	5604.279167	1552.523438	2129.200684
2924.182021	5604.279167	1551.474609	2129.241455
2924.182021	5604.279167	1550.424805	2122.516357
2924.182021	5604.279167	1549.375000	2008.862183
2924.182021	5604.279167	1548.325195	1981.851196
2924.182021	5604.279167	1547.275391	1893.484741
2924.182021	5604.279167	1546.225586	1928.130615
2924.182021	5604.279167	1545.174805	1803.572876
2924.182021	5604.279167	1544.124023	1886.161133
2924.182021	5604.279167	1543.073242	2191.693359
2924.182021	5604.279167	1542.022461	2206.149658
2924.182021	5604.279167	1540.970703	2038.808838
2924.182021	5604.279167	1539.919922	1889.834839
2924.182021	5604.279167	1538.868164	1859.173950
2924.182021	5604.279167	1537.815430	1942.213257
2924.182021	5604.279167	1536.763672	1979.908569
2924.182021	5604.279167	1535.710938	1917.746338
2924.182021	5604.279167	1534.659180	1862.544067
2924.182021	5604.279167	1533.606445	1759.780029
2924.182021	5604.279167	1532.552734	2004.430298
2924.182021	5604.279167	1531.500000	1568.300049
2924.182021	5604.279167	1530.446289	1558.995117
2924.182021	5604.279167	1529.393555	1411.446899
2924.182021	5604.279167	1528.338867	1236.822754
2924.182021	5604.279167	1527.285156	1407.069946
2924.182021	5604.279167	1526.231445	1225.963745
2924.182021	5604.279167	1525.176758	820.628906
2924.182021	5604.279167	1524.122070	744.177429
2924.182021	5604.279167	1523.067383	699.598755
2924.182021	5604.279167	1522.012695	607.588318
2924.182021	5604.279167	1520.957031	608.581177
2924.182021	5604.279167	1519.901367	430.808868
2924.182021	5604.279167	1518.845703	434.351532
2924.182021	5604.279167	1517.790039	327.105774
2924.182021	5604.279167	1516.734375	249.450638
2924.182021	5604.279167	1515.677734	149.314880
2924.182021	5604.279167	1514.621094	343.435181
2924.182021	5604.279167	1513.564453	73.950287
2924.182021	5604.279167	1512.507813	80.584862
2924.182021	5604.279167	1511.450195	134.814056
2924.182021	5604.279167	1510.393555	155.264969
2924.182021	5604.279167	1509.335938	218.769806
2924.182021	5604.279167	1508.278320	110.663017
2924.182021	5604.279167	1507.219727	287.365570
2924.182021	5604.279167	1506.162109	-28.227015
2924.182021	5604.279167	1505.103516	182.585663
2924.182021	5604.279167	1504.044922	215.096481
2924.182021	5604.279167	1502.986328	362.858124
2924.182021	5604.279167	1501.926758	314.346832
2924.182021	5604.279167	1500.868164	288.576813
2924.182021	5604.279167	1499.808594	488.542786
2924.182021	5604.279167	1498.749023	366.041748
2924.182021	5604.279167	1497.688477	200.878571
2924.182021	5604.279167	1496.628906	509.406158
2924.182021	5604.279167	1495.568359	398.676910
2924.182021	5604.279167	1494.507813	355.753815
2924.182021	5604.279167	1493.447266	236.388641
2924.182021	5604.279167	1492.386719	319.974792
2924.182021	5604.279167	1491.325195	239.247635
2924.182021	5604.279167	1490.263672	176.721680
2924.182021	5604.279167	1489.202148	258.468933
2924.182021	5604.279167	1488.140625	410.120087
2924.182021	5604.279167	1487.079102	201.778336
2924.182021	5604.279167	1486.016602	234.428802
2924.182021	5604.279167	1484.954102	276.221863
2924.182021	5604.279167	1483.891602	237.186584
2924.182021	5604.279167	1482.829102	72.397820
2924.182021	5604.279167	1481.765625	-53.951778
2924.182021	5604.279167	1480.702148	-9.246609
2924.182021	5604.279167	1479.638672	62.578407
2924.182021	5604.279167	1478.575195	85.107864
2924.182021	5604.279167	1477.511719	109.983002
2924.182021	5604.279167	1476.447266	-64.809868
2924.182021	5604.279167	1475.382813	-32.767319
2924.182021	5604.279167	1474.318359	42.037971
2924.182021	5604.279167	1473.253906	-66.988182
2924.182021	5604.279167	1472.189453	288.625458
2924.182021	5604.279167	1471.124023	-51.120419
2924.182021	5604.279167	1470.058594	-204.349182
2924.182021	5604.279167	1468.993164	3.254076
2924.182021	5604.279167	1467.927734	318.678131
2924.182021	5604.279167	1466.861328	358.652771
2924.182021	5604.279167	1465.794922	253.165253
2924.182021	5604.279167	1464.728516	46.845875
2924.182021	5604.279167	1463.662109	259.701874
2924.182021	5604.279167	1462.594727	338.378723
2924.182021	5604.279167	1461.528320	65.981361
2924.182021	5604.279167	1460.460938	162.513351
2924.182021	5604.279167	1459.393555	-62.149529
2924.182021	5604.279167	1458.326172	146.262619
2924.182021	5604.279167	1457.257813	-77.370636
2924.182021	5604.279167	1456.189453	-90.498215
2924.182021	5604.279167	1455.121094	30.898720
2924.182021	5604.279167	1454.052734	1.807760
2924.182021	5604.279167	1452.984375	79.574875
2924.182021	5604.279167	1451.915039	-88.123711
2924.182021	5604.279167	1450.845703	-159.323746
2924.182021	5604.279167	1449.776367	45.353870
2924.182021	5604.279167	1448.707031	-129.281067
2924.182021	5604.279167	1447.636719	-15.623984
2924.182021	5604.279167	1446.567383	92.084465
2924.182021	5604.279167	1445.497070	124.605133
2924.182021	5604.279167	1444.425781	201.201355
2924.182021	5604.279167	1443.355469	157.967377
2924.182021	5604.279167	1442.285156	69.385010
2924.182021	5604.279167	1441.213867	-27.789909
2924.182021	5604.279167	1440.142578	6.838656
2924.182021	5604.279167	1439.070313	8.527856
2924.182021	5604.279167	1437.999023	253.433670
2924.182021	5604.279167	1436.926758	98.551926
2924.182021	5604.279167	1435.854492	200.878494
2924.182021	5604.279167	1434.782227	229.952454
2924.182021	5604.279167	1433.709961	307.716187
2924.182021	5604.279167	1432.636719	128.472656
2924.182021	5604.279167	1431.563477	19.961180
2924.182021	5604.279167	1430.490234	258.534241
2924.182021	5604.279167	1429.416992	31.093155
2924.182021	5604.279167	1428.343750	164.855606
2924.182021	5604.279167	1427.269531	337.566772
2924.182021	5604.279167	1426.195313	234.583160
2924.182021	5604.279167	1425.121094	477.787476
2924.182021	5604.279167	1424.046875	430.793884
2924.182021	5604.279167	1422.971680	732.108826
2924.182021	5604.279167	1421.896484	837.546143
2924.182021	5604.279167	1420.821289	1110.618408
2924.182021	5604.279167	1419.746094	1067.937622
2924.182021	5604.279167	1418.669922	1060.460327
2924.182021	5604.279167	1417.594727	1042.468384
2924.182021	5604.279167	1416.518555	731.979614
2924.182021	5604.279167	1415.442383	871.054565
2924.182021	5604.279167	1414.365234	1154.911011
2924.182021	5604.279167	1413.289063	693.693115
2924.182021	5604.279167	1412.211914	659.138184
2924.182021	5604.279167	1411.134766	829.014465
2924.182021	5604.279167	1410.057617	749.304993
2924.182021	5604.279167	1408.979492	675.270142
2924.182021	5604.279167	1407.902344	808.293518
2924.182021	5604.279167	1406.824219	756.679626
2924.182021	5604.279167	1405.746094	638.268921
2924.182021	5604.279167	1404.666992	888.087036
2924.182021	5604.279167	1403.588867	339.871643
2924.182021	5604.279167	1402.509766	572.243958
2924.182021	5604.279167	1401.430664	431.696045
2924.182021	5604.279167	1400.351563	388.407104
2924.182021	5604.279167	1399.271484	578.765869
2924.182021	5604.279167	1398.192383	458.637238
2924.182021	5604.279167	1397.112305	385.189850
2924.182021	5604.279167	1396.031250	541.132690
2924.182021	5604.279167	1394.951172	611.268066
2924.182021	5604.279167	1393.871094	419.929260
2924.182021	5604.279167	1392.790039	246.750076
2924.182021	5604.279167	1391.708984	459.638947
2924.182021	5604.279167	1390.626953	163.267975
2924.182021	5604.279167	1389.545898	410.566742
2924.182021	5604.279167	1388.463867	374.894836
2924.182021	5604.279167	1387.381836	287.506683
2924.182021	5604.279167	1386.299805	427.840149
2924.182021	5604.279167	1385.217773	670.827209
2924.182021	5604.279167	1384.134766	712.607605
2924.182021	5604.279167	1383.051758	694.130493
2924.182021	5604.279167	1381.968750	376.745697
2924.182021	5604.279167	1380.885742	613.569702
2924.182021	5604.279167	1379.802734	459.970062
2924.182021	5604.279167	1378.718750	716.631104
2924.182021	5604.279167	1377.634766	868.495300
2924.182021	5604.279167	1376.550781	1001.878174
2924.182021	5604.279167	1375.465820	934.307495
2924.182021	5604.279167	1374.381836	717.893799
2924.182021	5604.279167	1373.296875	936.268372
2924.182021	5604.279167	1372.211914	524.325928
2924.182021	5604.279167	1371.126953	731.387939
2924.182021	5604.279167	1370.041016	828.230774
2924.182021	5604.279167	1368.955078	742.055176
2924.182021	5604.279167	1367.869141	704.127930
2924.182021	5604.279167	1366.783203	738.681580
2924.182021	5604.279167	1365.697266	660.258301
2924.182021	5604.279167	1364.610352	631.591064
2924.182021	5604.279167	1363.523438	751.754944
2924.182021	5604.279167	1362.436523	694.355530
2924.182021	5604.279167	1361.349609	674.463196
2924.182021	5604.279167	1360.261719	503.144501
2924.182021	5604.279167	1359.174805	485.512695
2924.182021	5604.279167	1358.086914	499.640442
2924.182021	5604.279167	1356.998047	505.232330
2924.182021	5604.279167	1355.910156	522.027649
2924.182021	5604.279167	1354.821289	288.600861
2924.182021	5604.279167	1353.732422	280.885010
2924.182021	5604.279167	1352.643555	350.121338
2924.182021	5604.279167	1351.554688	399.371307
2924.182021	5604.279167	1350.464844	259.276855
2924.182021	5604.279167	1349.375000	299.854462
2924.182021	5604.279167	1348.285156	508.440948
2924.182021	5604.279167	1347.195313	388.623230
2924.182021	5604.279167	1346.105469	590.246887
2924.182021	5604.279167	1345.014648	632.670227
2924.182021	5604.279167	1343.923828	397.756805
2924.182021	5604.279167	1342.833008	619.231995
2924.182021	5604.279167	1341.741211	690.221069
2924.182021	5604.279167	1340.650391	744.929382
2924.182021	5604.279167	1339.558594	668.510010
2924.182021	5604.279167	1338.466797	649.663574
2924.182021	5604.279167	1337.374023	915.573486
2924.182021	5604.279167	1336.282227	751.067993
2924.182021	5604.279167	1335.189453	782.999390
2924.182021	5604.279167	1334.096680	548.568848
2924.182021	5604.279167	1333.003906	586.525085
2924.182021	5604.279167	1331.910156	771.766907
2924.182021	5604.279167	1330.817383	656.877258
2924.182021	5604.279167	1329.723633	658.151917
2924.182021	5604.279167	1328.629883	491.008179
2924.182021	5604.279167	1327.535156	501.638123
2924.182021	5604.279167	1326.441406	776.900146
2924.182021	5604.279167	1325.346680	606.425903
2924.182021	5604.279167	1324.251953	709.082336
2924.182021	5604.279167	1323.156250	645.809021
2924.182021	5604.279167	1322.061523	475.673431
2924.182021	5604.279167	1320.965820	662.455444
2924.182021	5604.279167	1319.870117	458.223816
2924.182021	5604.279167	1318.774414	397.595367
2924.182021	5604.279167	1317.678711	209.513199
2924.182021	5604.279167	1316.582031	408.756378
2924.182021	5604.279167	1315.485352	380.322784
2924.182021	5604.279167	1314.388672	371.522705
2924.182021	5604.279167	1313.291016	557.638367
2924.182021	5604.279167	1312.194336	480.989166
2924.182021	5604.279167	1311.096680	411.954498
2924.182021	5604.279167	1309.999023	522.556091
2924.182021	5604.279167	1308.901367	316.366974
2924.182021	5604.279167	1307.802734	476.296692
2924.182021	5604.279167	1306.705078	393.024078
2924.182021	5604.279167	1305.606445	255.971405
2924.182021	5604.279167	1304.506836	385.753784
2924.182021	5604.279167	1303.408203	278.168610
2924.182021	5604.279167	1302.308594	256.229492
2924.182021	5604.279167	1301.208984	265.897827
2924.182021	5604.279167	1300.109375	82.731903
2924.182021	5604.279167	1299.009766	265.118988
2924.182021	5604.279167	1297.909180	244.666748
2924.182021	5604.279167	1296.808594	117.477867
2924.182021	5604.279167	1295.708008	125.675972
2924.182021	5604.279167	1294.607422	226.738205
2924.182021	5604.279167	1293.506836	172.163208
2924.182021	5604.279167	1292.405273	95.620499
2924.182021	5604.279167	1291.303711	31.943798
2924.182021	5604.279167	1290.202148	-96.980583
2924.182021	5604.279167	1289.099609	114.121597
2924.182021	5604.279167	1287.998047	-4.408681
2924.182021	5604.279167	1286.895508	-83.691414
2924.182021	5604.279167	1285.792969	-149.506561
2924.182021	5604.279167	1284.689453	167.971176
2924.182021	5604.279167	1283.586914	169.644699
2924.182021	5604.279167	1282.483398	1.205105
2924.182021	5604.279167	1281.379883	-177.722580
2924.182021	5604.279167	1280.276367	79.052635
2924.182021	5604.279167	1279.171875	94.581894
2924.182021	5604.279167	1278.067383	129.151184
2924.182021	5604.279167	1276.962891	159.219055
2924.182021	5604.279167	1275.858398	62.278214
2924.182021	5604.279167	1274.753906	331.551880
2924.182021	5604.279167	1273.648438	294.211578
2924.182021	5604.279167	1272.542969	157.888702
2924.182021	5604.279167	1271.437500	197.719528
2924.182021	5604.279167	1270.331055	370.573029
2924.182021	5604.279167	1269.225586	258.533203
2924.182021	5604.279167	1268.119141	133.320923
2924.182021	5604.279167	1267.012695	163.670822
2924.182021	5604.279167	1265.906250	64.887115
2924.182021	5604.279167	1264.798828	153.844879
2924.182021	5604.279167	1263.691406	26.552038
2924.182021	5604.279167	1262.583984	-23.012371
2924.182021	5604.279167	1261.476563	136.423660
2924.182021	5604.279167	1260.368164	46.497093
2924.182021	5604.279167	1259.260742	59.540146
2924.182021	5604.279167	1258.152344	-20.738235
2924.182021	5604.279167	1257.043945	15.842474
2924.182021	5604.279167	1255.934570	70.945732
2924.182021	5604.279167	1254.825195	78.803741
2924.182021	5604.279167	1253.716797	-96.958839
2924.182021	5604.279167	1252.606445	-78.674782
2924.182021	5604.279167	1251.497070	-92.455559
2924.182021	5604.279167	1250.387695	-64.239189
2924.182021	5604.279167	1249.277344	-31.794670
2924.182021	5604.279167	1248.166992	113.053398
2924.182021	5604.279167	1247.055664	47.122028
2924.182021	5604.279167	1245.945313	113.944862
2924.182021	5604.279167	1244.833984	84.757950
2924.182021	5604.279167	1243.722656	96.077408
2924.182021	5604.279167	1242.611328	47.582493
2924.182021	5604.279167	1241.499023	219.546402
2924.182021	5604.279167	1240.387695	144.465454
2924.182021	5604.279167	1239.275391	28.191160
2924.182021	5604.279167	1238.162109	2.782725
2924.182021	5604.279167	1237.049805	43.002995
2924.182021	5604.279167	1235.936523	116.015091
2924.182021	5604.279167	1234.823242	-32.808556
2924.182021	5604.279167	1233.709961	-90.216393
2924.182021	5604.279167	1232.596680	-57.452953
2924.182021	5604.279167	1231.482422	-80.862099
2924.182021	5604.279167	1230.369141	50.811092
2924.182021	5604.279167	1229.253906	31.423532
2924.182021	5604.279167	1228.139648	112.476929
2924.182021	5604.279167	1227.025391	-43.784668
2924.182021	5604.279167	1225.910156	113.284172
2924.182021	5604.279167	1224.794922	-66.746895
2924.182021	5604.279167	1223.679688	25.046579
2924.182021	5604.279167	1222.563477	13.264137
2924.182021	5604.279167	1221.447266	-110.144669
2924.182021	5604.279167	1220.331055	-189.699722
2924.182021	5604.279167	1219.214844	-139.071274
2924.182021	5604.279167	1218.098633	-53.162994
2924.182021	5604.279167	1216.981445	-108.989586
2924.182021	5604.279167	1215.864258	-123.384666
2924.182021	5604.279167	1214.747070	-122.565338
2924.182021	5604.279167	1213.629883	-157.157898
2924.182021	5604.279167	1212.511719	-182.903641
2924.182021	5604.279167	1211.393555	-147.842178
2924.182021	5604.279167	1210.275391	-104.858566
2924.182021	5604.279167	1209.157227	-3.374964
2924.182021	5604.279167	1208.038086	9.637796
2924.182021	5604.279167	1206.918945	195.246643
2924.182021	5604.279167	1205.799805	159.893661
2924.182021	5604.279167	1204.680664	182.589371
2924.182021	5604.279167	1203.560547	190.902908
2924.182021	5604.279167	1202.441406	47.880741
2924.182021	5604.279167	1201.321289	-43.583702
2924.182021	5604.279167	1200.200195	26.396004
2924.182021	5604.279167	1199.080078	-2.867905
2924.182021	5604.279167	1197.958984	-40.247734
2924.182021	5604.279167	1196.837891	175.803177
2924.182021	5604.279167	1195.716797	22.981897
2924.182021	5604.279167	1194.594727	158.913086
2924.182021	5604.279167	1193.473633	127.741333
2924.182021	5604.279167	1192.351563	87.958351
2924.182021	5604.279167	1191.229492	103.145142
2924.182021	5604.279167	1190.106445	75.017120
2924.182021	5604.279167	1188.984375	163.842178
2924.182021	5604.279167	1187.861328	163.160660
2924.182021	5604.279167	1186.738281	229.360352
2924.182021	5604.279167	1185.614258	158.117477
2924.182021	5604.279167	1184.491211	360.099701
2924.182021	5604.279167	1183.367188	409.893951
2924.182021	5604.279167	1182.243164	470.496582
2924.182021	5604.279167	1181.119141	464.090179
2924.182021	5604.279167	1179.994141	305.672058
2924.182021	5604.279167	1178.869141	450.450684
2924.182021	5604.279167	1177.744141	222.092987
2924.182021	5604.279167	1176.619141	135.991486
2924.182021	5604.279167	1175.493164	199.269348
2924.182021	5604.279167	1174.368164	138.137070
2924.182021	5604.279167	1173.242188	180.687729
2924.182021	5604.279167	1172.115234	190.316650
2924.182021	5604.279167	1170.989258	172.204376
2924.182021	5604.279167	1169.862305	390.627289
2924.182021	5604.279167	1168.735352	138.209396
2924.182021	5604.279167	1167.608398	272.174347
2924.182021	5604.279167	1166.481445	96.971382
2924.182021	5604.279167	1165.353516	105.377625
2924.182021	5604.279167	1164.225586	61.008522
2924.182021	5604.279167	1163.097656	146.930542
2924.182021	5604.279167	1161.968750	-57.369381
2924.182021	5604.279167	1160.840820	171.814728
2924.182021	5604.279167	1159.711914	221.082626
2924.182021	5604.279167	1158.583008	188.860641
2924.182021	5604.279167	1157.453125	83.353279
2924.182021	5604.279167	1156.324219	100.604912
2924.182021	5604.279167	1155.194336	35.776398
2924.182021	5604.279167	1154.064453	59.138081
2924.182021	5604.279167	1152.933594	-37.770756
2924.182021	5604.279167	1151.803711	-2.021435
2924.182021	5604.279167	1150.672852	-64.000412
2924.182021	5604.279167	1149.541992	-16.543516
2924.182021	5604.279167	1148.411133	50.764503
2924.182021	5604.279167	1147.279297	195.677505
2924.182021	5604.279167	1146.147461	128.280807
2924.182021	5604.279167	1145.015625	-20.203676
2924.182021	5604.279167	1143.883789	-156.908524
2924.182021	5604.279167	1142.750977	-11.212895
2924.182021	5604.279167	1141.619141	137.575851
2924.182021	5604.279167	1140.486328	-125.607552
2924.182021	5604.279167	1139.352539	-226.781586
2924.182021	5604.279167	1138.219727	-59.718964
2924.182021	5604.279167	1137.085938	-36.402351
2924.182021	5604.279167	1135.952148	44.347042
2924.182021	5604.279167	1134.818359	74.104759
2924.182021	5604.279167	1133.683594	28.617132
2924.182021	5604.279167	1132.549805	100.907127
2924.182021	5604.279167	1131.415039	116.723862
2924.182021	5604.279167	1130.279297	278.728638
2924.182021	5604.279167	1129.144531	423.022034
2924.182021	5604.279167	1128.008789	433.225800
2924.182021	5604.279167	1126.873047	278.260620
2924.182021	5604.279167	1125.737305	210.715775
2924.182021	5604.279167	1124.601563	241.822220
2924.182021	5604.279167	1123.464844	341.088379
2924.182021	5604.279167	1122.328125	164.429459
2924.182021	5604.279167	1121.191406	284.559784
2924.182021	5604.279167	1120.054688	299.126312
2924.182021	5604.279167	1118.916992	238.066986
2924.182021	5604.279167	1117.779297	274.137146
2924.182021	5604.279167	1116.641602	229.483810
2924.182021	5604.279167	1115.503906	74.811615
2924.182021	5604.279167	1114.365234	98.939056
2924.182021	5604.279167	1113.226563	280.381622
2924.182021	5604.279167	1112.087891	326.761963
2924.182021	5604.279167	1110.949219	284.102173
2924.182021	5604.279167	1109.809570	198.621811
2924.182021	5604.279167	1108.669922	468.576019
2924.182021	5604.279167	1107.530273	397.652893
2924.182021	5604.279167	1106.390625	388.278870
2924.182021	5604.279167	1105.250000	401.601013
2924.182021	5604.279167	1104.109375	378.813263
2924.182021	5604.279167	1102.968750	686.703430
2924.182021	5604.279167	1101.828125	537.487000
2924.182021	5604.279167	1100.686523	688.922119
2924.182021	5604.279167	1099.544922	620.307617
2924.182021	5604.279167	1098.403320	830.278992
2924.182021	5604.279167	1097.261719	713.902405
2924.182021	5604.279167	1096.120117	542.200073
2924.182021	5604.279167	1094.977539	597.101624
2924.182021	5604.279167	1093.834961	611.203247
2924.182021	5604.279167	1092.691406	403.559357
2924.182021	5604.279167	1091.548828	412.679657
2924.182021	5604.279167	1090.405273	528.168213
2924.182021	5604.279167	1089.261719	431.335480
2924.182021	5604.279167	1088.118164	451.099335
2924.182021	5604.279167	1086.973633	396.023621
2924.182021	5604.279167	1085.829102	546.385803
2924.182021	5604.279167	1084.684570	468.044342
2924.182021	5604.279167	1083.540039	274.729462
2924.182021	5604.279167	1082.395508	322.959747
2924.182021	5604.279167	1081.250000	421.015411
2924.182021	5604.279167	1080.104492	431.686249
2924.182021	5604.279167	1078.958984	512.359863
2924.182021	5604.279167	1077.812500	356.716797
2924.182021	5604.279167	1076.666016	543.530396
2924.182021	5604.279167	1075.519531	469.424713
2924.182021	5604.279167	1074.373047	547.809021
2924.182021	5604.279167	1073.226563	694.269165
2924.182021	5604.279167	1072.079102	578.325073
2924.182021	5604.279167	1070.931641	647.504639
2924.182021	5604.279167	1069.784180	735.351868
2924.182021	5604.279167	1068.635742	659.851257
2924.182021	5604.279167	1067.487305	729.294678
2924.182021	5604.279167	1066.338867	465.131348
2924.182021	5604.279167	1065.190430	608.920044
2924.182021	5604.279167	1064.041992	621.531006
2924.182021	5604.279167	1062.892578	540.874146
2924.182021	5604.279167	1061.743164	491.549347
2924.182021	5604.279167	1060.593750	602.103699
2924.182021	5604.279167	1059.443359	545.811096
2924.182021	5604.279167	1058.292969	596.611694
2924.182021	5604.279167	1057.142578	480.633545
2924.182021	5604.279167	1055.992188	352.292908
2924.182021	5604.279167	1054.841797	574.013794
2924.182021	5604.279167	1053.690430	689.962341
2924.182021	5604.279167	1052.539063	549.588867
2924.182021	5604.279167	1051.387695	400.859497
2924.182021	5604.279167	1050.235352	490.461609
2924.182021	5604.279167	1049.083984	385.599182
2924.182021	5604.279167	1047.931641	478.809814
2924.182021	5604.279167	1046.778320	552.602356
2924.182021	5604.279167	1045.625977	470.980072
2924.182021	5604.279167	1044.472656	492.892242
2924.182021	5604.279167	1043.319336	404.118103
2924.182021	5604.279167	1042.166016	678.960693
2924.182021	5604.279167	1041.012695	560.937927
2924.182021	5604.279167	1039.858398	274.020782
2924.182021	5604.279167	1038.704102	310.675323
2924.182021	5604.279167	1037.549805	283.241760
2924.182021	5604.279167	1036.394531	343.787537
2924.182021	5604.279167	1035.239258	219.875671
2924.182021	5604.279167	1034.083984	407.422638
2924.182021	5604.279167	1032.928711	356.577209
2924.182021	5604.279167	1031.773438	182.980469
2924.182021	5604.279167	1030.617188	294.875244
2924.182021	5604.279167	1029.460938	213.479340
2924.182021	5604.279167	1028.304688	355.421143
2924.182021	5604.279167	1027.147461	229.220596
2924.182021	5604.279167	1025.991211	437.526581
2924.182021	5604.279167	1024.833984	365.138245
2924.182021	5604.279167	1023.675781	380.869324
2924.182021	5604.279167	1022.518555	306.611328
2924.182021	5604.279167	1021.360352	217.189423
2924.182021	5604.279167	1020.202148	566.900208
2924.182021	5604.279167	1019.043945	418.804779
2924.182021	5604.279167	1017.884766	169.485977
2924.182021	5604.279167	1016.726563	162.540298
2924.182021	5604.279167	1015.567383	156.306747
2924.182021	5604.279167	1014.407227	396.735840
2924.182021	5604.279167	1013.248047	216.938187
2924.182021	5604.279167	1012.087891	331.294373
2924.182021	5604.279167	1010.927734	101.404472
2924.182021	5604.279167	1009.767578	172.768051
2924.182021	5604.279167	1008.606445	306.558319
2924.182021	5604.279167	1007.446289	403.688385
2924.182021	5604.279167	1006.285156	417.634857
2924.182021	5604.279167	1005.123047	447.714508
2924.182021	5604.279167	1003.961914	346.078217
2924.182021	5604.279167	1002.799805	259.910187
2924.182021	5604.279167	1001.637695	527.825745
2924.182021	5604.279167	1000.475586	430.364594
2924.182021	5604.279167	999.312500	387.058777
2924.182021	5604.279167	998.149414	478.211365
2924.182021	5604.279167	996.986328	667.544678
2924.182021	5604.279167	995.823242	479.234222
2924.182021	5604.279167	994.659180	378.879150
2924.182021	5604.279167	993.496094	369.685333
2924.182021	5604.279167	992.332031	267.255707
2924.182021	5604.279167	991.166992	384.228485
2924.182021	5604.279167	990.002930	479.716156
2924.182021	5604.279167	988.837891	338.462952
2924.182021	5604.279167	987.672852	400.806702
2924.182021	5604.279167	986.506836	425.723236
2924.182021	5604.279167	985.341797	560.820618
2924.182021	5604.279167	984.175781	547.723511
2924.182021	5604.279167	983.009766	554.796326
2924.182021	5604.279167	981.843750	495.948120
2924.182021	5604.279167	980.676758	601.778259
2924.182021	5604.279167	979.509766	521.264832
2924.182021	5604.279167	978.342773	484.427124
2924.182021	5604.279167	977.175781	455.179871
2924.182021	5604.279167	976.007813	378.554993
2924.182021	5604.279167	974.839844	368.687958
2924.182021	5604.279167	973.671875	568.034607
2924.182021	5604.279167	972.503906	648.586914
2924.182021	5604.279167	971.334961	478.253448
2924.182021	5604.279167	970.166016	320.679749
2924.182021	5604.279167	968.997070	373.366547
2924.182021	5604.279167	967.828125	277.182800
2924.182021	5604.279167	966.658203	225.751740
2924.182021	5604.279167	965.488281	231.128281
2924.182021	5604.279167	964.318359	278.054413
2924.182021	5604.279167	963.148438	396.894165
2924.182021	5604.279167	961.977539	525.531372
2924.182021	5604.279167	960.806641	416.346344
2924.182021	5604.279167	959.635742	525.238281
2924.182021	5604.279167	958.463867	367.087891
2924.182021	5604.279167	957.292969	574.484680
2924.182021	5604.279167	956.121094	602.609131
2924.182021	5604.279167	954.948242	499.179779
2924.182021	5604.279167	953.776367	538.568481
2924.182021	5604.279167	952.603516	437.423309
2924.182021	5604.279167	951.430664	820.938477
2924.182021	5604.279167	950.257813	736.249512
2924.182021	5604.279167	949.084961	481.992981
2924.182021	5604.279167	947.911133	742.171265
2924.182021	5604.279167	946.737305	531.893799
2924.182021	5604.279167	945.563477	542.974792
2924.182021	5604.279167	944.388672	714.665588
2924.182021	5604.279167	943.213867	498.684143
2924.182021	5604.279167	942.039063	599.637634
2924.182021	5604.279167	940.864258	689.339355
2924.182021	5604.279167	939.688477	656.108887
2924.182021	5604.279167	938.513672	718.644348
2924.182021	5604.279167	937.337891	420.801758
2924.182021	5604.279167	936.161133	466.593536
2924.182021	5604.279167	934.985352	477.024719
2924.182021	5604.279167	933.808594	236.424728
2924.182021	5604.279167	932.631836	448.597748
2924.182021	5604.279167	931.454102	295.283020
2924.182021	5604.279167	930.277344	469.235809
2924.182021	5604.279167	929.099609	569.510864
2924.182021	5604.279167	927.921875	500.647888
2924.182021	5604.279167	926.743164	259.977692
2924.182021	5604.279167	925.565430	381.933594
2924.182021	5604.279167	924.386719	73.135498
2924.182021	5604.279167	923.208008	233.130020
2924.182021	5604.279167	922.028320	327.637573
2924.182021	5604.279167	920.849609	116.994919
2924.182021	5604.279167	919.669922	118.044449
2924.182021	5604.279167	919.474609	56.374149
2924.182021	5604.279167	918.309570	191.610764
2924.182021	5604.279167	917.143555	163.420685
2924.182021	5604.279167	915.977539	86.220764
2924.182021	5604.279167	914.810547	207.675522
2924.182021	5604.279167	913.644531	43.377880
2924.182021	5604.279167	912.477539	-33.835037
2924.182021	5604.279167	911.310547	-168.155685
2924.182021	5604.279167	910.143555	159.789673
2924.182021	5604.279167	908.975586	14.558988
2924.182021	5604.279167	907.807617	-5.612407
2924.182021	5604.279167	906.639648	-52.973846
2924.182021	5604.279167	905.471680	35.501698
2924.182021	5604.279167	904.303711	53.295349
2924.182021	5604.279167	903.134766	190.550888
2924.182021	5604.279167	901.965820	-103.983597
2924.182021	5604.279167	900.796875	-145.959793
2924.182021	5604.279167	899.626953	143.177124
2924.182021	5604.279167	898.457031	27.862816
2924.182021	5604.279167	897.287109	154.028564
2924.182021	5604.279167	896.117188	187.903488
2924.182021	5604.279167	894.947266	18.356363
2924.182021	5604.279167	893.776367	217.598190
2924.182021	5604.279167	892.605469	37.237499
2924.182021	5604.279167	891.434570	184.866684
2924.182021	5604.279167	890.262695	80.424217
2924.182021	5604.279167	889.091797	219.825897
2924.182021	5604.279167	887.919922	58.509586
2924.182021	5604.279167	886.748047	8.271358
2924.182021	5604.279167	885.575195	14.896288
2924.182021	5604.279167	884.403320	-54.286659
2924.182021	5604.279167	883.230469	-20.614168
2924.182021	5604.279167	882.057617	226.787979
2924.182021	5604.279167	880.883789	208.966522
2924.182021	5604.279167	879.710938	164.094208
2924.182021	5604.279167	878.537109	-72.760460
2924.182021	5604.279167	877.362305	387.987946
2924.182021	5604.279167	876.188477	283.610840
2924.182021	5604.279167	875.013672	325.199127
2924.182021	5604.279167	873.839844	228.965637
2924.182021	5604.279167	872.664063	243.519028
2924.182021	5604.279167	871.489258	136.523056
2924.182021	5604.279167	870.313477	415.696442
2924.182021	5604.279167	869.138672	192.608521
2924.182021	5604.279167	867.962891	-38.491783
2924.182021	5604.279167	866.786133	57.023888
2924.182021	5604.279167	865.610352	-20.178484
2924.182021	5604.279167	864.433594	104.956650
2924.182021	5604.279167	863.256836	116.764435
2924.182021	5604.279167	862.079102	-135.679337
2924.182021	5604.279167	860.902344	62.176098
2924.182021	5604.279167	859.724609	111.707497
2924.182021	5604.279167	858.546875	-48.971695
2924.182021	5604.279167	857.368164	-12.914625
2924.182021	5604.279167	856.190430	179.354233
2924.182021	5604.279167	855.011719	-169.760071
2924.182021	5604.279167	853.833008	-36.776943
2924.182021	5604.279167	852.654297	-59.982197
2924.182021	5604.279167	851.474609	48.698902
2924.182021	5604.279167	850.294922	71.228371
2924.182021	5604.279167	849.115234	85.675842
2924.182021	5604.279167	847.935547	67.841408
2924.182021	5604.279167	846.754883	146.824158
2924.182021	5604.279167	845.575195	-0.069371
2924.182021	5604.279167	844.393555	103.088409
2924.182021	5604.279167	843.212891	109.453407
2924.182021	5604.279167	842.032227	196.426437
2924.182021	5604.279167	840.850586	57.706181
2924.182021	5604.279167	839.668945	-51.411453
2924.182021	5604.279167	838.486328	99.992897
2924.182021	5604.279167	837.304688	-11.770445
2924.182021	5604.279167	836.122070	59.041317
2924.182021	5604.279167	834.939453	94.937912
2924.182021	5604.279167	833.756836	18.132391
2924.182021	5604.279167	832.573242	-74.734238
2924.182021	5604.279167	831.389648	-57.598572
2924.182021	5604.279167	830.206055	-110.184113
2924.182021	5604.279167	829.022461	0.789545
2924.182021	5604.279167	827.838867	-49.100342
2924.182021	5604.279167	826.654297	-23.932539
2924.182021	5604.279167	825.469727	-63.073387
2924.182021	5604.279167	824.284180	53.168839
2924.182021	5604.279167	823.099609	51.529091
2924.182021	5604.279167	821.914063	-35.788967
2924.182021	5604.279167	820.728516	-15.986690
2924.182021	5604.279167	819.542969	-55.070873
2924.182021	5604.279167	818.356445	61.067173
2924.182021	5604.279167	817.169922	-122.479034
2924.182021	5604.279167	815.983398	-65.213394
2924.182021	5604.279167	814.796875	-155.051910
2924.182021	5604.279167	813.609375	14.500785
2924.182021	5604.279167	812.422852	-110.060745
2924.182021	5604.279167	811.235352	-95.591454
2924.182021	5604.279167	810.046875	-22.339415
2924.182021	5604.279167	808.859375	-170.849182
2924.182021	5604.279167	807.670898	3.891451
2924.182021	5604.279167	806.482422	-35.068043
2924.182021	5604.279167	805.293945	-106.047089
2924.182021	5604.279167	804.104492	-80.898987
2924.182021	5604.279167	802.915039	157.742065
2924.182021	5604.279167	801.725586	-230.738281
2924.182021	5604.279167	800.536133	23.846369
2924.182021	5604.279167	799.345703	-9.715724
2924.182021	5604.279167	798.155273	-85.926956
2924.182021	5604.279167	796.964844	133.819946
2924.182021	5604.279167	795.774414	398.791443
2924.182021	5604.279167	794.583008	183.975937
2924.182021	5604.279167	793.392578	374.230042
2924.182021	5604.279167	792.200195	162.176620
2924.182021	5604.279167	791.008789	219.198288
2924.182021	5604.279167	789.816406	-27.346117
2924.182021	5604.279167	788.625000	93.584541
2924.182021	5604.279167	787.432617	-128.875534
2924.182021	5604.279167	786.239258	87.825211
2924.182021	5604.279167	785.046875	22.427059
2924.182021	5604.279167	783.853516	82.072029
2924.182021	5604.279167	782.660156	-73.715073
2924.182021	5604.279167	781.465820	-80.544533
2924.182021	5604.279167	780.272461	-143.196609
2924.182021	5604.279167	779.078125	44.002930
2924.182021	5604.279167	777.883789	-34.593040
2924.182021	5604.279167	776.688477	83.431526
2924.182021	5604.279167	775.494141	-90.761261
2924.182021	5604.279167	774.298828	205.140472
2924.182021	5604.279167	773.103516	269.936829
2924.182021	5604.279167	771.907227	199.329010
2924.182021	5604.279167	770.711914	128.747635
2924.182021	5604.279167	769.515625	135.137329
2924.182021	5604.279167	768.318359	27.452831
2924.182021	5604.279167	767.122070	304.376709
2924.182021	5604.279167	765.924805	95.931717
2924.182021	5604.279167	764.727539	104.956978
2924.182021	5604.279167	763.530273	180.236282
2924.182021	5604.279167	762.333008	133.579803
2924.182021	5604.279167	761.134766	-103.822136
2924.182021	5604.279167	759.936523	-84.190956
2924.182021	5604.279167	758.738281	118.160431
2924.182021	5604.279167	757.540039	-13.200016
2924.182021	5604.279167	756.340820	30.203125
2924.182021	5604.279167	755.141602	-77.280266
2924.182021	5604.279167	753.942383	-100.051010
2924.182021	5604.279167	752.742188	91.469795
2924.182021	5604.279167	751.541992	50.139851
2924.182021	5604.279167	750.341797	59.061237
2924.182021	5604.279167	749.141602	67.968857
2924.182021	5604.279167	747.941406	150.875931
2924.182021	5604.279167	746.740234	117.454063
2924.182021	5604.279167	745.539063	232.000427
2924.182021	5604.279167	744.337891	13.630759
2924.182021	5604.279167	743.135742	99.073273
2924.182021	5604.279167	741.933594	165.982574
2924.182021	5604.279167	740.731445	246.049576
2924.182021	5604.279167	739.529297	349.825562
2924.182021	5604.279167	738.326172	7.559179
2924.182021	5604.279167	737.124023	-144.614578
2924.182021	5604.279167	735.919922	32.991657
2924.182021	5604.279167	734.716797	170.947327
2924.182021	5604.279167	733.513672	374.748169
2924.182021	5604.279167	732.309570	372.821472
2924.182021	5604.279167	731.105469	336.614868
2924.182021	5604.279167	729.900391	279.324188
2924.182021	5604.279167	728.696289	459.148071
2924.182021	5604.279167	727.491211	183.195465
2924.182021	5604.279167	726.286133	160.149368
2924.182021	5604.279167	725.080078	208.180176
2924.182021	5604.279167	723.874023	40.317635
2924.182021	5604.279167	722.668945	204.110138
2924.182021	5604.279167	721.461914	-118.968399
2924.182021	5604.279167	720.255859	10.545563
2924.182021	5604.279167	719.048828	266.228516
2924.182021	5604.279167	717.841797	19.528223
2924.182021	5604.279167	716.634766	117.312386
2924.182021	5604.279167	715.427734	15.265062
2924.182021	5604.279167	714.219727	446.706848
2924.182021	5604.279167	713.011719	-36.388958
2924.182021	5604.279167	711.803711	45.461502
2924.182021	5604.279167	710.594727	16.946947
2924.182021	5604.279167	709.385742	54.059280
2924.182021	5604.279167	708.176758	269.642731
2924.182021	5604.279167	706.967773	275.135315
2924.182021	5604.279167	705.758789	327.830475
2924.182021	5604.279167	704.548828	-28.798027
2924.182021	5604.279167	703.338867	99.946938
2924.182021	5604.279167	702.127930	-2.167927
2924.182021	5604.279167	700.917969	-43.967503
2924.182021	5604.279167	699.707031	362.467804
2924.182021	5604.279167	698.496094	192.127243
2924.182021	5604.279167	697.285156	152.838440
2924.182021	5604.279167	696.073242	-9.591928
2924.182021	5604.279167	694.861328	34.924061
2924.182021	5604.279167	693.649414	89.861565
2924.182021	5604.279167	692.436523	105.471504
2924.182021	5604.279167	691.224609	196.947037
2924.182021	5604.279167	690.011719	34.507221
2924.182021	5604.279167	688.798828	209.613190
2924.182021	5604.279167	687.584961	159.646637
2924.182021	5604.279167	686.372070	253.507050
2924.182021	5604.279167	685.158203	151.185730
2924.182021	5604.279167	683.943359	328.586517
2924.182021	5604.279167	682.729492	278.490906
2924.182021	5604.279167	681.514648	518.429138
2924.182021	5604.279167	680.299805	504.812866
2924.182021	5604.279167	679.084961	483.328186
2924.182021	5604.279167	677.869141	386.080322
2924.182021	5604.279167	676.653320	701.354065
2924.182021	5604.279167	675.437500	528.323853
2924.182021	5604.279167	674.221680	498.863434
2924.182021	5604.279167	673.004883	625.928528
2924.182021	5604.279167	671.789063	844.205566
2924.182021	5604.279167	670.571289	519.854980
2924.182021	5604.279167	669.354492	667.573242
2924.182021	5604.279167	668.136719	481.487701
2924.182021	5604.279167	666.919922	548.268494
2924.182021	5604.279167	665.701172	375.231018
2924.182021	5604.279167	664.483398	358.548737
2924.182021	5604.279167	663.264648	399.136871
2924.182021	5604.279167	662.045898	546.439880
2924.182021	5604.279167	660.827148	506.170532
2924.182021	5604.279167	659.608398	408.604065
2924.182021	5604.279167	658.388672	420.346313
2924.182021	5604.279167	657.168945	666.227661
2924.182021	5604.279167	655.949219	394.255890
2924.182021	5604.279167	654.728516	330.434204
2924.182021	5604.279167	653.507813	336.807007
2924.182021	5604.279167	652.287109	153.342056
2924.182021	5604.279167	651.066406	86.881119
2924.182021	5604.279167	649.844727	363.443970
2924.182021	5604.279167	648.623047	494.343781
2924.182021	5604.279167	647.401367	417.330597
2924.182021	5604.279167	646.179688	597.422974
2924.182021	5604.279167	644.957031	421.660187
2924.182021	5604.279167	643.734375	321.213989
2924.182021	5604.279167	642.511719	449.169495
2924.182021	5604.279167	641.289063	608.168335
2924.182021	5604.279167	640.065430	300.062286
2924.182021	5604.279167	638.841797	414.840637
2924.182021	5604.279167	637.618164	425.795563
2924.182021	5604.279167	636.393555	402.995544
2924.182021	5604.279167	635.168945	398.307983
2924.182021	5604.279167	633.944336	336.563232
2924.182021	5604.279167	632.719727	318.851379
2924.182021	5604.279167	631.494141	373.637268
2924.182021	5604.279167	630.269531	57.990997
2924.182021	5604.279167	629.042969	120.493111
2924.182021	5604.279167	627.817383	503.953369
2924.182021	5604.279167	626.590820	268.591187
2924.182021	5604.279167	625.365234	385.231903
2924.182021	5604.279167	624.137695	424.161774
2924.182021	5604.279167	622.911133	271.619781
2924.182021	5604.279167	621.683594	393.234314
2924.182021	5604.279167	620.456055	380.307098
2924.182021	5604.279167	619.228516	385.441132
2924.182021	5604.279167	618.000977	375.028503
2924.182021	5604.279167	616.772461	248.301590
2924.182021	5604.279167	615.543945	106.091553
2924.182021	5604.279167	614.314453	134.371933
2924.182021	5604.279167	613.085938	116.125069
2924.182021	5604.279167	611.856445	118.502594
2924.182021	5604.279167	610.626953	-121.792061
2924.182021	5604.279167	609.397461	97.343330
2924.182021	5604.279167	608.166992	197.663544
2924.182021	5604.279167	606.936523	370.135834
2924.182021	5604.279167	605.706055	168.543182
2924.182021	5604.279167	604.474609	72.720398
2924.182021	5604.279167	603.244141	245.015671
2924.182021	5604.279167	602.012695	28.019840
2924.182021	5604.279167	600.780273	43.000271
2924.182021	5604.279167	599.548828	55.371723
2924.182021	5604.279167	598.316406	196.495499
2924.182021	5604.279167	597.083984	226.799194
2924.182021	5604.279167	595.851563	-57.042477
2924.182021	5604.279167	594.618164	-67.936821
2924.182021	5604.279167	593.384766	75.563408
2924.182021	5604.279167	592.151367	422.246277
2924.182021	5604.279167	590.917969	313.436035
2924.182021	5604.279167	589.683594	310.095459
2924.182021	5604.279167	588.449219	219.310699
2924.182021	5604.279167	587.214844	64.275131
2924.182021	5604.279167	585.979492	299.965302
2924.182021	5604.279167	584.745117	373.649139
2924.182021	5604.279167	583.509766	192.935944
2924.182021	5604.279167	582.273438	63.653904
2924.182021	5604.279167	581.038086	-14.221834
2924.182021	5604.279167	579.801758	103.052727
2924.182021	5604.279167	578.565430	138.123474
2924.182021	5604.279167	577.329102	-6.481988
2924.182021	5604.279167	576.091797	192.792038
2924.182021	5604.279167	574.854492	-98.005127
2924.182021	5604.279167	573.617188	-111.687660
2924.182021	5604.279167	572.378906	69.511147
2924.182021	5604.279167	571.141602	45.536385
2924.182021	5604.279167	569.903320	139.470993
2924.182021	5604.279167	568.664063	0.164931
2924.182021	5604.279167	567.425781	-159.573380
2924.182021	5604.279167	566.186523	-86.148239
2924.182021	5604.279167	564.947266	10.298375
2924.182021	5604.279167	563.708008	-146.773148
2924.182021	5604.279167	562.467773	26.448986
2924.182021	5604.279167	561.227539	158.654861
2924.182021	5604.279167	559.987305	73.318588
2924.182021	5604.279167	558.747070	-114.299606
2924.182021	5604.279167	557.505859	-79.310692
2924.182021	5604.279167	556.264648	-126.151505
2924.182021	5604.279167	555.023438	-172.957291
2924.182021	5604.279167	553.781250	-194.169998
2924.182021	5604.279167	552.539063	-77.357323
2924.182021	5604.279167	551.296875	-113.872276
2924.182021	5604.279167	550.054688	5.467348
2924.182021	5604.279167	548.811523	-130.609421
2924.182021	5604.279167	547.569336	-13.823639
2924.182021	5604.279167	546.325195	92.721733
2924.182021	5604.279167	545.082031	-12.582125
2924.182021	5604.279167	543.837891	-61.677933
2924.182021	5604.279167	542.593750	95.918243
2924.182021	5604.279167	541.349609	44.331001
2924.182021	5604.279167	540.105469	8.100932
2924.182021	5604.279167	538.860352	-15.333709
2924.182021	5604.279167	537.615234	50.490398
2924.182021	5604.279167	536.369141	-102.839027
2924.182021	5604.279167	535.124023	149.046265
2924.182021	5604.279167	533.877930	-44.914177
2924.182021	5604.279167	532.631836	-40.101902
2924.182021	5604.279167	531.384766	36.044559
2924.182021	5604.279167	530.138672	2.742751
2924.182021	5604.279167	528.891602	40.764503
2924.182021	5604.279167	527.643555	193.321365
2924.182021	5604.279167	526.396484	-185.834229
2924.182021	5604.279167	525.148438	20.222088
2924.182021	5604.279167	523.900391	-28.049786
2924.182021	5604.279167	522.652344	106.805656
2924.182021	5604.279167	521.403320	-91.323738
2924.182021	5604.279167	520.154297	180.829346
2924.182021	5604.279167	518.905273	69.272118
2924.182021	5604.279167	517.656250	44.190453
2924.182021	5604.279167	516.406250	153.780884
2924.182021	5604.279167	515.156250	-46.383892
2924.182021	5604.279167	513.906250	-86.468674
2924.182021	5604.279167	512.655273	109.562996
2924.182021	5604.279167	511.404297	-49.668594
2924.182021	5604.279167	510.153320	186.997833
2924.182021	5604.279167	508.902344	48.246929
2924.182021	5604.279167	507.650391	-1.622076
2924.182021	5604.279167	506.398438	100.719719
2924.182021	5604.279167	505.146484	167.604309
2924.182021	5604.279167	503.893555	125.560440
2924.182021	5604.279167	502.641602	111.480591
2924.182021	5604.279167	501.388672	145.609787
2924.182021	5604.279167	500.134766	136.745819
2924.182021	5604.279167	498.881836	292.544312
2924.182021	5604.279167	497.627930	61.036648
2924.182021	5604.279167	496.374023	-170.293945
2924.182021	5604.279167	495.119141	129.934860
2924.182021	5604.279167	493.865234	-50.555691
2924.182021	5604.279167	492.610352	-86.720322
2924.182021	5604.279167	491.355469	31.463758
2924.182021	5604.279167	490.099609	73.830940
2924.182021	5604.279167	488.843750	-32.871651
2924.182021	5604.279167	487.587891	-96.487717
2924.182021	5604.279167	486.332031	-235.792694
2924.182021	5604.279167	485.075195	59.519428
2924.182021	5604.279167	483.818359	28.997898
2924.182021	5604.279167	482.561523	79.367012
2924.182021	5604.279167	481.304688	102.025780
2924.182021	5604.279167	480.046875	49.037868
2924.182021	5604.279167	478.789063	119.793694
2924.182021	5604.279167	477.531250	-33.929165
2924.182021	5604.279167	476.272461	158.036362
2924.182021	5604.279167	475.013672	-13.125924
2924.182021	5604.279167	473.754883	75.538002
2924.182021	5604.279167	472.496094	280.184174
2924.182021	5604.279167	471.236328	187.450089
2924.182021	5604.279167	469.976563	89.789345
2924.182021	5604.279167	468.716797	155.972824
2924.182021	5604.279167	467.456055	43.388741
2924.182021	5604.279167	466.196289	358.958496
2924.182021	5604.279167	464.935547	417.689575
2924.182021	5604.279167	463.673828	312.866058
2924.182021	5604.279167	462.413086	170.405655
2924.182021	5604.279167	461.151367	334.979736
2924.182021	5604.279167	459.889648	97.112480
2924.182021	5604.279167	458.626953	231.564453
2924.182021	5604.279167	457.364258	398.691467
2924.182021	5604.279167	456.101563	191.276474
2924.182021	5604.279167	454.838867	373.507538
2924.182021	5604.279167	453.575195	452.689514
2924.182021	5604.279167	452.312500	361.063263
2924.182021	5604.279167	451.047852	475.441650
2924.182021	5604.279167	449.784180	293.522278
2924.182021	5604.279167	448.519531	252.280991
2924.182021	5604.279167	447.254883	165.901810
2924.182021	5604.279167	445.990234	97.137787
2924.182021	5604.279167	444.725586	239.139191
2924.182021	5604.279167	443.459961	356.003204
2924.182021	5604.279167	442.194336	472.814331
2924.182021	5604.279167	440.927734	484.275665
2924.182021	5604.279167	439.662109	418.016266
2924.182021	5604.279167	438.395508	482.075531
2924.182021	5604.279167	437.127930	618.738953
2924.182021	5604.279167	435.861328	482.281219
2924.182021	5604.279167	434.593750	385.912781
2924.182021	5604.279167	433.326172	537.410645
2924.182021	5604.279167	432.058594	598.672485
2924.182021	5604.279167	430.790039	717.407837
2924.182021	5604.279167	429.521484	570.794250
2924.182021	5604.279167	428.252930	531.733337
2924.182021	5604.279167	426.984375	537.619690
2924.182021	5604.279167	425.714844	808.459045
2924.182021	5604.279167	424.445313	556.582275
2924.182021	5604.279167	423.174805	577.135071
2924.182021	5604.279167	421.905273	445.118408
2924.182021	5604.279167	420.634766	575.347290
2924.182021	5604.279167	419.364258	640.427795
2924.182021	5604.279167	418.092773	637.894348
2924.182021	5604.279167	416.822266	677.633118
2924.182021	5604.279167	415.550781	787.063110
2924.182021	5604.279167	414.278320	569.319824
2924.182021	5604.279167	413.006836	416.334198
2924.182021	5604.279167	411.734375	557.548340
2924.182021	5604.279167	410.461914	703.451294
2924.182021	5604.279167	409.188477	739.325439
2924.182021	5604.279167	407.916016	525.626648
2924.182021	5604.279167	406.642578	630.762695
2924.182021	5604.279167	405.368164	516.272095
2924.182021	5604.279167	404.094727	603.314941
2924.182021	5604.279167	402.820313	600.320496
2924.182021	5604.279167	401.545898	801.178284
2924.182021	5604.279167	400.270508	628.129639
2924.182021	5604.279167	398.996094	541.896057
2924.182021	5604.279167	397.720703	612.076538
2924.182021	5604.279167	396.444336	539.982422
2924.182021	5604.279167	395.168945	576.933044
2924.182021	5604.279167	393.892578	640.759399
2924.182021	5604.279167	392.616211	711.535767
2924.182021	5604.279167	391.339844	555.561340
2924.182021	5604.279167	390.062500	595.466736
2924.182021	5604.279167	388.785156	473.292450
2924.182021	5604.279167	387.507813	658.650330
2924.182021	5604.279167	386.229492	577.565247
2924.182021	5604.279167	384.951172	528.176697
2924.182021	5604.279167	383.672852	627.121948
2924.182021	5604.279167	382.394531	420.053406
2924.182021	5604.279167	381.115234	420.819427
2924.182021	5604.279167	379.835938	616.861511
2924.182021	5604.279167	378.556641	700.442139
2924.182021	5604.279167	377.277344	453.370239
2924.182021	5604.279167	375.997070	468.401062
2924.182021	5604.279167	374.716797	457.793854
2924.182021	5604.279167	373.435547	461.175171
2924.182021	5604.279167	372.155273	357.117462
2924.182021	5604.279167	370.874023	475.106049
2924.182021	5604.279167	369.591797	559.860046
2924.182021	5604.279167	368.310547	509.872650
2924.182021	5604.279167	367.028320	411.813904
2924.182021	5604.279167	365.746094	580.031006
2924.182021	5604.279167	364.463867	393.199066
2924.182021	5604.279167	363.180664	375.986572
2924.182021	5604.279167	361.897461	337.803162
2924.182021	5604.279167	360.614258	699.024353
2924.182021	5604.279167	359.330078	618.707764
2924.182021	5604.279167	358.045898	727.448364
2924.182021	5604.279167	356.761719	249.080963
2924.182021	5604.279167	355.477539	545.354309
2924.182021	5604.279167	354.192383	506.547455
2924.182021	5604.279167	352.907227	513.194153
2924.182021	5604.279167	351.622070	491.142731
2924.182021	5604.279167	350.336914	657.606812
2924.182021	5604.279167	349.050781	558.251221
2924.182021	5604.279167	347.764648	417.778015
2924.182021	5604.279167	346.477539	260.800415
2924.182021	5604.279167	345.191406	274.796997
2924.182021	5604.279167	343.904297	257.326080
2924.182021	5604.279167	342.616211	358.740936
2924.182021	5604.279167	341.329102	445.878571
2924.182021	5604.279167	340.041016	373.219910
2924.182021	5604.279167	338.752930	182.734940
2924.182021	5604.279167	337.463867	169.988220
2924.182021	5604.279167	336.175781	108.319267
2924.182021	5604.279167	334.886719	110.871346
2924.182021	5604.279167	333.596680	160.301880
2924.182021	5604.279167	332.307617	-53.487720
2924.182021	5604.279167	331.017578	3.454849
2924.182021	5604.279167	329.727539	6.210412
2924.182021	5604.279167	328.436523	43.231121
2924.182021	5604.279167	327.146484	-160.867081
2924.182021	5604.279167	325.855469	77.329941
2924.182021	5604.279167	324.563477	-174.086563
2924.182021	5604.279167	323.272461	-15.354074
2924.182021	5604.279167	321.980469	-51.322353
2924.182021	5604.279167	320.688477	-14.142190
2924.182021	5604.279167	319.395508	32.137775
2924.182021	5604.279167	318.103516	-72.014786
2924.182021	5604.279167	316.810547	66.017319
2924.182021	5604.279167	315.516602	-62.019424
2924.182021	5604.279167	314.223633	2.942295
2924.182021	5604.279167	312.929688	-244.801849
2924.182021	5604.279167	311.635742	75.398552
2924.182021	5604.279167	310.340820	48.402073
2924.182021	5604.279167	309.045898	-31.397917
2924.182021	5604.279167	307.750977	39.365437
2924.182021	5604.279167	306.456055	150.231094
2924.182021	5604.279167	305.160156	68.239059
2924.182021	5604.279167	303.865234	-86.367958
2924.182021	5604.279167	302.568359	53.358353
2924.182021	5604.279167	301.272461	171.614960
2924.182021	5604.279167	299.975586	57.588078
2924.182021	5604.279167	298.678711	105.425293
