#X		#Y		#Wave		#Intensity
12478.635957	3952.219167	1999.980469	39.352528
12478.635957	3952.219167	1999.016602	-88.938469
12478.635957	3952.219167	1998.052734	-96.019112
12478.635957	3952.219167	1997.087891	75.339081
12478.635957	3952.219167	1996.123047	53.387875
12478.635957	3952.219167	1995.158203	21.548088
12478.635957	3952.219167	1994.193359	91.277695
12478.635957	3952.219167	1993.228516	-96.544418
12478.635957	3952.219167	1992.262695	-14.423914
12478.635957	3952.219167	1991.297852	-90.748756
12478.635957	3952.219167	1990.332031	92.825226
12478.635957	3952.219167	1989.366211	85.804810
12478.635957	3952.219167	1988.399414	175.275284
12478.635957	3952.219167	1987.433594	113.833130
12478.635957	3952.219167	1986.466797	-58.872646
12478.635957	3952.219167	1985.500977	67.676323
12478.635957	3952.219167	1984.534180	-6.066174
12478.635957	3952.219167	1983.567383	75.937027
12478.635957	3952.219167	1982.599609	91.185448
12478.635957	3952.219167	1981.632813	0.184833
12478.635957	3952.219167	1980.665039	-209.358978
12478.635957	3952.219167	1979.697266	-8.828655
12478.635957	3952.219167	1978.729492	-235.583206
12478.635957	3952.219167	1977.761719	162.388504
12478.635957	3952.219167	1976.792969	24.545094
12478.635957	3952.219167	1975.825195	2.748888
12478.635957	3952.219167	1974.856445	-147.359604
12478.635957	3952.219167	1973.887695	104.722786
12478.635957	3952.219167	1972.918945	-77.426300
12478.635957	3952.219167	1971.949219	305.245575
12478.635957	3952.219167	1970.980469	105.854744
12478.635957	3952.219167	1970.010742	116.079842
12478.635957	3952.219167	1969.041016	-36.385433
12478.635957	3952.219167	1968.071289	45.313965
12478.635957	3952.219167	1967.101563	80.160042
12478.635957	3952.219167	1966.130859	-89.483200
12478.635957	3952.219167	1965.161133	233.528076
12478.635957	3952.219167	1964.190430	-17.362860
12478.635957	3952.219167	1963.219727	-135.217072
12478.635957	3952.219167	1962.249023	140.821503
12478.635957	3952.219167	1961.277344	187.857147
12478.635957	3952.219167	1960.306641	286.540649
12478.635957	3952.219167	1959.334961	212.957794
12478.635957	3952.219167	1958.363281	-190.220932
12478.635957	3952.219167	1957.391602	53.543205
12478.635957	3952.219167	1956.419922	26.728415
12478.635957	3952.219167	1955.447266	199.040497
12478.635957	3952.219167	1954.474609	-51.492611
12478.635957	3952.219167	1953.501953	270.653229
12478.635957	3952.219167	1952.529297	-110.050621
12478.635957	3952.219167	1951.556641	-149.160080
12478.635957	3952.219167	1950.583984	-33.531887
12478.635957	3952.219167	1949.610352	-80.037430
12478.635957	3952.219167	1948.636719	87.064224
12478.635957	3952.219167	1947.663086	187.809921
12478.635957	3952.219167	1946.689453	8.713055
12478.635957	3952.219167	1945.715820	-35.372131
12478.635957	3952.219167	1944.741211	-118.711617
12478.635957	3952.219167	1943.767578	26.089037
12478.635957	3952.219167	1942.792969	192.890701
12478.635957	3952.219167	1941.818359	158.546738
12478.635957	3952.219167	1940.842773	-30.250877
12478.635957	3952.219167	1939.868164	131.515457
12478.635957	3952.219167	1938.892578	178.021942
12478.635957	3952.219167	1937.916992	-0.923926
12478.635957	3952.219167	1936.941406	6.358280
12478.635957	3952.219167	1935.965820	260.998199
12478.635957	3952.219167	1934.990234	128.610764
12478.635957	3952.219167	1934.013672	57.460167
12478.635957	3952.219167	1933.037109	387.776825
12478.635957	3952.219167	1932.060547	-84.816490
12478.635957	3952.219167	1931.083984	-18.911804
12478.635957	3952.219167	1930.107422	108.112679
12478.635957	3952.219167	1929.129883	156.792480
12478.635957	3952.219167	1928.153320	-44.017479
12478.635957	3952.219167	1927.175781	29.084152
12478.635957	3952.219167	1926.198242	72.800583
12478.635957	3952.219167	1925.219727	228.914307
12478.635957	3952.219167	1924.242188	-138.024292
12478.635957	3952.219167	1923.263672	-55.273201
12478.635957	3952.219167	1922.285156	210.643295
12478.635957	3952.219167	1921.306641	119.841148
12478.635957	3952.219167	1920.328125	-137.004166
12478.635957	3952.219167	1919.349609	187.308243
12478.635957	3952.219167	1918.370117	159.958176
12478.635957	3952.219167	1917.391602	44.735523
12478.635957	3952.219167	1916.412109	2.735489
12478.635957	3952.219167	1915.431641	-122.226860
12478.635957	3952.219167	1914.452148	69.940239
12478.635957	3952.219167	1913.472656	-47.717270
12478.635957	3952.219167	1912.492188	-48.317596
12478.635957	3952.219167	1911.511719	-27.002977
12478.635957	3952.219167	1910.531250	-205.591125
12478.635957	3952.219167	1909.550781	103.258453
12478.635957	3952.219167	1908.569336	-192.296204
12478.635957	3952.219167	1907.588867	-329.418884
12478.635957	3952.219167	1906.607422	8.424543
12478.635957	3952.219167	1905.625977	-60.557434
12478.635957	3952.219167	1904.644531	16.540098
12478.635957	3952.219167	1903.662109	144.698273
12478.635957	3952.219167	1902.680664	-170.169342
12478.635957	3952.219167	1901.698242	9.018014
12478.635957	3952.219167	1900.715820	-72.209801
12478.635957	3952.219167	1899.733398	-41.545559
12478.635957	3952.219167	1898.750000	183.632339
12478.635957	3952.219167	1897.767578	165.546326
12478.635957	3952.219167	1896.784180	-15.448756
12478.635957	3952.219167	1895.800781	-4.389331
12478.635957	3952.219167	1894.817383	94.119698
12478.635957	3952.219167	1893.833984	-18.824417
12478.635957	3952.219167	1892.850586	-39.446701
12478.635957	3952.219167	1891.866211	148.777512
12478.635957	3952.219167	1890.881836	-24.924416
12478.635957	3952.219167	1889.897461	-11.648621
12478.635957	3952.219167	1888.913086	-32.396511
12478.635957	3952.219167	1887.927734	102.152328
12478.635957	3952.219167	1886.943359	-100.668709
12478.635957	3952.219167	1885.958008	-26.881464
12478.635957	3952.219167	1884.972656	68.673210
12478.635957	3952.219167	1883.987305	47.746807
12478.635957	3952.219167	1883.001953	-48.375977
12478.635957	3952.219167	1882.015625	-35.411087
12478.635957	3952.219167	1881.029297	229.584930
12478.635957	3952.219167	1880.042969	89.743423
12478.635957	3952.219167	1879.056641	-21.010296
12478.635957	3952.219167	1878.070313	74.145546
12478.635957	3952.219167	1877.083984	186.179214
12478.635957	3952.219167	1876.096680	87.452629
12478.635957	3952.219167	1875.109375	-71.806381
12478.635957	3952.219167	1874.122070	-30.134453
12478.635957	3952.219167	1873.134766	-111.950066
12478.635957	3952.219167	1872.146484	169.174942
12478.635957	3952.219167	1871.159180	-67.566536
12478.635957	3952.219167	1870.170898	-52.712265
12478.635957	3952.219167	1869.182617	-88.693390
12478.635957	3952.219167	1868.194336	-27.989916
12478.635957	3952.219167	1867.205078	64.067284
12478.635957	3952.219167	1866.216797	211.638306
12478.635957	3952.219167	1865.227539	127.114616
12478.635957	3952.219167	1864.238281	-49.235485
12478.635957	3952.219167	1863.249023	-10.577600
12478.635957	3952.219167	1862.259766	54.584801
12478.635957	3952.219167	1861.269531	-71.094086
12478.635957	3952.219167	1860.279297	-3.633909
12478.635957	3952.219167	1859.290039	114.443909
12478.635957	3952.219167	1858.298828	15.215077
12478.635957	3952.219167	1857.308594	176.571518
12478.635957	3952.219167	1856.318359	164.116547
12478.635957	3952.219167	1855.327148	192.613419
12478.635957	3952.219167	1854.335938	223.457794
12478.635957	3952.219167	1853.344727	49.292679
12478.635957	3952.219167	1852.353516	164.415329
12478.635957	3952.219167	1851.362305	185.442368
12478.635957	3952.219167	1850.370117	88.322327
12478.635957	3952.219167	1849.377930	333.302704
12478.635957	3952.219167	1848.385742	151.768616
12478.635957	3952.219167	1847.393555	138.831818
12478.635957	3952.219167	1846.401367	458.135284
12478.635957	3952.219167	1845.408203	67.049156
12478.635957	3952.219167	1844.415039	44.325050
12478.635957	3952.219167	1843.421875	264.612793
12478.635957	3952.219167	1842.428711	150.305313
12478.635957	3952.219167	1841.435547	173.103256
12478.635957	3952.219167	1840.441406	123.668419
12478.635957	3952.219167	1839.448242	-5.163545
12478.635957	3952.219167	1838.454102	221.823181
12478.635957	3952.219167	1837.459961	306.831787
12478.635957	3952.219167	1836.464844	189.851974
12478.635957	3952.219167	1835.470703	243.465988
12478.635957	3952.219167	1834.475586	-56.179214
12478.635957	3952.219167	1833.480469	211.104172
12478.635957	3952.219167	1832.485352	348.533356
12478.635957	3952.219167	1831.490234	327.367493
12478.635957	3952.219167	1830.495117	13.257388
12478.635957	3952.219167	1829.499023	203.240173
12478.635957	3952.219167	1828.502930	309.087982
12478.635957	3952.219167	1827.506836	102.913483
12478.635957	3952.219167	1826.510742	81.458313
12478.635957	3952.219167	1825.513672	-71.980881
12478.635957	3952.219167	1824.517578	-93.538254
12478.635957	3952.219167	1823.520508	28.683710
12478.635957	3952.219167	1822.523438	-146.451645
12478.635957	3952.219167	1821.526367	126.573669
12478.635957	3952.219167	1820.529297	224.500305
12478.635957	3952.219167	1819.531250	137.838364
12478.635957	3952.219167	1818.533203	-126.117859
12478.635957	3952.219167	1817.535156	-16.459743
12478.635957	3952.219167	1816.537109	9.277008
12478.635957	3952.219167	1815.539063	-101.526321
12478.635957	3952.219167	1814.540039	292.644897
12478.635957	3952.219167	1813.541992	-24.127010
12478.635957	3952.219167	1812.542969	123.289246
12478.635957	3952.219167	1811.543945	31.359400
12478.635957	3952.219167	1810.543945	63.741364
12478.635957	3952.219167	1809.544922	184.511200
12478.635957	3952.219167	1808.544922	257.330902
12478.635957	3952.219167	1807.544922	64.718246
12478.635957	3952.219167	1806.544922	-70.548943
12478.635957	3952.219167	1805.544922	-36.202629
12478.635957	3952.219167	1804.544922	2.824070
12478.635957	3952.219167	1803.543945	115.787186
12478.635957	3952.219167	1802.542969	59.070160
12478.635957	3952.219167	1801.541992	-47.849968
12478.635957	3952.219167	1800.541016	234.286087
12478.635957	3952.219167	1799.539063	-11.236650
12478.635957	3952.219167	1798.538086	-223.338379
12478.635957	3952.219167	1797.536133	84.642181
12478.635957	3952.219167	1796.534180	137.187622
12478.635957	3952.219167	1795.532227	118.078728
12478.635957	3952.219167	1794.529297	-75.185974
12478.635957	3952.219167	1793.527344	-118.268044
12478.635957	3952.219167	1792.524414	238.997910
12478.635957	3952.219167	1791.521484	-23.560381
12478.635957	3952.219167	1790.518555	-131.242142
12478.635957	3952.219167	1789.514648	27.818888
12478.635957	3952.219167	1788.511719	162.918121
12478.635957	3952.219167	1787.507813	238.332397
12478.635957	3952.219167	1786.503906	154.110657
12478.635957	3952.219167	1785.500000	-113.462349
12478.635957	3952.219167	1784.496094	-107.338165
12478.635957	3952.219167	1783.491211	153.280655
12478.635957	3952.219167	1782.486328	223.383820
12478.635957	3952.219167	1781.481445	-65.796600
12478.635957	3952.219167	1780.476563	-195.631073
12478.635957	3952.219167	1779.471680	-220.897278
12478.635957	3952.219167	1778.465820	-255.768875
12478.635957	3952.219167	1777.460938	-117.212151
12478.635957	3952.219167	1776.455078	47.322342
12478.635957	3952.219167	1775.449219	-90.036331
12478.635957	3952.219167	1774.442383	50.469475
12478.635957	3952.219167	1773.436523	-84.659920
12478.635957	3952.219167	1772.429688	-6.144342
12478.635957	3952.219167	1771.422852	36.630058
12478.635957	3952.219167	1770.416016	27.070234
12478.635957	3952.219167	1769.409180	-321.946136
12478.635957	3952.219167	1768.402344	-253.337265
12478.635957	3952.219167	1767.394531	35.751575
12478.635957	3952.219167	1766.386719	-76.202972
12478.635957	3952.219167	1765.378906	-19.852482
12478.635957	3952.219167	1764.371094	-105.877831
12478.635957	3952.219167	1763.362305	-63.981270
12478.635957	3952.219167	1762.354492	229.027161
12478.635957	3952.219167	1761.345703	64.489159
12478.635957	3952.219167	1760.336914	70.484566
12478.635957	3952.219167	1759.328125	12.421409
12478.635957	3952.219167	1758.318359	60.833347
12478.635957	3952.219167	1757.308594	-94.503197
12478.635957	3952.219167	1756.299805	-53.386627
12478.635957	3952.219167	1755.290039	255.049103
12478.635957	3952.219167	1754.279297	182.264542
12478.635957	3952.219167	1753.269531	125.974861
12478.635957	3952.219167	1752.258789	31.742836
12478.635957	3952.219167	1751.249023	88.816284
12478.635957	3952.219167	1750.238281	-142.727753
12478.635957	3952.219167	1749.226563	41.784233
12478.635957	3952.219167	1748.215820	-7.870057
12478.635957	3952.219167	1747.204102	-41.080898
12478.635957	3952.219167	1746.193359	-46.019390
12478.635957	3952.219167	1745.181641	97.752930
12478.635957	3952.219167	1744.168945	90.191833
12478.635957	3952.219167	1743.157227	4.613154
12478.635957	3952.219167	1742.144531	-36.193619
12478.635957	3952.219167	1741.132813	-209.265762
12478.635957	3952.219167	1740.120117	120.305000
12478.635957	3952.219167	1739.106445	-189.829224
12478.635957	3952.219167	1738.093750	78.062485
12478.635957	3952.219167	1737.080078	-173.189301
12478.635957	3952.219167	1736.067383	-30.604218
12478.635957	3952.219167	1735.053711	118.880356
12478.635957	3952.219167	1734.040039	30.107756
12478.635957	3952.219167	1733.025391	-176.597504
12478.635957	3952.219167	1732.011719	-13.349972
12478.635957	3952.219167	1730.997070	152.072449
12478.635957	3952.219167	1729.982422	-330.455261
12478.635957	3952.219167	1728.967773	-125.210236
12478.635957	3952.219167	1727.952148	79.837669
12478.635957	3952.219167	1726.937500	126.984108
12478.635957	3952.219167	1725.921875	-169.658127
12478.635957	3952.219167	1724.906250	-59.167587
12478.635957	3952.219167	1723.890625	55.881741
12478.635957	3952.219167	1722.875000	3.761604
12478.635957	3952.219167	1721.858398	-1.420196
12478.635957	3952.219167	1720.841797	56.787498
12478.635957	3952.219167	1719.825195	67.847878
12478.635957	3952.219167	1718.808594	125.812035
12478.635957	3952.219167	1717.791992	150.750595
12478.635957	3952.219167	1716.774414	95.667442
12478.635957	3952.219167	1715.756836	256.637329
12478.635957	3952.219167	1714.739258	105.049248
12478.635957	3952.219167	1713.721680	277.491516
12478.635957	3952.219167	1712.704102	142.189072
12478.635957	3952.219167	1711.685547	20.905212
12478.635957	3952.219167	1710.667969	99.079361
12478.635957	3952.219167	1709.649414	463.387970
12478.635957	3952.219167	1708.630859	278.463165
12478.635957	3952.219167	1707.611328	365.591278
12478.635957	3952.219167	1706.592773	218.079758
12478.635957	3952.219167	1705.573242	234.643433
12478.635957	3952.219167	1704.553711	227.658951
12478.635957	3952.219167	1703.534180	342.458862
12478.635957	3952.219167	1702.513672	466.473694
12478.635957	3952.219167	1701.494141	281.087952
12478.635957	3952.219167	1700.473633	320.541077
12478.635957	3952.219167	1699.453125	130.358688
12478.635957	3952.219167	1698.432617	120.457306
12478.635957	3952.219167	1697.412109	398.429352
12478.635957	3952.219167	1696.390625	392.954895
12478.635957	3952.219167	1695.369141	143.997467
12478.635957	3952.219167	1694.347656	440.221710
12478.635957	3952.219167	1693.326172	347.901703
12478.635957	3952.219167	1692.304688	342.065430
12478.635957	3952.219167	1691.282227	303.380951
12478.635957	3952.219167	1690.260742	601.314819
12478.635957	3952.219167	1689.238281	513.323486
12478.635957	3952.219167	1688.214844	460.313751
12478.635957	3952.219167	1687.192383	393.233063
12478.635957	3952.219167	1686.168945	711.547302
12478.635957	3952.219167	1685.146484	349.958221
12478.635957	3952.219167	1684.123047	284.988007
12478.635957	3952.219167	1683.099609	383.396210
12478.635957	3952.219167	1682.075195	378.947937
12478.635957	3952.219167	1681.051758	348.759674
12478.635957	3952.219167	1680.027344	348.814026
12478.635957	3952.219167	1679.002930	556.429443
12478.635957	3952.219167	1677.978516	579.600830
12478.635957	3952.219167	1676.953125	546.690796
12478.635957	3952.219167	1675.928711	742.240295
12478.635957	3952.219167	1674.903320	953.932556
12478.635957	3952.219167	1673.877930	629.369629
12478.635957	3952.219167	1672.852539	906.091370
12478.635957	3952.219167	1671.826172	856.419006
12478.635957	3952.219167	1670.800781	762.445251
12478.635957	3952.219167	1669.774414	766.229431
12478.635957	3952.219167	1668.748047	963.210022
12478.635957	3952.219167	1667.721680	1232.210205
12478.635957	3952.219167	1666.694336	1214.707153
12478.635957	3952.219167	1665.667969	1271.628174
12478.635957	3952.219167	1664.640625	1300.512695
12478.635957	3952.219167	1663.613281	1219.977051
12478.635957	3952.219167	1662.585938	1216.155151
12478.635957	3952.219167	1661.557617	1265.729126
12478.635957	3952.219167	1660.530273	1045.534912
12478.635957	3952.219167	1659.501953	1327.441528
12478.635957	3952.219167	1658.473633	1290.768921
12478.635957	3952.219167	1657.444336	1400.413940
12478.635957	3952.219167	1656.416016	1519.263794
12478.635957	3952.219167	1655.386719	1524.169434
12478.635957	3952.219167	1654.358398	1556.897583
12478.635957	3952.219167	1653.328125	1587.188354
12478.635957	3952.219167	1652.298828	1652.247192
12478.635957	3952.219167	1651.269531	1652.234131
12478.635957	3952.219167	1650.239258	1891.155029
12478.635957	3952.219167	1649.208984	1621.830566
12478.635957	3952.219167	1648.178711	1951.013794
12478.635957	3952.219167	1647.148438	1844.012451
12478.635957	3952.219167	1646.117188	2140.431885
12478.635957	3952.219167	1645.086914	2272.105713
12478.635957	3952.219167	1644.055664	2598.353027
12478.635957	3952.219167	1643.024414	2273.244629
12478.635957	3952.219167	1641.992188	2332.797852
12478.635957	3952.219167	1640.960938	2260.260742
12478.635957	3952.219167	1639.928711	2465.604248
12478.635957	3952.219167	1638.896484	2777.339111
12478.635957	3952.219167	1637.864258	2357.331543
12478.635957	3952.219167	1636.832031	2502.219482
12478.635957	3952.219167	1635.798828	2563.676514
12478.635957	3952.219167	1634.766602	2652.853760
12478.635957	3952.219167	1633.733398	2709.547607
12478.635957	3952.219167	1632.699219	2685.208496
12478.635957	3952.219167	1631.666016	2656.238037
12478.635957	3952.219167	1630.632813	2895.430420
12478.635957	3952.219167	1629.598633	2787.744141
12478.635957	3952.219167	1628.564453	2747.086670
12478.635957	3952.219167	1627.530273	2745.693604
12478.635957	3952.219167	1626.495117	3234.003906
12478.635957	3952.219167	1625.460938	3158.544189
12478.635957	3952.219167	1624.425781	3103.844727
12478.635957	3952.219167	1623.390625	2972.946533
12478.635957	3952.219167	1622.355469	3241.424805
12478.635957	3952.219167	1621.319336	3186.640381
12478.635957	3952.219167	1620.284180	3053.420654
12478.635957	3952.219167	1619.248047	3051.710449
12478.635957	3952.219167	1618.211914	3192.987793
12478.635957	3952.219167	1617.174805	3145.066162
12478.635957	3952.219167	1616.138672	3523.718994
12478.635957	3952.219167	1615.101563	3385.812500
12478.635957	3952.219167	1614.065430	3727.360107
12478.635957	3952.219167	1613.027344	3630.894287
12478.635957	3952.219167	1611.990234	4062.066650
12478.635957	3952.219167	1610.953125	3866.521729
12478.635957	3952.219167	1609.915039	4426.404785
12478.635957	3952.219167	1608.876953	4341.346680
12478.635957	3952.219167	1607.838867	4495.733398
12478.635957	3952.219167	1606.800781	4601.721191
12478.635957	3952.219167	1605.761719	4613.291016
12478.635957	3952.219167	1604.723633	4054.288818
12478.635957	3952.219167	1603.684570	4519.116211
12478.635957	3952.219167	1602.644531	4728.458008
12478.635957	3952.219167	1601.605469	4576.734375
12478.635957	3952.219167	1600.566406	4372.197754
12478.635957	3952.219167	1599.526367	4579.155273
12478.635957	3952.219167	1598.486328	4462.012207
12478.635957	3952.219167	1597.446289	4574.684082
12478.635957	3952.219167	1596.405273	4496.635254
12478.635957	3952.219167	1595.365234	4581.715332
12478.635957	3952.219167	1594.324219	4235.054199
12478.635957	3952.219167	1593.283203	4037.770996
12478.635957	3952.219167	1592.242188	4005.845459
12478.635957	3952.219167	1591.200195	4139.162109
12478.635957	3952.219167	1590.159180	3854.872314
12478.635957	3952.219167	1589.117188	3628.042725
12478.635957	3952.219167	1588.075195	4073.342529
12478.635957	3952.219167	1587.032227	3635.613525
12478.635957	3952.219167	1585.990234	3830.879883
12478.635957	3952.219167	1584.947266	3640.981689
12478.635957	3952.219167	1583.904297	3820.160645
12478.635957	3952.219167	1582.861328	3529.575928
12478.635957	3952.219167	1581.818359	3699.602783
12478.635957	3952.219167	1580.775391	3821.496094
12478.635957	3952.219167	1579.731445	3870.074707
12478.635957	3952.219167	1578.687500	3609.581543
12478.635957	3952.219167	1577.643555	3601.026367
12478.635957	3952.219167	1576.598633	3375.072998
12478.635957	3952.219167	1575.554688	3535.971924
12478.635957	3952.219167	1574.509766	3660.224365
12478.635957	3952.219167	1573.464844	3546.592529
12478.635957	3952.219167	1572.419922	3483.359131
12478.635957	3952.219167	1571.374023	3417.892090
12478.635957	3952.219167	1570.329102	3446.239990
12478.635957	3952.219167	1569.283203	3550.029297
12478.635957	3952.219167	1568.237305	3173.967285
12478.635957	3952.219167	1567.191406	3499.478027
12478.635957	3952.219167	1566.144531	3212.741455
12478.635957	3952.219167	1565.098633	3382.932617
12478.635957	3952.219167	1564.051758	3452.633789
12478.635957	3952.219167	1563.004883	3344.304199
12478.635957	3952.219167	1561.957031	3457.448730
12478.635957	3952.219167	1560.910156	3123.372803
12478.635957	3952.219167	1559.862305	3341.588623
12478.635957	3952.219167	1558.814453	3361.334473
12478.635957	3952.219167	1557.766602	3533.936523
12478.635957	3952.219167	1556.718750	3521.848877
12478.635957	3952.219167	1555.669922	3687.631836
12478.635957	3952.219167	1554.621094	3388.458740
12478.635957	3952.219167	1553.573242	3219.384277
12478.635957	3952.219167	1552.523438	3451.397949
12478.635957	3952.219167	1551.474609	3398.681152
12478.635957	3952.219167	1550.424805	3462.192383
12478.635957	3952.219167	1549.375000	3227.472168
12478.635957	3952.219167	1548.325195	3063.498779
12478.635957	3952.219167	1547.275391	3061.273438
12478.635957	3952.219167	1546.225586	3441.440430
12478.635957	3952.219167	1545.174805	3104.837646
12478.635957	3952.219167	1544.124023	3086.919434
12478.635957	3952.219167	1543.073242	2821.198730
12478.635957	3952.219167	1542.022461	3092.300293
12478.635957	3952.219167	1540.970703	3051.911865
12478.635957	3952.219167	1539.919922	2527.511719
12478.635957	3952.219167	1538.868164	2591.972412
12478.635957	3952.219167	1537.815430	2715.559570
12478.635957	3952.219167	1536.763672	3118.621582
12478.635957	3952.219167	1535.710938	2376.941650
12478.635957	3952.219167	1534.659180	2151.122314
12478.635957	3952.219167	1533.606445	1986.775146
12478.635957	3952.219167	1532.552734	2408.191162
12478.635957	3952.219167	1531.500000	2377.959961
12478.635957	3952.219167	1530.446289	2084.633545
12478.635957	3952.219167	1529.393555	1886.826416
12478.635957	3952.219167	1528.338867	2040.714722
12478.635957	3952.219167	1527.285156	2140.248047
12478.635957	3952.219167	1526.231445	1892.984985
12478.635957	3952.219167	1525.176758	2219.386475
12478.635957	3952.219167	1524.122070	1729.929810
12478.635957	3952.219167	1523.067383	1798.167236
12478.635957	3952.219167	1522.012695	1941.252563
12478.635957	3952.219167	1520.957031	1472.863892
12478.635957	3952.219167	1519.901367	1731.667847
12478.635957	3952.219167	1518.845703	1587.501587
12478.635957	3952.219167	1517.790039	1735.514771
12478.635957	3952.219167	1516.734375	1661.808472
12478.635957	3952.219167	1515.677734	1330.303711
12478.635957	3952.219167	1514.621094	1195.867432
12478.635957	3952.219167	1513.564453	1335.287964
12478.635957	3952.219167	1512.507813	1269.004272
12478.635957	3952.219167	1511.450195	1033.301025
12478.635957	3952.219167	1510.393555	872.432678
12478.635957	3952.219167	1509.335938	1215.719971
12478.635957	3952.219167	1508.278320	967.015198
12478.635957	3952.219167	1507.219727	910.552979
12478.635957	3952.219167	1506.162109	553.869934
12478.635957	3952.219167	1505.103516	459.402802
12478.635957	3952.219167	1504.044922	660.876526
12478.635957	3952.219167	1502.986328	643.458252
12478.635957	3952.219167	1501.926758	572.014160
12478.635957	3952.219167	1500.868164	685.780518
12478.635957	3952.219167	1499.808594	607.881104
12478.635957	3952.219167	1498.749023	568.502808
12478.635957	3952.219167	1497.688477	490.942108
12478.635957	3952.219167	1496.628906	456.414490
12478.635957	3952.219167	1495.568359	349.906158
12478.635957	3952.219167	1494.507813	498.259766
12478.635957	3952.219167	1493.447266	410.118988
12478.635957	3952.219167	1492.386719	187.002472
12478.635957	3952.219167	1491.325195	78.986671
12478.635957	3952.219167	1490.263672	-157.184067
12478.635957	3952.219167	1489.202148	124.731567
12478.635957	3952.219167	1488.140625	213.109589
12478.635957	3952.219167	1487.079102	-184.505997
12478.635957	3952.219167	1486.016602	-37.286076
12478.635957	3952.219167	1484.954102	-369.139465
12478.635957	3952.219167	1483.891602	-43.924545
12478.635957	3952.219167	1482.829102	281.330353
12478.635957	3952.219167	1481.765625	150.201050
12478.635957	3952.219167	1480.702148	140.697968
12478.635957	3952.219167	1479.638672	30.226322
12478.635957	3952.219167	1478.575195	333.372986
12478.635957	3952.219167	1477.511719	135.664291
12478.635957	3952.219167	1476.447266	84.141602
12478.635957	3952.219167	1475.382813	194.486359
12478.635957	3952.219167	1474.318359	318.451385
12478.635957	3952.219167	1473.253906	487.428162
12478.635957	3952.219167	1472.189453	550.950745
12478.635957	3952.219167	1471.124023	688.758606
12478.635957	3952.219167	1470.058594	606.768494
12478.635957	3952.219167	1468.993164	884.162964
12478.635957	3952.219167	1467.927734	731.017029
12478.635957	3952.219167	1466.861328	990.449585
12478.635957	3952.219167	1465.794922	624.829895
12478.635957	3952.219167	1464.728516	799.578613
12478.635957	3952.219167	1463.662109	985.530579
12478.635957	3952.219167	1462.594727	1021.813049
12478.635957	3952.219167	1461.528320	858.390442
12478.635957	3952.219167	1460.460938	629.350952
12478.635957	3952.219167	1459.393555	895.990356
12478.635957	3952.219167	1458.326172	998.102417
12478.635957	3952.219167	1457.257813	1282.354370
12478.635957	3952.219167	1456.189453	1300.426270
12478.635957	3952.219167	1455.121094	1210.615601
12478.635957	3952.219167	1454.052734	1421.962036
12478.635957	3952.219167	1452.984375	1363.266968
12478.635957	3952.219167	1451.915039	942.206177
12478.635957	3952.219167	1450.845703	1093.398438
12478.635957	3952.219167	1449.776367	1284.707397
12478.635957	3952.219167	1448.707031	1355.920776
12478.635957	3952.219167	1447.636719	1570.500244
12478.635957	3952.219167	1446.567383	1662.988892
12478.635957	3952.219167	1445.497070	1577.026611
12478.635957	3952.219167	1444.425781	1748.386108
12478.635957	3952.219167	1443.355469	1613.790649
12478.635957	3952.219167	1442.285156	2082.583252
12478.635957	3952.219167	1441.213867	1556.513794
12478.635957	3952.219167	1440.142578	1874.567871
12478.635957	3952.219167	1439.070313	1399.886475
12478.635957	3952.219167	1437.999023	1553.413696
12478.635957	3952.219167	1436.926758	1621.663574
12478.635957	3952.219167	1435.854492	1618.353271
12478.635957	3952.219167	1434.782227	1304.764526
12478.635957	3952.219167	1433.709961	1459.538086
12478.635957	3952.219167	1432.636719	1285.241577
12478.635957	3952.219167	1431.563477	1162.523315
12478.635957	3952.219167	1430.490234	873.541565
12478.635957	3952.219167	1429.416992	798.312317
12478.635957	3952.219167	1428.343750	743.191223
12478.635957	3952.219167	1427.269531	674.797607
12478.635957	3952.219167	1426.195313	772.592896
12478.635957	3952.219167	1425.121094	204.452423
12478.635957	3952.219167	1424.046875	304.040314
12478.635957	3952.219167	1422.971680	539.029297
12478.635957	3952.219167	1421.896484	559.102722
12478.635957	3952.219167	1420.821289	490.239288
12478.635957	3952.219167	1419.746094	761.560120
12478.635957	3952.219167	1418.669922	674.848022
12478.635957	3952.219167	1417.594727	556.328857
12478.635957	3952.219167	1416.518555	563.224426
12478.635957	3952.219167	1415.442383	710.463013
12478.635957	3952.219167	1414.365234	486.709015
12478.635957	3952.219167	1413.289063	448.077271
12478.635957	3952.219167	1412.211914	552.820374
12478.635957	3952.219167	1411.134766	512.340393
12478.635957	3952.219167	1410.057617	490.936096
12478.635957	3952.219167	1408.979492	696.383972
12478.635957	3952.219167	1407.902344	586.365356
12478.635957	3952.219167	1406.824219	694.542786
12478.635957	3952.219167	1405.746094	884.903259
12478.635957	3952.219167	1404.666992	1100.770874
12478.635957	3952.219167	1403.588867	844.237305
12478.635957	3952.219167	1402.509766	968.953125
12478.635957	3952.219167	1401.430664	900.269592
12478.635957	3952.219167	1400.351563	964.924805
12478.635957	3952.219167	1399.271484	1011.036621
12478.635957	3952.219167	1398.192383	1099.739868
12478.635957	3952.219167	1397.112305	1228.137817
12478.635957	3952.219167	1396.031250	1154.390991
12478.635957	3952.219167	1394.951172	1415.724609
12478.635957	3952.219167	1393.871094	1447.450439
12478.635957	3952.219167	1392.790039	1115.353271
12478.635957	3952.219167	1391.708984	1224.397949
12478.635957	3952.219167	1390.626953	1080.746582
12478.635957	3952.219167	1389.545898	1037.347168
12478.635957	3952.219167	1388.463867	1013.476074
12478.635957	3952.219167	1387.381836	756.305969
12478.635957	3952.219167	1386.299805	988.266235
12478.635957	3952.219167	1385.217773	778.967712
12478.635957	3952.219167	1384.134766	1032.485718
12478.635957	3952.219167	1383.051758	841.140869
12478.635957	3952.219167	1381.968750	835.184509
12478.635957	3952.219167	1380.885742	796.717712
12478.635957	3952.219167	1379.802734	485.366852
12478.635957	3952.219167	1378.718750	550.001160
12478.635957	3952.219167	1377.634766	710.815125
12478.635957	3952.219167	1376.550781	565.911621
12478.635957	3952.219167	1375.465820	845.715027
12478.635957	3952.219167	1374.381836	843.839844
12478.635957	3952.219167	1373.296875	988.031982
12478.635957	3952.219167	1372.211914	838.258423
12478.635957	3952.219167	1371.126953	1061.446167
12478.635957	3952.219167	1370.041016	1045.768555
12478.635957	3952.219167	1368.955078	1030.361816
12478.635957	3952.219167	1367.869141	954.820740
12478.635957	3952.219167	1366.783203	1148.240601
12478.635957	3952.219167	1365.697266	1075.485596
12478.635957	3952.219167	1364.610352	960.282654
12478.635957	3952.219167	1363.523438	768.151794
12478.635957	3952.219167	1362.436523	910.383240
12478.635957	3952.219167	1361.349609	774.124573
12478.635957	3952.219167	1360.261719	790.966492
12478.635957	3952.219167	1359.174805	998.094421
12478.635957	3952.219167	1358.086914	902.505188
12478.635957	3952.219167	1356.998047	758.126099
12478.635957	3952.219167	1355.910156	854.086853
12478.635957	3952.219167	1354.821289	954.057068
12478.635957	3952.219167	1353.732422	760.547302
12478.635957	3952.219167	1352.643555	1007.398376
12478.635957	3952.219167	1351.554688	688.056641
12478.635957	3952.219167	1350.464844	878.963745
12478.635957	3952.219167	1349.375000	727.154907
12478.635957	3952.219167	1348.285156	938.293213
12478.635957	3952.219167	1347.195313	713.881470
12478.635957	3952.219167	1346.105469	839.362000
12478.635957	3952.219167	1345.014648	655.511292
12478.635957	3952.219167	1343.923828	266.400696
12478.635957	3952.219167	1342.833008	635.935425
12478.635957	3952.219167	1341.741211	803.673523
12478.635957	3952.219167	1340.650391	659.960510
12478.635957	3952.219167	1339.558594	741.550537
12478.635957	3952.219167	1338.466797	541.939880
12478.635957	3952.219167	1337.374023	844.540771
12478.635957	3952.219167	1336.282227	600.777466
12478.635957	3952.219167	1335.189453	593.198303
12478.635957	3952.219167	1334.096680	619.185547
12478.635957	3952.219167	1333.003906	349.825928
12478.635957	3952.219167	1331.910156	572.852600
12478.635957	3952.219167	1330.817383	315.709808
12478.635957	3952.219167	1329.723633	391.050751
12478.635957	3952.219167	1328.629883	620.940552
12478.635957	3952.219167	1327.535156	398.263336
12478.635957	3952.219167	1326.441406	477.698334
12478.635957	3952.219167	1325.346680	623.110901
12478.635957	3952.219167	1324.251953	432.514740
12478.635957	3952.219167	1323.156250	575.729980
12478.635957	3952.219167	1322.061523	462.733551
12478.635957	3952.219167	1320.965820	252.296158
12478.635957	3952.219167	1319.870117	387.591034
12478.635957	3952.219167	1318.774414	427.556244
12478.635957	3952.219167	1317.678711	324.176727
12478.635957	3952.219167	1316.582031	318.757782
12478.635957	3952.219167	1315.485352	336.788483
12478.635957	3952.219167	1314.388672	295.181488
12478.635957	3952.219167	1313.291016	460.724792
12478.635957	3952.219167	1312.194336	279.517822
12478.635957	3952.219167	1311.096680	232.282806
12478.635957	3952.219167	1309.999023	300.427979
12478.635957	3952.219167	1308.901367	473.715515
12478.635957	3952.219167	1307.802734	631.396973
12478.635957	3952.219167	1306.705078	447.732544
12478.635957	3952.219167	1305.606445	603.336243
12478.635957	3952.219167	1304.506836	761.294739
12478.635957	3952.219167	1303.408203	607.115662
12478.635957	3952.219167	1302.308594	743.692810
12478.635957	3952.219167	1301.208984	952.917908
12478.635957	3952.219167	1300.109375	964.881165
12478.635957	3952.219167	1299.009766	1062.159058
12478.635957	3952.219167	1297.909180	1162.795288
12478.635957	3952.219167	1296.808594	1215.872070
12478.635957	3952.219167	1295.708008	1245.528564
12478.635957	3952.219167	1294.607422	992.456604
12478.635957	3952.219167	1293.506836	786.560730
12478.635957	3952.219167	1292.405273	675.601807
12478.635957	3952.219167	1291.303711	798.778809
12478.635957	3952.219167	1290.202148	758.881165
12478.635957	3952.219167	1289.099609	466.261810
12478.635957	3952.219167	1287.998047	506.145660
12478.635957	3952.219167	1286.895508	471.158142
12478.635957	3952.219167	1285.792969	372.056366
12478.635957	3952.219167	1284.689453	174.468994
12478.635957	3952.219167	1283.586914	269.956085
12478.635957	3952.219167	1282.483398	465.522736
12478.635957	3952.219167	1281.379883	400.251831
12478.635957	3952.219167	1280.276367	182.588898
12478.635957	3952.219167	1279.171875	344.545807
12478.635957	3952.219167	1278.067383	196.593781
12478.635957	3952.219167	1276.962891	76.694031
12478.635957	3952.219167	1275.858398	72.303787
12478.635957	3952.219167	1274.753906	24.976030
12478.635957	3952.219167	1273.648438	62.258129
12478.635957	3952.219167	1272.542969	140.320099
12478.635957	3952.219167	1271.437500	-117.589798
12478.635957	3952.219167	1270.331055	-155.459137
12478.635957	3952.219167	1269.225586	-78.726158
12478.635957	3952.219167	1268.119141	-126.129814
12478.635957	3952.219167	1267.012695	-8.342287
12478.635957	3952.219167	1265.906250	122.724487
12478.635957	3952.219167	1264.798828	-90.957733
12478.635957	3952.219167	1263.691406	135.614410
12478.635957	3952.219167	1262.583984	-170.105804
12478.635957	3952.219167	1261.476563	-171.579117
12478.635957	3952.219167	1260.368164	43.152767
12478.635957	3952.219167	1259.260742	20.552706
12478.635957	3952.219167	1258.152344	-3.695221
12478.635957	3952.219167	1257.043945	-7.609543
12478.635957	3952.219167	1255.934570	75.774124
12478.635957	3952.219167	1254.825195	128.202744
12478.635957	3952.219167	1253.716797	31.487549
12478.635957	3952.219167	1252.606445	-21.138496
12478.635957	3952.219167	1251.497070	162.173965
12478.635957	3952.219167	1250.387695	45.352291
12478.635957	3952.219167	1249.277344	3.622875
12478.635957	3952.219167	1248.166992	136.685501
12478.635957	3952.219167	1247.055664	-2.497061
12478.635957	3952.219167	1245.945313	-115.662399
12478.635957	3952.219167	1244.833984	-14.455367
12478.635957	3952.219167	1243.722656	-32.875572
12478.635957	3952.219167	1242.611328	-121.604515
12478.635957	3952.219167	1241.499023	5.053191
12478.635957	3952.219167	1240.387695	6.900582
12478.635957	3952.219167	1239.275391	-55.214634
12478.635957	3952.219167	1238.162109	-137.206284
12478.635957	3952.219167	1237.049805	45.915962
12478.635957	3952.219167	1235.936523	-197.482422
12478.635957	3952.219167	1234.823242	-9.284130
12478.635957	3952.219167	1233.709961	-31.891373
12478.635957	3952.219167	1232.596680	-67.370407
12478.635957	3952.219167	1231.482422	-169.685745
12478.635957	3952.219167	1230.369141	-104.653984
12478.635957	3952.219167	1229.253906	-56.815411
12478.635957	3952.219167	1228.139648	16.274878
12478.635957	3952.219167	1227.025391	139.880890
12478.635957	3952.219167	1225.910156	122.071411
12478.635957	3952.219167	1224.794922	-50.712227
12478.635957	3952.219167	1223.679688	13.512568
12478.635957	3952.219167	1222.563477	218.406387
12478.635957	3952.219167	1221.447266	239.715240
12478.635957	3952.219167	1220.331055	231.349472
12478.635957	3952.219167	1219.214844	288.094391
12478.635957	3952.219167	1218.098633	282.848633
12478.635957	3952.219167	1216.981445	189.251343
12478.635957	3952.219167	1215.864258	75.200874
12478.635957	3952.219167	1214.747070	281.781372
12478.635957	3952.219167	1213.629883	228.883713
12478.635957	3952.219167	1212.511719	205.629440
12478.635957	3952.219167	1211.393555	213.223541
12478.635957	3952.219167	1210.275391	123.064697
12478.635957	3952.219167	1209.157227	356.783997
12478.635957	3952.219167	1208.038086	255.924820
12478.635957	3952.219167	1206.918945	221.739136
12478.635957	3952.219167	1205.799805	130.397110
12478.635957	3952.219167	1204.680664	-67.192833
12478.635957	3952.219167	1203.560547	-128.508789
12478.635957	3952.219167	1202.441406	174.402313
12478.635957	3952.219167	1201.321289	202.980469
12478.635957	3952.219167	1200.200195	238.632126
12478.635957	3952.219167	1199.080078	338.976501
12478.635957	3952.219167	1197.958984	256.525787
12478.635957	3952.219167	1196.837891	316.580933
12478.635957	3952.219167	1195.716797	464.224304
12478.635957	3952.219167	1194.594727	388.958069
12478.635957	3952.219167	1193.473633	141.755325
12478.635957	3952.219167	1192.351563	239.973648
12478.635957	3952.219167	1191.229492	370.849762
12478.635957	3952.219167	1190.106445	363.282288
12478.635957	3952.219167	1188.984375	448.402740
12478.635957	3952.219167	1187.861328	478.043121
12478.635957	3952.219167	1186.738281	568.756714
12478.635957	3952.219167	1185.614258	612.145142
12478.635957	3952.219167	1184.491211	635.148865
12478.635957	3952.219167	1183.367188	814.955017
12478.635957	3952.219167	1182.243164	917.640625
12478.635957	3952.219167	1181.119141	766.317322
12478.635957	3952.219167	1179.994141	826.252625
12478.635957	3952.219167	1178.869141	855.662292
12478.635957	3952.219167	1177.744141	689.210815
12478.635957	3952.219167	1176.619141	644.953308
12478.635957	3952.219167	1175.493164	1073.061401
12478.635957	3952.219167	1174.368164	910.068298
12478.635957	3952.219167	1173.242188	985.957275
12478.635957	3952.219167	1172.115234	770.847839
12478.635957	3952.219167	1170.989258	1144.541016
12478.635957	3952.219167	1169.862305	1000.053223
12478.635957	3952.219167	1168.735352	1174.325195
12478.635957	3952.219167	1167.608398	1282.088013
12478.635957	3952.219167	1166.481445	1010.357849
12478.635957	3952.219167	1165.353516	1216.712158
12478.635957	3952.219167	1164.225586	1179.076538
12478.635957	3952.219167	1163.097656	1343.855713
12478.635957	3952.219167	1161.968750	1358.500244
12478.635957	3952.219167	1160.840820	1375.296753
12478.635957	3952.219167	1159.711914	1932.891113
12478.635957	3952.219167	1158.583008	1564.541626
12478.635957	3952.219167	1157.453125	1806.559448
12478.635957	3952.219167	1156.324219	1960.872803
12478.635957	3952.219167	1155.194336	1724.437500
12478.635957	3952.219167	1154.064453	1711.715210
12478.635957	3952.219167	1152.933594	1276.260986
12478.635957	3952.219167	1151.803711	1180.581909
12478.635957	3952.219167	1150.672852	1075.230835
12478.635957	3952.219167	1149.541992	847.019348
12478.635957	3952.219167	1148.411133	951.952209
12478.635957	3952.219167	1147.279297	746.968933
12478.635957	3952.219167	1146.147461	635.688110
12478.635957	3952.219167	1145.015625	710.907288
12478.635957	3952.219167	1143.883789	649.055115
12478.635957	3952.219167	1142.750977	748.246765
12478.635957	3952.219167	1141.619141	806.510254
12478.635957	3952.219167	1140.486328	480.061340
12478.635957	3952.219167	1139.352539	567.945557
12478.635957	3952.219167	1138.219727	445.711060
12478.635957	3952.219167	1137.085938	535.807434
12478.635957	3952.219167	1135.952148	243.080658
12478.635957	3952.219167	1134.818359	269.933990
12478.635957	3952.219167	1133.683594	378.284729
12478.635957	3952.219167	1132.549805	503.096039
12478.635957	3952.219167	1131.415039	496.308990
12478.635957	3952.219167	1130.279297	739.736755
12478.635957	3952.219167	1129.144531	827.962280
12478.635957	3952.219167	1128.008789	951.138916
12478.635957	3952.219167	1126.873047	745.554932
12478.635957	3952.219167	1125.737305	758.369507
12478.635957	3952.219167	1124.601563	697.618958
12478.635957	3952.219167	1123.464844	809.026489
12478.635957	3952.219167	1122.328125	852.687378
12478.635957	3952.219167	1121.191406	640.862610
12478.635957	3952.219167	1120.054688	562.332581
12478.635957	3952.219167	1118.916992	649.009644
12478.635957	3952.219167	1117.779297	743.095093
12478.635957	3952.219167	1116.641602	794.019775
12478.635957	3952.219167	1115.503906	377.738068
12478.635957	3952.219167	1114.365234	391.523315
12478.635957	3952.219167	1113.226563	339.866241
12478.635957	3952.219167	1112.087891	203.551392
12478.635957	3952.219167	1110.949219	195.490234
12478.635957	3952.219167	1109.809570	294.871735
12478.635957	3952.219167	1108.669922	307.028961
12478.635957	3952.219167	1107.530273	369.642975
12478.635957	3952.219167	1106.390625	467.039398
12478.635957	3952.219167	1105.250000	190.330627
12478.635957	3952.219167	1104.109375	66.299492
12478.635957	3952.219167	1102.968750	325.187653
12478.635957	3952.219167	1101.828125	279.352051
12478.635957	3952.219167	1100.686523	401.312958
12478.635957	3952.219167	1099.544922	611.410278
12478.635957	3952.219167	1098.403320	447.301849
12478.635957	3952.219167	1097.261719	478.924744
12478.635957	3952.219167	1096.120117	235.866425
12478.635957	3952.219167	1094.977539	404.328339
12478.635957	3952.219167	1093.834961	435.447998
12478.635957	3952.219167	1092.691406	576.348450
12478.635957	3952.219167	1091.548828	430.577332
12478.635957	3952.219167	1090.405273	314.254181
12478.635957	3952.219167	1089.261719	211.155640
12478.635957	3952.219167	1088.118164	405.851776
12478.635957	3952.219167	1086.973633	284.994537
12478.635957	3952.219167	1085.829102	401.812134
12478.635957	3952.219167	1084.684570	292.003601
12478.635957	3952.219167	1083.540039	349.277740
12478.635957	3952.219167	1082.395508	266.087524
12478.635957	3952.219167	1081.250000	370.592163
12478.635957	3952.219167	1080.104492	73.605591
12478.635957	3952.219167	1078.958984	116.321030
12478.635957	3952.219167	1077.812500	62.191387
12478.635957	3952.219167	1076.666016	106.972351
12478.635957	3952.219167	1075.519531	196.822083
12478.635957	3952.219167	1074.373047	442.009094
12478.635957	3952.219167	1073.226563	338.363464
12478.635957	3952.219167	1072.079102	317.006561
12478.635957	3952.219167	1070.931641	311.945709
12478.635957	3952.219167	1069.784180	281.484680
12478.635957	3952.219167	1068.635742	94.901741
12478.635957	3952.219167	1067.487305	236.161697
12478.635957	3952.219167	1066.338867	329.490234
12478.635957	3952.219167	1065.190430	527.947998
12478.635957	3952.219167	1064.041992	430.958954
12478.635957	3952.219167	1062.892578	726.330261
12478.635957	3952.219167	1061.743164	705.671814
12478.635957	3952.219167	1060.593750	383.187012
12478.635957	3952.219167	1059.443359	424.186523
12478.635957	3952.219167	1058.292969	164.446793
12478.635957	3952.219167	1057.142578	101.978775
12478.635957	3952.219167	1055.992188	22.597210
12478.635957	3952.219167	1054.841797	112.672493
12478.635957	3952.219167	1053.690430	88.670128
12478.635957	3952.219167	1052.539063	-23.867188
12478.635957	3952.219167	1051.387695	-4.461566
12478.635957	3952.219167	1050.235352	77.391258
12478.635957	3952.219167	1049.083984	-189.665878
12478.635957	3952.219167	1047.931641	-23.939346
12478.635957	3952.219167	1046.778320	201.973282
12478.635957	3952.219167	1045.625977	-337.385010
12478.635957	3952.219167	1044.472656	-35.807545
12478.635957	3952.219167	1043.319336	129.951599
12478.635957	3952.219167	1042.166016	155.786469
12478.635957	3952.219167	1041.012695	10.210232
12478.635957	3952.219167	1039.858398	134.591553
12478.635957	3952.219167	1038.704102	268.874146
12478.635957	3952.219167	1037.549805	20.964775
12478.635957	3952.219167	1036.394531	267.946686
12478.635957	3952.219167	1035.239258	320.680939
12478.635957	3952.219167	1034.083984	366.949371
12478.635957	3952.219167	1032.928711	285.901062
12478.635957	3952.219167	1031.773438	202.641098
12478.635957	3952.219167	1030.617188	353.982758
12478.635957	3952.219167	1029.460938	-11.111721
12478.635957	3952.219167	1028.304688	77.889618
12478.635957	3952.219167	1027.147461	85.132736
12478.635957	3952.219167	1025.991211	63.748600
12478.635957	3952.219167	1024.833984	98.269577
12478.635957	3952.219167	1023.675781	287.361145
12478.635957	3952.219167	1022.518555	-68.982758
12478.635957	3952.219167	1021.360352	58.514786
12478.635957	3952.219167	1020.202148	84.346329
12478.635957	3952.219167	1019.043945	188.138641
12478.635957	3952.219167	1017.884766	-44.661228
12478.635957	3952.219167	1016.726563	229.911469
12478.635957	3952.219167	1015.567383	189.357315
12478.635957	3952.219167	1014.407227	171.960083
12478.635957	3952.219167	1013.248047	9.212530
12478.635957	3952.219167	1012.087891	8.710383
12478.635957	3952.219167	1010.927734	-391.081207
12478.635957	3952.219167	1009.767578	-43.878101
12478.635957	3952.219167	1008.606445	-34.177315
12478.635957	3952.219167	1007.446289	-155.020218
12478.635957	3952.219167	1006.285156	120.531792
12478.635957	3952.219167	1005.123047	-19.295992
12478.635957	3952.219167	1003.961914	35.435158
12478.635957	3952.219167	1002.799805	86.238518
12478.635957	3952.219167	1001.637695	-57.652328
12478.635957	3952.219167	1000.475586	247.898422
12478.635957	3952.219167	999.312500	243.971252
12478.635957	3952.219167	998.149414	491.866486
12478.635957	3952.219167	996.986328	44.135975
12478.635957	3952.219167	995.823242	61.562012
12478.635957	3952.219167	994.659180	-44.986122
12478.635957	3952.219167	993.496094	-86.579735
12478.635957	3952.219167	992.332031	112.993179
12478.635957	3952.219167	991.166992	-85.631752
12478.635957	3952.219167	990.002930	63.214935
12478.635957	3952.219167	988.837891	-118.954437
12478.635957	3952.219167	987.672852	-137.156082
12478.635957	3952.219167	986.506836	29.487570
12478.635957	3952.219167	985.341797	38.225765
12478.635957	3952.219167	984.175781	-90.752037
12478.635957	3952.219167	983.009766	18.448462
12478.635957	3952.219167	981.843750	17.402683
12478.635957	3952.219167	980.676758	94.477112
12478.635957	3952.219167	979.509766	122.124901
12478.635957	3952.219167	978.342773	3.408798
12478.635957	3952.219167	977.175781	51.890568
12478.635957	3952.219167	976.007813	-63.517647
12478.635957	3952.219167	974.839844	-36.006901
12478.635957	3952.219167	973.671875	-222.295670
12478.635957	3952.219167	972.503906	-320.550659
12478.635957	3952.219167	971.334961	-310.459625
12478.635957	3952.219167	970.166016	-138.411499
12478.635957	3952.219167	968.997070	-38.458736
12478.635957	3952.219167	967.828125	-40.943817
12478.635957	3952.219167	966.658203	-89.206039
12478.635957	3952.219167	965.488281	-213.999344
12478.635957	3952.219167	964.318359	-109.356613
12478.635957	3952.219167	963.148438	136.826965
12478.635957	3952.219167	961.977539	-36.843777
12478.635957	3952.219167	960.806641	-23.954559
12478.635957	3952.219167	959.635742	1.605312
12478.635957	3952.219167	958.463867	328.802826
12478.635957	3952.219167	957.292969	41.533096
12478.635957	3952.219167	956.121094	381.494385
12478.635957	3952.219167	954.948242	195.027679
12478.635957	3952.219167	953.776367	82.271637
12478.635957	3952.219167	952.603516	34.511086
12478.635957	3952.219167	951.430664	-175.287476
12478.635957	3952.219167	950.257813	86.274773
12478.635957	3952.219167	949.084961	211.320236
12478.635957	3952.219167	947.911133	-182.665924
12478.635957	3952.219167	946.737305	-141.422119
12478.635957	3952.219167	945.563477	-44.133511
12478.635957	3952.219167	944.388672	-8.584620
12478.635957	3952.219167	943.213867	-34.212921
12478.635957	3952.219167	942.039063	-21.021946
12478.635957	3952.219167	940.864258	349.263092
12478.635957	3952.219167	939.688477	128.055771
12478.635957	3952.219167	938.513672	94.076881
12478.635957	3952.219167	937.337891	-51.672012
12478.635957	3952.219167	936.161133	410.142365
12478.635957	3952.219167	934.985352	425.967560
12478.635957	3952.219167	933.808594	422.485626
12478.635957	3952.219167	932.631836	388.037689
12478.635957	3952.219167	931.454102	467.877930
12478.635957	3952.219167	930.277344	522.553772
12478.635957	3952.219167	929.099609	485.305542
12478.635957	3952.219167	927.921875	442.483337
12478.635957	3952.219167	926.743164	466.413483
12478.635957	3952.219167	925.565430	345.541992
12478.635957	3952.219167	924.386719	650.740845
12478.635957	3952.219167	923.208008	245.854401
12478.635957	3952.219167	922.028320	383.900208
12478.635957	3952.219167	920.849609	360.466064
12478.635957	3952.219167	919.669922	362.450195
12478.635957	3952.219167	919.474609	315.092499
12478.635957	3952.219167	918.309570	330.565735
12478.635957	3952.219167	917.143555	493.423248
12478.635957	3952.219167	915.977539	383.689087
12478.635957	3952.219167	914.810547	332.367981
12478.635957	3952.219167	913.644531	192.105484
12478.635957	3952.219167	912.477539	257.534821
12478.635957	3952.219167	911.310547	378.494507
12478.635957	3952.219167	910.143555	416.057037
12478.635957	3952.219167	908.975586	39.777874
12478.635957	3952.219167	907.807617	491.112701
12478.635957	3952.219167	906.639648	109.402542
12478.635957	3952.219167	905.471680	271.862427
12478.635957	3952.219167	904.303711	631.278687
12478.635957	3952.219167	903.134766	357.964539
12478.635957	3952.219167	901.965820	290.028961
12478.635957	3952.219167	900.796875	147.238724
12478.635957	3952.219167	899.626953	43.325943
12478.635957	3952.219167	898.457031	103.018745
12478.635957	3952.219167	897.287109	251.380737
12478.635957	3952.219167	896.117188	114.263588
12478.635957	3952.219167	894.947266	112.961365
12478.635957	3952.219167	893.776367	131.055740
12478.635957	3952.219167	892.605469	401.164429
12478.635957	3952.219167	891.434570	131.247498
12478.635957	3952.219167	890.262695	464.933441
12478.635957	3952.219167	889.091797	286.464417
12478.635957	3952.219167	887.919922	13.998752
12478.635957	3952.219167	886.748047	289.435364
12478.635957	3952.219167	885.575195	365.621521
12478.635957	3952.219167	884.403320	383.714264
12478.635957	3952.219167	883.230469	177.860260
12478.635957	3952.219167	882.057617	74.384094
12478.635957	3952.219167	880.883789	421.459229
12478.635957	3952.219167	879.710938	157.744431
12478.635957	3952.219167	878.537109	314.074951
12478.635957	3952.219167	877.362305	36.719353
12478.635957	3952.219167	876.188477	126.773743
12478.635957	3952.219167	875.013672	230.618347
12478.635957	3952.219167	873.839844	367.564087
12478.635957	3952.219167	872.664063	703.184326
12478.635957	3952.219167	871.489258	381.992340
12478.635957	3952.219167	870.313477	783.726746
12478.635957	3952.219167	869.138672	473.731445
12478.635957	3952.219167	867.962891	671.275513
12478.635957	3952.219167	866.786133	441.436829
12478.635957	3952.219167	865.610352	492.870697
12478.635957	3952.219167	864.433594	384.474091
12478.635957	3952.219167	863.256836	386.362091
12478.635957	3952.219167	862.079102	234.015854
12478.635957	3952.219167	860.902344	415.012207
12478.635957	3952.219167	859.724609	458.287354
12478.635957	3952.219167	858.546875	515.340942
12478.635957	3952.219167	857.368164	822.877869
12478.635957	3952.219167	856.190430	189.173767
12478.635957	3952.219167	855.011719	295.871155
12478.635957	3952.219167	853.833008	498.833710
12478.635957	3952.219167	852.654297	481.731903
12478.635957	3952.219167	851.474609	547.163147
12478.635957	3952.219167	850.294922	769.298706
12478.635957	3952.219167	849.115234	672.552979
12478.635957	3952.219167	847.935547	990.822021
12478.635957	3952.219167	846.754883	1254.050903
12478.635957	3952.219167	845.575195	1165.615356
12478.635957	3952.219167	844.393555	1167.884155
12478.635957	3952.219167	843.212891	1249.811523
12478.635957	3952.219167	842.032227	1337.235107
12478.635957	3952.219167	840.850586	1452.107910
12478.635957	3952.219167	839.668945	1295.317383
12478.635957	3952.219167	838.486328	1607.758179
12478.635957	3952.219167	837.304688	1665.021851
12478.635957	3952.219167	836.122070	1719.562378
12478.635957	3952.219167	834.939453	1743.961060
12478.635957	3952.219167	833.756836	1825.954590
12478.635957	3952.219167	832.573242	1861.366211
12478.635957	3952.219167	831.389648	1729.662109
12478.635957	3952.219167	830.206055	1943.227173
12478.635957	3952.219167	829.022461	1677.436523
12478.635957	3952.219167	827.838867	1685.628052
12478.635957	3952.219167	826.654297	1622.679810
12478.635957	3952.219167	825.469727	1685.710083
12478.635957	3952.219167	824.284180	1617.399414
12478.635957	3952.219167	823.099609	1464.337891
12478.635957	3952.219167	821.914063	1686.146484
12478.635957	3952.219167	820.728516	1680.906250
12478.635957	3952.219167	819.542969	1415.941162
12478.635957	3952.219167	818.356445	1468.254395
12478.635957	3952.219167	817.169922	1195.327148
12478.635957	3952.219167	815.983398	1111.110352
12478.635957	3952.219167	814.796875	824.791382
12478.635957	3952.219167	813.609375	1071.290283
12478.635957	3952.219167	812.422852	692.323914
12478.635957	3952.219167	811.235352	600.254089
12478.635957	3952.219167	810.046875	693.897095
12478.635957	3952.219167	808.859375	228.029114
12478.635957	3952.219167	807.670898	327.246399
12478.635957	3952.219167	806.482422	355.529633
12478.635957	3952.219167	805.293945	449.302307
12478.635957	3952.219167	804.104492	518.535278
12478.635957	3952.219167	802.915039	544.153381
12478.635957	3952.219167	801.725586	433.501923
12478.635957	3952.219167	800.536133	377.441742
12478.635957	3952.219167	799.345703	610.272827
12478.635957	3952.219167	798.155273	249.160095
12478.635957	3952.219167	796.964844	326.744598
12478.635957	3952.219167	795.774414	47.604839
12478.635957	3952.219167	794.583008	-10.855604
12478.635957	3952.219167	793.392578	-55.650654
12478.635957	3952.219167	792.200195	149.983276
12478.635957	3952.219167	791.008789	-240.304626
12478.635957	3952.219167	789.816406	52.396843
12478.635957	3952.219167	788.625000	-277.812256
12478.635957	3952.219167	787.432617	17.557463
12478.635957	3952.219167	786.239258	5.637160
12478.635957	3952.219167	785.046875	-163.898148
12478.635957	3952.219167	783.853516	-115.933990
12478.635957	3952.219167	782.660156	-173.920425
12478.635957	3952.219167	781.465820	-96.035919
12478.635957	3952.219167	780.272461	104.049522
12478.635957	3952.219167	779.078125	-81.479225
12478.635957	3952.219167	777.883789	-275.050903
12478.635957	3952.219167	776.688477	44.446983
12478.635957	3952.219167	775.494141	-86.613785
12478.635957	3952.219167	774.298828	80.831589
12478.635957	3952.219167	773.103516	229.240906
12478.635957	3952.219167	771.907227	282.697357
12478.635957	3952.219167	770.711914	138.223862
12478.635957	3952.219167	769.515625	26.359863
12478.635957	3952.219167	768.318359	-25.812696
12478.635957	3952.219167	767.122070	79.201607
12478.635957	3952.219167	765.924805	-10.857580
12478.635957	3952.219167	764.727539	48.098160
12478.635957	3952.219167	763.530273	-47.309315
12478.635957	3952.219167	762.333008	11.652195
12478.635957	3952.219167	761.134766	70.601913
12478.635957	3952.219167	759.936523	151.185730
12478.635957	3952.219167	758.738281	364.318420
12478.635957	3952.219167	757.540039	463.754547
12478.635957	3952.219167	756.340820	568.567383
12478.635957	3952.219167	755.141602	700.379211
12478.635957	3952.219167	753.942383	434.739594
12478.635957	3952.219167	752.742188	255.706024
12478.635957	3952.219167	751.541992	111.875427
12478.635957	3952.219167	750.341797	41.048161
12478.635957	3952.219167	749.141602	26.969883
12478.635957	3952.219167	747.941406	196.529785
12478.635957	3952.219167	746.740234	-28.183441
12478.635957	3952.219167	745.539063	-158.330765
12478.635957	3952.219167	744.337891	-126.500572
12478.635957	3952.219167	743.135742	-24.534924
12478.635957	3952.219167	741.933594	39.606350
12478.635957	3952.219167	740.731445	109.101402
12478.635957	3952.219167	739.529297	11.360786
12478.635957	3952.219167	738.326172	16.098013
12478.635957	3952.219167	737.124023	-30.404804
12478.635957	3952.219167	735.919922	30.896311
12478.635957	3952.219167	734.716797	73.285225
12478.635957	3952.219167	733.513672	-37.914272
12478.635957	3952.219167	732.309570	354.547302
12478.635957	3952.219167	731.105469	361.764771
12478.635957	3952.219167	729.900391	455.100830
12478.635957	3952.219167	728.696289	187.695221
12478.635957	3952.219167	727.491211	576.975098
12478.635957	3952.219167	726.286133	414.519714
12478.635957	3952.219167	725.080078	547.986511
12478.635957	3952.219167	723.874023	713.630615
12478.635957	3952.219167	722.668945	290.327271
12478.635957	3952.219167	721.461914	611.793213
12478.635957	3952.219167	720.255859	322.988953
12478.635957	3952.219167	719.048828	469.567657
12478.635957	3952.219167	717.841797	446.789368
12478.635957	3952.219167	716.634766	394.426819
12478.635957	3952.219167	715.427734	492.416595
12478.635957	3952.219167	714.219727	405.064240
12478.635957	3952.219167	713.011719	470.697296
12478.635957	3952.219167	711.803711	667.747559
12478.635957	3952.219167	710.594727	432.678589
12478.635957	3952.219167	709.385742	342.507477
12478.635957	3952.219167	708.176758	126.257782
12478.635957	3952.219167	706.967773	384.649414
12478.635957	3952.219167	705.758789	356.014496
12478.635957	3952.219167	704.548828	522.990112
12478.635957	3952.219167	703.338867	143.160004
12478.635957	3952.219167	702.127930	481.441437
12478.635957	3952.219167	700.917969	401.639954
12478.635957	3952.219167	699.707031	254.850479
12478.635957	3952.219167	698.496094	391.859222
12478.635957	3952.219167	697.285156	678.640869
12478.635957	3952.219167	696.073242	376.422882
12478.635957	3952.219167	694.861328	403.374451
12478.635957	3952.219167	693.649414	622.848206
12478.635957	3952.219167	692.436523	673.640747
12478.635957	3952.219167	691.224609	657.469788
12478.635957	3952.219167	690.011719	828.366760
12478.635957	3952.219167	688.798828	897.525635
12478.635957	3952.219167	687.584961	744.753418
12478.635957	3952.219167	686.372070	1096.931519
12478.635957	3952.219167	685.158203	984.057556
12478.635957	3952.219167	683.943359	1464.040771
12478.635957	3952.219167	682.729492	1369.629150
12478.635957	3952.219167	681.514648	1120.318115
12478.635957	3952.219167	680.299805	1311.401611
12478.635957	3952.219167	679.084961	1262.134766
12478.635957	3952.219167	677.869141	1362.185547
12478.635957	3952.219167	676.653320	1390.064941
12478.635957	3952.219167	675.437500	1271.145264
12478.635957	3952.219167	674.221680	1090.838989
12478.635957	3952.219167	673.004883	1395.650513
12478.635957	3952.219167	671.789063	1308.439941
12478.635957	3952.219167	670.571289	1314.410156
12478.635957	3952.219167	669.354492	1285.624390
12478.635957	3952.219167	668.136719	1379.246094
12478.635957	3952.219167	666.919922	1291.628418
12478.635957	3952.219167	665.701172	1669.829590
12478.635957	3952.219167	664.483398	1736.316650
12478.635957	3952.219167	663.264648	2007.558716
12478.635957	3952.219167	662.045898	2281.216797
12478.635957	3952.219167	660.827148	1945.470215
12478.635957	3952.219167	659.608398	1947.489136
12478.635957	3952.219167	658.388672	1922.781982
12478.635957	3952.219167	657.168945	1754.395020
12478.635957	3952.219167	655.949219	1857.039551
12478.635957	3952.219167	654.728516	1749.575317
12478.635957	3952.219167	653.507813	1886.431763
12478.635957	3952.219167	652.287109	2017.775391
12478.635957	3952.219167	651.066406	2034.729004
12478.635957	3952.219167	649.844727	2032.943726
12478.635957	3952.219167	648.623047	2033.665161
12478.635957	3952.219167	647.401367	1864.389038
12478.635957	3952.219167	646.179688	1955.060425
12478.635957	3952.219167	644.957031	1703.334229
12478.635957	3952.219167	643.734375	1634.564697
12478.635957	3952.219167	642.511719	1329.672729
12478.635957	3952.219167	641.289063	1403.861328
12478.635957	3952.219167	640.065430	1438.102295
12478.635957	3952.219167	638.841797	1390.023071
12478.635957	3952.219167	637.618164	1408.041748
12478.635957	3952.219167	636.393555	1462.974365
12478.635957	3952.219167	635.168945	1589.226440
12478.635957	3952.219167	633.944336	1310.162354
12478.635957	3952.219167	632.719727	1211.061401
12478.635957	3952.219167	631.494141	1405.608765
12478.635957	3952.219167	630.269531	1679.295166
12478.635957	3952.219167	629.042969	1447.406372
12478.635957	3952.219167	627.817383	1360.923950
12478.635957	3952.219167	626.590820	1329.841064
12478.635957	3952.219167	625.365234	1436.084473
12478.635957	3952.219167	624.137695	1187.913208
12478.635957	3952.219167	622.911133	1201.308228
12478.635957	3952.219167	621.683594	1225.093384
12478.635957	3952.219167	620.456055	1140.394531
12478.635957	3952.219167	619.228516	1169.124634
12478.635957	3952.219167	618.000977	1105.256836
12478.635957	3952.219167	616.772461	1020.121643
12478.635957	3952.219167	615.543945	1175.030396
12478.635957	3952.219167	614.314453	1379.832153
12478.635957	3952.219167	613.085938	1178.097900
12478.635957	3952.219167	611.856445	1147.718994
12478.635957	3952.219167	610.626953	1256.945923
12478.635957	3952.219167	609.397461	1104.938965
12478.635957	3952.219167	608.166992	1424.654907
12478.635957	3952.219167	606.936523	919.183716
12478.635957	3952.219167	605.706055	1138.334229
12478.635957	3952.219167	604.474609	830.359009
12478.635957	3952.219167	603.244141	988.516296
12478.635957	3952.219167	602.012695	888.380127
12478.635957	3952.219167	600.780273	914.472107
12478.635957	3952.219167	599.548828	914.068115
12478.635957	3952.219167	598.316406	1110.848022
12478.635957	3952.219167	597.083984	1265.279175
12478.635957	3952.219167	595.851563	1301.107544
12478.635957	3952.219167	594.618164	918.608337
12478.635957	3952.219167	593.384766	820.059143
12478.635957	3952.219167	592.151367	1149.859253
12478.635957	3952.219167	590.917969	1043.083740
12478.635957	3952.219167	589.683594	867.863037
12478.635957	3952.219167	588.449219	944.743164
12478.635957	3952.219167	587.214844	855.959534
12478.635957	3952.219167	585.979492	872.077942
12478.635957	3952.219167	584.745117	759.392761
12478.635957	3952.219167	583.509766	990.430176
12478.635957	3952.219167	582.273438	769.838501
12478.635957	3952.219167	581.038086	732.842712
12478.635957	3952.219167	579.801758	950.136353
12478.635957	3952.219167	578.565430	577.112549
12478.635957	3952.219167	577.329102	731.106812
12478.635957	3952.219167	576.091797	735.453064
12478.635957	3952.219167	574.854492	967.658264
12478.635957	3952.219167	573.617188	1147.207520
12478.635957	3952.219167	572.378906	1054.071289
12478.635957	3952.219167	571.141602	960.834290
12478.635957	3952.219167	569.903320	935.566772
12478.635957	3952.219167	568.664063	1082.948975
12478.635957	3952.219167	567.425781	808.717834
12478.635957	3952.219167	566.186523	968.865845
12478.635957	3952.219167	564.947266	749.432678
12478.635957	3952.219167	563.708008	883.092407
12478.635957	3952.219167	562.467773	993.013245
12478.635957	3952.219167	561.227539	1128.903442
12478.635957	3952.219167	559.987305	869.870728
12478.635957	3952.219167	558.747070	916.609985
12478.635957	3952.219167	557.505859	863.899780
12478.635957	3952.219167	556.264648	813.701782
12478.635957	3952.219167	555.023438	797.361267
12478.635957	3952.219167	553.781250	645.108948
12478.635957	3952.219167	552.539063	704.281921
12478.635957	3952.219167	551.296875	682.399597
12478.635957	3952.219167	550.054688	756.975525
12478.635957	3952.219167	548.811523	930.548828
12478.635957	3952.219167	547.569336	404.863434
12478.635957	3952.219167	546.325195	706.015198
12478.635957	3952.219167	545.082031	550.648682
12478.635957	3952.219167	543.837891	483.878143
12478.635957	3952.219167	542.593750	591.667847
12478.635957	3952.219167	541.349609	756.649780
12478.635957	3952.219167	540.105469	744.322510
12478.635957	3952.219167	538.860352	554.791260
12478.635957	3952.219167	537.615234	646.504211
12478.635957	3952.219167	536.369141	636.554016
12478.635957	3952.219167	535.124023	392.280182
12478.635957	3952.219167	533.877930	377.043427
12478.635957	3952.219167	532.631836	431.998260
12478.635957	3952.219167	531.384766	291.759857
12478.635957	3952.219167	530.138672	572.854736
12478.635957	3952.219167	528.891602	559.943359
12478.635957	3952.219167	527.643555	588.569336
12478.635957	3952.219167	526.396484	494.992859
12478.635957	3952.219167	525.148438	118.163399
12478.635957	3952.219167	523.900391	354.572876
12478.635957	3952.219167	522.652344	68.770042
12478.635957	3952.219167	521.403320	102.458076
12478.635957	3952.219167	520.154297	-165.065262
12478.635957	3952.219167	518.905273	122.988152
12478.635957	3952.219167	517.656250	19.027548
12478.635957	3952.219167	516.406250	-69.348358
12478.635957	3952.219167	515.156250	55.014820
12478.635957	3952.219167	513.906250	-28.163084
12478.635957	3952.219167	512.655273	-7.602633
12478.635957	3952.219167	511.404297	-38.898407
12478.635957	3952.219167	510.153320	116.435097
12478.635957	3952.219167	508.902344	201.746689
12478.635957	3952.219167	507.650391	209.300247
12478.635957	3952.219167	506.398438	53.688690
12478.635957	3952.219167	505.146484	102.742279
12478.635957	3952.219167	503.893555	281.239624
12478.635957	3952.219167	502.641602	164.615234
12478.635957	3952.219167	501.388672	229.216202
12478.635957	3952.219167	500.134766	-58.066578
12478.635957	3952.219167	498.881836	262.727509
12478.635957	3952.219167	497.627930	-47.628441
12478.635957	3952.219167	496.374023	-65.618004
12478.635957	3952.219167	495.119141	-367.923309
12478.635957	3952.219167	493.865234	17.469538
12478.635957	3952.219167	492.610352	-18.449335
12478.635957	3952.219167	491.355469	-98.207726
12478.635957	3952.219167	490.099609	-149.460342
12478.635957	3952.219167	488.843750	-167.048676
12478.635957	3952.219167	487.587891	-200.042206
12478.635957	3952.219167	486.332031	43.251221
12478.635957	3952.219167	485.075195	111.027519
12478.635957	3952.219167	483.818359	-107.533760
12478.635957	3952.219167	482.561523	66.187103
12478.635957	3952.219167	481.304688	-234.612152
12478.635957	3952.219167	480.046875	369.847473
12478.635957	3952.219167	478.789063	265.223419
12478.635957	3952.219167	477.531250	201.986679
12478.635957	3952.219167	476.272461	383.670135
12478.635957	3952.219167	475.013672	444.303741
12478.635957	3952.219167	473.754883	458.663910
12478.635957	3952.219167	472.496094	68.837334
12478.635957	3952.219167	471.236328	284.315887
12478.635957	3952.219167	469.976563	394.288910
12478.635957	3952.219167	468.716797	205.816437
12478.635957	3952.219167	467.456055	79.293587
12478.635957	3952.219167	466.196289	374.830536
12478.635957	3952.219167	464.935547	192.008026
12478.635957	3952.219167	463.673828	158.520569
12478.635957	3952.219167	462.413086	166.324005
12478.635957	3952.219167	461.151367	-46.779148
12478.635957	3952.219167	459.889648	-48.946243
12478.635957	3952.219167	458.626953	419.150085
12478.635957	3952.219167	457.364258	260.479828
12478.635957	3952.219167	456.101563	289.477386
12478.635957	3952.219167	454.838867	236.450027
12478.635957	3952.219167	453.575195	-57.700016
12478.635957	3952.219167	452.312500	-33.355209
12478.635957	3952.219167	451.047852	106.563354
12478.635957	3952.219167	449.784180	164.489166
12478.635957	3952.219167	448.519531	212.266052
12478.635957	3952.219167	447.254883	-11.622107
12478.635957	3952.219167	445.990234	46.711384
12478.635957	3952.219167	444.725586	-25.548222
12478.635957	3952.219167	443.459961	148.341110
12478.635957	3952.219167	442.194336	194.202560
12478.635957	3952.219167	440.927734	293.959412
12478.635957	3952.219167	439.662109	130.061264
12478.635957	3952.219167	438.395508	38.042816
12478.635957	3952.219167	437.127930	10.173811
12478.635957	3952.219167	435.861328	-171.094894
12478.635957	3952.219167	434.593750	-29.801188
12478.635957	3952.219167	433.326172	108.991295
12478.635957	3952.219167	432.058594	206.916748
12478.635957	3952.219167	430.790039	72.229584
12478.635957	3952.219167	429.521484	454.071747
12478.635957	3952.219167	428.252930	419.263794
12478.635957	3952.219167	426.984375	581.307495
12478.635957	3952.219167	425.714844	462.354370
12478.635957	3952.219167	424.445313	422.704498
12478.635957	3952.219167	423.174805	715.094604
12478.635957	3952.219167	421.905273	596.399963
12478.635957	3952.219167	420.634766	197.041824
12478.635957	3952.219167	419.364258	517.523254
12478.635957	3952.219167	418.092773	251.100571
12478.635957	3952.219167	416.822266	53.693760
12478.635957	3952.219167	415.550781	292.466400
12478.635957	3952.219167	414.278320	186.936935
12478.635957	3952.219167	413.006836	341.457184
12478.635957	3952.219167	411.734375	167.128571
12478.635957	3952.219167	410.461914	-126.910172
12478.635957	3952.219167	409.188477	221.080719
12478.635957	3952.219167	407.916016	385.492767
12478.635957	3952.219167	406.642578	745.824219
12478.635957	3952.219167	405.368164	413.460205
12478.635957	3952.219167	404.094727	277.123627
12478.635957	3952.219167	402.820313	301.035950
12478.635957	3952.219167	401.545898	273.918549
12478.635957	3952.219167	400.270508	116.932701
12478.635957	3952.219167	398.996094	559.996582
12478.635957	3952.219167	397.720703	344.175415
12478.635957	3952.219167	396.444336	486.636353
12478.635957	3952.219167	395.168945	834.657288
12478.635957	3952.219167	393.892578	521.659729
12478.635957	3952.219167	392.616211	645.442505
12478.635957	3952.219167	391.339844	575.853516
12478.635957	3952.219167	390.062500	815.735535
12478.635957	3952.219167	388.785156	598.217651
12478.635957	3952.219167	387.507813	700.209473
12478.635957	3952.219167	386.229492	882.942871
12478.635957	3952.219167	384.951172	443.619019
12478.635957	3952.219167	383.672852	44.605675
12478.635957	3952.219167	382.394531	18.041096
12478.635957	3952.219167	381.115234	328.143982
12478.635957	3952.219167	379.835938	117.942978
12478.635957	3952.219167	378.556641	-153.577164
12478.635957	3952.219167	377.277344	22.848553
12478.635957	3952.219167	375.997070	-105.438354
12478.635957	3952.219167	374.716797	125.252136
12478.635957	3952.219167	373.435547	-93.060226
12478.635957	3952.219167	372.155273	-106.991180
12478.635957	3952.219167	370.874023	40.234196
12478.635957	3952.219167	369.591797	16.995115
12478.635957	3952.219167	368.310547	-83.005798
12478.635957	3952.219167	367.028320	13.358162
12478.635957	3952.219167	365.746094	63.178722
12478.635957	3952.219167	364.463867	357.171722
12478.635957	3952.219167	363.180664	139.372467
12478.635957	3952.219167	361.897461	112.589554
12478.635957	3952.219167	360.614258	216.015152
12478.635957	3952.219167	359.330078	68.074112
12478.635957	3952.219167	358.045898	280.036102
12478.635957	3952.219167	356.761719	243.133850
12478.635957	3952.219167	355.477539	-70.297966
12478.635957	3952.219167	354.192383	245.850632
12478.635957	3952.219167	352.907227	189.436920
12478.635957	3952.219167	351.622070	338.322113
12478.635957	3952.219167	350.336914	308.953735
12478.635957	3952.219167	349.050781	466.971375
12478.635957	3952.219167	347.764648	323.150116
12478.635957	3952.219167	346.477539	117.021759
12478.635957	3952.219167	345.191406	365.196381
12478.635957	3952.219167	343.904297	276.168915
12478.635957	3952.219167	342.616211	200.192017
12478.635957	3952.219167	341.329102	235.463257
12478.635957	3952.219167	340.041016	291.120758
12478.635957	3952.219167	338.752930	100.294197
12478.635957	3952.219167	337.463867	141.164505
12478.635957	3952.219167	336.175781	310.427124
12478.635957	3952.219167	334.886719	222.956055
12478.635957	3952.219167	333.596680	283.725159
12478.635957	3952.219167	332.307617	246.239731
12478.635957	3952.219167	331.017578	115.392563
12478.635957	3952.219167	329.727539	92.264481
12478.635957	3952.219167	328.436523	-47.006733
12478.635957	3952.219167	327.146484	-131.497253
12478.635957	3952.219167	325.855469	-33.374386
12478.635957	3952.219167	324.563477	48.754036
12478.635957	3952.219167	323.272461	-5.581224
12478.635957	3952.219167	321.980469	-314.507202
12478.635957	3952.219167	320.688477	-74.882996
12478.635957	3952.219167	319.395508	-165.369736
12478.635957	3952.219167	318.103516	-154.282578
12478.635957	3952.219167	316.810547	-220.021255
12478.635957	3952.219167	315.516602	-91.883110
12478.635957	3952.219167	314.223633	134.795319
12478.635957	3952.219167	312.929688	-111.758133
12478.635957	3952.219167	311.635742	-42.014606
12478.635957	3952.219167	310.340820	-17.143730
12478.635957	3952.219167	309.045898	60.514854
12478.635957	3952.219167	307.750977	-79.639191
12478.635957	3952.219167	306.456055	50.554523
12478.635957	3952.219167	305.160156	-107.477684
12478.635957	3952.219167	303.865234	94.628677
12478.635957	3952.219167	302.568359	248.334686
12478.635957	3952.219167	301.272461	-13.801217
12478.635957	3952.219167	299.975586	533.407776
12478.635957	3952.219167	298.678711	484.322540
