#X		#Y		#Wave		#Intensity
29746.129255	-1392.073333	1999.980469	-115.696846
29746.129255	-1392.073333	1999.016602	0.743998
29746.129255	-1392.073333	1998.052734	-97.319099
29746.129255	-1392.073333	1997.087891	-51.708744
29746.129255	-1392.073333	1996.123047	60.690323
29746.129255	-1392.073333	1995.158203	125.893059
29746.129255	-1392.073333	1994.193359	-78.977280
29746.129255	-1392.073333	1993.228516	65.304543
29746.129255	-1392.073333	1992.262695	41.099171
29746.129255	-1392.073333	1991.297852	-50.005608
29746.129255	-1392.073333	1990.332031	-42.150600
29746.129255	-1392.073333	1989.366211	-14.570119
29746.129255	-1392.073333	1988.399414	17.883011
29746.129255	-1392.073333	1987.433594	-18.995180
29746.129255	-1392.073333	1986.466797	-18.822393
29746.129255	-1392.073333	1985.500977	95.036842
29746.129255	-1392.073333	1984.534180	1.139255
29746.129255	-1392.073333	1983.567383	124.736298
29746.129255	-1392.073333	1982.599609	169.159454
29746.129255	-1392.073333	1981.632813	33.156143
29746.129255	-1392.073333	1980.665039	52.790230
29746.129255	-1392.073333	1979.697266	52.619247
29746.129255	-1392.073333	1978.729492	17.839977
29746.129255	-1392.073333	1977.761719	76.858604
29746.129255	-1392.073333	1976.792969	54.361931
29746.129255	-1392.073333	1975.825195	135.502213
29746.129255	-1392.073333	1974.856445	-3.031018
29746.129255	-1392.073333	1973.887695	122.442635
29746.129255	-1392.073333	1972.918945	38.180119
29746.129255	-1392.073333	1971.949219	-41.141949
29746.129255	-1392.073333	1970.980469	76.806854
29746.129255	-1392.073333	1970.010742	51.705738
29746.129255	-1392.073333	1969.041016	46.316010
29746.129255	-1392.073333	1968.071289	-47.802959
29746.129255	-1392.073333	1967.101563	77.388634
29746.129255	-1392.073333	1966.130859	27.615316
29746.129255	-1392.073333	1965.161133	91.150703
29746.129255	-1392.073333	1964.190430	1.975785
29746.129255	-1392.073333	1963.219727	-30.544889
29746.129255	-1392.073333	1962.249023	-72.904495
29746.129255	-1392.073333	1961.277344	54.566513
29746.129255	-1392.073333	1960.306641	34.347126
29746.129255	-1392.073333	1959.334961	-32.611755
29746.129255	-1392.073333	1958.363281	67.719727
29746.129255	-1392.073333	1957.391602	13.078128
29746.129255	-1392.073333	1956.419922	32.225338
29746.129255	-1392.073333	1955.447266	-101.054115
29746.129255	-1392.073333	1954.474609	65.591698
29746.129255	-1392.073333	1953.501953	-153.646271
29746.129255	-1392.073333	1952.529297	64.558174
29746.129255	-1392.073333	1951.556641	-19.471310
29746.129255	-1392.073333	1950.583984	-76.443291
29746.129255	-1392.073333	1949.610352	9.043236
29746.129255	-1392.073333	1948.636719	65.045479
29746.129255	-1392.073333	1947.663086	8.118898
29746.129255	-1392.073333	1946.689453	-48.774845
29746.129255	-1392.073333	1945.715820	-147.349899
29746.129255	-1392.073333	1944.741211	6.822433
29746.129255	-1392.073333	1943.767578	-64.716843
29746.129255	-1392.073333	1942.792969	3.574044
29746.129255	-1392.073333	1941.818359	-53.198242
29746.129255	-1392.073333	1940.842773	-43.743256
29746.129255	-1392.073333	1939.868164	-44.078377
29746.129255	-1392.073333	1938.892578	78.134064
29746.129255	-1392.073333	1937.916992	-30.000946
29746.129255	-1392.073333	1936.941406	-27.839956
29746.129255	-1392.073333	1935.965820	6.178895
29746.129255	-1392.073333	1934.990234	-6.324937
29746.129255	-1392.073333	1934.013672	101.162529
29746.129255	-1392.073333	1933.037109	-116.943893
29746.129255	-1392.073333	1932.060547	66.432678
29746.129255	-1392.073333	1931.083984	7.506791
29746.129255	-1392.073333	1930.107422	36.698044
29746.129255	-1392.073333	1929.129883	75.680054
29746.129255	-1392.073333	1928.153320	73.092812
29746.129255	-1392.073333	1927.175781	-100.638008
29746.129255	-1392.073333	1926.198242	26.416723
29746.129255	-1392.073333	1925.219727	41.005783
29746.129255	-1392.073333	1924.242188	-29.922983
29746.129255	-1392.073333	1923.263672	40.908207
29746.129255	-1392.073333	1922.285156	-49.499435
29746.129255	-1392.073333	1921.306641	177.664581
29746.129255	-1392.073333	1920.328125	-176.430405
29746.129255	-1392.073333	1919.349609	84.892769
29746.129255	-1392.073333	1918.370117	41.001987
29746.129255	-1392.073333	1917.391602	-10.174369
29746.129255	-1392.073333	1916.412109	26.532713
29746.129255	-1392.073333	1915.431641	-58.742126
29746.129255	-1392.073333	1914.452148	-63.469631
29746.129255	-1392.073333	1913.472656	87.906525
29746.129255	-1392.073333	1912.492188	124.640480
29746.129255	-1392.073333	1911.511719	-36.089748
29746.129255	-1392.073333	1910.531250	-91.932877
29746.129255	-1392.073333	1909.550781	39.909626
29746.129255	-1392.073333	1908.569336	20.654793
29746.129255	-1392.073333	1907.588867	11.169395
29746.129255	-1392.073333	1906.607422	65.028900
29746.129255	-1392.073333	1905.625977	-46.706554
29746.129255	-1392.073333	1904.644531	58.304455
29746.129255	-1392.073333	1903.662109	-106.910973
29746.129255	-1392.073333	1902.680664	-135.756332
29746.129255	-1392.073333	1901.698242	76.323441
29746.129255	-1392.073333	1900.715820	171.560196
29746.129255	-1392.073333	1899.733398	25.963751
29746.129255	-1392.073333	1898.750000	74.992859
29746.129255	-1392.073333	1897.767578	19.462078
29746.129255	-1392.073333	1896.784180	-19.019255
29746.129255	-1392.073333	1895.800781	-152.268234
29746.129255	-1392.073333	1894.817383	-81.321983
29746.129255	-1392.073333	1893.833984	-3.102386
29746.129255	-1392.073333	1892.850586	84.815338
29746.129255	-1392.073333	1891.866211	-24.023134
29746.129255	-1392.073333	1890.881836	10.460979
29746.129255	-1392.073333	1889.897461	81.359421
29746.129255	-1392.073333	1888.913086	-10.398173
29746.129255	-1392.073333	1887.927734	28.942362
29746.129255	-1392.073333	1886.943359	-77.315498
29746.129255	-1392.073333	1885.958008	-54.945576
29746.129255	-1392.073333	1884.972656	-27.726618
29746.129255	-1392.073333	1883.987305	-24.764181
29746.129255	-1392.073333	1883.001953	-7.249283
29746.129255	-1392.073333	1882.015625	-93.980003
29746.129255	-1392.073333	1881.029297	27.771704
29746.129255	-1392.073333	1880.042969	13.774280
29746.129255	-1392.073333	1879.056641	33.704849
29746.129255	-1392.073333	1878.070313	34.250786
29746.129255	-1392.073333	1877.083984	63.861179
29746.129255	-1392.073333	1876.096680	32.922512
29746.129255	-1392.073333	1875.109375	9.258975
29746.129255	-1392.073333	1874.122070	0.127261
29746.129255	-1392.073333	1873.134766	73.283577
29746.129255	-1392.073333	1872.146484	42.362923
29746.129255	-1392.073333	1871.159180	4.193491
29746.129255	-1392.073333	1870.170898	-33.964832
29746.129255	-1392.073333	1869.182617	22.202847
29746.129255	-1392.073333	1868.194336	39.659267
29746.129255	-1392.073333	1867.205078	-124.205711
29746.129255	-1392.073333	1866.216797	-5.225496
29746.129255	-1392.073333	1865.227539	-77.203239
29746.129255	-1392.073333	1864.238281	-67.014450
29746.129255	-1392.073333	1863.249023	-18.187132
29746.129255	-1392.073333	1862.259766	54.765873
29746.129255	-1392.073333	1861.269531	23.848627
29746.129255	-1392.073333	1860.279297	-23.966703
29746.129255	-1392.073333	1859.290039	-79.014565
29746.129255	-1392.073333	1858.298828	8.334213
29746.129255	-1392.073333	1857.308594	30.490677
29746.129255	-1392.073333	1856.318359	-26.984476
29746.129255	-1392.073333	1855.327148	81.977219
29746.129255	-1392.073333	1854.335938	140.241547
29746.129255	-1392.073333	1853.344727	-11.295660
29746.129255	-1392.073333	1852.353516	167.468002
29746.129255	-1392.073333	1851.362305	109.949875
29746.129255	-1392.073333	1850.370117	50.026947
29746.129255	-1392.073333	1849.377930	-48.438828
29746.129255	-1392.073333	1848.385742	-21.625811
29746.129255	-1392.073333	1847.393555	43.693893
29746.129255	-1392.073333	1846.401367	140.273575
29746.129255	-1392.073333	1845.408203	-71.360428
29746.129255	-1392.073333	1844.415039	-112.036003
29746.129255	-1392.073333	1843.421875	-27.575058
29746.129255	-1392.073333	1842.428711	-46.630047
29746.129255	-1392.073333	1841.435547	-106.595612
29746.129255	-1392.073333	1840.441406	-17.439144
29746.129255	-1392.073333	1839.448242	112.543335
29746.129255	-1392.073333	1838.454102	59.724751
29746.129255	-1392.073333	1837.459961	134.306183
29746.129255	-1392.073333	1836.464844	86.260597
29746.129255	-1392.073333	1835.470703	292.921570
29746.129255	-1392.073333	1834.475586	33.392326
29746.129255	-1392.073333	1833.480469	-105.962860
29746.129255	-1392.073333	1832.485352	126.954582
29746.129255	-1392.073333	1831.490234	54.811577
29746.129255	-1392.073333	1830.495117	61.890305
29746.129255	-1392.073333	1829.499023	-31.873535
29746.129255	-1392.073333	1828.502930	8.757058
29746.129255	-1392.073333	1827.506836	-34.634949
29746.129255	-1392.073333	1826.510742	176.240936
29746.129255	-1392.073333	1825.513672	60.818871
29746.129255	-1392.073333	1824.517578	43.727024
29746.129255	-1392.073333	1823.520508	-26.137472
29746.129255	-1392.073333	1822.523438	35.831230
29746.129255	-1392.073333	1821.526367	78.570145
29746.129255	-1392.073333	1820.529297	68.544113
29746.129255	-1392.073333	1819.531250	120.774559
29746.129255	-1392.073333	1818.533203	-23.460161
29746.129255	-1392.073333	1817.535156	69.410294
29746.129255	-1392.073333	1816.537109	140.660858
29746.129255	-1392.073333	1815.539063	58.639244
29746.129255	-1392.073333	1814.540039	117.823746
29746.129255	-1392.073333	1813.541992	52.514709
29746.129255	-1392.073333	1812.542969	157.062714
29746.129255	-1392.073333	1811.543945	31.891451
29746.129255	-1392.073333	1810.543945	133.934174
29746.129255	-1392.073333	1809.544922	113.950531
29746.129255	-1392.073333	1808.544922	268.457825
29746.129255	-1392.073333	1807.544922	174.276917
29746.129255	-1392.073333	1806.544922	-68.078438
29746.129255	-1392.073333	1805.544922	119.707787
29746.129255	-1392.073333	1804.544922	54.154778
29746.129255	-1392.073333	1803.543945	33.964142
29746.129255	-1392.073333	1802.542969	240.603409
29746.129255	-1392.073333	1801.541992	38.846176
29746.129255	-1392.073333	1800.541016	11.383511
29746.129255	-1392.073333	1799.539063	-20.886806
29746.129255	-1392.073333	1798.538086	161.575104
29746.129255	-1392.073333	1797.536133	-56.888039
29746.129255	-1392.073333	1796.534180	56.248226
29746.129255	-1392.073333	1795.532227	47.669163
29746.129255	-1392.073333	1794.529297	248.875412
29746.129255	-1392.073333	1793.527344	149.584045
29746.129255	-1392.073333	1792.524414	205.211166
29746.129255	-1392.073333	1791.521484	191.663300
29746.129255	-1392.073333	1790.518555	135.188263
29746.129255	-1392.073333	1789.514648	138.240128
29746.129255	-1392.073333	1788.511719	210.317719
29746.129255	-1392.073333	1787.507813	77.530556
29746.129255	-1392.073333	1786.503906	-26.682802
29746.129255	-1392.073333	1785.500000	133.316589
29746.129255	-1392.073333	1784.496094	214.671127
29746.129255	-1392.073333	1783.491211	314.980652
29746.129255	-1392.073333	1782.486328	274.844116
29746.129255	-1392.073333	1781.481445	291.759827
29746.129255	-1392.073333	1780.476563	189.716934
29746.129255	-1392.073333	1779.471680	216.057556
29746.129255	-1392.073333	1778.465820	80.687515
29746.129255	-1392.073333	1777.460938	225.780533
29746.129255	-1392.073333	1776.455078	175.910110
29746.129255	-1392.073333	1775.449219	85.621338
29746.129255	-1392.073333	1774.442383	204.349182
29746.129255	-1392.073333	1773.436523	156.740433
29746.129255	-1392.073333	1772.429688	147.089417
29746.129255	-1392.073333	1771.422852	85.164124
29746.129255	-1392.073333	1770.416016	37.454704
29746.129255	-1392.073333	1769.409180	200.923981
29746.129255	-1392.073333	1768.402344	231.410767
29746.129255	-1392.073333	1767.394531	233.366394
29746.129255	-1392.073333	1766.386719	55.015640
29746.129255	-1392.073333	1765.378906	73.503967
29746.129255	-1392.073333	1764.371094	-92.992851
29746.129255	-1392.073333	1763.362305	145.864059
29746.129255	-1392.073333	1762.354492	142.846573
29746.129255	-1392.073333	1761.345703	225.079208
29746.129255	-1392.073333	1760.336914	75.060989
29746.129255	-1392.073333	1759.328125	67.167908
29746.129255	-1392.073333	1758.318359	123.164925
29746.129255	-1392.073333	1757.308594	160.148880
29746.129255	-1392.073333	1756.299805	251.521011
29746.129255	-1392.073333	1755.290039	110.854530
29746.129255	-1392.073333	1754.279297	97.972610
29746.129255	-1392.073333	1753.269531	148.930283
29746.129255	-1392.073333	1752.258789	126.484589
29746.129255	-1392.073333	1751.249023	127.652664
29746.129255	-1392.073333	1750.238281	-50.941895
29746.129255	-1392.073333	1749.226563	63.629589
29746.129255	-1392.073333	1748.215820	173.385529
29746.129255	-1392.073333	1747.204102	-64.348602
29746.129255	-1392.073333	1746.193359	-84.661110
29746.129255	-1392.073333	1745.181641	-48.324348
29746.129255	-1392.073333	1744.168945	16.288172
29746.129255	-1392.073333	1743.157227	2.904333
29746.129255	-1392.073333	1742.144531	-71.912994
29746.129255	-1392.073333	1741.132813	86.946594
29746.129255	-1392.073333	1740.120117	-134.280365
29746.129255	-1392.073333	1739.106445	-91.197350
29746.129255	-1392.073333	1738.093750	17.882040
29746.129255	-1392.073333	1737.080078	209.422607
29746.129255	-1392.073333	1736.067383	-4.775812
29746.129255	-1392.073333	1735.053711	-110.484886
29746.129255	-1392.073333	1734.040039	-13.467387
29746.129255	-1392.073333	1733.025391	-34.385071
29746.129255	-1392.073333	1732.011719	156.745407
29746.129255	-1392.073333	1730.997070	-55.128735
29746.129255	-1392.073333	1729.982422	1.566867
29746.129255	-1392.073333	1728.967773	-90.178764
29746.129255	-1392.073333	1727.952148	88.846962
29746.129255	-1392.073333	1726.937500	-130.100189
29746.129255	-1392.073333	1725.921875	8.758663
29746.129255	-1392.073333	1724.906250	55.739815
29746.129255	-1392.073333	1723.890625	123.833305
29746.129255	-1392.073333	1722.875000	-38.681267
29746.129255	-1392.073333	1721.858398	-81.233116
29746.129255	-1392.073333	1720.841797	50.199310
29746.129255	-1392.073333	1719.825195	-48.867550
29746.129255	-1392.073333	1718.808594	37.758533
29746.129255	-1392.073333	1717.791992	30.301519
29746.129255	-1392.073333	1716.774414	25.148441
29746.129255	-1392.073333	1715.756836	175.006149
29746.129255	-1392.073333	1714.739258	64.044418
29746.129255	-1392.073333	1713.721680	11.792919
29746.129255	-1392.073333	1712.704102	58.131897
29746.129255	-1392.073333	1711.685547	29.286606
29746.129255	-1392.073333	1710.667969	-72.339828
29746.129255	-1392.073333	1709.649414	-54.299751
29746.129255	-1392.073333	1708.630859	-116.074478
29746.129255	-1392.073333	1707.611328	-88.736732
29746.129255	-1392.073333	1706.592773	15.949448
29746.129255	-1392.073333	1705.573242	-212.407410
29746.129255	-1392.073333	1704.553711	32.837521
29746.129255	-1392.073333	1703.534180	17.779873
29746.129255	-1392.073333	1702.513672	103.450783
29746.129255	-1392.073333	1701.494141	-19.467127
29746.129255	-1392.073333	1700.473633	12.224694
29746.129255	-1392.073333	1699.453125	-14.684202
29746.129255	-1392.073333	1698.432617	14.580067
29746.129255	-1392.073333	1697.412109	-70.921013
29746.129255	-1392.073333	1696.390625	54.234165
29746.129255	-1392.073333	1695.369141	-28.978668
29746.129255	-1392.073333	1694.347656	53.933636
29746.129255	-1392.073333	1693.326172	118.064316
29746.129255	-1392.073333	1692.304688	102.613556
29746.129255	-1392.073333	1691.282227	-32.134369
29746.129255	-1392.073333	1690.260742	24.862293
29746.129255	-1392.073333	1689.238281	39.720913
29746.129255	-1392.073333	1688.214844	-78.681152
29746.129255	-1392.073333	1687.192383	176.805939
29746.129255	-1392.073333	1686.168945	119.102646
29746.129255	-1392.073333	1685.146484	-62.398903
29746.129255	-1392.073333	1684.123047	-15.004930
29746.129255	-1392.073333	1683.099609	-121.760780
29746.129255	-1392.073333	1682.075195	30.609810
29746.129255	-1392.073333	1681.051758	-76.171692
29746.129255	-1392.073333	1680.027344	50.406178
29746.129255	-1392.073333	1679.002930	190.906586
29746.129255	-1392.073333	1677.978516	-58.224628
29746.129255	-1392.073333	1676.953125	-57.749378
29746.129255	-1392.073333	1675.928711	73.283546
29746.129255	-1392.073333	1674.903320	73.681793
29746.129255	-1392.073333	1673.877930	211.574081
29746.129255	-1392.073333	1672.852539	88.385277
29746.129255	-1392.073333	1671.826172	-13.817523
29746.129255	-1392.073333	1670.800781	91.327278
29746.129255	-1392.073333	1669.774414	-48.147289
29746.129255	-1392.073333	1668.748047	28.968197
29746.129255	-1392.073333	1667.721680	8.250468
29746.129255	-1392.073333	1666.694336	192.348572
29746.129255	-1392.073333	1665.667969	76.148727
29746.129255	-1392.073333	1664.640625	185.664749
29746.129255	-1392.073333	1663.613281	13.632041
29746.129255	-1392.073333	1662.585938	-86.250580
29746.129255	-1392.073333	1661.557617	120.837746
29746.129255	-1392.073333	1660.530273	211.586121
29746.129255	-1392.073333	1659.501953	316.222626
29746.129255	-1392.073333	1658.473633	134.937775
29746.129255	-1392.073333	1657.444336	251.126144
29746.129255	-1392.073333	1656.416016	137.265030
29746.129255	-1392.073333	1655.386719	271.959839
29746.129255	-1392.073333	1654.358398	255.645920
29746.129255	-1392.073333	1653.328125	288.068665
29746.129255	-1392.073333	1652.298828	411.007782
29746.129255	-1392.073333	1651.269531	445.690369
29746.129255	-1392.073333	1650.239258	424.648102
29746.129255	-1392.073333	1649.208984	359.521881
29746.129255	-1392.073333	1648.178711	289.770752
29746.129255	-1392.073333	1647.148438	519.207336
29746.129255	-1392.073333	1646.117188	275.521606
29746.129255	-1392.073333	1645.086914	574.401428
29746.129255	-1392.073333	1644.055664	562.562439
29746.129255	-1392.073333	1643.024414	578.528809
29746.129255	-1392.073333	1641.992188	705.686218
29746.129255	-1392.073333	1640.960938	647.479065
29746.129255	-1392.073333	1639.928711	519.799194
29746.129255	-1392.073333	1638.896484	850.645874
29746.129255	-1392.073333	1637.864258	931.326355
29746.129255	-1392.073333	1636.832031	826.799316
29746.129255	-1392.073333	1635.798828	909.752197
29746.129255	-1392.073333	1634.766602	867.734741
29746.129255	-1392.073333	1633.733398	899.749207
29746.129255	-1392.073333	1632.699219	672.700439
29746.129255	-1392.073333	1631.666016	697.800415
29746.129255	-1392.073333	1630.632813	639.659424
29746.129255	-1392.073333	1629.598633	812.685608
29746.129255	-1392.073333	1628.564453	752.226990
29746.129255	-1392.073333	1627.530273	918.234253
29746.129255	-1392.073333	1626.495117	878.565857
29746.129255	-1392.073333	1625.460938	924.381836
29746.129255	-1392.073333	1624.425781	1071.785156
29746.129255	-1392.073333	1623.390625	1101.384399
29746.129255	-1392.073333	1622.355469	1160.985840
29746.129255	-1392.073333	1621.319336	1215.945068
29746.129255	-1392.073333	1620.284180	1323.967896
29746.129255	-1392.073333	1619.248047	1436.562500
29746.129255	-1392.073333	1618.211914	1431.484009
29746.129255	-1392.073333	1617.174805	1444.855591
29746.129255	-1392.073333	1616.138672	1520.492554
29746.129255	-1392.073333	1615.101563	1298.724243
29746.129255	-1392.073333	1614.065430	1224.566040
29746.129255	-1392.073333	1613.027344	1210.344360
29746.129255	-1392.073333	1611.990234	1212.273071
29746.129255	-1392.073333	1610.953125	1223.426514
29746.129255	-1392.073333	1609.915039	990.462097
29746.129255	-1392.073333	1608.876953	1061.537109
29746.129255	-1392.073333	1607.838867	1111.878784
29746.129255	-1392.073333	1606.800781	913.636047
29746.129255	-1392.073333	1605.761719	1005.429260
29746.129255	-1392.073333	1604.723633	938.456116
29746.129255	-1392.073333	1603.684570	809.408875
29746.129255	-1392.073333	1602.644531	703.419861
29746.129255	-1392.073333	1601.605469	733.160461
29746.129255	-1392.073333	1600.566406	744.514587
29746.129255	-1392.073333	1599.526367	854.712036
29746.129255	-1392.073333	1598.486328	884.451965
29746.129255	-1392.073333	1597.446289	925.687073
29746.129255	-1392.073333	1596.405273	964.621887
29746.129255	-1392.073333	1595.365234	969.117676
29746.129255	-1392.073333	1594.324219	904.737244
29746.129255	-1392.073333	1593.283203	909.278137
29746.129255	-1392.073333	1592.242188	982.699890
29746.129255	-1392.073333	1591.200195	1147.905396
29746.129255	-1392.073333	1590.159180	1069.862183
29746.129255	-1392.073333	1589.117188	1012.513123
29746.129255	-1392.073333	1588.075195	1131.814697
29746.129255	-1392.073333	1587.032227	1129.552856
29746.129255	-1392.073333	1585.990234	1202.981934
29746.129255	-1392.073333	1584.947266	1136.575317
29746.129255	-1392.073333	1583.904297	1145.849854
29746.129255	-1392.073333	1582.861328	1113.904053
29746.129255	-1392.073333	1581.818359	910.181702
29746.129255	-1392.073333	1580.775391	873.769226
29746.129255	-1392.073333	1579.731445	958.762085
29746.129255	-1392.073333	1578.687500	837.691956
29746.129255	-1392.073333	1577.643555	1046.328857
29746.129255	-1392.073333	1576.598633	895.590698
29746.129255	-1392.073333	1575.554688	866.223389
29746.129255	-1392.073333	1574.509766	1010.761414
29746.129255	-1392.073333	1573.464844	791.594482
29746.129255	-1392.073333	1572.419922	885.844360
29746.129255	-1392.073333	1571.374023	966.365417
29746.129255	-1392.073333	1570.329102	1001.174866
29746.129255	-1392.073333	1569.283203	1006.287842
29746.129255	-1392.073333	1568.237305	643.539307
29746.129255	-1392.073333	1567.191406	783.581177
29746.129255	-1392.073333	1566.144531	937.303223
29746.129255	-1392.073333	1565.098633	775.855103
29746.129255	-1392.073333	1564.051758	705.831299
29746.129255	-1392.073333	1563.004883	706.638916
29746.129255	-1392.073333	1561.957031	659.547852
29746.129255	-1392.073333	1560.910156	829.302979
29746.129255	-1392.073333	1559.862305	670.491455
29746.129255	-1392.073333	1558.814453	582.493774
29746.129255	-1392.073333	1557.766602	519.656067
29746.129255	-1392.073333	1556.718750	598.251282
29746.129255	-1392.073333	1555.669922	578.823792
29746.129255	-1392.073333	1554.621094	712.153503
29746.129255	-1392.073333	1553.573242	583.418335
29746.129255	-1392.073333	1552.523438	395.528290
29746.129255	-1392.073333	1551.474609	574.499146
29746.129255	-1392.073333	1550.424805	343.498566
29746.129255	-1392.073333	1549.375000	486.058136
29746.129255	-1392.073333	1548.325195	407.780792
29746.129255	-1392.073333	1547.275391	304.541931
29746.129255	-1392.073333	1546.225586	358.408386
29746.129255	-1392.073333	1545.174805	612.509888
29746.129255	-1392.073333	1544.124023	661.829956
29746.129255	-1392.073333	1543.073242	526.957764
29746.129255	-1392.073333	1542.022461	430.841949
29746.129255	-1392.073333	1540.970703	564.418152
29746.129255	-1392.073333	1539.919922	511.612183
29746.129255	-1392.073333	1538.868164	602.037170
29746.129255	-1392.073333	1537.815430	410.735565
29746.129255	-1392.073333	1536.763672	589.834167
29746.129255	-1392.073333	1535.710938	732.567383
29746.129255	-1392.073333	1534.659180	525.609558
29746.129255	-1392.073333	1533.606445	663.858459
29746.129255	-1392.073333	1532.552734	552.417114
29746.129255	-1392.073333	1531.500000	683.898010
29746.129255	-1392.073333	1530.446289	536.296814
29746.129255	-1392.073333	1529.393555	336.633148
29746.129255	-1392.073333	1528.338867	361.626709
29746.129255	-1392.073333	1527.285156	257.413879
29746.129255	-1392.073333	1526.231445	289.323303
29746.129255	-1392.073333	1525.176758	339.400665
29746.129255	-1392.073333	1524.122070	389.512146
29746.129255	-1392.073333	1523.067383	281.051605
29746.129255	-1392.073333	1522.012695	116.054466
29746.129255	-1392.073333	1520.957031	48.561718
29746.129255	-1392.073333	1519.901367	89.844589
29746.129255	-1392.073333	1518.845703	-124.665970
29746.129255	-1392.073333	1517.790039	14.076218
29746.129255	-1392.073333	1516.734375	10.243284
29746.129255	-1392.073333	1515.677734	119.597130
29746.129255	-1392.073333	1514.621094	-4.044410
29746.129255	-1392.073333	1513.564453	166.447815
29746.129255	-1392.073333	1512.507813	36.175636
29746.129255	-1392.073333	1511.450195	48.442139
29746.129255	-1392.073333	1510.393555	74.326462
29746.129255	-1392.073333	1509.335938	129.633835
29746.129255	-1392.073333	1508.278320	-34.196178
29746.129255	-1392.073333	1507.219727	68.664131
29746.129255	-1392.073333	1506.162109	-61.093288
29746.129255	-1392.073333	1505.103516	-77.835625
29746.129255	-1392.073333	1504.044922	183.186966
29746.129255	-1392.073333	1502.986328	254.553802
29746.129255	-1392.073333	1501.926758	98.008850
29746.129255	-1392.073333	1500.868164	85.997391
29746.129255	-1392.073333	1499.808594	33.439877
29746.129255	-1392.073333	1498.749023	181.701080
29746.129255	-1392.073333	1497.688477	-8.295105
29746.129255	-1392.073333	1496.628906	180.618759
29746.129255	-1392.073333	1495.568359	-135.412796
29746.129255	-1392.073333	1494.507813	150.478638
29746.129255	-1392.073333	1493.447266	-97.701874
29746.129255	-1392.073333	1492.386719	1.206927
29746.129255	-1392.073333	1491.325195	91.127289
29746.129255	-1392.073333	1490.263672	14.431308
29746.129255	-1392.073333	1489.202148	147.212860
29746.129255	-1392.073333	1488.140625	16.636116
29746.129255	-1392.073333	1487.079102	-127.330040
29746.129255	-1392.073333	1486.016602	-43.918373
29746.129255	-1392.073333	1484.954102	28.275110
29746.129255	-1392.073333	1483.891602	-171.653793
29746.129255	-1392.073333	1482.829102	-7.137584
29746.129255	-1392.073333	1481.765625	-58.458633
29746.129255	-1392.073333	1480.702148	-6.299136
29746.129255	-1392.073333	1479.638672	-75.425613
29746.129255	-1392.073333	1478.575195	104.932518
29746.129255	-1392.073333	1477.511719	164.018494
29746.129255	-1392.073333	1476.447266	74.869560
29746.129255	-1392.073333	1475.382813	84.712372
29746.129255	-1392.073333	1474.318359	87.885857
29746.129255	-1392.073333	1473.253906	147.214279
29746.129255	-1392.073333	1472.189453	40.593185
29746.129255	-1392.073333	1471.124023	-9.929157
29746.129255	-1392.073333	1470.058594	-1.853956
29746.129255	-1392.073333	1468.993164	427.385223
29746.129255	-1392.073333	1467.927734	253.950500
29746.129255	-1392.073333	1466.861328	488.226318
29746.129255	-1392.073333	1465.794922	317.409424
29746.129255	-1392.073333	1464.728516	354.622894
29746.129255	-1392.073333	1463.662109	374.203613
29746.129255	-1392.073333	1462.594727	510.111450
29746.129255	-1392.073333	1461.528320	449.213837
29746.129255	-1392.073333	1460.460938	512.021362
29746.129255	-1392.073333	1459.393555	495.772369
29746.129255	-1392.073333	1458.326172	562.294006
29746.129255	-1392.073333	1457.257813	738.583435
29746.129255	-1392.073333	1456.189453	684.729492
29746.129255	-1392.073333	1455.121094	651.138367
29746.129255	-1392.073333	1454.052734	514.098083
29746.129255	-1392.073333	1452.984375	583.146667
29746.129255	-1392.073333	1451.915039	465.336304
29746.129255	-1392.073333	1450.845703	614.273987
29746.129255	-1392.073333	1449.776367	519.766296
29746.129255	-1392.073333	1448.707031	537.960632
29746.129255	-1392.073333	1447.636719	537.160278
29746.129255	-1392.073333	1446.567383	405.510376
29746.129255	-1392.073333	1445.497070	337.864807
29746.129255	-1392.073333	1444.425781	367.781281
29746.129255	-1392.073333	1443.355469	422.001099
29746.129255	-1392.073333	1442.285156	370.835602
29746.129255	-1392.073333	1441.213867	438.361877
29746.129255	-1392.073333	1440.142578	305.843506
29746.129255	-1392.073333	1439.070313	348.438812
29746.129255	-1392.073333	1437.999023	238.276184
29746.129255	-1392.073333	1436.926758	244.747589
29746.129255	-1392.073333	1435.854492	354.340942
29746.129255	-1392.073333	1434.782227	422.414520
29746.129255	-1392.073333	1433.709961	137.675217
29746.129255	-1392.073333	1432.636719	225.807022
29746.129255	-1392.073333	1431.563477	144.298584
29746.129255	-1392.073333	1430.490234	157.174179
29746.129255	-1392.073333	1429.416992	254.174850
29746.129255	-1392.073333	1428.343750	-5.804073
29746.129255	-1392.073333	1427.269531	-44.231632
29746.129255	-1392.073333	1426.195313	61.165672
29746.129255	-1392.073333	1425.121094	103.637650
29746.129255	-1392.073333	1424.046875	-57.249474
29746.129255	-1392.073333	1422.971680	96.596992
29746.129255	-1392.073333	1421.896484	131.955170
29746.129255	-1392.073333	1420.821289	137.512360
29746.129255	-1392.073333	1419.746094	198.909973
29746.129255	-1392.073333	1418.669922	-41.001305
29746.129255	-1392.073333	1417.594727	-82.809196
29746.129255	-1392.073333	1416.518555	39.421368
29746.129255	-1392.073333	1415.442383	232.117569
29746.129255	-1392.073333	1414.365234	-20.573788
29746.129255	-1392.073333	1413.289063	119.301094
29746.129255	-1392.073333	1412.211914	176.868149
29746.129255	-1392.073333	1411.134766	157.383408
29746.129255	-1392.073333	1410.057617	-19.512749
29746.129255	-1392.073333	1408.979492	97.924408
29746.129255	-1392.073333	1407.902344	131.772125
29746.129255	-1392.073333	1406.824219	167.677353
29746.129255	-1392.073333	1405.746094	408.752289
29746.129255	-1392.073333	1404.666992	275.423492
29746.129255	-1392.073333	1403.588867	134.772659
29746.129255	-1392.073333	1402.509766	189.866089
29746.129255	-1392.073333	1401.430664	244.475906
29746.129255	-1392.073333	1400.351563	326.436798
29746.129255	-1392.073333	1399.271484	281.592560
29746.129255	-1392.073333	1398.192383	595.953979
29746.129255	-1392.073333	1397.112305	439.058655
29746.129255	-1392.073333	1396.031250	625.061646
29746.129255	-1392.073333	1394.951172	589.288940
29746.129255	-1392.073333	1393.871094	452.752380
29746.129255	-1392.073333	1392.790039	631.077271
29746.129255	-1392.073333	1391.708984	616.839905
29746.129255	-1392.073333	1390.626953	664.401062
29746.129255	-1392.073333	1389.545898	925.368408
29746.129255	-1392.073333	1388.463867	828.229492
29746.129255	-1392.073333	1387.381836	631.838623
29746.129255	-1392.073333	1386.299805	703.317627
29746.129255	-1392.073333	1385.217773	640.112427
29746.129255	-1392.073333	1384.134766	532.042114
29746.129255	-1392.073333	1383.051758	711.916870
29746.129255	-1392.073333	1381.968750	727.822388
29746.129255	-1392.073333	1380.885742	621.516052
29746.129255	-1392.073333	1379.802734	524.418457
29746.129255	-1392.073333	1378.718750	467.008057
29746.129255	-1392.073333	1377.634766	567.610474
29746.129255	-1392.073333	1376.550781	410.769257
29746.129255	-1392.073333	1375.465820	512.830200
29746.129255	-1392.073333	1374.381836	516.188660
29746.129255	-1392.073333	1373.296875	485.849976
29746.129255	-1392.073333	1372.211914	531.406189
29746.129255	-1392.073333	1371.126953	712.281677
29746.129255	-1392.073333	1370.041016	580.520752
29746.129255	-1392.073333	1368.955078	504.126282
29746.129255	-1392.073333	1367.869141	678.596008
29746.129255	-1392.073333	1366.783203	745.397217
29746.129255	-1392.073333	1365.697266	503.263062
29746.129255	-1392.073333	1364.610352	459.363831
29746.129255	-1392.073333	1363.523438	447.961121
29746.129255	-1392.073333	1362.436523	430.897247
29746.129255	-1392.073333	1361.349609	321.829102
29746.129255	-1392.073333	1360.261719	382.698700
29746.129255	-1392.073333	1359.174805	418.130554
29746.129255	-1392.073333	1358.086914	278.184967
29746.129255	-1392.073333	1356.998047	245.372452
29746.129255	-1392.073333	1355.910156	351.391418
29746.129255	-1392.073333	1354.821289	418.750732
29746.129255	-1392.073333	1353.732422	524.360840
29746.129255	-1392.073333	1352.643555	388.988983
29746.129255	-1392.073333	1351.554688	401.688416
29746.129255	-1392.073333	1350.464844	489.256042
29746.129255	-1392.073333	1349.375000	588.471313
29746.129255	-1392.073333	1348.285156	539.516541
29746.129255	-1392.073333	1347.195313	540.394104
29746.129255	-1392.073333	1346.105469	417.602631
29746.129255	-1392.073333	1345.014648	560.154053
29746.129255	-1392.073333	1343.923828	680.120667
29746.129255	-1392.073333	1342.833008	845.697327
29746.129255	-1392.073333	1341.741211	813.305176
29746.129255	-1392.073333	1340.650391	1042.584106
29746.129255	-1392.073333	1339.558594	986.789856
29746.129255	-1392.073333	1338.466797	914.485840
29746.129255	-1392.073333	1337.374023	977.081665
29746.129255	-1392.073333	1336.282227	713.463806
29746.129255	-1392.073333	1335.189453	526.592590
29746.129255	-1392.073333	1334.096680	604.223572
29746.129255	-1392.073333	1333.003906	486.617035
29746.129255	-1392.073333	1331.910156	407.730560
29746.129255	-1392.073333	1330.817383	323.055878
29746.129255	-1392.073333	1329.723633	473.655121
29746.129255	-1392.073333	1328.629883	297.700684
29746.129255	-1392.073333	1327.535156	314.876831
29746.129255	-1392.073333	1326.441406	235.034348
29746.129255	-1392.073333	1325.346680	363.980804
29746.129255	-1392.073333	1324.251953	310.891327
29746.129255	-1392.073333	1323.156250	227.353638
29746.129255	-1392.073333	1322.061523	229.479065
29746.129255	-1392.073333	1320.965820	336.687683
29746.129255	-1392.073333	1319.870117	441.531433
29746.129255	-1392.073333	1318.774414	345.763824
29746.129255	-1392.073333	1317.678711	327.714417
29746.129255	-1392.073333	1316.582031	281.854919
29746.129255	-1392.073333	1315.485352	370.611237
29746.129255	-1392.073333	1314.388672	306.388153
29746.129255	-1392.073333	1313.291016	244.252151
29746.129255	-1392.073333	1312.194336	379.988861
29746.129255	-1392.073333	1311.096680	301.452393
29746.129255	-1392.073333	1309.999023	360.791199
29746.129255	-1392.073333	1308.901367	280.297791
29746.129255	-1392.073333	1307.802734	204.496704
29746.129255	-1392.073333	1306.705078	345.229034
29746.129255	-1392.073333	1305.606445	334.626495
29746.129255	-1392.073333	1304.506836	353.416168
29746.129255	-1392.073333	1303.408203	338.212494
29746.129255	-1392.073333	1302.308594	450.367920
29746.129255	-1392.073333	1301.208984	382.244598
29746.129255	-1392.073333	1300.109375	499.929962
29746.129255	-1392.073333	1299.009766	426.861023
29746.129255	-1392.073333	1297.909180	480.999115
29746.129255	-1392.073333	1296.808594	397.576324
29746.129255	-1392.073333	1295.708008	484.758270
29746.129255	-1392.073333	1294.607422	413.158722
29746.129255	-1392.073333	1293.506836	317.229370
29746.129255	-1392.073333	1292.405273	315.608307
29746.129255	-1392.073333	1291.303711	417.286469
29746.129255	-1392.073333	1290.202148	358.105103
29746.129255	-1392.073333	1289.099609	428.096008
29746.129255	-1392.073333	1287.998047	394.256836
29746.129255	-1392.073333	1286.895508	337.070435
29746.129255	-1392.073333	1285.792969	440.429016
29746.129255	-1392.073333	1284.689453	291.329193
29746.129255	-1392.073333	1283.586914	450.613190
29746.129255	-1392.073333	1282.483398	333.540466
29746.129255	-1392.073333	1281.379883	286.188599
29746.129255	-1392.073333	1280.276367	245.550308
29746.129255	-1392.073333	1279.171875	272.864502
29746.129255	-1392.073333	1278.067383	230.668747
29746.129255	-1392.073333	1276.962891	364.237946
29746.129255	-1392.073333	1275.858398	196.915421
29746.129255	-1392.073333	1274.753906	187.565948
29746.129255	-1392.073333	1273.648438	172.767349
29746.129255	-1392.073333	1272.542969	54.815418
29746.129255	-1392.073333	1271.437500	164.802979
29746.129255	-1392.073333	1270.331055	11.891384
29746.129255	-1392.073333	1269.225586	57.377682
29746.129255	-1392.073333	1268.119141	114.366287
29746.129255	-1392.073333	1267.012695	19.039677
29746.129255	-1392.073333	1265.906250	125.083931
29746.129255	-1392.073333	1264.798828	64.662888
29746.129255	-1392.073333	1263.691406	31.947777
29746.129255	-1392.073333	1262.583984	-20.329422
29746.129255	-1392.073333	1261.476563	-89.674034
29746.129255	-1392.073333	1260.368164	99.263359
29746.129255	-1392.073333	1259.260742	-15.366301
29746.129255	-1392.073333	1258.152344	-93.663063
29746.129255	-1392.073333	1257.043945	-0.628089
29746.129255	-1392.073333	1255.934570	-129.598953
29746.129255	-1392.073333	1254.825195	-44.414719
29746.129255	-1392.073333	1253.716797	8.294038
29746.129255	-1392.073333	1252.606445	13.349954
29746.129255	-1392.073333	1251.497070	-56.794094
29746.129255	-1392.073333	1250.387695	-178.442947
29746.129255	-1392.073333	1249.277344	-169.206635
29746.129255	-1392.073333	1248.166992	-93.274292
29746.129255	-1392.073333	1247.055664	-27.137291
29746.129255	-1392.073333	1245.945313	71.467072
29746.129255	-1392.073333	1244.833984	32.507687
29746.129255	-1392.073333	1243.722656	-51.220730
29746.129255	-1392.073333	1242.611328	55.512867
29746.129255	-1392.073333	1241.499023	175.299637
29746.129255	-1392.073333	1240.387695	171.634735
29746.129255	-1392.073333	1239.275391	37.800030
29746.129255	-1392.073333	1238.162109	154.343460
29746.129255	-1392.073333	1237.049805	255.875397
29746.129255	-1392.073333	1235.936523	223.081543
29746.129255	-1392.073333	1234.823242	268.946594
29746.129255	-1392.073333	1233.709961	316.576080
29746.129255	-1392.073333	1232.596680	351.070190
29746.129255	-1392.073333	1231.482422	129.274536
29746.129255	-1392.073333	1230.369141	214.470901
29746.129255	-1392.073333	1229.253906	187.093735
29746.129255	-1392.073333	1228.139648	212.865067
29746.129255	-1392.073333	1227.025391	270.980530
29746.129255	-1392.073333	1225.910156	212.596756
29746.129255	-1392.073333	1224.794922	182.730194
29746.129255	-1392.073333	1223.679688	221.350220
29746.129255	-1392.073333	1222.563477	186.923920
29746.129255	-1392.073333	1221.447266	160.194870
29746.129255	-1392.073333	1220.331055	170.840439
29746.129255	-1392.073333	1219.214844	229.802139
29746.129255	-1392.073333	1218.098633	165.740768
29746.129255	-1392.073333	1216.981445	204.513046
29746.129255	-1392.073333	1215.864258	230.782516
29746.129255	-1392.073333	1214.747070	104.077133
29746.129255	-1392.073333	1213.629883	175.780823
29746.129255	-1392.073333	1212.511719	203.750809
29746.129255	-1392.073333	1211.393555	143.940186
29746.129255	-1392.073333	1210.275391	80.173805
29746.129255	-1392.073333	1209.157227	180.939636
29746.129255	-1392.073333	1208.038086	259.989349
29746.129255	-1392.073333	1206.918945	162.194611
29746.129255	-1392.073333	1205.799805	123.045784
29746.129255	-1392.073333	1204.680664	235.182190
29746.129255	-1392.073333	1203.560547	150.703659
29746.129255	-1392.073333	1202.441406	351.577515
29746.129255	-1392.073333	1201.321289	357.244476
29746.129255	-1392.073333	1200.200195	334.957062
29746.129255	-1392.073333	1199.080078	444.902496
29746.129255	-1392.073333	1197.958984	422.761566
29746.129255	-1392.073333	1196.837891	577.301575
29746.129255	-1392.073333	1195.716797	318.285339
29746.129255	-1392.073333	1194.594727	402.396179
29746.129255	-1392.073333	1193.473633	426.430695
29746.129255	-1392.073333	1192.351563	215.576981
29746.129255	-1392.073333	1191.229492	215.623367
29746.129255	-1392.073333	1190.106445	50.864372
29746.129255	-1392.073333	1188.984375	64.657822
29746.129255	-1392.073333	1187.861328	-27.335665
29746.129255	-1392.073333	1186.738281	-74.599174
29746.129255	-1392.073333	1185.614258	-39.776226
29746.129255	-1392.073333	1184.491211	-68.347221
29746.129255	-1392.073333	1183.367188	40.617859
29746.129255	-1392.073333	1182.243164	67.314240
29746.129255	-1392.073333	1181.119141	6.796822
29746.129255	-1392.073333	1179.994141	-25.281099
29746.129255	-1392.073333	1178.869141	-55.806278
29746.129255	-1392.073333	1177.744141	-2.685216
29746.129255	-1392.073333	1176.619141	-64.776077
29746.129255	-1392.073333	1175.493164	8.102189
29746.129255	-1392.073333	1174.368164	-125.682816
29746.129255	-1392.073333	1173.242188	-33.536324
29746.129255	-1392.073333	1172.115234	-2.784797
29746.129255	-1392.073333	1170.989258	19.846210
29746.129255	-1392.073333	1169.862305	-10.298626
29746.129255	-1392.073333	1168.735352	-10.081454
29746.129255	-1392.073333	1167.608398	41.312931
29746.129255	-1392.073333	1166.481445	-20.618134
29746.129255	-1392.073333	1165.353516	-83.826546
29746.129255	-1392.073333	1164.225586	-155.560104
29746.129255	-1392.073333	1163.097656	-25.542660
29746.129255	-1392.073333	1161.968750	-131.088455
29746.129255	-1392.073333	1160.840820	-29.695616
29746.129255	-1392.073333	1159.711914	170.271225
29746.129255	-1392.073333	1158.583008	111.780701
29746.129255	-1392.073333	1157.453125	75.160072
29746.129255	-1392.073333	1156.324219	140.157028
29746.129255	-1392.073333	1155.194336	42.190941
29746.129255	-1392.073333	1154.064453	89.013748
29746.129255	-1392.073333	1152.933594	-54.437489
29746.129255	-1392.073333	1151.803711	119.943977
29746.129255	-1392.073333	1150.672852	24.160860
29746.129255	-1392.073333	1149.541992	105.265488
29746.129255	-1392.073333	1148.411133	24.474491
29746.129255	-1392.073333	1147.279297	34.024155
29746.129255	-1392.073333	1146.147461	71.484940
29746.129255	-1392.073333	1145.015625	83.198982
29746.129255	-1392.073333	1143.883789	78.875587
29746.129255	-1392.073333	1142.750977	194.770981
29746.129255	-1392.073333	1141.619141	96.239441
29746.129255	-1392.073333	1140.486328	156.381424
29746.129255	-1392.073333	1139.352539	175.131302
29746.129255	-1392.073333	1138.219727	189.919144
29746.129255	-1392.073333	1137.085938	231.371689
29746.129255	-1392.073333	1135.952148	363.799377
29746.129255	-1392.073333	1134.818359	484.816833
29746.129255	-1392.073333	1133.683594	562.780701
29746.129255	-1392.073333	1132.549805	634.530029
29746.129255	-1392.073333	1131.415039	511.091675
29746.129255	-1392.073333	1130.279297	624.220337
29746.129255	-1392.073333	1129.144531	696.776245
29746.129255	-1392.073333	1128.008789	598.620605
29746.129255	-1392.073333	1126.873047	716.067932
29746.129255	-1392.073333	1125.737305	497.651367
29746.129255	-1392.073333	1124.601563	551.509521
29746.129255	-1392.073333	1123.464844	377.563721
29746.129255	-1392.073333	1122.328125	568.436829
29746.129255	-1392.073333	1121.191406	522.834290
29746.129255	-1392.073333	1120.054688	376.643707
29746.129255	-1392.073333	1118.916992	434.759064
29746.129255	-1392.073333	1117.779297	320.906281
29746.129255	-1392.073333	1116.641602	307.522797
29746.129255	-1392.073333	1115.503906	392.776031
29746.129255	-1392.073333	1114.365234	268.357178
29746.129255	-1392.073333	1113.226563	313.362427
29746.129255	-1392.073333	1112.087891	241.425018
29746.129255	-1392.073333	1110.949219	280.755371
29746.129255	-1392.073333	1109.809570	272.830231
29746.129255	-1392.073333	1108.669922	163.124786
29746.129255	-1392.073333	1107.530273	321.167847
29746.129255	-1392.073333	1106.390625	307.993500
29746.129255	-1392.073333	1105.250000	263.150726
29746.129255	-1392.073333	1104.109375	233.735916
29746.129255	-1392.073333	1102.968750	268.745148
29746.129255	-1392.073333	1101.828125	88.274078
29746.129255	-1392.073333	1100.686523	354.097168
29746.129255	-1392.073333	1099.544922	221.609253
29746.129255	-1392.073333	1098.403320	115.992958
29746.129255	-1392.073333	1097.261719	224.124710
29746.129255	-1392.073333	1096.120117	161.737396
29746.129255	-1392.073333	1094.977539	334.430542
29746.129255	-1392.073333	1093.834961	419.259827
29746.129255	-1392.073333	1092.691406	211.227081
29746.129255	-1392.073333	1091.548828	200.831970
29746.129255	-1392.073333	1090.405273	186.666550
29746.129255	-1392.073333	1089.261719	191.488739
29746.129255	-1392.073333	1088.118164	192.261414
29746.129255	-1392.073333	1086.973633	-7.120630
29746.129255	-1392.073333	1085.829102	150.380402
29746.129255	-1392.073333	1084.684570	25.950043
29746.129255	-1392.073333	1083.540039	-85.109917
29746.129255	-1392.073333	1082.395508	-22.673010
29746.129255	-1392.073333	1081.250000	56.998211
29746.129255	-1392.073333	1080.104492	-37.262424
29746.129255	-1392.073333	1078.958984	33.611996
29746.129255	-1392.073333	1077.812500	7.770469
29746.129255	-1392.073333	1076.666016	-18.456018
29746.129255	-1392.073333	1075.519531	46.905708
29746.129255	-1392.073333	1074.373047	19.611542
29746.129255	-1392.073333	1073.226563	4.154681
29746.129255	-1392.073333	1072.079102	41.095623
29746.129255	-1392.073333	1070.931641	62.612663
29746.129255	-1392.073333	1069.784180	34.860638
29746.129255	-1392.073333	1068.635742	75.529846
29746.129255	-1392.073333	1067.487305	211.843109
29746.129255	-1392.073333	1066.338867	209.298050
29746.129255	-1392.073333	1065.190430	279.509949
29746.129255	-1392.073333	1064.041992	237.271820
29746.129255	-1392.073333	1062.892578	177.854431
29746.129255	-1392.073333	1061.743164	172.485611
29746.129255	-1392.073333	1060.593750	232.917892
29746.129255	-1392.073333	1059.443359	173.568420
29746.129255	-1392.073333	1058.292969	224.796005
29746.129255	-1392.073333	1057.142578	373.729614
29746.129255	-1392.073333	1055.992188	251.688629
29746.129255	-1392.073333	1054.841797	386.992004
29746.129255	-1392.073333	1053.690430	288.249695
29746.129255	-1392.073333	1052.539063	286.047607
29746.129255	-1392.073333	1051.387695	397.733032
29746.129255	-1392.073333	1050.235352	382.752228
29746.129255	-1392.073333	1049.083984	218.141617
29746.129255	-1392.073333	1047.931641	237.500153
29746.129255	-1392.073333	1046.778320	215.152100
29746.129255	-1392.073333	1045.625977	255.407394
29746.129255	-1392.073333	1044.472656	153.636414
29746.129255	-1392.073333	1043.319336	227.841827
29746.129255	-1392.073333	1042.166016	-6.114907
29746.129255	-1392.073333	1041.012695	25.544607
29746.129255	-1392.073333	1039.858398	91.201996
29746.129255	-1392.073333	1038.704102	-12.422148
29746.129255	-1392.073333	1037.549805	38.923737
29746.129255	-1392.073333	1036.394531	2.174918
29746.129255	-1392.073333	1035.239258	-8.830754
29746.129255	-1392.073333	1034.083984	-135.373932
29746.129255	-1392.073333	1032.928711	-40.345123
29746.129255	-1392.073333	1031.773438	1.637129
29746.129255	-1392.073333	1030.617188	58.611980
29746.129255	-1392.073333	1029.460938	99.050720
29746.129255	-1392.073333	1028.304688	45.489586
29746.129255	-1392.073333	1027.147461	-46.327244
29746.129255	-1392.073333	1025.991211	192.949142
29746.129255	-1392.073333	1024.833984	75.306465
29746.129255	-1392.073333	1023.675781	208.922501
29746.129255	-1392.073333	1022.518555	218.700012
29746.129255	-1392.073333	1021.360352	252.881485
29746.129255	-1392.073333	1020.202148	131.376846
29746.129255	-1392.073333	1019.043945	32.012901
29746.129255	-1392.073333	1017.884766	261.330505
29746.129255	-1392.073333	1016.726563	145.273239
29746.129255	-1392.073333	1015.567383	128.780075
29746.129255	-1392.073333	1014.407227	70.560059
29746.129255	-1392.073333	1013.248047	25.529539
29746.129255	-1392.073333	1012.087891	297.643982
29746.129255	-1392.073333	1010.927734	65.940041
29746.129255	-1392.073333	1009.767578	225.789902
29746.129255	-1392.073333	1008.606445	-26.176888
29746.129255	-1392.073333	1007.446289	175.300995
29746.129255	-1392.073333	1006.285156	190.006424
29746.129255	-1392.073333	1005.123047	82.082077
29746.129255	-1392.073333	1003.961914	57.153622
29746.129255	-1392.073333	1002.799805	-105.075272
29746.129255	-1392.073333	1001.637695	-52.381268
29746.129255	-1392.073333	1000.475586	-120.508369
29746.129255	-1392.073333	999.312500	-231.890640
29746.129255	-1392.073333	998.149414	-157.184082
29746.129255	-1392.073333	996.986328	46.350208
29746.129255	-1392.073333	995.823242	63.614258
29746.129255	-1392.073333	994.659180	-157.339279
29746.129255	-1392.073333	993.496094	-75.981010
29746.129255	-1392.073333	992.332031	-104.398659
29746.129255	-1392.073333	991.166992	-32.765945
29746.129255	-1392.073333	990.002930	4.703951
29746.129255	-1392.073333	988.837891	-127.025040
29746.129255	-1392.073333	987.672852	7.444005
29746.129255	-1392.073333	986.506836	-37.406700
29746.129255	-1392.073333	985.341797	65.300667
29746.129255	-1392.073333	984.175781	96.449303
29746.129255	-1392.073333	983.009766	53.221855
29746.129255	-1392.073333	981.843750	226.733719
29746.129255	-1392.073333	980.676758	140.612518
29746.129255	-1392.073333	979.509766	95.031219
29746.129255	-1392.073333	978.342773	291.854218
29746.129255	-1392.073333	977.175781	175.834106
29746.129255	-1392.073333	976.007813	228.560852
29746.129255	-1392.073333	974.839844	249.186493
29746.129255	-1392.073333	973.671875	108.286377
29746.129255	-1392.073333	972.503906	223.575989
29746.129255	-1392.073333	971.334961	130.017288
29746.129255	-1392.073333	970.166016	68.771660
29746.129255	-1392.073333	968.997070	95.912491
29746.129255	-1392.073333	967.828125	240.628433
29746.129255	-1392.073333	966.658203	75.457039
29746.129255	-1392.073333	965.488281	148.308792
29746.129255	-1392.073333	964.318359	-71.275131
29746.129255	-1392.073333	963.148438	-12.241348
29746.129255	-1392.073333	961.977539	5.060915
29746.129255	-1392.073333	960.806641	2.884979
29746.129255	-1392.073333	959.635742	92.054733
29746.129255	-1392.073333	958.463867	38.729694
29746.129255	-1392.073333	957.292969	9.917459
29746.129255	-1392.073333	956.121094	-40.255005
29746.129255	-1392.073333	954.948242	90.281754
29746.129255	-1392.073333	953.776367	187.298111
29746.129255	-1392.073333	952.603516	195.165085
29746.129255	-1392.073333	951.430664	-49.624615
29746.129255	-1392.073333	950.257813	43.333946
29746.129255	-1392.073333	949.084961	-91.838959
29746.129255	-1392.073333	947.911133	31.825123
29746.129255	-1392.073333	946.737305	-97.020393
29746.129255	-1392.073333	945.563477	-154.529648
29746.129255	-1392.073333	944.388672	-44.120476
29746.129255	-1392.073333	943.213867	-88.786865
29746.129255	-1392.073333	942.039063	-108.746941
29746.129255	-1392.073333	940.864258	-93.510307
29746.129255	-1392.073333	939.688477	-29.742895
29746.129255	-1392.073333	938.513672	-87.467384
29746.129255	-1392.073333	937.337891	86.932930
29746.129255	-1392.073333	936.161133	0.392728
29746.129255	-1392.073333	934.985352	2.208257
29746.129255	-1392.073333	933.808594	-60.112263
29746.129255	-1392.073333	932.631836	-29.420137
29746.129255	-1392.073333	931.454102	-1.136284
29746.129255	-1392.073333	930.277344	164.265152
29746.129255	-1392.073333	929.099609	13.533488
29746.129255	-1392.073333	927.921875	24.080162
29746.129255	-1392.073333	926.743164	105.432442
29746.129255	-1392.073333	925.565430	32.025475
29746.129255	-1392.073333	924.386719	95.596245
29746.129255	-1392.073333	923.208008	95.093353
29746.129255	-1392.073333	922.028320	143.150955
29746.129255	-1392.073333	920.849609	261.829773
29746.129255	-1392.073333	919.669922	262.661133
29746.129255	-1392.073333	919.474609	67.127411
29746.129255	-1392.073333	918.309570	70.971298
29746.129255	-1392.073333	917.143555	65.973701
29746.129255	-1392.073333	915.977539	182.299606
29746.129255	-1392.073333	914.810547	111.082581
29746.129255	-1392.073333	913.644531	158.961609
29746.129255	-1392.073333	912.477539	19.401941
29746.129255	-1392.073333	911.310547	203.920166
29746.129255	-1392.073333	910.143555	141.515411
29746.129255	-1392.073333	908.975586	347.940826
29746.129255	-1392.073333	907.807617	237.039215
29746.129255	-1392.073333	906.639648	463.156372
29746.129255	-1392.073333	905.471680	301.601532
29746.129255	-1392.073333	904.303711	305.221436
29746.129255	-1392.073333	903.134766	302.223816
29746.129255	-1392.073333	901.965820	206.783005
29746.129255	-1392.073333	900.796875	232.383514
29746.129255	-1392.073333	899.626953	244.761780
29746.129255	-1392.073333	898.457031	252.723557
29746.129255	-1392.073333	897.287109	207.894440
29746.129255	-1392.073333	896.117188	198.247192
29746.129255	-1392.073333	894.947266	287.502625
29746.129255	-1392.073333	893.776367	247.051422
29746.129255	-1392.073333	892.605469	195.618820
29746.129255	-1392.073333	891.434570	328.717102
29746.129255	-1392.073333	890.262695	237.732086
29746.129255	-1392.073333	889.091797	331.218658
29746.129255	-1392.073333	887.919922	161.212891
29746.129255	-1392.073333	886.748047	160.272110
29746.129255	-1392.073333	885.575195	-25.014374
29746.129255	-1392.073333	884.403320	81.566177
29746.129255	-1392.073333	883.230469	41.122982
29746.129255	-1392.073333	882.057617	171.747559
29746.129255	-1392.073333	880.883789	96.197151
29746.129255	-1392.073333	879.710938	77.663094
29746.129255	-1392.073333	878.537109	-63.613651
29746.129255	-1392.073333	877.362305	-29.537819
29746.129255	-1392.073333	876.188477	-72.168037
29746.129255	-1392.073333	875.013672	-49.078819
29746.129255	-1392.073333	873.839844	-34.770668
29746.129255	-1392.073333	872.664063	-64.269539
29746.129255	-1392.073333	871.489258	2.551758
29746.129255	-1392.073333	870.313477	-90.434601
29746.129255	-1392.073333	869.138672	-25.845253
29746.129255	-1392.073333	867.962891	-48.802200
29746.129255	-1392.073333	866.786133	-1.766827
29746.129255	-1392.073333	865.610352	-195.314224
29746.129255	-1392.073333	864.433594	-102.375511
29746.129255	-1392.073333	863.256836	104.183899
29746.129255	-1392.073333	862.079102	170.776382
29746.129255	-1392.073333	860.902344	69.082268
29746.129255	-1392.073333	859.724609	56.988232
29746.129255	-1392.073333	858.546875	1.205557
29746.129255	-1392.073333	857.368164	-32.726963
29746.129255	-1392.073333	856.190430	-18.625019
29746.129255	-1392.073333	855.011719	-107.130348
29746.129255	-1392.073333	853.833008	-34.115116
29746.129255	-1392.073333	852.654297	30.132633
29746.129255	-1392.073333	851.474609	79.073517
29746.129255	-1392.073333	850.294922	1.485779
29746.129255	-1392.073333	849.115234	185.587234
29746.129255	-1392.073333	847.935547	70.927238
29746.129255	-1392.073333	846.754883	209.146545
29746.129255	-1392.073333	845.575195	181.677643
29746.129255	-1392.073333	844.393555	-11.376659
29746.129255	-1392.073333	843.212891	122.388229
29746.129255	-1392.073333	842.032227	81.857178
29746.129255	-1392.073333	840.850586	100.124031
29746.129255	-1392.073333	839.668945	-205.996796
29746.129255	-1392.073333	838.486328	-26.634138
29746.129255	-1392.073333	837.304688	183.110397
29746.129255	-1392.073333	836.122070	-18.437429
29746.129255	-1392.073333	834.939453	123.768776
29746.129255	-1392.073333	833.756836	70.179710
29746.129255	-1392.073333	832.573242	186.198227
29746.129255	-1392.073333	831.389648	202.162231
29746.129255	-1392.073333	830.206055	272.444794
29746.129255	-1392.073333	829.022461	66.724159
29746.129255	-1392.073333	827.838867	173.919266
29746.129255	-1392.073333	826.654297	92.091148
29746.129255	-1392.073333	825.469727	220.934174
29746.129255	-1392.073333	824.284180	56.606487
29746.129255	-1392.073333	823.099609	128.945633
29746.129255	-1392.073333	821.914063	166.520813
29746.129255	-1392.073333	820.728516	130.297440
29746.129255	-1392.073333	819.542969	167.837524
29746.129255	-1392.073333	818.356445	285.602875
29746.129255	-1392.073333	817.169922	164.777695
29746.129255	-1392.073333	815.983398	63.505024
29746.129255	-1392.073333	814.796875	120.497757
29746.129255	-1392.073333	813.609375	131.947662
29746.129255	-1392.073333	812.422852	197.550293
29746.129255	-1392.073333	811.235352	217.625214
29746.129255	-1392.073333	810.046875	244.179214
29746.129255	-1392.073333	808.859375	132.131073
29746.129255	-1392.073333	807.670898	249.598114
29746.129255	-1392.073333	806.482422	284.757721
29746.129255	-1392.073333	805.293945	68.869202
29746.129255	-1392.073333	804.104492	242.499710
29746.129255	-1392.073333	802.915039	-36.041042
29746.129255	-1392.073333	801.725586	7.760142
29746.129255	-1392.073333	800.536133	181.266510
29746.129255	-1392.073333	799.345703	84.470024
29746.129255	-1392.073333	798.155273	100.092056
29746.129255	-1392.073333	796.964844	-67.975815
29746.129255	-1392.073333	795.774414	85.918724
29746.129255	-1392.073333	794.583008	-12.977515
29746.129255	-1392.073333	793.392578	-25.461439
29746.129255	-1392.073333	792.200195	-18.519190
29746.129255	-1392.073333	791.008789	27.265985
29746.129255	-1392.073333	789.816406	34.174290
29746.129255	-1392.073333	788.625000	43.227722
29746.129255	-1392.073333	787.432617	-3.822354
29746.129255	-1392.073333	786.239258	20.312088
29746.129255	-1392.073333	785.046875	5.611592
29746.129255	-1392.073333	783.853516	-62.992355
29746.129255	-1392.073333	782.660156	-62.602032
29746.129255	-1392.073333	781.465820	-135.494171
29746.129255	-1392.073333	780.272461	35.104309
29746.129255	-1392.073333	779.078125	28.980291
29746.129255	-1392.073333	777.883789	12.079386
29746.129255	-1392.073333	776.688477	-47.890320
29746.129255	-1392.073333	775.494141	-0.204998
29746.129255	-1392.073333	774.298828	-38.644730
29746.129255	-1392.073333	773.103516	168.239548
29746.129255	-1392.073333	771.907227	39.396591
29746.129255	-1392.073333	770.711914	-11.965805
29746.129255	-1392.073333	769.515625	235.612442
29746.129255	-1392.073333	768.318359	311.065826
29746.129255	-1392.073333	767.122070	162.909286
29746.129255	-1392.073333	765.924805	171.697601
29746.129255	-1392.073333	764.727539	141.792953
29746.129255	-1392.073333	763.530273	10.916986
29746.129255	-1392.073333	762.333008	-51.182808
29746.129255	-1392.073333	761.134766	-3.748159
29746.129255	-1392.073333	759.936523	22.185204
29746.129255	-1392.073333	758.738281	269.192413
29746.129255	-1392.073333	757.540039	161.976074
29746.129255	-1392.073333	756.340820	-112.569359
29746.129255	-1392.073333	755.141602	3.418345
29746.129255	-1392.073333	753.942383	-11.485657
29746.129255	-1392.073333	752.742188	-19.962624
29746.129255	-1392.073333	751.541992	-137.785538
29746.129255	-1392.073333	750.341797	-51.945156
29746.129255	-1392.073333	749.141602	68.135590
29746.129255	-1392.073333	747.941406	3.895612
29746.129255	-1392.073333	746.740234	-133.161331
29746.129255	-1392.073333	745.539063	1.815854
29746.129255	-1392.073333	744.337891	-133.066452
29746.129255	-1392.073333	743.135742	111.007492
29746.129255	-1392.073333	741.933594	-17.445181
29746.129255	-1392.073333	740.731445	-77.381561
29746.129255	-1392.073333	739.529297	-56.007771
29746.129255	-1392.073333	738.326172	23.095903
29746.129255	-1392.073333	737.124023	-6.909653
29746.129255	-1392.073333	735.919922	123.438377
29746.129255	-1392.073333	734.716797	422.592590
29746.129255	-1392.073333	733.513672	347.602539
29746.129255	-1392.073333	732.309570	415.791718
29746.129255	-1392.073333	731.105469	511.710510
29746.129255	-1392.073333	729.900391	289.335693
29746.129255	-1392.073333	728.696289	289.122253
29746.129255	-1392.073333	727.491211	291.030121
29746.129255	-1392.073333	726.286133	339.882660
29746.129255	-1392.073333	725.080078	335.349518
29746.129255	-1392.073333	723.874023	224.124680
29746.129255	-1392.073333	722.668945	14.808009
29746.129255	-1392.073333	721.461914	57.224255
29746.129255	-1392.073333	720.255859	31.377146
29746.129255	-1392.073333	719.048828	-13.659760
29746.129255	-1392.073333	717.841797	81.979004
29746.129255	-1392.073333	716.634766	224.444260
29746.129255	-1392.073333	715.427734	130.352631
29746.129255	-1392.073333	714.219727	102.316505
29746.129255	-1392.073333	713.011719	70.019264
29746.129255	-1392.073333	711.803711	31.333887
29746.129255	-1392.073333	710.594727	-115.914391
29746.129255	-1392.073333	709.385742	92.303062
29746.129255	-1392.073333	708.176758	-69.818985
29746.129255	-1392.073333	706.967773	123.381012
29746.129255	-1392.073333	705.758789	14.464536
29746.129255	-1392.073333	704.548828	105.465744
29746.129255	-1392.073333	703.338867	92.239487
29746.129255	-1392.073333	702.127930	42.867767
29746.129255	-1392.073333	700.917969	-31.997673
29746.129255	-1392.073333	699.707031	67.375557
29746.129255	-1392.073333	698.496094	-20.240150
29746.129255	-1392.073333	697.285156	-116.328751
29746.129255	-1392.073333	696.073242	-146.570007
29746.129255	-1392.073333	694.861328	-49.439564
29746.129255	-1392.073333	693.649414	-98.814423
29746.129255	-1392.073333	692.436523	-33.596077
29746.129255	-1392.073333	691.224609	-8.729274
29746.129255	-1392.073333	690.011719	81.864883
29746.129255	-1392.073333	688.798828	-20.574827
29746.129255	-1392.073333	687.584961	25.427507
29746.129255	-1392.073333	686.372070	5.683090
29746.129255	-1392.073333	685.158203	87.657440
29746.129255	-1392.073333	683.943359	97.538956
29746.129255	-1392.073333	682.729492	56.559322
29746.129255	-1392.073333	681.514648	314.216217
29746.129255	-1392.073333	680.299805	228.707001
29746.129255	-1392.073333	679.084961	412.089264
29746.129255	-1392.073333	677.869141	341.378845
29746.129255	-1392.073333	676.653320	429.397156
29746.129255	-1392.073333	675.437500	305.786774
29746.129255	-1392.073333	674.221680	144.135971
29746.129255	-1392.073333	673.004883	105.198898
29746.129255	-1392.073333	671.789063	169.869522
29746.129255	-1392.073333	670.571289	147.820847
29746.129255	-1392.073333	669.354492	206.080963
29746.129255	-1392.073333	668.136719	55.102882
29746.129255	-1392.073333	666.919922	5.580018
29746.129255	-1392.073333	665.701172	23.649557
29746.129255	-1392.073333	664.483398	79.706947
29746.129255	-1392.073333	663.264648	40.714371
29746.129255	-1392.073333	662.045898	52.382069
29746.129255	-1392.073333	660.827148	-52.044388
29746.129255	-1392.073333	659.608398	240.230377
29746.129255	-1392.073333	658.388672	34.515476
29746.129255	-1392.073333	657.168945	-40.365986
29746.129255	-1392.073333	655.949219	-77.277817
29746.129255	-1392.073333	654.728516	-128.949982
29746.129255	-1392.073333	653.507813	-64.691200
29746.129255	-1392.073333	652.287109	-129.021988
29746.129255	-1392.073333	651.066406	-24.794464
29746.129255	-1392.073333	649.844727	-114.419289
29746.129255	-1392.073333	648.623047	0.254838
29746.129255	-1392.073333	647.401367	20.114609
29746.129255	-1392.073333	646.179688	33.634106
29746.129255	-1392.073333	644.957031	-30.742908
29746.129255	-1392.073333	643.734375	90.058266
29746.129255	-1392.073333	642.511719	-35.346676
29746.129255	-1392.073333	641.289063	36.993401
29746.129255	-1392.073333	640.065430	-132.543716
29746.129255	-1392.073333	638.841797	200.447311
29746.129255	-1392.073333	637.618164	129.703751
29746.129255	-1392.073333	636.393555	27.448553
29746.129255	-1392.073333	635.168945	32.372742
29746.129255	-1392.073333	633.944336	28.875210
29746.129255	-1392.073333	632.719727	35.861687
29746.129255	-1392.073333	631.494141	49.124912
29746.129255	-1392.073333	630.269531	91.756065
29746.129255	-1392.073333	629.042969	-33.559502
29746.129255	-1392.073333	627.817383	13.230107
29746.129255	-1392.073333	626.590820	-15.546024
29746.129255	-1392.073333	625.365234	-113.543678
29746.129255	-1392.073333	624.137695	-8.106957
29746.129255	-1392.073333	622.911133	107.751732
29746.129255	-1392.073333	621.683594	68.424370
29746.129255	-1392.073333	620.456055	135.977600
29746.129255	-1392.073333	619.228516	29.574959
29746.129255	-1392.073333	618.000977	50.984497
29746.129255	-1392.073333	616.772461	74.459229
29746.129255	-1392.073333	615.543945	150.253860
29746.129255	-1392.073333	614.314453	-4.289277
29746.129255	-1392.073333	613.085938	-52.038090
29746.129255	-1392.073333	611.856445	46.696533
29746.129255	-1392.073333	610.626953	-3.173926
29746.129255	-1392.073333	609.397461	70.370033
29746.129255	-1392.073333	608.166992	39.297634
29746.129255	-1392.073333	606.936523	18.674217
29746.129255	-1392.073333	605.706055	-60.490982
29746.129255	-1392.073333	604.474609	46.362526
29746.129255	-1392.073333	603.244141	-28.633938
29746.129255	-1392.073333	602.012695	-49.303699
29746.129255	-1392.073333	600.780273	61.597301
29746.129255	-1392.073333	599.548828	-157.497787
29746.129255	-1392.073333	598.316406	-0.729770
29746.129255	-1392.073333	597.083984	-56.950676
29746.129255	-1392.073333	595.851563	51.692947
29746.129255	-1392.073333	594.618164	51.776615
29746.129255	-1392.073333	593.384766	-39.941334
29746.129255	-1392.073333	592.151367	72.739723
29746.129255	-1392.073333	590.917969	-100.300385
29746.129255	-1392.073333	589.683594	120.704208
29746.129255	-1392.073333	588.449219	97.746269
29746.129255	-1392.073333	587.214844	8.098686
29746.129255	-1392.073333	585.979492	112.212822
29746.129255	-1392.073333	584.745117	103.791183
29746.129255	-1392.073333	583.509766	39.126217
29746.129255	-1392.073333	582.273438	18.187027
29746.129255	-1392.073333	581.038086	63.847107
29746.129255	-1392.073333	579.801758	90.735214
29746.129255	-1392.073333	578.565430	-30.132837
29746.129255	-1392.073333	577.329102	129.854187
29746.129255	-1392.073333	576.091797	140.008835
29746.129255	-1392.073333	574.854492	60.728310
29746.129255	-1392.073333	573.617188	37.590134
29746.129255	-1392.073333	572.378906	14.438060
29746.129255	-1392.073333	571.141602	41.147739
29746.129255	-1392.073333	569.903320	-102.534172
29746.129255	-1392.073333	568.664063	-146.478943
29746.129255	-1392.073333	567.425781	60.848366
29746.129255	-1392.073333	566.186523	-28.832579
29746.129255	-1392.073333	564.947266	6.047875
29746.129255	-1392.073333	563.708008	150.882172
29746.129255	-1392.073333	562.467773	131.716034
29746.129255	-1392.073333	561.227539	120.833488
29746.129255	-1392.073333	559.987305	217.779327
29746.129255	-1392.073333	558.747070	94.866837
29746.129255	-1392.073333	557.505859	266.359467
29746.129255	-1392.073333	556.264648	17.009525
29746.129255	-1392.073333	555.023438	6.045855
29746.129255	-1392.073333	553.781250	115.222031
29746.129255	-1392.073333	552.539063	143.546768
29746.129255	-1392.073333	551.296875	101.425636
29746.129255	-1392.073333	550.054688	57.228058
29746.129255	-1392.073333	548.811523	97.891602
29746.129255	-1392.073333	547.569336	80.568802
29746.129255	-1392.073333	546.325195	-89.890182
29746.129255	-1392.073333	545.082031	-1.716817
29746.129255	-1392.073333	543.837891	84.322021
29746.129255	-1392.073333	542.593750	-15.800508
29746.129255	-1392.073333	541.349609	-72.491898
29746.129255	-1392.073333	540.105469	-58.912079
29746.129255	-1392.073333	538.860352	18.692715
29746.129255	-1392.073333	537.615234	77.643814
29746.129255	-1392.073333	536.369141	372.012299
29746.129255	-1392.073333	535.124023	79.738594
29746.129255	-1392.073333	533.877930	165.393356
29746.129255	-1392.073333	532.631836	149.837006
29746.129255	-1392.073333	531.384766	142.510132
29746.129255	-1392.073333	530.138672	151.667755
29746.129255	-1392.073333	528.891602	70.021408
29746.129255	-1392.073333	527.643555	-21.934208
29746.129255	-1392.073333	526.396484	36.648769
29746.129255	-1392.073333	525.148438	49.819138
29746.129255	-1392.073333	523.900391	-35.981552
29746.129255	-1392.073333	522.652344	137.870316
29746.129255	-1392.073333	521.403320	6.695930
29746.129255	-1392.073333	520.154297	-33.822403
29746.129255	-1392.073333	518.905273	45.086357
29746.129255	-1392.073333	517.656250	-141.671997
29746.129255	-1392.073333	516.406250	-106.071854
29746.129255	-1392.073333	515.156250	-261.918152
29746.129255	-1392.073333	513.906250	135.759811
29746.129255	-1392.073333	512.655273	4.541220
29746.129255	-1392.073333	511.404297	4.972248
29746.129255	-1392.073333	510.153320	-146.796783
29746.129255	-1392.073333	508.902344	-138.182922
29746.129255	-1392.073333	507.650391	-59.731144
29746.129255	-1392.073333	506.398438	-141.636963
29746.129255	-1392.073333	505.146484	-28.368282
29746.129255	-1392.073333	503.893555	74.538109
29746.129255	-1392.073333	502.641602	-11.569242
29746.129255	-1392.073333	501.388672	19.347446
29746.129255	-1392.073333	500.134766	-70.905945
29746.129255	-1392.073333	498.881836	-167.315704
29746.129255	-1392.073333	497.627930	-31.872126
29746.129255	-1392.073333	496.374023	-77.053810
29746.129255	-1392.073333	495.119141	-60.735802
29746.129255	-1392.073333	493.865234	4.746176
29746.129255	-1392.073333	492.610352	-97.956886
29746.129255	-1392.073333	491.355469	-32.592121
29746.129255	-1392.073333	490.099609	85.972061
29746.129255	-1392.073333	488.843750	-33.219948
29746.129255	-1392.073333	487.587891	191.706955
29746.129255	-1392.073333	486.332031	166.645935
29746.129255	-1392.073333	485.075195	35.073048
29746.129255	-1392.073333	483.818359	-0.287071
29746.129255	-1392.073333	482.561523	91.200851
29746.129255	-1392.073333	481.304688	18.905449
29746.129255	-1392.073333	480.046875	26.362602
29746.129255	-1392.073333	478.789063	142.157364
29746.129255	-1392.073333	477.531250	79.947350
29746.129255	-1392.073333	476.272461	36.099789
29746.129255	-1392.073333	475.013672	159.811584
29746.129255	-1392.073333	473.754883	197.582581
29746.129255	-1392.073333	472.496094	161.726563
29746.129255	-1392.073333	471.236328	185.052338
29746.129255	-1392.073333	469.976563	169.501999
29746.129255	-1392.073333	468.716797	307.019653
29746.129255	-1392.073333	467.456055	113.721443
29746.129255	-1392.073333	466.196289	306.157257
29746.129255	-1392.073333	464.935547	200.539124
29746.129255	-1392.073333	463.673828	276.444672
29746.129255	-1392.073333	462.413086	280.866821
29746.129255	-1392.073333	461.151367	126.160278
29746.129255	-1392.073333	459.889648	240.541748
29746.129255	-1392.073333	458.626953	230.462265
29746.129255	-1392.073333	457.364258	18.571688
29746.129255	-1392.073333	456.101563	256.934357
29746.129255	-1392.073333	454.838867	199.766479
29746.129255	-1392.073333	453.575195	234.173019
29746.129255	-1392.073333	452.312500	274.591431
29746.129255	-1392.073333	451.047852	274.182831
29746.129255	-1392.073333	449.784180	287.935547
29746.129255	-1392.073333	448.519531	344.313568
29746.129255	-1392.073333	447.254883	231.733536
29746.129255	-1392.073333	445.990234	306.214142
29746.129255	-1392.073333	444.725586	248.398514
29746.129255	-1392.073333	443.459961	324.674011
29746.129255	-1392.073333	442.194336	587.801575
29746.129255	-1392.073333	440.927734	383.341278
29746.129255	-1392.073333	439.662109	371.870148
29746.129255	-1392.073333	438.395508	484.189636
29746.129255	-1392.073333	437.127930	391.244171
29746.129255	-1392.073333	435.861328	279.959900
29746.129255	-1392.073333	434.593750	304.601471
29746.129255	-1392.073333	433.326172	359.556122
29746.129255	-1392.073333	432.058594	402.194611
29746.129255	-1392.073333	430.790039	314.862000
29746.129255	-1392.073333	429.521484	235.555542
29746.129255	-1392.073333	428.252930	314.310883
29746.129255	-1392.073333	426.984375	366.550354
29746.129255	-1392.073333	425.714844	477.403595
29746.129255	-1392.073333	424.445313	393.549225
29746.129255	-1392.073333	423.174805	352.129700
29746.129255	-1392.073333	421.905273	472.629883
29746.129255	-1392.073333	420.634766	430.928497
29746.129255	-1392.073333	419.364258	423.517334
29746.129255	-1392.073333	418.092773	399.759918
29746.129255	-1392.073333	416.822266	426.460602
29746.129255	-1392.073333	415.550781	349.802734
29746.129255	-1392.073333	414.278320	394.379639
29746.129255	-1392.073333	413.006836	291.152924
29746.129255	-1392.073333	411.734375	313.157593
29746.129255	-1392.073333	410.461914	134.858963
29746.129255	-1392.073333	409.188477	198.983139
29746.129255	-1392.073333	407.916016	186.131165
29746.129255	-1392.073333	406.642578	154.917358
29746.129255	-1392.073333	405.368164	135.645111
29746.129255	-1392.073333	404.094727	160.630386
29746.129255	-1392.073333	402.820313	167.237549
29746.129255	-1392.073333	401.545898	20.250748
29746.129255	-1392.073333	400.270508	-1.763001
29746.129255	-1392.073333	398.996094	-1.764171
29746.129255	-1392.073333	397.720703	68.619949
29746.129255	-1392.073333	396.444336	-66.943016
29746.129255	-1392.073333	395.168945	-15.140357
29746.129255	-1392.073333	393.892578	36.414646
29746.129255	-1392.073333	392.616211	53.466206
29746.129255	-1392.073333	391.339844	76.331558
29746.129255	-1392.073333	390.062500	131.179443
29746.129255	-1392.073333	388.785156	52.845165
29746.129255	-1392.073333	387.507813	145.462646
29746.129255	-1392.073333	386.229492	-21.908991
29746.129255	-1392.073333	384.951172	180.884689
29746.129255	-1392.073333	383.672852	141.866089
29746.129255	-1392.073333	382.394531	142.845581
29746.129255	-1392.073333	381.115234	42.982815
29746.129255	-1392.073333	379.835938	158.070358
29746.129255	-1392.073333	378.556641	-32.762272
29746.129255	-1392.073333	377.277344	202.351181
29746.129255	-1392.073333	375.997070	57.245476
29746.129255	-1392.073333	374.716797	100.783028
29746.129255	-1392.073333	373.435547	27.487959
29746.129255	-1392.073333	372.155273	40.300400
29746.129255	-1392.073333	370.874023	86.925629
29746.129255	-1392.073333	369.591797	249.642303
29746.129255	-1392.073333	368.310547	100.898506
29746.129255	-1392.073333	367.028320	270.934509
29746.129255	-1392.073333	365.746094	380.386597
29746.129255	-1392.073333	364.463867	351.066559
29746.129255	-1392.073333	363.180664	479.823517
29746.129255	-1392.073333	361.897461	499.919312
29746.129255	-1392.073333	360.614258	545.715149
29746.129255	-1392.073333	359.330078	422.785797
29746.129255	-1392.073333	358.045898	457.827057
29746.129255	-1392.073333	356.761719	634.704834
29746.129255	-1392.073333	355.477539	452.653076
29746.129255	-1392.073333	354.192383	444.476471
29746.129255	-1392.073333	352.907227	321.811981
29746.129255	-1392.073333	351.622070	276.858124
29746.129255	-1392.073333	350.336914	147.483261
29746.129255	-1392.073333	349.050781	195.780533
29746.129255	-1392.073333	347.764648	163.637680
29746.129255	-1392.073333	346.477539	75.076706
29746.129255	-1392.073333	345.191406	-3.862196
29746.129255	-1392.073333	343.904297	70.677071
29746.129255	-1392.073333	342.616211	30.815176
29746.129255	-1392.073333	341.329102	118.398621
29746.129255	-1392.073333	340.041016	59.649376
29746.129255	-1392.073333	338.752930	52.376625
29746.129255	-1392.073333	337.463867	26.639315
29746.129255	-1392.073333	336.175781	58.334137
29746.129255	-1392.073333	334.886719	-185.904144
29746.129255	-1392.073333	333.596680	-119.303375
29746.129255	-1392.073333	332.307617	2.633611
29746.129255	-1392.073333	331.017578	121.979462
29746.129255	-1392.073333	329.727539	-80.281105
29746.129255	-1392.073333	328.436523	-29.839630
29746.129255	-1392.073333	327.146484	61.911133
29746.129255	-1392.073333	325.855469	-12.347484
29746.129255	-1392.073333	324.563477	-85.172386
29746.129255	-1392.073333	323.272461	-186.400497
29746.129255	-1392.073333	321.980469	-122.913902
29746.129255	-1392.073333	320.688477	-18.240520
29746.129255	-1392.073333	319.395508	-37.652874
29746.129255	-1392.073333	318.103516	-53.662628
29746.129255	-1392.073333	316.810547	-36.493763
29746.129255	-1392.073333	315.516602	-81.659256
29746.129255	-1392.073333	314.223633	103.270081
29746.129255	-1392.073333	312.929688	-58.525684
29746.129255	-1392.073333	311.635742	-18.156195
29746.129255	-1392.073333	310.340820	-141.479248
29746.129255	-1392.073333	309.045898	-191.917282
29746.129255	-1392.073333	307.750977	-8.619383
29746.129255	-1392.073333	306.456055	-48.555084
29746.129255	-1392.073333	305.160156	81.543137
29746.129255	-1392.073333	303.865234	210.883926
29746.129255	-1392.073333	302.568359	142.862518
29746.129255	-1392.073333	301.272461	401.571381
29746.129255	-1392.073333	299.975586	363.758057
29746.129255	-1392.073333	298.678711	541.384033
