#X		#Y		#Wave		#Intensity
29673.826064	-1313.726667	1999.980469	-25.637737
29673.826064	-1313.726667	1999.016602	0.283012
29673.826064	-1313.726667	1998.052734	-81.202934
29673.826064	-1313.726667	1997.087891	75.184990
29673.826064	-1313.726667	1996.123047	-21.263319
29673.826064	-1313.726667	1995.158203	60.627895
29673.826064	-1313.726667	1994.193359	21.075142
29673.826064	-1313.726667	1993.228516	6.247529
29673.826064	-1313.726667	1992.262695	92.884949
29673.826064	-1313.726667	1991.297852	3.687905
29673.826064	-1313.726667	1990.332031	60.497028
29673.826064	-1313.726667	1989.366211	25.682993
29673.826064	-1313.726667	1988.399414	-75.961128
29673.826064	-1313.726667	1987.433594	7.902435
29673.826064	-1313.726667	1986.466797	-165.507507
29673.826064	-1313.726667	1985.500977	-84.216080
29673.826064	-1313.726667	1984.534180	132.973328
29673.826064	-1313.726667	1983.567383	-0.939316
29673.826064	-1313.726667	1982.599609	82.628731
29673.826064	-1313.726667	1981.632813	74.709198
29673.826064	-1313.726667	1980.665039	39.582062
29673.826064	-1313.726667	1979.697266	63.709515
29673.826064	-1313.726667	1978.729492	33.466637
29673.826064	-1313.726667	1977.761719	-41.239532
29673.826064	-1313.726667	1976.792969	-51.769714
29673.826064	-1313.726667	1975.825195	167.199142
29673.826064	-1313.726667	1974.856445	52.933769
29673.826064	-1313.726667	1973.887695	-26.779072
29673.826064	-1313.726667	1972.918945	56.308132
29673.826064	-1313.726667	1971.949219	72.749451
29673.826064	-1313.726667	1970.980469	0.390604
29673.826064	-1313.726667	1970.010742	-76.897812
29673.826064	-1313.726667	1969.041016	-23.547007
29673.826064	-1313.726667	1968.071289	148.048843
29673.826064	-1313.726667	1967.101563	-5.678789
29673.826064	-1313.726667	1966.130859	-43.589897
29673.826064	-1313.726667	1965.161133	-17.471144
29673.826064	-1313.726667	1964.190430	55.404114
29673.826064	-1313.726667	1963.219727	-46.575466
29673.826064	-1313.726667	1962.249023	21.314968
29673.826064	-1313.726667	1961.277344	54.703995
29673.826064	-1313.726667	1960.306641	41.308987
29673.826064	-1313.726667	1959.334961	138.611923
29673.826064	-1313.726667	1958.363281	-0.278812
29673.826064	-1313.726667	1957.391602	-3.870851
29673.826064	-1313.726667	1956.419922	66.289070
29673.826064	-1313.726667	1955.447266	-8.640136
29673.826064	-1313.726667	1954.474609	51.632057
29673.826064	-1313.726667	1953.501953	163.475372
29673.826064	-1313.726667	1952.529297	90.984650
29673.826064	-1313.726667	1951.556641	6.224879
29673.826064	-1313.726667	1950.583984	127.799149
29673.826064	-1313.726667	1949.610352	50.406242
29673.826064	-1313.726667	1948.636719	100.701920
29673.826064	-1313.726667	1947.663086	89.598801
29673.826064	-1313.726667	1946.689453	34.311718
29673.826064	-1313.726667	1945.715820	3.574066
29673.826064	-1313.726667	1944.741211	-27.162811
29673.826064	-1313.726667	1943.767578	3.427057
29673.826064	-1313.726667	1942.792969	33.995617
29673.826064	-1313.726667	1941.818359	-35.987907
29673.826064	-1313.726667	1940.842773	-172.146484
29673.826064	-1313.726667	1939.868164	44.698917
29673.826064	-1313.726667	1938.892578	80.106857
29673.826064	-1313.726667	1937.916992	-43.767414
29673.826064	-1313.726667	1936.941406	8.779577
29673.826064	-1313.726667	1935.965820	-34.221783
29673.826064	-1313.726667	1934.990234	8.496673
29673.826064	-1313.726667	1934.013672	4.673670
29673.826064	-1313.726667	1933.037109	-70.142265
29673.826064	-1313.726667	1932.060547	94.915871
29673.826064	-1313.726667	1931.083984	27.442614
29673.826064	-1313.726667	1930.107422	-27.776598
29673.826064	-1313.726667	1929.129883	159.182693
29673.826064	-1313.726667	1928.153320	94.169151
29673.826064	-1313.726667	1927.175781	73.189117
29673.826064	-1313.726667	1926.198242	83.994911
29673.826064	-1313.726667	1925.219727	87.460159
29673.826064	-1313.726667	1924.242188	-48.375069
29673.826064	-1313.726667	1923.263672	-10.684687
29673.826064	-1313.726667	1922.285156	9.889079
29673.826064	-1313.726667	1921.306641	-67.244637
29673.826064	-1313.726667	1920.328125	-53.997765
29673.826064	-1313.726667	1919.349609	-65.173347
29673.826064	-1313.726667	1918.370117	43.266228
29673.826064	-1313.726667	1917.391602	51.598534
29673.826064	-1313.726667	1916.412109	-3.517910
29673.826064	-1313.726667	1915.431641	7.255907
29673.826064	-1313.726667	1914.452148	144.867218
29673.826064	-1313.726667	1913.472656	-59.006268
29673.826064	-1313.726667	1912.492188	83.440575
29673.826064	-1313.726667	1911.511719	18.612309
29673.826064	-1313.726667	1910.531250	61.054947
29673.826064	-1313.726667	1909.550781	113.229515
29673.826064	-1313.726667	1908.569336	67.922081
29673.826064	-1313.726667	1907.588867	71.353752
29673.826064	-1313.726667	1906.607422	-20.206200
29673.826064	-1313.726667	1905.625977	51.424103
29673.826064	-1313.726667	1904.644531	37.812595
29673.826064	-1313.726667	1903.662109	-56.124577
29673.826064	-1313.726667	1902.680664	-67.277176
29673.826064	-1313.726667	1901.698242	-7.858859
29673.826064	-1313.726667	1900.715820	-9.285450
29673.826064	-1313.726667	1899.733398	-3.413609
29673.826064	-1313.726667	1898.750000	58.390804
29673.826064	-1313.726667	1897.767578	15.617390
29673.826064	-1313.726667	1896.784180	50.654018
29673.826064	-1313.726667	1895.800781	5.467162
29673.826064	-1313.726667	1894.817383	101.246277
29673.826064	-1313.726667	1893.833984	175.122711
29673.826064	-1313.726667	1892.850586	115.363045
29673.826064	-1313.726667	1891.866211	140.633133
29673.826064	-1313.726667	1890.881836	71.188469
29673.826064	-1313.726667	1889.897461	-22.509537
29673.826064	-1313.726667	1888.913086	-26.356913
29673.826064	-1313.726667	1887.927734	8.628574
29673.826064	-1313.726667	1886.943359	-26.768141
29673.826064	-1313.726667	1885.958008	8.203569
29673.826064	-1313.726667	1884.972656	-10.200821
29673.826064	-1313.726667	1883.987305	-67.401527
29673.826064	-1313.726667	1883.001953	-8.195246
29673.826064	-1313.726667	1882.015625	-14.466702
29673.826064	-1313.726667	1881.029297	76.216072
29673.826064	-1313.726667	1880.042969	-97.280289
29673.826064	-1313.726667	1879.056641	-11.462701
29673.826064	-1313.726667	1878.070313	42.830387
29673.826064	-1313.726667	1877.083984	-45.794659
29673.826064	-1313.726667	1876.096680	15.746885
29673.826064	-1313.726667	1875.109375	16.737801
29673.826064	-1313.726667	1874.122070	-62.153057
29673.826064	-1313.726667	1873.134766	-56.309082
29673.826064	-1313.726667	1872.146484	72.935982
29673.826064	-1313.726667	1871.159180	102.942696
29673.826064	-1313.726667	1870.170898	65.209183
29673.826064	-1313.726667	1869.182617	-35.388527
29673.826064	-1313.726667	1868.194336	-58.577599
29673.826064	-1313.726667	1867.205078	-23.741102
29673.826064	-1313.726667	1866.216797	18.332100
29673.826064	-1313.726667	1865.227539	-31.441433
29673.826064	-1313.726667	1864.238281	8.197130
29673.826064	-1313.726667	1863.249023	96.130974
29673.826064	-1313.726667	1862.259766	-4.353890
29673.826064	-1313.726667	1861.269531	-56.509705
29673.826064	-1313.726667	1860.279297	82.079094
29673.826064	-1313.726667	1859.290039	39.577599
29673.826064	-1313.726667	1858.298828	88.795708
29673.826064	-1313.726667	1857.308594	2.870036
29673.826064	-1313.726667	1856.318359	40.009270
29673.826064	-1313.726667	1855.327148	48.186722
29673.826064	-1313.726667	1854.335938	-11.165918
29673.826064	-1313.726667	1853.344727	-82.554893
29673.826064	-1313.726667	1852.353516	128.125366
29673.826064	-1313.726667	1851.362305	-148.136978
29673.826064	-1313.726667	1850.370117	57.648453
29673.826064	-1313.726667	1849.377930	157.344254
29673.826064	-1313.726667	1848.385742	4.070644
29673.826064	-1313.726667	1847.393555	-43.181301
29673.826064	-1313.726667	1846.401367	51.648819
29673.826064	-1313.726667	1845.408203	86.250587
29673.826064	-1313.726667	1844.415039	-23.586872
29673.826064	-1313.726667	1843.421875	73.577705
29673.826064	-1313.726667	1842.428711	38.364296
29673.826064	-1313.726667	1841.435547	-18.492390
29673.826064	-1313.726667	1840.441406	119.488708
29673.826064	-1313.726667	1839.448242	91.484680
29673.826064	-1313.726667	1838.454102	-66.347878
29673.826064	-1313.726667	1837.459961	54.721100
29673.826064	-1313.726667	1836.464844	-2.114448
29673.826064	-1313.726667	1835.470703	128.496429
29673.826064	-1313.726667	1834.475586	-34.053886
29673.826064	-1313.726667	1833.480469	-62.034309
29673.826064	-1313.726667	1832.485352	-5.955251
29673.826064	-1313.726667	1831.490234	38.090374
29673.826064	-1313.726667	1830.495117	-47.524536
29673.826064	-1313.726667	1829.499023	8.498885
29673.826064	-1313.726667	1828.502930	-31.496933
29673.826064	-1313.726667	1827.506836	98.867744
29673.826064	-1313.726667	1826.510742	123.625008
29673.826064	-1313.726667	1825.513672	69.216263
29673.826064	-1313.726667	1824.517578	14.821228
29673.826064	-1313.726667	1823.520508	-37.164429
29673.826064	-1313.726667	1822.523438	124.200890
29673.826064	-1313.726667	1821.526367	84.181190
29673.826064	-1313.726667	1820.529297	120.845680
29673.826064	-1313.726667	1819.531250	-77.292976
29673.826064	-1313.726667	1818.533203	4.880180
29673.826064	-1313.726667	1817.535156	36.722923
29673.826064	-1313.726667	1816.537109	3.896737
29673.826064	-1313.726667	1815.539063	64.436150
29673.826064	-1313.726667	1814.540039	77.074005
29673.826064	-1313.726667	1813.541992	-10.808143
29673.826064	-1313.726667	1812.542969	-31.675629
29673.826064	-1313.726667	1811.543945	-31.015474
29673.826064	-1313.726667	1810.543945	10.291367
29673.826064	-1313.726667	1809.544922	32.443893
29673.826064	-1313.726667	1808.544922	-14.754239
29673.826064	-1313.726667	1807.544922	21.715351
29673.826064	-1313.726667	1806.544922	70.110352
29673.826064	-1313.726667	1805.544922	8.564425
29673.826064	-1313.726667	1804.544922	-0.411811
29673.826064	-1313.726667	1803.543945	131.524261
29673.826064	-1313.726667	1802.542969	48.476551
29673.826064	-1313.726667	1801.541992	91.991302
29673.826064	-1313.726667	1800.541016	90.122604
29673.826064	-1313.726667	1799.539063	109.722816
29673.826064	-1313.726667	1798.538086	-30.571831
29673.826064	-1313.726667	1797.536133	39.122200
29673.826064	-1313.726667	1796.534180	108.778488
29673.826064	-1313.726667	1795.532227	125.929649
29673.826064	-1313.726667	1794.529297	9.533459
29673.826064	-1313.726667	1793.527344	91.040230
29673.826064	-1313.726667	1792.524414	-63.465431
29673.826064	-1313.726667	1791.521484	1.317764
29673.826064	-1313.726667	1790.518555	101.803284
29673.826064	-1313.726667	1789.514648	133.154434
29673.826064	-1313.726667	1788.511719	69.213737
29673.826064	-1313.726667	1787.507813	143.396744
29673.826064	-1313.726667	1786.503906	65.167419
29673.826064	-1313.726667	1785.500000	94.070587
29673.826064	-1313.726667	1784.496094	130.090027
29673.826064	-1313.726667	1783.491211	20.934904
29673.826064	-1313.726667	1782.486328	111.644402
29673.826064	-1313.726667	1781.481445	114.299492
29673.826064	-1313.726667	1780.476563	64.622261
29673.826064	-1313.726667	1779.471680	79.147293
29673.826064	-1313.726667	1778.465820	103.160835
29673.826064	-1313.726667	1777.460938	93.878746
29673.826064	-1313.726667	1776.455078	29.930193
29673.826064	-1313.726667	1775.449219	49.146969
29673.826064	-1313.726667	1774.442383	39.836746
29673.826064	-1313.726667	1773.436523	163.514328
29673.826064	-1313.726667	1772.429688	175.528519
29673.826064	-1313.726667	1771.422852	142.417221
29673.826064	-1313.726667	1770.416016	306.312683
29673.826064	-1313.726667	1769.409180	71.443878
29673.826064	-1313.726667	1768.402344	40.701359
29673.826064	-1313.726667	1767.394531	0.465972
29673.826064	-1313.726667	1766.386719	69.334282
29673.826064	-1313.726667	1765.378906	-13.603919
29673.826064	-1313.726667	1764.371094	48.099079
29673.826064	-1313.726667	1763.362305	112.133163
29673.826064	-1313.726667	1762.354492	-18.209225
29673.826064	-1313.726667	1761.345703	14.980048
29673.826064	-1313.726667	1760.336914	-41.883030
29673.826064	-1313.726667	1759.328125	19.692232
29673.826064	-1313.726667	1758.318359	31.496244
29673.826064	-1313.726667	1757.308594	-193.492447
29673.826064	-1313.726667	1756.299805	17.171047
29673.826064	-1313.726667	1755.290039	116.497253
29673.826064	-1313.726667	1754.279297	-53.998749
29673.826064	-1313.726667	1753.269531	104.421547
29673.826064	-1313.726667	1752.258789	45.140652
29673.826064	-1313.726667	1751.249023	21.344898
29673.826064	-1313.726667	1750.238281	44.832764
29673.826064	-1313.726667	1749.226563	13.919631
29673.826064	-1313.726667	1748.215820	18.460855
29673.826064	-1313.726667	1747.204102	60.794884
29673.826064	-1313.726667	1746.193359	18.039343
29673.826064	-1313.726667	1745.181641	-62.513756
29673.826064	-1313.726667	1744.168945	-72.196487
29673.826064	-1313.726667	1743.157227	-60.636246
29673.826064	-1313.726667	1742.144531	87.839272
29673.826064	-1313.726667	1741.132813	28.518240
29673.826064	-1313.726667	1740.120117	-47.317207
29673.826064	-1313.726667	1739.106445	-61.790150
29673.826064	-1313.726667	1738.093750	-64.475105
29673.826064	-1313.726667	1737.080078	-20.001648
29673.826064	-1313.726667	1736.067383	-6.215727
29673.826064	-1313.726667	1735.053711	14.621201
29673.826064	-1313.726667	1734.040039	49.579838
29673.826064	-1313.726667	1733.025391	79.794067
29673.826064	-1313.726667	1732.011719	-113.881248
29673.826064	-1313.726667	1730.997070	1.139498
29673.826064	-1313.726667	1729.982422	123.167793
29673.826064	-1313.726667	1728.967773	-11.573667
29673.826064	-1313.726667	1727.952148	72.704224
29673.826064	-1313.726667	1726.937500	-31.400856
29673.826064	-1313.726667	1725.921875	-88.407913
29673.826064	-1313.726667	1724.906250	47.564934
29673.826064	-1313.726667	1723.890625	51.710121
29673.826064	-1313.726667	1722.875000	25.257185
29673.826064	-1313.726667	1721.858398	-88.225044
29673.826064	-1313.726667	1720.841797	21.716181
29673.826064	-1313.726667	1719.825195	-72.943016
29673.826064	-1313.726667	1718.808594	53.378494
29673.826064	-1313.726667	1717.791992	15.124610
29673.826064	-1313.726667	1716.774414	-23.131004
29673.826064	-1313.726667	1715.756836	-19.099108
29673.826064	-1313.726667	1714.739258	-92.594566
29673.826064	-1313.726667	1713.721680	-4.038210
29673.826064	-1313.726667	1712.704102	-93.971954
29673.826064	-1313.726667	1711.685547	-3.132738
29673.826064	-1313.726667	1710.667969	52.455006
29673.826064	-1313.726667	1709.649414	21.182055
29673.826064	-1313.726667	1708.630859	111.905144
29673.826064	-1313.726667	1707.611328	-43.717693
29673.826064	-1313.726667	1706.592773	28.193521
29673.826064	-1313.726667	1705.573242	27.373714
29673.826064	-1313.726667	1704.553711	21.852039
29673.826064	-1313.726667	1703.534180	2.256031
29673.826064	-1313.726667	1702.513672	-104.055145
29673.826064	-1313.726667	1701.494141	54.419212
29673.826064	-1313.726667	1700.473633	13.702993
29673.826064	-1313.726667	1699.453125	-80.878685
29673.826064	-1313.726667	1698.432617	11.893042
29673.826064	-1313.726667	1697.412109	-31.172157
29673.826064	-1313.726667	1696.390625	-90.620934
29673.826064	-1313.726667	1695.369141	-44.746765
29673.826064	-1313.726667	1694.347656	-125.254128
29673.826064	-1313.726667	1693.326172	14.158362
29673.826064	-1313.726667	1692.304688	27.203230
29673.826064	-1313.726667	1691.282227	103.366982
29673.826064	-1313.726667	1690.260742	-2.874808
29673.826064	-1313.726667	1689.238281	101.292061
29673.826064	-1313.726667	1688.214844	81.536629
29673.826064	-1313.726667	1687.192383	-5.983819
29673.826064	-1313.726667	1686.168945	-51.433167
29673.826064	-1313.726667	1685.146484	31.593483
29673.826064	-1313.726667	1684.123047	9.484931
29673.826064	-1313.726667	1683.099609	41.075294
29673.826064	-1313.726667	1682.075195	14.279229
29673.826064	-1313.726667	1681.051758	115.853767
29673.826064	-1313.726667	1680.027344	-39.312359
29673.826064	-1313.726667	1679.002930	22.546656
29673.826064	-1313.726667	1677.978516	-13.599317
29673.826064	-1313.726667	1676.953125	41.210728
29673.826064	-1313.726667	1675.928711	70.342316
29673.826064	-1313.726667	1674.903320	-82.389618
29673.826064	-1313.726667	1673.877930	-4.320791
29673.826064	-1313.726667	1672.852539	45.743778
29673.826064	-1313.726667	1671.826172	105.096115
29673.826064	-1313.726667	1670.800781	164.418747
29673.826064	-1313.726667	1669.774414	-4.539902
29673.826064	-1313.726667	1668.748047	1.201909
29673.826064	-1313.726667	1667.721680	23.228809
29673.826064	-1313.726667	1666.694336	166.275665
29673.826064	-1313.726667	1665.667969	55.591980
29673.826064	-1313.726667	1664.640625	19.396826
29673.826064	-1313.726667	1663.613281	15.775490
29673.826064	-1313.726667	1662.585938	56.339474
29673.826064	-1313.726667	1661.557617	150.361694
29673.826064	-1313.726667	1660.530273	81.592712
29673.826064	-1313.726667	1659.501953	101.172447
29673.826064	-1313.726667	1658.473633	157.922546
29673.826064	-1313.726667	1657.444336	207.669128
29673.826064	-1313.726667	1656.416016	208.604721
29673.826064	-1313.726667	1655.386719	70.165085
29673.826064	-1313.726667	1654.358398	66.468033
29673.826064	-1313.726667	1653.328125	130.093613
29673.826064	-1313.726667	1652.298828	177.441147
29673.826064	-1313.726667	1651.269531	136.567230
29673.826064	-1313.726667	1650.239258	98.020607
29673.826064	-1313.726667	1649.208984	-40.279819
29673.826064	-1313.726667	1648.178711	136.933701
29673.826064	-1313.726667	1647.148438	52.008053
29673.826064	-1313.726667	1646.117188	198.977814
29673.826064	-1313.726667	1645.086914	28.286564
29673.826064	-1313.726667	1644.055664	91.751846
29673.826064	-1313.726667	1643.024414	264.103607
29673.826064	-1313.726667	1641.992188	158.351517
29673.826064	-1313.726667	1640.960938	286.601318
29673.826064	-1313.726667	1639.928711	104.448326
29673.826064	-1313.726667	1638.896484	204.860321
29673.826064	-1313.726667	1637.864258	231.145111
29673.826064	-1313.726667	1636.832031	171.773605
29673.826064	-1313.726667	1635.798828	186.473709
29673.826064	-1313.726667	1634.766602	219.677399
29673.826064	-1313.726667	1633.733398	317.634735
29673.826064	-1313.726667	1632.699219	230.518784
29673.826064	-1313.726667	1631.666016	111.062271
29673.826064	-1313.726667	1630.632813	165.047348
29673.826064	-1313.726667	1629.598633	54.888428
29673.826064	-1313.726667	1628.564453	205.921005
29673.826064	-1313.726667	1627.530273	222.876236
29673.826064	-1313.726667	1626.495117	193.616806
29673.826064	-1313.726667	1625.460938	365.316376
29673.826064	-1313.726667	1624.425781	269.068329
29673.826064	-1313.726667	1623.390625	329.856995
29673.826064	-1313.726667	1622.355469	252.117722
29673.826064	-1313.726667	1621.319336	229.795166
29673.826064	-1313.726667	1620.284180	228.251038
29673.826064	-1313.726667	1619.248047	272.845245
29673.826064	-1313.726667	1618.211914	197.478745
29673.826064	-1313.726667	1617.174805	299.711456
29673.826064	-1313.726667	1616.138672	182.866959
29673.826064	-1313.726667	1615.101563	386.493713
29673.826064	-1313.726667	1614.065430	331.907928
29673.826064	-1313.726667	1613.027344	374.121124
29673.826064	-1313.726667	1611.990234	278.088074
29673.826064	-1313.726667	1610.953125	364.065460
29673.826064	-1313.726667	1609.915039	194.375534
29673.826064	-1313.726667	1608.876953	358.622772
29673.826064	-1313.726667	1607.838867	444.536377
29673.826064	-1313.726667	1606.800781	337.079956
29673.826064	-1313.726667	1605.761719	238.869659
29673.826064	-1313.726667	1604.723633	248.838379
29673.826064	-1313.726667	1603.684570	355.415955
29673.826064	-1313.726667	1602.644531	365.358002
29673.826064	-1313.726667	1601.605469	347.709167
29673.826064	-1313.726667	1600.566406	205.926971
29673.826064	-1313.726667	1599.526367	314.738373
29673.826064	-1313.726667	1598.486328	326.992523
29673.826064	-1313.726667	1597.446289	366.817047
29673.826064	-1313.726667	1596.405273	319.335480
29673.826064	-1313.726667	1595.365234	384.418121
29673.826064	-1313.726667	1594.324219	396.663849
29673.826064	-1313.726667	1593.283203	280.343109
29673.826064	-1313.726667	1592.242188	382.133392
29673.826064	-1313.726667	1591.200195	364.550812
29673.826064	-1313.726667	1590.159180	195.547638
29673.826064	-1313.726667	1589.117188	295.014801
29673.826064	-1313.726667	1588.075195	224.724228
29673.826064	-1313.726667	1587.032227	342.500610
29673.826064	-1313.726667	1585.990234	359.362640
29673.826064	-1313.726667	1584.947266	332.669495
29673.826064	-1313.726667	1583.904297	358.704346
29673.826064	-1313.726667	1582.861328	387.027405
29673.826064	-1313.726667	1581.818359	316.838623
29673.826064	-1313.726667	1580.775391	260.427734
29673.826064	-1313.726667	1579.731445	181.143494
29673.826064	-1313.726667	1578.687500	232.402237
29673.826064	-1313.726667	1577.643555	297.383362
29673.826064	-1313.726667	1576.598633	199.851181
29673.826064	-1313.726667	1575.554688	324.323639
29673.826064	-1313.726667	1574.509766	190.237305
29673.826064	-1313.726667	1573.464844	257.495300
29673.826064	-1313.726667	1572.419922	349.891296
29673.826064	-1313.726667	1571.374023	289.069000
29673.826064	-1313.726667	1570.329102	411.158630
29673.826064	-1313.726667	1569.283203	256.661713
29673.826064	-1313.726667	1568.237305	307.890564
29673.826064	-1313.726667	1567.191406	322.555786
29673.826064	-1313.726667	1566.144531	216.162521
29673.826064	-1313.726667	1565.098633	242.279770
29673.826064	-1313.726667	1564.051758	240.995682
29673.826064	-1313.726667	1563.004883	280.813843
29673.826064	-1313.726667	1561.957031	270.413239
29673.826064	-1313.726667	1560.910156	269.157715
29673.826064	-1313.726667	1559.862305	297.571533
29673.826064	-1313.726667	1558.814453	271.241730
29673.826064	-1313.726667	1557.766602	331.595764
29673.826064	-1313.726667	1556.718750	298.453156
29673.826064	-1313.726667	1555.669922	361.080353
29673.826064	-1313.726667	1554.621094	302.896393
29673.826064	-1313.726667	1553.573242	242.472061
29673.826064	-1313.726667	1552.523438	323.335907
29673.826064	-1313.726667	1551.474609	231.064758
29673.826064	-1313.726667	1550.424805	88.737312
29673.826064	-1313.726667	1549.375000	137.746628
29673.826064	-1313.726667	1548.325195	230.005020
29673.826064	-1313.726667	1547.275391	251.682098
29673.826064	-1313.726667	1546.225586	327.980194
29673.826064	-1313.726667	1545.174805	208.593613
29673.826064	-1313.726667	1544.124023	216.654602
29673.826064	-1313.726667	1543.073242	195.161896
29673.826064	-1313.726667	1542.022461	110.024353
29673.826064	-1313.726667	1540.970703	165.884583
29673.826064	-1313.726667	1539.919922	267.199127
29673.826064	-1313.726667	1538.868164	154.871704
29673.826064	-1313.726667	1537.815430	322.065582
29673.826064	-1313.726667	1536.763672	246.149368
29673.826064	-1313.726667	1535.710938	168.005814
29673.826064	-1313.726667	1534.659180	139.867691
29673.826064	-1313.726667	1533.606445	295.646179
29673.826064	-1313.726667	1532.552734	306.109558
29673.826064	-1313.726667	1531.500000	318.857147
29673.826064	-1313.726667	1530.446289	184.134720
29673.826064	-1313.726667	1529.393555	360.265686
29673.826064	-1313.726667	1528.338867	234.693130
29673.826064	-1313.726667	1527.285156	315.539215
29673.826064	-1313.726667	1526.231445	221.802689
29673.826064	-1313.726667	1525.176758	248.252808
29673.826064	-1313.726667	1524.122070	68.483429
29673.826064	-1313.726667	1523.067383	147.102615
29673.826064	-1313.726667	1522.012695	144.157410
29673.826064	-1313.726667	1520.957031	91.402519
29673.826064	-1313.726667	1519.901367	56.802803
29673.826064	-1313.726667	1518.845703	1.859874
29673.826064	-1313.726667	1517.790039	28.445465
29673.826064	-1313.726667	1516.734375	-46.800144
29673.826064	-1313.726667	1515.677734	183.459869
29673.826064	-1313.726667	1514.621094	38.122910
29673.826064	-1313.726667	1513.564453	28.568489
29673.826064	-1313.726667	1512.507813	46.173222
29673.826064	-1313.726667	1511.450195	36.659256
29673.826064	-1313.726667	1510.393555	-51.943649
29673.826064	-1313.726667	1509.335938	-0.374898
29673.826064	-1313.726667	1508.278320	12.782291
29673.826064	-1313.726667	1507.219727	86.947906
29673.826064	-1313.726667	1506.162109	66.244301
29673.826064	-1313.726667	1505.103516	81.699318
29673.826064	-1313.726667	1504.044922	-92.479332
29673.826064	-1313.726667	1502.986328	62.994129
29673.826064	-1313.726667	1501.926758	134.923569
29673.826064	-1313.726667	1500.868164	33.105915
29673.826064	-1313.726667	1499.808594	71.217178
29673.826064	-1313.726667	1498.749023	32.648052
29673.826064	-1313.726667	1497.688477	55.000828
29673.826064	-1313.726667	1496.628906	-19.579086
29673.826064	-1313.726667	1495.568359	-1.688983
29673.826064	-1313.726667	1494.507813	-103.228775
29673.826064	-1313.726667	1493.447266	-71.764748
29673.826064	-1313.726667	1492.386719	-85.347107
29673.826064	-1313.726667	1491.325195	-89.892487
29673.826064	-1313.726667	1490.263672	4.669821
29673.826064	-1313.726667	1489.202148	13.662661
29673.826064	-1313.726667	1488.140625	-87.624802
29673.826064	-1313.726667	1487.079102	4.699614
29673.826064	-1313.726667	1486.016602	-19.996449
29673.826064	-1313.726667	1484.954102	-197.636551
29673.826064	-1313.726667	1483.891602	-19.806538
29673.826064	-1313.726667	1482.829102	-163.596161
29673.826064	-1313.726667	1481.765625	-39.756363
29673.826064	-1313.726667	1480.702148	-80.031593
29673.826064	-1313.726667	1479.638672	-48.349991
29673.826064	-1313.726667	1478.575195	-72.851128
29673.826064	-1313.726667	1477.511719	44.241451
29673.826064	-1313.726667	1476.447266	-16.134615
29673.826064	-1313.726667	1475.382813	-76.450951
29673.826064	-1313.726667	1474.318359	-31.227995
29673.826064	-1313.726667	1473.253906	-37.563816
29673.826064	-1313.726667	1472.189453	77.207664
29673.826064	-1313.726667	1471.124023	12.569617
29673.826064	-1313.726667	1470.058594	-11.615733
29673.826064	-1313.726667	1468.993164	47.062813
29673.826064	-1313.726667	1467.927734	121.583336
29673.826064	-1313.726667	1466.861328	45.927635
29673.826064	-1313.726667	1465.794922	-67.701843
29673.826064	-1313.726667	1464.728516	76.011856
29673.826064	-1313.726667	1463.662109	11.716251
29673.826064	-1313.726667	1462.594727	99.625626
29673.826064	-1313.726667	1461.528320	279.353088
29673.826064	-1313.726667	1460.460938	44.901386
29673.826064	-1313.726667	1459.393555	159.854202
29673.826064	-1313.726667	1458.326172	26.675907
29673.826064	-1313.726667	1457.257813	54.094105
29673.826064	-1313.726667	1456.189453	123.666008
29673.826064	-1313.726667	1455.121094	119.922401
29673.826064	-1313.726667	1454.052734	150.065964
29673.826064	-1313.726667	1452.984375	155.317917
29673.826064	-1313.726667	1451.915039	234.411316
29673.826064	-1313.726667	1450.845703	188.360306
29673.826064	-1313.726667	1449.776367	264.761566
29673.826064	-1313.726667	1448.707031	312.626343
29673.826064	-1313.726667	1447.636719	208.584763
29673.826064	-1313.726667	1446.567383	162.560776
29673.826064	-1313.726667	1445.497070	210.332184
29673.826064	-1313.726667	1444.425781	162.139801
29673.826064	-1313.726667	1443.355469	248.225769
29673.826064	-1313.726667	1442.285156	205.861832
29673.826064	-1313.726667	1441.213867	118.586464
29673.826064	-1313.726667	1440.142578	45.605400
29673.826064	-1313.726667	1439.070313	58.379520
29673.826064	-1313.726667	1437.999023	190.111633
29673.826064	-1313.726667	1436.926758	136.680511
29673.826064	-1313.726667	1435.854492	24.637033
29673.826064	-1313.726667	1434.782227	22.111546
29673.826064	-1313.726667	1433.709961	30.320845
29673.826064	-1313.726667	1432.636719	153.813339
29673.826064	-1313.726667	1431.563477	214.627579
29673.826064	-1313.726667	1430.490234	63.789898
29673.826064	-1313.726667	1429.416992	134.073242
29673.826064	-1313.726667	1428.343750	-44.090260
29673.826064	-1313.726667	1427.269531	-4.218516
29673.826064	-1313.726667	1426.195313	3.931477
29673.826064	-1313.726667	1425.121094	-2.950360
29673.826064	-1313.726667	1424.046875	-88.057899
29673.826064	-1313.726667	1422.971680	-44.207279
29673.826064	-1313.726667	1421.896484	129.293610
29673.826064	-1313.726667	1420.821289	-187.276932
29673.826064	-1313.726667	1419.746094	-20.393080
29673.826064	-1313.726667	1418.669922	13.952377
29673.826064	-1313.726667	1417.594727	26.432468
29673.826064	-1313.726667	1416.518555	22.022083
29673.826064	-1313.726667	1415.442383	19.568449
29673.826064	-1313.726667	1414.365234	-67.389908
29673.826064	-1313.726667	1413.289063	62.033230
29673.826064	-1313.726667	1412.211914	12.075140
29673.826064	-1313.726667	1411.134766	-17.150942
29673.826064	-1313.726667	1410.057617	43.301220
29673.826064	-1313.726667	1408.979492	5.808652
29673.826064	-1313.726667	1407.902344	62.231922
29673.826064	-1313.726667	1406.824219	-23.970758
29673.826064	-1313.726667	1405.746094	65.552490
29673.826064	-1313.726667	1404.666992	155.277893
29673.826064	-1313.726667	1403.588867	19.778704
29673.826064	-1313.726667	1402.509766	-74.505707
29673.826064	-1313.726667	1401.430664	131.270569
29673.826064	-1313.726667	1400.351563	99.209984
29673.826064	-1313.726667	1399.271484	53.009113
29673.826064	-1313.726667	1398.192383	134.558350
29673.826064	-1313.726667	1397.112305	66.281151
29673.826064	-1313.726667	1396.031250	18.502720
29673.826064	-1313.726667	1394.951172	133.141617
29673.826064	-1313.726667	1393.871094	-24.837484
29673.826064	-1313.726667	1392.790039	212.764526
29673.826064	-1313.726667	1391.708984	-112.509895
29673.826064	-1313.726667	1390.626953	13.126308
29673.826064	-1313.726667	1389.545898	54.076340
29673.826064	-1313.726667	1388.463867	18.137550
29673.826064	-1313.726667	1387.381836	45.275642
29673.826064	-1313.726667	1386.299805	161.832809
29673.826064	-1313.726667	1385.217773	153.630737
29673.826064	-1313.726667	1384.134766	105.820366
29673.826064	-1313.726667	1383.051758	23.563103
29673.826064	-1313.726667	1381.968750	11.685022
29673.826064	-1313.726667	1380.885742	85.276840
29673.826064	-1313.726667	1379.802734	72.389244
29673.826064	-1313.726667	1378.718750	133.883224
29673.826064	-1313.726667	1377.634766	92.975754
29673.826064	-1313.726667	1376.550781	142.831268
29673.826064	-1313.726667	1375.465820	104.507591
29673.826064	-1313.726667	1374.381836	65.567459
29673.826064	-1313.726667	1373.296875	137.778046
29673.826064	-1313.726667	1372.211914	45.801991
29673.826064	-1313.726667	1371.126953	186.560562
29673.826064	-1313.726667	1370.041016	143.228882
29673.826064	-1313.726667	1368.955078	151.403610
29673.826064	-1313.726667	1367.869141	8.865869
29673.826064	-1313.726667	1366.783203	38.943657
29673.826064	-1313.726667	1365.697266	200.375137
29673.826064	-1313.726667	1364.610352	133.742752
29673.826064	-1313.726667	1363.523438	15.940407
29673.826064	-1313.726667	1362.436523	252.557816
29673.826064	-1313.726667	1361.349609	103.139763
29673.826064	-1313.726667	1360.261719	124.527084
29673.826064	-1313.726667	1359.174805	147.898102
29673.826064	-1313.726667	1358.086914	93.022484
29673.826064	-1313.726667	1356.998047	85.092087
29673.826064	-1313.726667	1355.910156	-29.151943
29673.826064	-1313.726667	1354.821289	45.283367
29673.826064	-1313.726667	1353.732422	-56.508575
29673.826064	-1313.726667	1352.643555	-65.000580
29673.826064	-1313.726667	1351.554688	55.367279
29673.826064	-1313.726667	1350.464844	72.685013
29673.826064	-1313.726667	1349.375000	243.813034
29673.826064	-1313.726667	1348.285156	74.226288
29673.826064	-1313.726667	1347.195313	167.047668
29673.826064	-1313.726667	1346.105469	112.672546
29673.826064	-1313.726667	1345.014648	141.124619
29673.826064	-1313.726667	1343.923828	221.355484
29673.826064	-1313.726667	1342.833008	294.371826
29673.826064	-1313.726667	1341.741211	224.977692
29673.826064	-1313.726667	1340.650391	340.323334
29673.826064	-1313.726667	1339.558594	233.305099
29673.826064	-1313.726667	1338.466797	303.499969
29673.826064	-1313.726667	1337.374023	218.910278
29673.826064	-1313.726667	1336.282227	296.590942
29673.826064	-1313.726667	1335.189453	41.477489
29673.826064	-1313.726667	1334.096680	174.933945
29673.826064	-1313.726667	1333.003906	150.392258
29673.826064	-1313.726667	1331.910156	73.950577
29673.826064	-1313.726667	1330.817383	224.849655
29673.826064	-1313.726667	1329.723633	272.841583
29673.826064	-1313.726667	1328.629883	144.005142
29673.826064	-1313.726667	1327.535156	22.564497
29673.826064	-1313.726667	1326.441406	80.811562
29673.826064	-1313.726667	1325.346680	-13.741220
29673.826064	-1313.726667	1324.251953	115.650414
29673.826064	-1313.726667	1323.156250	164.480698
29673.826064	-1313.726667	1322.061523	97.922256
29673.826064	-1313.726667	1320.965820	262.172272
29673.826064	-1313.726667	1319.870117	168.679459
29673.826064	-1313.726667	1318.774414	133.754242
29673.826064	-1313.726667	1317.678711	147.584412
29673.826064	-1313.726667	1316.582031	104.777069
29673.826064	-1313.726667	1315.485352	45.906403
29673.826064	-1313.726667	1314.388672	91.719315
29673.826064	-1313.726667	1313.291016	48.381542
29673.826064	-1313.726667	1312.194336	176.984879
29673.826064	-1313.726667	1311.096680	68.400581
29673.826064	-1313.726667	1309.999023	40.399517
29673.826064	-1313.726667	1308.901367	26.238352
29673.826064	-1313.726667	1307.802734	130.937866
29673.826064	-1313.726667	1306.705078	112.297249
29673.826064	-1313.726667	1305.606445	133.998886
29673.826064	-1313.726667	1304.506836	147.880035
29673.826064	-1313.726667	1303.408203	225.201706
29673.826064	-1313.726667	1302.308594	144.926666
29673.826064	-1313.726667	1301.208984	48.506824
29673.826064	-1313.726667	1300.109375	144.006943
29673.826064	-1313.726667	1299.009766	23.307690
29673.826064	-1313.726667	1297.909180	143.510513
29673.826064	-1313.726667	1296.808594	122.063889
29673.826064	-1313.726667	1295.708008	93.036461
29673.826064	-1313.726667	1294.607422	70.125801
29673.826064	-1313.726667	1293.506836	115.640778
29673.826064	-1313.726667	1292.405273	42.707813
29673.826064	-1313.726667	1291.303711	154.755783
29673.826064	-1313.726667	1290.202148	39.559875
29673.826064	-1313.726667	1289.099609	32.851517
29673.826064	-1313.726667	1287.998047	53.541786
29673.826064	-1313.726667	1286.895508	56.831043
29673.826064	-1313.726667	1285.792969	35.832191
29673.826064	-1313.726667	1284.689453	38.676102
29673.826064	-1313.726667	1283.586914	-39.247219
29673.826064	-1313.726667	1282.483398	29.967741
29673.826064	-1313.726667	1281.379883	11.439702
29673.826064	-1313.726667	1280.276367	-21.272942
29673.826064	-1313.726667	1279.171875	23.481724
29673.826064	-1313.726667	1278.067383	78.665169
29673.826064	-1313.726667	1276.962891	18.785484
29673.826064	-1313.726667	1275.858398	35.429386
29673.826064	-1313.726667	1274.753906	138.479980
29673.826064	-1313.726667	1273.648438	27.984705
29673.826064	-1313.726667	1272.542969	62.233131
29673.826064	-1313.726667	1271.437500	18.627390
29673.826064	-1313.726667	1270.331055	37.753544
29673.826064	-1313.726667	1269.225586	64.421776
29673.826064	-1313.726667	1268.119141	-11.790304
29673.826064	-1313.726667	1267.012695	-31.516535
29673.826064	-1313.726667	1265.906250	-44.921177
29673.826064	-1313.726667	1264.798828	-51.746758
29673.826064	-1313.726667	1263.691406	-17.910324
29673.826064	-1313.726667	1262.583984	32.452660
29673.826064	-1313.726667	1261.476563	-72.452438
29673.826064	-1313.726667	1260.368164	-24.170860
29673.826064	-1313.726667	1259.260742	-27.870552
29673.826064	-1313.726667	1258.152344	-62.260910
29673.826064	-1313.726667	1257.043945	-11.567619
29673.826064	-1313.726667	1255.934570	-52.336380
29673.826064	-1313.726667	1254.825195	-26.688391
29673.826064	-1313.726667	1253.716797	9.888420
29673.826064	-1313.726667	1252.606445	-40.092209
29673.826064	-1313.726667	1251.497070	-31.234755
29673.826064	-1313.726667	1250.387695	-44.254333
29673.826064	-1313.726667	1249.277344	-66.162926
29673.826064	-1313.726667	1248.166992	-25.985088
29673.826064	-1313.726667	1247.055664	-55.089718
29673.826064	-1313.726667	1245.945313	-58.116077
29673.826064	-1313.726667	1244.833984	-180.106445
29673.826064	-1313.726667	1243.722656	-107.677696
29673.826064	-1313.726667	1242.611328	-79.745544
29673.826064	-1313.726667	1241.499023	-93.734055
29673.826064	-1313.726667	1240.387695	3.751184
29673.826064	-1313.726667	1239.275391	-101.834053
29673.826064	-1313.726667	1238.162109	-73.373741
29673.826064	-1313.726667	1237.049805	-83.908546
29673.826064	-1313.726667	1235.936523	59.289783
29673.826064	-1313.726667	1234.823242	-57.185650
29673.826064	-1313.726667	1233.709961	-33.811611
29673.826064	-1313.726667	1232.596680	-66.246010
29673.826064	-1313.726667	1231.482422	-145.273727
29673.826064	-1313.726667	1230.369141	-44.866123
29673.826064	-1313.726667	1229.253906	-41.353024
29673.826064	-1313.726667	1228.139648	-3.907427
29673.826064	-1313.726667	1227.025391	-24.744390
29673.826064	-1313.726667	1225.910156	11.462050
29673.826064	-1313.726667	1224.794922	71.631149
29673.826064	-1313.726667	1223.679688	58.773464
29673.826064	-1313.726667	1222.563477	11.079699
29673.826064	-1313.726667	1221.447266	17.984735
29673.826064	-1313.726667	1220.331055	74.808701
29673.826064	-1313.726667	1219.214844	32.132450
29673.826064	-1313.726667	1218.098633	-32.584724
29673.826064	-1313.726667	1216.981445	-45.617447
29673.826064	-1313.726667	1215.864258	-6.193426
29673.826064	-1313.726667	1214.747070	-67.117050
29673.826064	-1313.726667	1213.629883	-32.996410
29673.826064	-1313.726667	1212.511719	8.847475
29673.826064	-1313.726667	1211.393555	13.108297
29673.826064	-1313.726667	1210.275391	16.964581
29673.826064	-1313.726667	1209.157227	9.491338
29673.826064	-1313.726667	1208.038086	18.215210
29673.826064	-1313.726667	1206.918945	-38.628113
29673.826064	-1313.726667	1205.799805	-65.064697
29673.826064	-1313.726667	1204.680664	-15.425282
29673.826064	-1313.726667	1203.560547	24.775261
29673.826064	-1313.726667	1202.441406	-11.180936
29673.826064	-1313.726667	1201.321289	29.672659
29673.826064	-1313.726667	1200.200195	30.791914
29673.826064	-1313.726667	1199.080078	-36.669922
29673.826064	-1313.726667	1197.958984	18.914801
29673.826064	-1313.726667	1196.837891	28.901428
29673.826064	-1313.726667	1195.716797	51.149651
29673.826064	-1313.726667	1194.594727	4.268117
29673.826064	-1313.726667	1193.473633	-86.005898
29673.826064	-1313.726667	1192.351563	51.276989
29673.826064	-1313.726667	1191.229492	-42.312504
29673.826064	-1313.726667	1190.106445	74.498795
29673.826064	-1313.726667	1188.984375	-78.392616
29673.826064	-1313.726667	1187.861328	44.573460
29673.826064	-1313.726667	1186.738281	49.389626
29673.826064	-1313.726667	1185.614258	63.320263
29673.826064	-1313.726667	1184.491211	38.581242
29673.826064	-1313.726667	1183.367188	-32.945007
29673.826064	-1313.726667	1182.243164	-156.345932
29673.826064	-1313.726667	1181.119141	-67.555786
29673.826064	-1313.726667	1179.994141	-14.028944
29673.826064	-1313.726667	1178.869141	-72.817696
29673.826064	-1313.726667	1177.744141	-63.466614
29673.826064	-1313.726667	1176.619141	-132.773224
29673.826064	-1313.726667	1175.493164	45.656204
29673.826064	-1313.726667	1174.368164	23.109444
29673.826064	-1313.726667	1173.242188	-43.173267
29673.826064	-1313.726667	1172.115234	46.009075
29673.826064	-1313.726667	1170.989258	2.857863
29673.826064	-1313.726667	1169.862305	-0.876450
29673.826064	-1313.726667	1168.735352	28.350613
29673.826064	-1313.726667	1167.608398	-72.696442
29673.826064	-1313.726667	1166.481445	-17.035822
29673.826064	-1313.726667	1165.353516	-52.694260
29673.826064	-1313.726667	1164.225586	39.522167
29673.826064	-1313.726667	1163.097656	-55.647415
29673.826064	-1313.726667	1161.968750	11.868866
29673.826064	-1313.726667	1160.840820	-23.349520
29673.826064	-1313.726667	1159.711914	-45.384274
29673.826064	-1313.726667	1158.583008	40.503010
29673.826064	-1313.726667	1157.453125	-72.121681
29673.826064	-1313.726667	1156.324219	36.567291
29673.826064	-1313.726667	1155.194336	-8.304809
29673.826064	-1313.726667	1154.064453	-152.489777
29673.826064	-1313.726667	1152.933594	1.060300
29673.826064	-1313.726667	1151.803711	79.647675
29673.826064	-1313.726667	1150.672852	6.703710
29673.826064	-1313.726667	1149.541992	23.724703
29673.826064	-1313.726667	1148.411133	20.228113
29673.826064	-1313.726667	1147.279297	-22.240152
29673.826064	-1313.726667	1146.147461	112.840645
29673.826064	-1313.726667	1145.015625	129.521667
29673.826064	-1313.726667	1143.883789	-24.878845
29673.826064	-1313.726667	1142.750977	96.103439
29673.826064	-1313.726667	1141.619141	98.883286
29673.826064	-1313.726667	1140.486328	29.551554
29673.826064	-1313.726667	1139.352539	49.492386
29673.826064	-1313.726667	1138.219727	-79.681641
29673.826064	-1313.726667	1137.085938	38.110039
29673.826064	-1313.726667	1135.952148	-24.507250
29673.826064	-1313.726667	1134.818359	53.348724
29673.826064	-1313.726667	1133.683594	-9.042840
29673.826064	-1313.726667	1132.549805	30.704670
29673.826064	-1313.726667	1131.415039	92.948570
29673.826064	-1313.726667	1130.279297	3.792748
29673.826064	-1313.726667	1129.144531	63.646824
29673.826064	-1313.726667	1128.008789	99.349510
29673.826064	-1313.726667	1126.873047	125.679550
29673.826064	-1313.726667	1125.737305	86.662743
29673.826064	-1313.726667	1124.601563	119.329765
29673.826064	-1313.726667	1123.464844	62.028088
29673.826064	-1313.726667	1122.328125	45.246483
29673.826064	-1313.726667	1121.191406	117.646004
29673.826064	-1313.726667	1120.054688	110.810059
29673.826064	-1313.726667	1118.916992	48.856602
29673.826064	-1313.726667	1117.779297	129.885284
29673.826064	-1313.726667	1116.641602	-13.210902
29673.826064	-1313.726667	1115.503906	75.730087
29673.826064	-1313.726667	1114.365234	62.274876
29673.826064	-1313.726667	1113.226563	-56.080330
29673.826064	-1313.726667	1112.087891	23.599939
29673.826064	-1313.726667	1110.949219	16.842966
29673.826064	-1313.726667	1109.809570	-26.901354
29673.826064	-1313.726667	1108.669922	25.235785
29673.826064	-1313.726667	1107.530273	-10.016679
29673.826064	-1313.726667	1106.390625	44.963760
29673.826064	-1313.726667	1105.250000	73.818848
29673.826064	-1313.726667	1104.109375	22.071735
29673.826064	-1313.726667	1102.968750	45.597374
29673.826064	-1313.726667	1101.828125	158.602737
29673.826064	-1313.726667	1100.686523	96.280815
29673.826064	-1313.726667	1099.544922	135.882828
29673.826064	-1313.726667	1098.403320	182.050339
29673.826064	-1313.726667	1097.261719	71.284286
29673.826064	-1313.726667	1096.120117	131.645645
29673.826064	-1313.726667	1094.977539	65.737984
29673.826064	-1313.726667	1093.834961	70.186157
29673.826064	-1313.726667	1092.691406	125.243103
29673.826064	-1313.726667	1091.548828	102.494110
29673.826064	-1313.726667	1090.405273	67.103310
29673.826064	-1313.726667	1089.261719	59.288383
29673.826064	-1313.726667	1088.118164	56.075169
29673.826064	-1313.726667	1086.973633	51.739037
29673.826064	-1313.726667	1085.829102	31.642715
29673.826064	-1313.726667	1084.684570	48.910206
29673.826064	-1313.726667	1083.540039	-5.127951
29673.826064	-1313.726667	1082.395508	25.147846
29673.826064	-1313.726667	1081.250000	100.121788
29673.826064	-1313.726667	1080.104492	139.568802
29673.826064	-1313.726667	1078.958984	113.683670
29673.826064	-1313.726667	1077.812500	-11.122084
29673.826064	-1313.726667	1076.666016	-21.040794
29673.826064	-1313.726667	1075.519531	53.580849
29673.826064	-1313.726667	1074.373047	107.223297
29673.826064	-1313.726667	1073.226563	64.058899
29673.826064	-1313.726667	1072.079102	28.534258
29673.826064	-1313.726667	1070.931641	74.161713
29673.826064	-1313.726667	1069.784180	78.863617
29673.826064	-1313.726667	1068.635742	51.658806
29673.826064	-1313.726667	1067.487305	79.393639
29673.826064	-1313.726667	1066.338867	113.949471
29673.826064	-1313.726667	1065.190430	142.383911
29673.826064	-1313.726667	1064.041992	47.635914
29673.826064	-1313.726667	1062.892578	52.968410
29673.826064	-1313.726667	1061.743164	65.164841
29673.826064	-1313.726667	1060.593750	71.364861
29673.826064	-1313.726667	1059.443359	17.791800
29673.826064	-1313.726667	1058.292969	-99.588234
29673.826064	-1313.726667	1057.142578	40.190102
29673.826064	-1313.726667	1055.992188	111.478378
29673.826064	-1313.726667	1054.841797	84.126221
29673.826064	-1313.726667	1053.690430	-14.502239
29673.826064	-1313.726667	1052.539063	28.981794
29673.826064	-1313.726667	1051.387695	85.668907
29673.826064	-1313.726667	1050.235352	-59.847050
29673.826064	-1313.726667	1049.083984	55.482845
29673.826064	-1313.726667	1047.931641	148.818665
29673.826064	-1313.726667	1046.778320	-32.290070
29673.826064	-1313.726667	1045.625977	65.519890
29673.826064	-1313.726667	1044.472656	-44.335621
29673.826064	-1313.726667	1043.319336	-16.802895
29673.826064	-1313.726667	1042.166016	18.499441
29673.826064	-1313.726667	1041.012695	44.740356
29673.826064	-1313.726667	1039.858398	73.053383
29673.826064	-1313.726667	1038.704102	35.732998
29673.826064	-1313.726667	1037.549805	18.688660
29673.826064	-1313.726667	1036.394531	85.204254
29673.826064	-1313.726667	1035.239258	120.629234
29673.826064	-1313.726667	1034.083984	8.340096
29673.826064	-1313.726667	1032.928711	43.678436
29673.826064	-1313.726667	1031.773438	47.491699
29673.826064	-1313.726667	1030.617188	23.368156
29673.826064	-1313.726667	1029.460938	59.137798
29673.826064	-1313.726667	1028.304688	60.866833
29673.826064	-1313.726667	1027.147461	-14.043276
29673.826064	-1313.726667	1025.991211	-8.584070
29673.826064	-1313.726667	1024.833984	-49.335724
29673.826064	-1313.726667	1023.675781	-67.992569
29673.826064	-1313.726667	1022.518555	-86.720871
29673.826064	-1313.726667	1021.360352	-11.995159
29673.826064	-1313.726667	1020.202148	-124.495834
29673.826064	-1313.726667	1019.043945	-5.946721
29673.826064	-1313.726667	1017.884766	41.866787
29673.826064	-1313.726667	1016.726563	-112.876228
29673.826064	-1313.726667	1015.567383	46.157673
29673.826064	-1313.726667	1014.407227	-37.734608
29673.826064	-1313.726667	1013.248047	-51.502094
29673.826064	-1313.726667	1012.087891	-83.062866
29673.826064	-1313.726667	1010.927734	-43.783012
29673.826064	-1313.726667	1009.767578	-34.627064
29673.826064	-1313.726667	1008.606445	29.306017
29673.826064	-1313.726667	1007.446289	21.935493
29673.826064	-1313.726667	1006.285156	55.861973
29673.826064	-1313.726667	1005.123047	38.500023
29673.826064	-1313.726667	1003.961914	168.063171
29673.826064	-1313.726667	1002.799805	-30.507210
29673.826064	-1313.726667	1001.637695	-5.128143
29673.826064	-1313.726667	1000.475586	90.617188
29673.826064	-1313.726667	999.312500	-58.214493
29673.826064	-1313.726667	998.149414	95.780396
29673.826064	-1313.726667	996.986328	-15.846805
29673.826064	-1313.726667	995.823242	12.058755
29673.826064	-1313.726667	994.659180	12.472202
29673.826064	-1313.726667	993.496094	29.443466
29673.826064	-1313.726667	992.332031	-15.840696
29673.826064	-1313.726667	991.166992	19.305292
29673.826064	-1313.726667	990.002930	15.360875
29673.826064	-1313.726667	988.837891	27.253708
29673.826064	-1313.726667	987.672852	81.989296
29673.826064	-1313.726667	986.506836	172.242172
29673.826064	-1313.726667	985.341797	27.947407
29673.826064	-1313.726667	984.175781	127.388062
29673.826064	-1313.726667	983.009766	84.700302
29673.826064	-1313.726667	981.843750	72.451576
29673.826064	-1313.726667	980.676758	132.749222
29673.826064	-1313.726667	979.509766	82.528015
29673.826064	-1313.726667	978.342773	111.419136
29673.826064	-1313.726667	977.175781	14.822810
29673.826064	-1313.726667	976.007813	46.039436
29673.826064	-1313.726667	974.839844	79.199158
29673.826064	-1313.726667	973.671875	79.212936
29673.826064	-1313.726667	972.503906	102.608681
29673.826064	-1313.726667	971.334961	49.647938
29673.826064	-1313.726667	970.166016	3.226028
29673.826064	-1313.726667	968.997070	50.513924
29673.826064	-1313.726667	967.828125	194.520981
29673.826064	-1313.726667	966.658203	-87.750816
29673.826064	-1313.726667	965.488281	8.170059
29673.826064	-1313.726667	964.318359	60.845219
29673.826064	-1313.726667	963.148438	-81.169357
29673.826064	-1313.726667	961.977539	-35.475975
29673.826064	-1313.726667	960.806641	-17.453394
29673.826064	-1313.726667	959.635742	3.073019
29673.826064	-1313.726667	958.463867	207.334915
29673.826064	-1313.726667	957.292969	-10.952072
29673.826064	-1313.726667	956.121094	111.787819
29673.826064	-1313.726667	954.948242	-6.306451
29673.826064	-1313.726667	953.776367	-102.370514
29673.826064	-1313.726667	952.603516	-2.209755
29673.826064	-1313.726667	951.430664	7.914804
29673.826064	-1313.726667	950.257813	36.752754
29673.826064	-1313.726667	949.084961	49.603977
29673.826064	-1313.726667	947.911133	45.432220
29673.826064	-1313.726667	946.737305	-97.658508
29673.826064	-1313.726667	945.563477	-44.354893
29673.826064	-1313.726667	944.388672	-73.777443
29673.826064	-1313.726667	943.213867	-51.514263
29673.826064	-1313.726667	942.039063	30.804602
29673.826064	-1313.726667	940.864258	-49.856422
29673.826064	-1313.726667	939.688477	-5.387410
29673.826064	-1313.726667	938.513672	27.706606
29673.826064	-1313.726667	937.337891	-39.447140
29673.826064	-1313.726667	936.161133	42.765167
29673.826064	-1313.726667	934.985352	-6.578930
29673.826064	-1313.726667	933.808594	31.159952
29673.826064	-1313.726667	932.631836	93.282707
29673.826064	-1313.726667	931.454102	115.275429
29673.826064	-1313.726667	930.277344	-9.984492
29673.826064	-1313.726667	929.099609	47.653263
29673.826064	-1313.726667	927.921875	7.177359
29673.826064	-1313.726667	926.743164	107.167107
29673.826064	-1313.726667	925.565430	-29.195820
29673.826064	-1313.726667	924.386719	-22.871048
29673.826064	-1313.726667	923.208008	25.791256
29673.826064	-1313.726667	922.028320	-3.566398
29673.826064	-1313.726667	920.849609	-70.792557
29673.826064	-1313.726667	919.669922	-70.381325
29673.826064	-1313.726667	919.474609	84.821091
29673.826064	-1313.726667	918.309570	-78.184135
29673.826064	-1313.726667	917.143555	19.384642
29673.826064	-1313.726667	915.977539	-23.344921
29673.826064	-1313.726667	914.810547	-110.579979
29673.826064	-1313.726667	913.644531	26.964071
29673.826064	-1313.726667	912.477539	-11.317332
29673.826064	-1313.726667	911.310547	-49.591915
29673.826064	-1313.726667	910.143555	-7.798343
29673.826064	-1313.726667	908.975586	18.405518
29673.826064	-1313.726667	907.807617	17.913965
29673.826064	-1313.726667	906.639648	108.539070
29673.826064	-1313.726667	905.471680	25.794321
29673.826064	-1313.726667	904.303711	98.590652
29673.826064	-1313.726667	903.134766	-99.637550
29673.826064	-1313.726667	901.965820	-142.340927
29673.826064	-1313.726667	900.796875	-133.967926
29673.826064	-1313.726667	899.626953	-39.032413
29673.826064	-1313.726667	898.457031	-6.287028
29673.826064	-1313.726667	897.287109	-75.634300
29673.826064	-1313.726667	896.117188	12.551311
29673.826064	-1313.726667	894.947266	36.369701
29673.826064	-1313.726667	893.776367	153.309387
29673.826064	-1313.726667	892.605469	-55.725239
29673.826064	-1313.726667	891.434570	23.485838
29673.826064	-1313.726667	890.262695	45.034866
29673.826064	-1313.726667	889.091797	17.820238
29673.826064	-1313.726667	887.919922	48.207310
29673.826064	-1313.726667	886.748047	36.491615
29673.826064	-1313.726667	885.575195	-4.014169
29673.826064	-1313.726667	884.403320	-37.869614
29673.826064	-1313.726667	883.230469	-38.516052
29673.826064	-1313.726667	882.057617	142.301529
29673.826064	-1313.726667	880.883789	48.673630
29673.826064	-1313.726667	879.710938	-64.832825
29673.826064	-1313.726667	878.537109	7.482874
29673.826064	-1313.726667	877.362305	53.226444
29673.826064	-1313.726667	876.188477	-11.596415
29673.826064	-1313.726667	875.013672	54.010609
29673.826064	-1313.726667	873.839844	59.916019
29673.826064	-1313.726667	872.664063	-35.822788
29673.826064	-1313.726667	871.489258	-91.768028
29673.826064	-1313.726667	870.313477	-19.602406
29673.826064	-1313.726667	869.138672	-126.328941
29673.826064	-1313.726667	867.962891	16.443855
29673.826064	-1313.726667	866.786133	35.548512
29673.826064	-1313.726667	865.610352	-27.010891
29673.826064	-1313.726667	864.433594	14.142947
29673.826064	-1313.726667	863.256836	59.684563
29673.826064	-1313.726667	862.079102	-80.051537
29673.826064	-1313.726667	860.902344	-8.064887
29673.826064	-1313.726667	859.724609	-26.498260
29673.826064	-1313.726667	858.546875	-58.155617
29673.826064	-1313.726667	857.368164	22.574867
29673.826064	-1313.726667	856.190430	-35.531399
29673.826064	-1313.726667	855.011719	102.416206
29673.826064	-1313.726667	853.833008	-28.369905
29673.826064	-1313.726667	852.654297	25.838064
29673.826064	-1313.726667	851.474609	46.996876
29673.826064	-1313.726667	850.294922	30.725451
29673.826064	-1313.726667	849.115234	-40.556526
29673.826064	-1313.726667	847.935547	9.180735
29673.826064	-1313.726667	846.754883	-42.286697
29673.826064	-1313.726667	845.575195	27.207296
29673.826064	-1313.726667	844.393555	26.310488
29673.826064	-1313.726667	843.212891	62.775497
29673.826064	-1313.726667	842.032227	114.601768
29673.826064	-1313.726667	840.850586	32.367836
29673.826064	-1313.726667	839.668945	60.000031
29673.826064	-1313.726667	838.486328	-52.952187
29673.826064	-1313.726667	837.304688	176.692993
29673.826064	-1313.726667	836.122070	-26.264076
29673.826064	-1313.726667	834.939453	86.932037
29673.826064	-1313.726667	833.756836	79.375328
29673.826064	-1313.726667	832.573242	-68.606461
29673.826064	-1313.726667	831.389648	-10.334278
29673.826064	-1313.726667	830.206055	28.167934
29673.826064	-1313.726667	829.022461	128.043228
29673.826064	-1313.726667	827.838867	6.450766
29673.826064	-1313.726667	826.654297	-1.124764
29673.826064	-1313.726667	825.469727	17.591663
29673.826064	-1313.726667	824.284180	-11.907463
29673.826064	-1313.726667	823.099609	103.168686
29673.826064	-1313.726667	821.914063	82.408859
29673.826064	-1313.726667	820.728516	61.650108
29673.826064	-1313.726667	819.542969	-66.373947
29673.826064	-1313.726667	818.356445	-47.713089
29673.826064	-1313.726667	817.169922	-125.348618
29673.826064	-1313.726667	815.983398	0.500701
29673.826064	-1313.726667	814.796875	27.862165
29673.826064	-1313.726667	813.609375	74.885674
29673.826064	-1313.726667	812.422852	78.154152
29673.826064	-1313.726667	811.235352	31.136589
29673.826064	-1313.726667	810.046875	3.799736
29673.826064	-1313.726667	808.859375	13.611794
29673.826064	-1313.726667	807.670898	-26.833761
29673.826064	-1313.726667	806.482422	83.434700
29673.826064	-1313.726667	805.293945	141.240875
29673.826064	-1313.726667	804.104492	68.020721
29673.826064	-1313.726667	802.915039	47.209274
29673.826064	-1313.726667	801.725586	0.210295
29673.826064	-1313.726667	800.536133	23.042536
29673.826064	-1313.726667	799.345703	74.215179
29673.826064	-1313.726667	798.155273	75.195740
29673.826064	-1313.726667	796.964844	69.625771
29673.826064	-1313.726667	795.774414	96.750587
29673.826064	-1313.726667	794.583008	41.029533
29673.826064	-1313.726667	793.392578	65.952698
29673.826064	-1313.726667	792.200195	27.673086
29673.826064	-1313.726667	791.008789	-6.242445
29673.826064	-1313.726667	789.816406	1.225146
29673.826064	-1313.726667	788.625000	52.228592
29673.826064	-1313.726667	787.432617	22.655807
29673.826064	-1313.726667	786.239258	108.438110
29673.826064	-1313.726667	785.046875	67.967522
29673.826064	-1313.726667	783.853516	-50.816078
29673.826064	-1313.726667	782.660156	80.578094
29673.826064	-1313.726667	781.465820	72.729652
29673.826064	-1313.726667	780.272461	43.133472
29673.826064	-1313.726667	779.078125	185.266464
29673.826064	-1313.726667	777.883789	25.241516
29673.826064	-1313.726667	776.688477	34.755646
29673.826064	-1313.726667	775.494141	-38.294865
29673.826064	-1313.726667	774.298828	-37.478802
29673.826064	-1313.726667	773.103516	41.501060
29673.826064	-1313.726667	771.907227	-77.127533
29673.826064	-1313.726667	770.711914	173.284958
29673.826064	-1313.726667	769.515625	93.720665
29673.826064	-1313.726667	768.318359	61.912186
29673.826064	-1313.726667	767.122070	-74.016556
29673.826064	-1313.726667	765.924805	-79.771919
29673.826064	-1313.726667	764.727539	18.544937
29673.826064	-1313.726667	763.530273	66.949081
29673.826064	-1313.726667	762.333008	4.783217
29673.826064	-1313.726667	761.134766	9.808703
29673.826064	-1313.726667	759.936523	12.654887
29673.826064	-1313.726667	758.738281	8.990642
29673.826064	-1313.726667	757.540039	0.986058
29673.826064	-1313.726667	756.340820	144.536255
29673.826064	-1313.726667	755.141602	67.212494
29673.826064	-1313.726667	753.942383	50.509834
29673.826064	-1313.726667	752.742188	-35.440071
29673.826064	-1313.726667	751.541992	43.051262
29673.826064	-1313.726667	750.341797	32.818718
29673.826064	-1313.726667	749.141602	0.954020
29673.826064	-1313.726667	747.941406	172.321350
29673.826064	-1313.726667	746.740234	-28.185707
29673.826064	-1313.726667	745.539063	24.230743
29673.826064	-1313.726667	744.337891	-9.813406
29673.826064	-1313.726667	743.135742	77.116417
29673.826064	-1313.726667	741.933594	64.648697
29673.826064	-1313.726667	740.731445	8.987476
29673.826064	-1313.726667	739.529297	7.309425
29673.826064	-1313.726667	738.326172	126.490730
29673.826064	-1313.726667	737.124023	-24.136007
29673.826064	-1313.726667	735.919922	105.764183
29673.826064	-1313.726667	734.716797	58.718735
29673.826064	-1313.726667	733.513672	-55.174744
29673.826064	-1313.726667	732.309570	46.582684
29673.826064	-1313.726667	731.105469	68.523163
29673.826064	-1313.726667	729.900391	168.030624
29673.826064	-1313.726667	728.696289	4.596982
29673.826064	-1313.726667	727.491211	54.500179
29673.826064	-1313.726667	726.286133	-18.403875
29673.826064	-1313.726667	725.080078	113.287506
29673.826064	-1313.726667	723.874023	29.609470
29673.826064	-1313.726667	722.668945	-0.231915
29673.826064	-1313.726667	721.461914	-111.856140
29673.826064	-1313.726667	720.255859	-14.735152
29673.826064	-1313.726667	719.048828	26.399551
29673.826064	-1313.726667	717.841797	-22.828699
29673.826064	-1313.726667	716.634766	11.811963
29673.826064	-1313.726667	715.427734	-104.065735
29673.826064	-1313.726667	714.219727	-20.014515
29673.826064	-1313.726667	713.011719	-148.759399
29673.826064	-1313.726667	711.803711	-45.425438
29673.826064	-1313.726667	710.594727	-83.921593
29673.826064	-1313.726667	709.385742	-85.906197
29673.826064	-1313.726667	708.176758	-17.048248
29673.826064	-1313.726667	706.967773	-4.047765
29673.826064	-1313.726667	705.758789	6.786605
29673.826064	-1313.726667	704.548828	-42.481483
29673.826064	-1313.726667	703.338867	-35.963917
29673.826064	-1313.726667	702.127930	90.649765
29673.826064	-1313.726667	700.917969	34.918163
29673.826064	-1313.726667	699.707031	13.498367
29673.826064	-1313.726667	698.496094	114.255112
29673.826064	-1313.726667	697.285156	41.363632
29673.826064	-1313.726667	696.073242	-65.795822
29673.826064	-1313.726667	694.861328	-44.392677
29673.826064	-1313.726667	693.649414	-76.557587
29673.826064	-1313.726667	692.436523	26.177053
29673.826064	-1313.726667	691.224609	135.277267
29673.826064	-1313.726667	690.011719	-1.831238
29673.826064	-1313.726667	688.798828	164.976151
29673.826064	-1313.726667	687.584961	-14.902573
29673.826064	-1313.726667	686.372070	6.351230
29673.826064	-1313.726667	685.158203	-72.934692
29673.826064	-1313.726667	683.943359	50.920750
29673.826064	-1313.726667	682.729492	-6.994925
29673.826064	-1313.726667	681.514648	-32.844021
29673.826064	-1313.726667	680.299805	24.637552
29673.826064	-1313.726667	679.084961	37.216129
29673.826064	-1313.726667	677.869141	-52.751141
29673.826064	-1313.726667	676.653320	15.327991
29673.826064	-1313.726667	675.437500	-16.982767
29673.826064	-1313.726667	674.221680	-53.564529
29673.826064	-1313.726667	673.004883	78.446396
29673.826064	-1313.726667	671.789063	122.907776
29673.826064	-1313.726667	670.571289	-16.123970
29673.826064	-1313.726667	669.354492	-78.332222
29673.826064	-1313.726667	668.136719	23.656607
29673.826064	-1313.726667	666.919922	68.027550
29673.826064	-1313.726667	665.701172	61.207233
29673.826064	-1313.726667	664.483398	7.494865
29673.826064	-1313.726667	663.264648	34.747349
29673.826064	-1313.726667	662.045898	108.833481
29673.826064	-1313.726667	660.827148	16.763285
29673.826064	-1313.726667	659.608398	69.498688
29673.826064	-1313.726667	658.388672	56.204788
29673.826064	-1313.726667	657.168945	-54.999073
29673.826064	-1313.726667	655.949219	61.504070
29673.826064	-1313.726667	654.728516	222.615372
29673.826064	-1313.726667	653.507813	83.748161
29673.826064	-1313.726667	652.287109	66.131973
29673.826064	-1313.726667	651.066406	118.666725
29673.826064	-1313.726667	649.844727	-94.534286
29673.826064	-1313.726667	648.623047	40.858574
29673.826064	-1313.726667	647.401367	-19.290630
29673.826064	-1313.726667	646.179688	50.147297
29673.826064	-1313.726667	644.957031	157.766312
29673.826064	-1313.726667	643.734375	65.732780
29673.826064	-1313.726667	642.511719	-39.014992
29673.826064	-1313.726667	641.289063	66.386078
29673.826064	-1313.726667	640.065430	42.285290
29673.826064	-1313.726667	638.841797	-26.372606
29673.826064	-1313.726667	637.618164	127.696152
29673.826064	-1313.726667	636.393555	-17.325424
29673.826064	-1313.726667	635.168945	49.717175
29673.826064	-1313.726667	633.944336	-112.214539
29673.826064	-1313.726667	632.719727	22.606556
29673.826064	-1313.726667	631.494141	49.293617
29673.826064	-1313.726667	630.269531	-29.962912
29673.826064	-1313.726667	629.042969	62.348106
29673.826064	-1313.726667	627.817383	-12.673446
29673.826064	-1313.726667	626.590820	20.288946
29673.826064	-1313.726667	625.365234	-22.972616
29673.826064	-1313.726667	624.137695	86.128090
29673.826064	-1313.726667	622.911133	74.575851
29673.826064	-1313.726667	621.683594	-36.403706
29673.826064	-1313.726667	620.456055	-143.120743
29673.826064	-1313.726667	619.228516	-40.486767
29673.826064	-1313.726667	618.000977	114.937309
29673.826064	-1313.726667	616.772461	3.985748
29673.826064	-1313.726667	615.543945	17.734180
29673.826064	-1313.726667	614.314453	63.149666
29673.826064	-1313.726667	613.085938	7.153453
29673.826064	-1313.726667	611.856445	58.860188
29673.826064	-1313.726667	610.626953	-98.477196
29673.826064	-1313.726667	609.397461	-48.906887
29673.826064	-1313.726667	608.166992	-16.255323
29673.826064	-1313.726667	606.936523	-70.133781
29673.826064	-1313.726667	605.706055	23.655632
29673.826064	-1313.726667	604.474609	60.449570
29673.826064	-1313.726667	603.244141	21.311045
29673.826064	-1313.726667	602.012695	174.008392
29673.826064	-1313.726667	600.780273	113.757584
29673.826064	-1313.726667	599.548828	19.808207
29673.826064	-1313.726667	598.316406	14.367040
29673.826064	-1313.726667	597.083984	11.023090
29673.826064	-1313.726667	595.851563	-17.600418
29673.826064	-1313.726667	594.618164	52.727154
29673.826064	-1313.726667	593.384766	-13.806522
29673.826064	-1313.726667	592.151367	-36.128506
29673.826064	-1313.726667	590.917969	32.021648
29673.826064	-1313.726667	589.683594	20.193890
29673.826064	-1313.726667	588.449219	-0.051013
29673.826064	-1313.726667	587.214844	-121.227028
29673.826064	-1313.726667	585.979492	-4.810085
29673.826064	-1313.726667	584.745117	48.495529
29673.826064	-1313.726667	583.509766	76.550735
29673.826064	-1313.726667	582.273438	-31.975325
29673.826064	-1313.726667	581.038086	96.887909
29673.826064	-1313.726667	579.801758	0.985210
29673.826064	-1313.726667	578.565430	66.780251
29673.826064	-1313.726667	577.329102	-3.902531
29673.826064	-1313.726667	576.091797	-80.862350
29673.826064	-1313.726667	574.854492	12.157947
29673.826064	-1313.726667	573.617188	82.055061
29673.826064	-1313.726667	572.378906	70.117180
29673.826064	-1313.726667	571.141602	37.210480
29673.826064	-1313.726667	569.903320	50.429672
29673.826064	-1313.726667	568.664063	23.810612
29673.826064	-1313.726667	567.425781	81.019318
29673.826064	-1313.726667	566.186523	46.011307
29673.826064	-1313.726667	564.947266	124.121910
29673.826064	-1313.726667	563.708008	84.918732
29673.826064	-1313.726667	562.467773	77.130379
29673.826064	-1313.726667	561.227539	-10.205188
29673.826064	-1313.726667	559.987305	15.504554
29673.826064	-1313.726667	558.747070	129.078201
29673.826064	-1313.726667	557.505859	-41.908020
29673.826064	-1313.726667	556.264648	-43.415134
29673.826064	-1313.726667	555.023438	55.444302
29673.826064	-1313.726667	553.781250	-19.264719
29673.826064	-1313.726667	552.539063	-18.699995
29673.826064	-1313.726667	551.296875	75.896515
29673.826064	-1313.726667	550.054688	-17.583839
29673.826064	-1313.726667	548.811523	24.743265
29673.826064	-1313.726667	547.569336	102.552727
29673.826064	-1313.726667	546.325195	13.288579
29673.826064	-1313.726667	545.082031	-61.325275
29673.826064	-1313.726667	543.837891	-64.953522
29673.826064	-1313.726667	542.593750	-16.418030
29673.826064	-1313.726667	541.349609	82.161804
29673.826064	-1313.726667	540.105469	5.500056
29673.826064	-1313.726667	538.860352	-77.388100
29673.826064	-1313.726667	537.615234	33.642754
29673.826064	-1313.726667	536.369141	29.984240
29673.826064	-1313.726667	535.124023	-2.846461
29673.826064	-1313.726667	533.877930	49.755955
29673.826064	-1313.726667	532.631836	-24.728146
29673.826064	-1313.726667	531.384766	36.182697
29673.826064	-1313.726667	530.138672	115.808861
29673.826064	-1313.726667	528.891602	95.478783
29673.826064	-1313.726667	527.643555	-49.717495
29673.826064	-1313.726667	526.396484	-17.983551
29673.826064	-1313.726667	525.148438	-84.040260
29673.826064	-1313.726667	523.900391	-43.994225
29673.826064	-1313.726667	522.652344	52.180611
29673.826064	-1313.726667	521.403320	33.968597
29673.826064	-1313.726667	520.154297	28.236277
29673.826064	-1313.726667	518.905273	72.382706
29673.826064	-1313.726667	517.656250	47.948559
29673.826064	-1313.726667	516.406250	31.833698
29673.826064	-1313.726667	515.156250	-2.963542
29673.826064	-1313.726667	513.906250	115.902649
29673.826064	-1313.726667	512.655273	18.828226
29673.826064	-1313.726667	511.404297	25.567829
29673.826064	-1313.726667	510.153320	24.006800
29673.826064	-1313.726667	508.902344	-149.736618
29673.826064	-1313.726667	507.650391	-134.663986
29673.826064	-1313.726667	506.398438	-152.774094
29673.826064	-1313.726667	505.146484	-21.604517
29673.826064	-1313.726667	503.893555	-37.655346
29673.826064	-1313.726667	502.641602	-12.249051
29673.826064	-1313.726667	501.388672	4.859237
29673.826064	-1313.726667	500.134766	94.459076
29673.826064	-1313.726667	498.881836	-18.928310
29673.826064	-1313.726667	497.627930	14.739289
29673.826064	-1313.726667	496.374023	23.554239
29673.826064	-1313.726667	495.119141	-6.957263
29673.826064	-1313.726667	493.865234	-8.483055
29673.826064	-1313.726667	492.610352	23.091793
29673.826064	-1313.726667	491.355469	-168.720016
29673.826064	-1313.726667	490.099609	-44.069592
29673.826064	-1313.726667	488.843750	55.719807
29673.826064	-1313.726667	487.587891	-59.494564
29673.826064	-1313.726667	486.332031	-25.869614
29673.826064	-1313.726667	485.075195	100.712540
29673.826064	-1313.726667	483.818359	-2.041671
29673.826064	-1313.726667	482.561523	85.244469
29673.826064	-1313.726667	481.304688	9.380281
29673.826064	-1313.726667	480.046875	-74.709785
29673.826064	-1313.726667	478.789063	-26.678278
29673.826064	-1313.726667	477.531250	-15.809207
29673.826064	-1313.726667	476.272461	46.626503
29673.826064	-1313.726667	475.013672	90.471832
29673.826064	-1313.726667	473.754883	101.303535
29673.826064	-1313.726667	472.496094	-28.060423
29673.826064	-1313.726667	471.236328	21.948763
29673.826064	-1313.726667	469.976563	76.054840
29673.826064	-1313.726667	468.716797	121.893051
29673.826064	-1313.726667	467.456055	136.808502
29673.826064	-1313.726667	466.196289	-50.104446
29673.826064	-1313.726667	464.935547	90.427368
29673.826064	-1313.726667	463.673828	37.393085
29673.826064	-1313.726667	462.413086	153.137466
29673.826064	-1313.726667	461.151367	118.617668
29673.826064	-1313.726667	459.889648	174.620682
29673.826064	-1313.726667	458.626953	133.923477
29673.826064	-1313.726667	457.364258	222.780304
29673.826064	-1313.726667	456.101563	268.415924
29673.826064	-1313.726667	454.838867	231.806549
29673.826064	-1313.726667	453.575195	172.594254
29673.826064	-1313.726667	452.312500	177.086990
29673.826064	-1313.726667	451.047852	195.938614
29673.826064	-1313.726667	449.784180	198.340988
29673.826064	-1313.726667	448.519531	145.288849
29673.826064	-1313.726667	447.254883	90.190933
29673.826064	-1313.726667	445.990234	16.628193
29673.826064	-1313.726667	444.725586	211.868988
29673.826064	-1313.726667	443.459961	320.844513
29673.826064	-1313.726667	442.194336	103.651360
29673.826064	-1313.726667	440.927734	151.042404
29673.826064	-1313.726667	439.662109	257.842499
29673.826064	-1313.726667	438.395508	198.550171
29673.826064	-1313.726667	437.127930	198.680069
29673.826064	-1313.726667	435.861328	143.468628
29673.826064	-1313.726667	434.593750	166.083588
29673.826064	-1313.726667	433.326172	108.791229
29673.826064	-1313.726667	432.058594	112.912682
29673.826064	-1313.726667	430.790039	22.835443
29673.826064	-1313.726667	429.521484	112.853081
29673.826064	-1313.726667	428.252930	149.595627
29673.826064	-1313.726667	426.984375	73.772614
29673.826064	-1313.726667	425.714844	149.280502
29673.826064	-1313.726667	424.445313	173.593369
29673.826064	-1313.726667	423.174805	148.783234
29673.826064	-1313.726667	421.905273	142.332626
29673.826064	-1313.726667	420.634766	213.480713
29673.826064	-1313.726667	419.364258	137.451492
29673.826064	-1313.726667	418.092773	134.927856
29673.826064	-1313.726667	416.822266	197.696091
29673.826064	-1313.726667	415.550781	50.086105
29673.826064	-1313.726667	414.278320	92.304695
29673.826064	-1313.726667	413.006836	118.116196
29673.826064	-1313.726667	411.734375	111.200111
29673.826064	-1313.726667	410.461914	138.893494
29673.826064	-1313.726667	409.188477	9.462366
29673.826064	-1313.726667	407.916016	153.236145
29673.826064	-1313.726667	406.642578	95.049812
29673.826064	-1313.726667	405.368164	75.525604
29673.826064	-1313.726667	404.094727	155.771347
29673.826064	-1313.726667	402.820313	5.684396
29673.826064	-1313.726667	401.545898	191.635788
29673.826064	-1313.726667	400.270508	29.195204
29673.826064	-1313.726667	398.996094	62.172321
29673.826064	-1313.726667	397.720703	131.665726
29673.826064	-1313.726667	396.444336	170.492264
29673.826064	-1313.726667	395.168945	62.705956
29673.826064	-1313.726667	393.892578	109.439743
29673.826064	-1313.726667	392.616211	168.234940
29673.826064	-1313.726667	391.339844	135.385300
29673.826064	-1313.726667	390.062500	75.991249
29673.826064	-1313.726667	388.785156	97.783989
29673.826064	-1313.726667	387.507813	38.154125
29673.826064	-1313.726667	386.229492	100.291306
29673.826064	-1313.726667	384.951172	72.889565
29673.826064	-1313.726667	383.672852	18.950993
29673.826064	-1313.726667	382.394531	127.290062
29673.826064	-1313.726667	381.115234	109.574005
29673.826064	-1313.726667	379.835938	71.406509
29673.826064	-1313.726667	378.556641	-21.694698
29673.826064	-1313.726667	377.277344	-9.458113
29673.826064	-1313.726667	375.997070	-70.421135
29673.826064	-1313.726667	374.716797	107.697166
29673.826064	-1313.726667	373.435547	-36.763729
29673.826064	-1313.726667	372.155273	27.383528
29673.826064	-1313.726667	370.874023	-26.228064
29673.826064	-1313.726667	369.591797	33.404648
29673.826064	-1313.726667	368.310547	21.912390
29673.826064	-1313.726667	367.028320	-60.677708
29673.826064	-1313.726667	365.746094	71.121414
29673.826064	-1313.726667	364.463867	12.370427
29673.826064	-1313.726667	363.180664	84.919014
29673.826064	-1313.726667	361.897461	-45.126553
29673.826064	-1313.726667	360.614258	32.954575
29673.826064	-1313.726667	359.330078	-2.519255
29673.826064	-1313.726667	358.045898	10.267298
29673.826064	-1313.726667	356.761719	-45.961983
29673.826064	-1313.726667	355.477539	119.836349
29673.826064	-1313.726667	354.192383	-15.792377
29673.826064	-1313.726667	352.907227	-10.272891
29673.826064	-1313.726667	351.622070	-69.699959
29673.826064	-1313.726667	350.336914	-30.491764
29673.826064	-1313.726667	349.050781	135.529633
29673.826064	-1313.726667	347.764648	58.945065
29673.826064	-1313.726667	346.477539	-72.451241
29673.826064	-1313.726667	345.191406	-30.652315
29673.826064	-1313.726667	343.904297	-35.645317
29673.826064	-1313.726667	342.616211	57.775570
29673.826064	-1313.726667	341.329102	-0.430423
29673.826064	-1313.726667	340.041016	-20.730312
29673.826064	-1313.726667	338.752930	14.987052
29673.826064	-1313.726667	337.463867	30.103710
29673.826064	-1313.726667	336.175781	127.373978
29673.826064	-1313.726667	334.886719	-96.059723
29673.826064	-1313.726667	333.596680	36.502415
29673.826064	-1313.726667	332.307617	-32.747433
29673.826064	-1313.726667	331.017578	8.223995
29673.826064	-1313.726667	329.727539	-23.753164
29673.826064	-1313.726667	328.436523	-7.960093
29673.826064	-1313.726667	327.146484	-48.993626
29673.826064	-1313.726667	325.855469	-42.300503
29673.826064	-1313.726667	324.563477	52.281616
29673.826064	-1313.726667	323.272461	27.694162
29673.826064	-1313.726667	321.980469	12.573642
29673.826064	-1313.726667	320.688477	-55.362114
29673.826064	-1313.726667	319.395508	-89.743210
29673.826064	-1313.726667	318.103516	-28.318159
29673.826064	-1313.726667	316.810547	-108.107864
29673.826064	-1313.726667	315.516602	28.254025
29673.826064	-1313.726667	314.223633	-62.856922
29673.826064	-1313.726667	312.929688	39.993164
29673.826064	-1313.726667	311.635742	-10.347202
29673.826064	-1313.726667	310.340820	22.834116
29673.826064	-1313.726667	309.045898	-8.888371
29673.826064	-1313.726667	307.750977	36.839676
29673.826064	-1313.726667	306.456055	69.761475
29673.826064	-1313.726667	305.160156	29.732704
29673.826064	-1313.726667	303.865234	-5.041155
29673.826064	-1313.726667	302.568359	-66.699615
29673.826064	-1313.726667	301.272461	181.236572
29673.826064	-1313.726667	299.975586	113.875053
29673.826064	-1313.726667	298.678711	175.772842
