#X		#Y		#Wave		#Intensity
29683.466489	-1340.658333	1999.980469	-187.281952
29683.466489	-1340.658333	1999.016602	38.241680
29683.466489	-1340.658333	1998.052734	32.167652
29683.466489	-1340.658333	1997.087891	-95.649132
29683.466489	-1340.658333	1996.123047	-5.696786
29683.466489	-1340.658333	1995.158203	-7.736169
29683.466489	-1340.658333	1994.193359	-29.883755
29683.466489	-1340.658333	1993.228516	-126.599930
29683.466489	-1340.658333	1992.262695	-102.241013
29683.466489	-1340.658333	1991.297852	95.113434
29683.466489	-1340.658333	1990.332031	138.687302
29683.466489	-1340.658333	1989.366211	-293.106079
29683.466489	-1340.658333	1988.399414	64.219070
29683.466489	-1340.658333	1987.433594	-1.805876
29683.466489	-1340.658333	1986.466797	-77.932304
29683.466489	-1340.658333	1985.500977	-15.790320
29683.466489	-1340.658333	1984.534180	58.471008
29683.466489	-1340.658333	1983.567383	73.167999
29683.466489	-1340.658333	1982.599609	240.872192
29683.466489	-1340.658333	1981.632813	129.114838
29683.466489	-1340.658333	1980.665039	-197.712402
29683.466489	-1340.658333	1979.697266	110.148567
29683.466489	-1340.658333	1978.729492	133.731323
29683.466489	-1340.658333	1977.761719	-0.879856
29683.466489	-1340.658333	1976.792969	93.954987
29683.466489	-1340.658333	1975.825195	55.319359
29683.466489	-1340.658333	1974.856445	258.361786
29683.466489	-1340.658333	1973.887695	31.897289
29683.466489	-1340.658333	1972.918945	214.835709
29683.466489	-1340.658333	1971.949219	-53.752693
29683.466489	-1340.658333	1970.980469	131.321960
29683.466489	-1340.658333	1970.010742	94.317474
29683.466489	-1340.658333	1969.041016	192.763901
29683.466489	-1340.658333	1968.071289	69.261879
29683.466489	-1340.658333	1967.101563	-226.787262
29683.466489	-1340.658333	1966.130859	304.880646
29683.466489	-1340.658333	1965.161133	117.050041
29683.466489	-1340.658333	1964.190430	52.308678
29683.466489	-1340.658333	1963.219727	-78.981293
29683.466489	-1340.658333	1962.249023	-28.159319
29683.466489	-1340.658333	1961.277344	-53.745449
29683.466489	-1340.658333	1960.306641	112.529617
29683.466489	-1340.658333	1959.334961	-80.538849
29683.466489	-1340.658333	1958.363281	191.286285
29683.466489	-1340.658333	1957.391602	258.809601
29683.466489	-1340.658333	1956.419922	161.491837
29683.466489	-1340.658333	1955.447266	101.015045
29683.466489	-1340.658333	1954.474609	222.385818
29683.466489	-1340.658333	1953.501953	245.349777
29683.466489	-1340.658333	1952.529297	115.910255
29683.466489	-1340.658333	1951.556641	254.232620
29683.466489	-1340.658333	1950.583984	-5.441683
29683.466489	-1340.658333	1949.610352	-100.540855
29683.466489	-1340.658333	1948.636719	5.677851
29683.466489	-1340.658333	1947.663086	165.818909
29683.466489	-1340.658333	1946.689453	55.885151
29683.466489	-1340.658333	1945.715820	147.172272
29683.466489	-1340.658333	1944.741211	184.413589
29683.466489	-1340.658333	1943.767578	260.859314
29683.466489	-1340.658333	1942.792969	266.119720
29683.466489	-1340.658333	1941.818359	6.534947
29683.466489	-1340.658333	1940.842773	75.525391
29683.466489	-1340.658333	1939.868164	-36.908852
29683.466489	-1340.658333	1938.892578	36.924065
29683.466489	-1340.658333	1937.916992	277.324982
29683.466489	-1340.658333	1936.941406	-131.561432
29683.466489	-1340.658333	1935.965820	-50.453938
29683.466489	-1340.658333	1934.990234	99.178696
29683.466489	-1340.658333	1934.013672	248.740662
29683.466489	-1340.658333	1933.037109	-69.313156
29683.466489	-1340.658333	1932.060547	80.210365
29683.466489	-1340.658333	1931.083984	107.320686
29683.466489	-1340.658333	1930.107422	207.814316
29683.466489	-1340.658333	1929.129883	141.931046
29683.466489	-1340.658333	1928.153320	0.260236
29683.466489	-1340.658333	1927.175781	39.580627
29683.466489	-1340.658333	1926.198242	220.684586
29683.466489	-1340.658333	1925.219727	123.071434
29683.466489	-1340.658333	1924.242188	89.043175
29683.466489	-1340.658333	1923.263672	277.376373
29683.466489	-1340.658333	1922.285156	-18.050869
29683.466489	-1340.658333	1921.306641	255.731216
29683.466489	-1340.658333	1920.328125	143.584961
29683.466489	-1340.658333	1919.349609	48.581627
29683.466489	-1340.658333	1918.370117	87.878456
29683.466489	-1340.658333	1917.391602	-119.326599
29683.466489	-1340.658333	1916.412109	139.627594
29683.466489	-1340.658333	1915.431641	-67.492554
29683.466489	-1340.658333	1914.452148	-106.208061
29683.466489	-1340.658333	1913.472656	133.128311
29683.466489	-1340.658333	1912.492188	213.894318
29683.466489	-1340.658333	1911.511719	-41.782696
29683.466489	-1340.658333	1910.531250	-238.851425
29683.466489	-1340.658333	1909.550781	-148.264526
29683.466489	-1340.658333	1908.569336	-169.779114
29683.466489	-1340.658333	1907.588867	-162.030090
29683.466489	-1340.658333	1906.607422	-90.946243
29683.466489	-1340.658333	1905.625977	-168.414261
29683.466489	-1340.658333	1904.644531	-85.142845
29683.466489	-1340.658333	1903.662109	41.927170
29683.466489	-1340.658333	1902.680664	-261.810211
29683.466489	-1340.658333	1901.698242	-190.684128
29683.466489	-1340.658333	1900.715820	140.754333
29683.466489	-1340.658333	1899.733398	-7.100174
29683.466489	-1340.658333	1898.750000	39.672756
29683.466489	-1340.658333	1897.767578	49.978477
29683.466489	-1340.658333	1896.784180	-51.531693
29683.466489	-1340.658333	1895.800781	-55.760616
29683.466489	-1340.658333	1894.817383	-259.241577
29683.466489	-1340.658333	1893.833984	-93.312622
29683.466489	-1340.658333	1892.850586	-19.739494
29683.466489	-1340.658333	1891.866211	-28.756142
29683.466489	-1340.658333	1890.881836	112.806572
29683.466489	-1340.658333	1889.897461	181.497238
29683.466489	-1340.658333	1888.913086	-4.700034
29683.466489	-1340.658333	1887.927734	-101.015312
29683.466489	-1340.658333	1886.943359	50.231361
29683.466489	-1340.658333	1885.958008	-210.994110
29683.466489	-1340.658333	1884.972656	-151.925217
29683.466489	-1340.658333	1883.987305	-182.593597
29683.466489	-1340.658333	1883.001953	-91.997704
29683.466489	-1340.658333	1882.015625	-103.242653
29683.466489	-1340.658333	1881.029297	6.721102
29683.466489	-1340.658333	1880.042969	322.643097
29683.466489	-1340.658333	1879.056641	-69.024078
29683.466489	-1340.658333	1878.070313	-19.646164
29683.466489	-1340.658333	1877.083984	70.901299
29683.466489	-1340.658333	1876.096680	-131.582535
29683.466489	-1340.658333	1875.109375	46.131363
29683.466489	-1340.658333	1874.122070	153.591202
29683.466489	-1340.658333	1873.134766	142.433105
29683.466489	-1340.658333	1872.146484	82.893700
29683.466489	-1340.658333	1871.159180	-332.244385
29683.466489	-1340.658333	1870.170898	55.824760
29683.466489	-1340.658333	1869.182617	151.134689
29683.466489	-1340.658333	1868.194336	-53.403206
29683.466489	-1340.658333	1867.205078	49.156685
29683.466489	-1340.658333	1866.216797	105.762825
29683.466489	-1340.658333	1865.227539	-33.388210
29683.466489	-1340.658333	1864.238281	-165.235672
29683.466489	-1340.658333	1863.249023	-243.885788
29683.466489	-1340.658333	1862.259766	-97.890099
29683.466489	-1340.658333	1861.269531	23.902014
29683.466489	-1340.658333	1860.279297	-136.819855
29683.466489	-1340.658333	1859.290039	-72.993080
29683.466489	-1340.658333	1858.298828	319.021332
29683.466489	-1340.658333	1857.308594	3.908934
29683.466489	-1340.658333	1856.318359	82.142555
29683.466489	-1340.658333	1855.327148	1.148196
29683.466489	-1340.658333	1854.335938	117.929825
29683.466489	-1340.658333	1853.344727	65.885017
29683.466489	-1340.658333	1852.353516	4.212146
29683.466489	-1340.658333	1851.362305	72.707214
29683.466489	-1340.658333	1850.370117	-5.826900
29683.466489	-1340.658333	1849.377930	-2.423346
29683.466489	-1340.658333	1848.385742	8.194331
29683.466489	-1340.658333	1847.393555	71.785011
29683.466489	-1340.658333	1846.401367	67.920067
29683.466489	-1340.658333	1845.408203	97.744125
29683.466489	-1340.658333	1844.415039	182.907623
29683.466489	-1340.658333	1843.421875	150.104965
29683.466489	-1340.658333	1842.428711	141.360641
29683.466489	-1340.658333	1841.435547	-18.953192
29683.466489	-1340.658333	1840.441406	212.825577
29683.466489	-1340.658333	1839.448242	223.264481
29683.466489	-1340.658333	1838.454102	19.694546
29683.466489	-1340.658333	1837.459961	39.742821
29683.466489	-1340.658333	1836.464844	40.532310
29683.466489	-1340.658333	1835.470703	34.095520
29683.466489	-1340.658333	1834.475586	114.126602
29683.466489	-1340.658333	1833.480469	69.197998
29683.466489	-1340.658333	1832.485352	31.468956
29683.466489	-1340.658333	1831.490234	116.186623
29683.466489	-1340.658333	1830.495117	251.264145
29683.466489	-1340.658333	1829.499023	268.646637
29683.466489	-1340.658333	1828.502930	50.818790
29683.466489	-1340.658333	1827.506836	363.297272
29683.466489	-1340.658333	1826.510742	258.221802
29683.466489	-1340.658333	1825.513672	213.115509
29683.466489	-1340.658333	1824.517578	132.029053
29683.466489	-1340.658333	1823.520508	283.497864
29683.466489	-1340.658333	1822.523438	-34.948330
29683.466489	-1340.658333	1821.526367	197.912292
29683.466489	-1340.658333	1820.529297	186.242905
29683.466489	-1340.658333	1819.531250	239.224716
29683.466489	-1340.658333	1818.533203	57.412987
29683.466489	-1340.658333	1817.535156	165.406494
29683.466489	-1340.658333	1816.537109	290.081329
29683.466489	-1340.658333	1815.539063	60.370228
29683.466489	-1340.658333	1814.540039	165.788239
29683.466489	-1340.658333	1813.541992	27.042984
29683.466489	-1340.658333	1812.542969	314.179016
29683.466489	-1340.658333	1811.543945	48.589764
29683.466489	-1340.658333	1810.543945	323.565552
29683.466489	-1340.658333	1809.544922	189.503799
29683.466489	-1340.658333	1808.544922	241.921402
29683.466489	-1340.658333	1807.544922	93.489372
29683.466489	-1340.658333	1806.544922	-95.560669
29683.466489	-1340.658333	1805.544922	92.936523
29683.466489	-1340.658333	1804.544922	171.423538
29683.466489	-1340.658333	1803.543945	156.678726
29683.466489	-1340.658333	1802.542969	108.457283
29683.466489	-1340.658333	1801.541992	115.115913
29683.466489	-1340.658333	1800.541016	-174.281662
29683.466489	-1340.658333	1799.539063	-150.970947
29683.466489	-1340.658333	1798.538086	48.862545
29683.466489	-1340.658333	1797.536133	181.762192
29683.466489	-1340.658333	1796.534180	18.776531
29683.466489	-1340.658333	1795.532227	32.277916
29683.466489	-1340.658333	1794.529297	-102.119743
29683.466489	-1340.658333	1793.527344	-219.829910
29683.466489	-1340.658333	1792.524414	296.457886
29683.466489	-1340.658333	1791.521484	61.827648
29683.466489	-1340.658333	1790.518555	-51.260315
29683.466489	-1340.658333	1789.514648	228.688553
29683.466489	-1340.658333	1788.511719	196.474243
29683.466489	-1340.658333	1787.507813	-50.108868
29683.466489	-1340.658333	1786.503906	22.369251
29683.466489	-1340.658333	1785.500000	132.843567
29683.466489	-1340.658333	1784.496094	-147.088837
29683.466489	-1340.658333	1783.491211	132.187408
29683.466489	-1340.658333	1782.486328	52.065502
29683.466489	-1340.658333	1781.481445	328.693329
29683.466489	-1340.658333	1780.476563	-129.683517
29683.466489	-1340.658333	1779.471680	317.934418
29683.466489	-1340.658333	1778.465820	216.179901
29683.466489	-1340.658333	1777.460938	-75.739449
29683.466489	-1340.658333	1776.455078	29.223497
29683.466489	-1340.658333	1775.449219	84.187035
29683.466489	-1340.658333	1774.442383	-77.106949
29683.466489	-1340.658333	1773.436523	314.961853
29683.466489	-1340.658333	1772.429688	174.920578
29683.466489	-1340.658333	1771.422852	155.940552
29683.466489	-1340.658333	1770.416016	212.851471
29683.466489	-1340.658333	1769.409180	264.924408
29683.466489	-1340.658333	1768.402344	245.727386
29683.466489	-1340.658333	1767.394531	-84.302788
29683.466489	-1340.658333	1766.386719	140.720459
29683.466489	-1340.658333	1765.378906	180.620987
29683.466489	-1340.658333	1764.371094	135.082092
29683.466489	-1340.658333	1763.362305	61.038425
29683.466489	-1340.658333	1762.354492	321.123596
29683.466489	-1340.658333	1761.345703	5.232598
29683.466489	-1340.658333	1760.336914	127.670418
29683.466489	-1340.658333	1759.328125	-57.936241
29683.466489	-1340.658333	1758.318359	45.366550
29683.466489	-1340.658333	1757.308594	169.866440
29683.466489	-1340.658333	1756.299805	78.827942
29683.466489	-1340.658333	1755.290039	46.912888
29683.466489	-1340.658333	1754.279297	31.491980
29683.466489	-1340.658333	1753.269531	-201.655319
29683.466489	-1340.658333	1752.258789	-77.609718
29683.466489	-1340.658333	1751.249023	41.590183
29683.466489	-1340.658333	1750.238281	99.181778
29683.466489	-1340.658333	1749.226563	-134.118469
29683.466489	-1340.658333	1748.215820	-3.391650
29683.466489	-1340.658333	1747.204102	186.280884
29683.466489	-1340.658333	1746.193359	-25.859417
29683.466489	-1340.658333	1745.181641	-41.929283
29683.466489	-1340.658333	1744.168945	36.397186
29683.466489	-1340.658333	1743.157227	15.443948
29683.466489	-1340.658333	1742.144531	-114.191284
29683.466489	-1340.658333	1741.132813	-165.945969
29683.466489	-1340.658333	1740.120117	-399.494141
29683.466489	-1340.658333	1739.106445	-118.638702
29683.466489	-1340.658333	1738.093750	164.398178
29683.466489	-1340.658333	1737.080078	-107.057915
29683.466489	-1340.658333	1736.067383	71.952820
29683.466489	-1340.658333	1735.053711	-27.414186
29683.466489	-1340.658333	1734.040039	19.335690
29683.466489	-1340.658333	1733.025391	98.979195
29683.466489	-1340.658333	1732.011719	-179.658035
29683.466489	-1340.658333	1730.997070	-545.448425
29683.466489	-1340.658333	1729.982422	-23.125502
29683.466489	-1340.658333	1728.967773	-80.439156
29683.466489	-1340.658333	1727.952148	-184.909790
29683.466489	-1340.658333	1726.937500	-265.865295
29683.466489	-1340.658333	1725.921875	-71.483398
29683.466489	-1340.658333	1724.906250	-119.645699
29683.466489	-1340.658333	1723.890625	72.128487
29683.466489	-1340.658333	1722.875000	113.198761
29683.466489	-1340.658333	1721.858398	-31.639223
29683.466489	-1340.658333	1720.841797	-181.198349
29683.466489	-1340.658333	1719.825195	-65.107254
29683.466489	-1340.658333	1718.808594	194.253464
29683.466489	-1340.658333	1717.791992	91.514954
29683.466489	-1340.658333	1716.774414	75.669868
29683.466489	-1340.658333	1715.756836	109.091270
29683.466489	-1340.658333	1714.739258	-144.130676
29683.466489	-1340.658333	1713.721680	77.041473
29683.466489	-1340.658333	1712.704102	-56.479820
29683.466489	-1340.658333	1711.685547	-23.364286
29683.466489	-1340.658333	1710.667969	28.453167
29683.466489	-1340.658333	1709.649414	164.644409
29683.466489	-1340.658333	1708.630859	195.133820
29683.466489	-1340.658333	1707.611328	-98.170418
29683.466489	-1340.658333	1706.592773	152.666504
29683.466489	-1340.658333	1705.573242	-91.422287
29683.466489	-1340.658333	1704.553711	-98.709389
29683.466489	-1340.658333	1703.534180	231.452164
29683.466489	-1340.658333	1702.513672	-36.166443
29683.466489	-1340.658333	1701.494141	-120.989082
29683.466489	-1340.658333	1700.473633	-184.776566
29683.466489	-1340.658333	1699.453125	-63.584305
29683.466489	-1340.658333	1698.432617	97.301102
29683.466489	-1340.658333	1697.412109	49.692688
29683.466489	-1340.658333	1696.390625	-54.152306
29683.466489	-1340.658333	1695.369141	157.910217
29683.466489	-1340.658333	1694.347656	103.087852
29683.466489	-1340.658333	1693.326172	155.830383
29683.466489	-1340.658333	1692.304688	-95.572571
29683.466489	-1340.658333	1691.282227	-38.276077
29683.466489	-1340.658333	1690.260742	-18.462393
29683.466489	-1340.658333	1689.238281	132.172913
29683.466489	-1340.658333	1688.214844	62.985764
29683.466489	-1340.658333	1687.192383	-8.563149
29683.466489	-1340.658333	1686.168945	74.033432
29683.466489	-1340.658333	1685.146484	-163.451050
29683.466489	-1340.658333	1684.123047	164.230682
29683.466489	-1340.658333	1683.099609	-229.751068
29683.466489	-1340.658333	1682.075195	41.661106
29683.466489	-1340.658333	1681.051758	130.871948
29683.466489	-1340.658333	1680.027344	117.302200
29683.466489	-1340.658333	1679.002930	-5.975245
29683.466489	-1340.658333	1677.978516	-19.627651
29683.466489	-1340.658333	1676.953125	241.855316
29683.466489	-1340.658333	1675.928711	78.818405
29683.466489	-1340.658333	1674.903320	169.886993
29683.466489	-1340.658333	1673.877930	97.708466
29683.466489	-1340.658333	1672.852539	-86.353142
29683.466489	-1340.658333	1671.826172	139.659607
29683.466489	-1340.658333	1670.800781	48.734497
29683.466489	-1340.658333	1669.774414	76.562935
29683.466489	-1340.658333	1668.748047	237.060150
29683.466489	-1340.658333	1667.721680	285.693726
29683.466489	-1340.658333	1666.694336	166.655319
29683.466489	-1340.658333	1665.667969	159.333557
29683.466489	-1340.658333	1664.640625	103.093300
29683.466489	-1340.658333	1663.613281	358.557068
29683.466489	-1340.658333	1662.585938	418.502991
29683.466489	-1340.658333	1661.557617	462.089386
29683.466489	-1340.658333	1660.530273	42.953392
29683.466489	-1340.658333	1659.501953	56.289562
29683.466489	-1340.658333	1658.473633	508.831970
29683.466489	-1340.658333	1657.444336	452.266113
29683.466489	-1340.658333	1656.416016	567.610291
29683.466489	-1340.658333	1655.386719	436.646729
29683.466489	-1340.658333	1654.358398	361.444672
29683.466489	-1340.658333	1653.328125	376.757813
29683.466489	-1340.658333	1652.298828	338.648682
29683.466489	-1340.658333	1651.269531	625.451172
29683.466489	-1340.658333	1650.239258	577.942444
29683.466489	-1340.658333	1649.208984	532.737732
29683.466489	-1340.658333	1648.178711	545.505920
29683.466489	-1340.658333	1647.148438	284.578033
29683.466489	-1340.658333	1646.117188	589.469421
29683.466489	-1340.658333	1645.086914	655.443237
29683.466489	-1340.658333	1644.055664	800.154175
29683.466489	-1340.658333	1643.024414	923.924683
29683.466489	-1340.658333	1641.992188	741.774048
29683.466489	-1340.658333	1640.960938	809.858032
29683.466489	-1340.658333	1639.928711	1118.739502
29683.466489	-1340.658333	1638.896484	1135.715698
29683.466489	-1340.658333	1637.864258	1247.582520
29683.466489	-1340.658333	1636.832031	1114.026367
29683.466489	-1340.658333	1635.798828	1130.910156
29683.466489	-1340.658333	1634.766602	1321.312012
29683.466489	-1340.658333	1633.733398	1169.233887
29683.466489	-1340.658333	1632.699219	1158.268433
29683.466489	-1340.658333	1631.666016	1422.480347
29683.466489	-1340.658333	1630.632813	1323.591553
29683.466489	-1340.658333	1629.598633	1273.254150
29683.466489	-1340.658333	1628.564453	1072.701050
29683.466489	-1340.658333	1627.530273	1170.280762
29683.466489	-1340.658333	1626.495117	1367.133667
29683.466489	-1340.658333	1625.460938	1092.726440
29683.466489	-1340.658333	1624.425781	1492.711426
29683.466489	-1340.658333	1623.390625	1523.116699
29683.466489	-1340.658333	1622.355469	1431.156006
29683.466489	-1340.658333	1621.319336	1306.899292
29683.466489	-1340.658333	1620.284180	1314.221558
29683.466489	-1340.658333	1619.248047	1572.990112
29683.466489	-1340.658333	1618.211914	1393.398926
29683.466489	-1340.658333	1617.174805	1416.802856
29683.466489	-1340.658333	1616.138672	1274.196167
29683.466489	-1340.658333	1615.101563	1408.256714
29683.466489	-1340.658333	1614.065430	1360.201294
29683.466489	-1340.658333	1613.027344	1183.093140
29683.466489	-1340.658333	1611.990234	1340.132690
29683.466489	-1340.658333	1610.953125	1165.417480
29683.466489	-1340.658333	1609.915039	1211.847290
29683.466489	-1340.658333	1608.876953	1359.575195
29683.466489	-1340.658333	1607.838867	1403.656738
29683.466489	-1340.658333	1606.800781	1546.696655
29683.466489	-1340.658333	1605.761719	1567.712158
29683.466489	-1340.658333	1604.723633	1664.665894
29683.466489	-1340.658333	1603.684570	1805.282837
29683.466489	-1340.658333	1602.644531	1577.864990
29683.466489	-1340.658333	1601.605469	1727.663818
29683.466489	-1340.658333	1600.566406	1576.251587
29683.466489	-1340.658333	1599.526367	1532.928711
29683.466489	-1340.658333	1598.486328	1712.551147
29683.466489	-1340.658333	1597.446289	1708.309326
29683.466489	-1340.658333	1596.405273	1625.968628
29683.466489	-1340.658333	1595.365234	1252.007202
29683.466489	-1340.658333	1594.324219	1658.929688
29683.466489	-1340.658333	1593.283203	1558.335938
29683.466489	-1340.658333	1592.242188	1641.433838
29683.466489	-1340.658333	1591.200195	1286.176636
29683.466489	-1340.658333	1590.159180	1624.024658
29683.466489	-1340.658333	1589.117188	1273.545044
29683.466489	-1340.658333	1588.075195	1209.925415
29683.466489	-1340.658333	1587.032227	1426.103516
29683.466489	-1340.658333	1585.990234	1316.677856
29683.466489	-1340.658333	1584.947266	1436.534424
29683.466489	-1340.658333	1583.904297	1210.311890
29683.466489	-1340.658333	1582.861328	1183.556152
29683.466489	-1340.658333	1581.818359	1117.897095
29683.466489	-1340.658333	1580.775391	1359.214844
29683.466489	-1340.658333	1579.731445	1435.577881
29683.466489	-1340.658333	1578.687500	1466.156128
29683.466489	-1340.658333	1577.643555	1258.692627
29683.466489	-1340.658333	1576.598633	1250.447510
29683.466489	-1340.658333	1575.554688	1395.563965
29683.466489	-1340.658333	1574.509766	1426.262207
29683.466489	-1340.658333	1573.464844	1580.500977
29683.466489	-1340.658333	1572.419922	1455.726685
29683.466489	-1340.658333	1571.374023	1598.537476
29683.466489	-1340.658333	1570.329102	1300.159790
29683.466489	-1340.658333	1569.283203	1303.617310
29683.466489	-1340.658333	1568.237305	1357.390015
29683.466489	-1340.658333	1567.191406	1372.347900
29683.466489	-1340.658333	1566.144531	1496.974243
29683.466489	-1340.658333	1565.098633	1233.381836
29683.466489	-1340.658333	1564.051758	1150.307495
29683.466489	-1340.658333	1563.004883	1026.223145
29683.466489	-1340.658333	1561.957031	1333.596680
29683.466489	-1340.658333	1560.910156	1351.106567
29683.466489	-1340.658333	1559.862305	1220.357422
29683.466489	-1340.658333	1558.814453	1285.881592
29683.466489	-1340.658333	1557.766602	1235.123169
29683.466489	-1340.658333	1556.718750	1330.370361
29683.466489	-1340.658333	1555.669922	1199.936890
29683.466489	-1340.658333	1554.621094	1283.860474
29683.466489	-1340.658333	1553.573242	1169.565430
29683.466489	-1340.658333	1552.523438	1178.384277
29683.466489	-1340.658333	1551.474609	1153.103516
29683.466489	-1340.658333	1550.424805	1016.287659
29683.466489	-1340.658333	1549.375000	1319.046387
29683.466489	-1340.658333	1548.325195	1086.763672
29683.466489	-1340.658333	1547.275391	836.428345
29683.466489	-1340.658333	1546.225586	975.391052
29683.466489	-1340.658333	1545.174805	732.120483
29683.466489	-1340.658333	1544.124023	978.085388
29683.466489	-1340.658333	1543.073242	1076.192749
29683.466489	-1340.658333	1542.022461	1026.527588
29683.466489	-1340.658333	1540.970703	936.021667
29683.466489	-1340.658333	1539.919922	791.081421
29683.466489	-1340.658333	1538.868164	905.325684
29683.466489	-1340.658333	1537.815430	715.132446
29683.466489	-1340.658333	1536.763672	872.651855
29683.466489	-1340.658333	1535.710938	757.635925
29683.466489	-1340.658333	1534.659180	838.031433
29683.466489	-1340.658333	1533.606445	839.002686
29683.466489	-1340.658333	1532.552734	533.613281
29683.466489	-1340.658333	1531.500000	514.373962
29683.466489	-1340.658333	1530.446289	669.918213
29683.466489	-1340.658333	1529.393555	680.307312
29683.466489	-1340.658333	1528.338867	593.228088
29683.466489	-1340.658333	1527.285156	587.907288
29683.466489	-1340.658333	1526.231445	612.144653
29683.466489	-1340.658333	1525.176758	491.375092
29683.466489	-1340.658333	1524.122070	581.499390
29683.466489	-1340.658333	1523.067383	553.850281
29683.466489	-1340.658333	1522.012695	304.293671
29683.466489	-1340.658333	1520.957031	276.872223
29683.466489	-1340.658333	1519.901367	451.083954
29683.466489	-1340.658333	1518.845703	487.210846
29683.466489	-1340.658333	1517.790039	598.109009
29683.466489	-1340.658333	1516.734375	279.062408
29683.466489	-1340.658333	1515.677734	340.350281
29683.466489	-1340.658333	1514.621094	313.476105
29683.466489	-1340.658333	1513.564453	422.411224
29683.466489	-1340.658333	1512.507813	339.183655
29683.466489	-1340.658333	1511.450195	271.899170
29683.466489	-1340.658333	1510.393555	496.334564
29683.466489	-1340.658333	1509.335938	551.271118
29683.466489	-1340.658333	1508.278320	276.391418
29683.466489	-1340.658333	1507.219727	236.651199
29683.466489	-1340.658333	1506.162109	56.996372
29683.466489	-1340.658333	1505.103516	60.414051
29683.466489	-1340.658333	1504.044922	136.174286
29683.466489	-1340.658333	1502.986328	406.129211
29683.466489	-1340.658333	1501.926758	303.690094
29683.466489	-1340.658333	1500.868164	390.936584
29683.466489	-1340.658333	1499.808594	261.669220
29683.466489	-1340.658333	1498.749023	87.446594
29683.466489	-1340.658333	1497.688477	-57.298199
29683.466489	-1340.658333	1496.628906	242.277359
29683.466489	-1340.658333	1495.568359	-224.580124
29683.466489	-1340.658333	1494.507813	108.914070
29683.466489	-1340.658333	1493.447266	-276.405579
29683.466489	-1340.658333	1492.386719	-93.765144
29683.466489	-1340.658333	1491.325195	-163.359909
29683.466489	-1340.658333	1490.263672	30.649120
29683.466489	-1340.658333	1489.202148	-185.075500
29683.466489	-1340.658333	1488.140625	-409.615326
29683.466489	-1340.658333	1487.079102	-255.862549
29683.466489	-1340.658333	1486.016602	-88.568588
29683.466489	-1340.658333	1484.954102	112.509285
29683.466489	-1340.658333	1483.891602	-12.519148
29683.466489	-1340.658333	1482.829102	-249.825363
29683.466489	-1340.658333	1481.765625	-511.654572
29683.466489	-1340.658333	1480.702148	-193.330933
29683.466489	-1340.658333	1479.638672	113.751450
29683.466489	-1340.658333	1478.575195	7.360479
29683.466489	-1340.658333	1477.511719	-98.823799
29683.466489	-1340.658333	1476.447266	-72.333237
29683.466489	-1340.658333	1475.382813	-43.529629
29683.466489	-1340.658333	1474.318359	120.011162
29683.466489	-1340.658333	1473.253906	34.592197
29683.466489	-1340.658333	1472.189453	359.899323
29683.466489	-1340.658333	1471.124023	90.719505
29683.466489	-1340.658333	1470.058594	122.532204
29683.466489	-1340.658333	1468.993164	3.741959
29683.466489	-1340.658333	1467.927734	194.815842
29683.466489	-1340.658333	1466.861328	166.467010
29683.466489	-1340.658333	1465.794922	99.988892
29683.466489	-1340.658333	1464.728516	156.602386
29683.466489	-1340.658333	1463.662109	334.534302
29683.466489	-1340.658333	1462.594727	378.390778
29683.466489	-1340.658333	1461.528320	387.993469
29683.466489	-1340.658333	1460.460938	616.917786
29683.466489	-1340.658333	1459.393555	352.663513
29683.466489	-1340.658333	1458.326172	474.431976
29683.466489	-1340.658333	1457.257813	627.841492
29683.466489	-1340.658333	1456.189453	546.903198
29683.466489	-1340.658333	1455.121094	529.353516
29683.466489	-1340.658333	1454.052734	452.764893
29683.466489	-1340.658333	1452.984375	736.367859
29683.466489	-1340.658333	1451.915039	511.918091
29683.466489	-1340.658333	1450.845703	757.588074
29683.466489	-1340.658333	1449.776367	652.194397
29683.466489	-1340.658333	1448.707031	451.143311
29683.466489	-1340.658333	1447.636719	541.392029
29683.466489	-1340.658333	1446.567383	285.481628
29683.466489	-1340.658333	1445.497070	493.728790
29683.466489	-1340.658333	1444.425781	544.712036
29683.466489	-1340.658333	1443.355469	571.442383
29683.466489	-1340.658333	1442.285156	577.963135
29683.466489	-1340.658333	1441.213867	323.659790
29683.466489	-1340.658333	1440.142578	565.717407
29683.466489	-1340.658333	1439.070313	598.972961
29683.466489	-1340.658333	1437.999023	479.309235
29683.466489	-1340.658333	1436.926758	375.546692
29683.466489	-1340.658333	1435.854492	289.412811
29683.466489	-1340.658333	1434.782227	183.309937
29683.466489	-1340.658333	1433.709961	402.091492
29683.466489	-1340.658333	1432.636719	164.077408
29683.466489	-1340.658333	1431.563477	169.752548
29683.466489	-1340.658333	1430.490234	197.214462
29683.466489	-1340.658333	1429.416992	193.031418
29683.466489	-1340.658333	1428.343750	378.390808
29683.466489	-1340.658333	1427.269531	-10.152526
29683.466489	-1340.658333	1426.195313	359.787964
29683.466489	-1340.658333	1425.121094	308.628174
29683.466489	-1340.658333	1424.046875	201.436310
29683.466489	-1340.658333	1422.971680	127.277367
29683.466489	-1340.658333	1421.896484	77.480797
29683.466489	-1340.658333	1420.821289	181.071823
29683.466489	-1340.658333	1419.746094	219.767044
29683.466489	-1340.658333	1418.669922	210.881866
29683.466489	-1340.658333	1417.594727	299.195190
29683.466489	-1340.658333	1416.518555	-53.366993
29683.466489	-1340.658333	1415.442383	-162.337296
29683.466489	-1340.658333	1414.365234	-47.118664
29683.466489	-1340.658333	1413.289063	-195.038574
29683.466489	-1340.658333	1412.211914	76.773140
29683.466489	-1340.658333	1411.134766	185.570526
29683.466489	-1340.658333	1410.057617	133.470520
29683.466489	-1340.658333	1408.979492	-78.855148
29683.466489	-1340.658333	1407.902344	57.436798
29683.466489	-1340.658333	1406.824219	-25.321484
29683.466489	-1340.658333	1405.746094	-48.427322
29683.466489	-1340.658333	1404.666992	201.900803
29683.466489	-1340.658333	1403.588867	205.975967
29683.466489	-1340.658333	1402.509766	316.853790
29683.466489	-1340.658333	1401.430664	164.048996
29683.466489	-1340.658333	1400.351563	-156.450485
29683.466489	-1340.658333	1399.271484	34.110001
29683.466489	-1340.658333	1398.192383	202.462341
29683.466489	-1340.658333	1397.112305	315.583130
29683.466489	-1340.658333	1396.031250	299.997681
29683.466489	-1340.658333	1394.951172	473.898132
29683.466489	-1340.658333	1393.871094	165.537415
29683.466489	-1340.658333	1392.790039	627.852356
29683.466489	-1340.658333	1391.708984	471.710205
29683.466489	-1340.658333	1390.626953	307.844879
29683.466489	-1340.658333	1389.545898	304.166199
29683.466489	-1340.658333	1388.463867	280.816437
29683.466489	-1340.658333	1387.381836	424.629089
29683.466489	-1340.658333	1386.299805	243.562683
29683.466489	-1340.658333	1385.217773	587.411682
29683.466489	-1340.658333	1384.134766	539.627441
29683.466489	-1340.658333	1383.051758	504.490295
29683.466489	-1340.658333	1381.968750	391.927429
29683.466489	-1340.658333	1380.885742	503.362244
29683.466489	-1340.658333	1379.802734	416.505127
29683.466489	-1340.658333	1378.718750	409.858673
29683.466489	-1340.658333	1377.634766	513.792542
29683.466489	-1340.658333	1376.550781	317.862762
29683.466489	-1340.658333	1375.465820	410.816406
29683.466489	-1340.658333	1374.381836	476.484131
29683.466489	-1340.658333	1373.296875	624.889771
29683.466489	-1340.658333	1372.211914	417.211121
29683.466489	-1340.658333	1371.126953	507.902649
29683.466489	-1340.658333	1370.041016	419.522278
29683.466489	-1340.658333	1368.955078	324.458405
29683.466489	-1340.658333	1367.869141	297.335388
29683.466489	-1340.658333	1366.783203	744.762085
29683.466489	-1340.658333	1365.697266	229.761246
29683.466489	-1340.658333	1364.610352	348.393250
29683.466489	-1340.658333	1363.523438	357.612366
29683.466489	-1340.658333	1362.436523	149.165970
29683.466489	-1340.658333	1361.349609	393.369873
29683.466489	-1340.658333	1360.261719	242.126541
29683.466489	-1340.658333	1359.174805	163.988556
29683.466489	-1340.658333	1358.086914	214.064331
29683.466489	-1340.658333	1356.998047	164.802704
29683.466489	-1340.658333	1355.910156	38.761559
29683.466489	-1340.658333	1354.821289	33.717785
29683.466489	-1340.658333	1353.732422	-1.836190
29683.466489	-1340.658333	1352.643555	57.100899
29683.466489	-1340.658333	1351.554688	135.737350
29683.466489	-1340.658333	1350.464844	222.257629
29683.466489	-1340.658333	1349.375000	67.468239
29683.466489	-1340.658333	1348.285156	145.173157
29683.466489	-1340.658333	1347.195313	93.609947
29683.466489	-1340.658333	1346.105469	151.631409
29683.466489	-1340.658333	1345.014648	286.051300
29683.466489	-1340.658333	1343.923828	61.472569
29683.466489	-1340.658333	1342.833008	217.626862
29683.466489	-1340.658333	1341.741211	380.654358
29683.466489	-1340.658333	1340.650391	168.432755
29683.466489	-1340.658333	1339.558594	206.426773
29683.466489	-1340.658333	1338.466797	186.311142
29683.466489	-1340.658333	1337.374023	261.491943
29683.466489	-1340.658333	1336.282227	120.481018
29683.466489	-1340.658333	1335.189453	-63.559074
29683.466489	-1340.658333	1334.096680	8.356632
29683.466489	-1340.658333	1333.003906	206.772293
29683.466489	-1340.658333	1331.910156	187.547440
29683.466489	-1340.658333	1330.817383	65.275146
29683.466489	-1340.658333	1329.723633	88.925369
29683.466489	-1340.658333	1328.629883	282.494385
29683.466489	-1340.658333	1327.535156	-88.954857
29683.466489	-1340.658333	1326.441406	-59.839645
29683.466489	-1340.658333	1325.346680	126.613243
29683.466489	-1340.658333	1324.251953	-20.943949
29683.466489	-1340.658333	1323.156250	143.585175
29683.466489	-1340.658333	1322.061523	179.462448
29683.466489	-1340.658333	1320.965820	56.031956
29683.466489	-1340.658333	1319.870117	186.207336
29683.466489	-1340.658333	1318.774414	-135.283707
29683.466489	-1340.658333	1317.678711	-47.074841
29683.466489	-1340.658333	1316.582031	-125.186470
29683.466489	-1340.658333	1315.485352	-110.736473
29683.466489	-1340.658333	1314.388672	-45.833111
29683.466489	-1340.658333	1313.291016	-121.320839
29683.466489	-1340.658333	1312.194336	17.978924
29683.466489	-1340.658333	1311.096680	-54.949932
29683.466489	-1340.658333	1309.999023	46.340786
29683.466489	-1340.658333	1308.901367	90.354126
29683.466489	-1340.658333	1307.802734	134.132645
29683.466489	-1340.658333	1306.705078	-159.995316
29683.466489	-1340.658333	1305.606445	-79.639030
29683.466489	-1340.658333	1304.506836	282.444916
29683.466489	-1340.658333	1303.408203	328.584564
29683.466489	-1340.658333	1302.308594	235.170944
29683.466489	-1340.658333	1301.208984	276.804108
29683.466489	-1340.658333	1300.109375	248.311279
29683.466489	-1340.658333	1299.009766	98.968941
29683.466489	-1340.658333	1297.909180	240.810318
29683.466489	-1340.658333	1296.808594	363.177429
29683.466489	-1340.658333	1295.708008	220.153397
29683.466489	-1340.658333	1294.607422	148.821289
29683.466489	-1340.658333	1293.506836	343.391144
29683.466489	-1340.658333	1292.405273	61.888615
29683.466489	-1340.658333	1291.303711	241.010956
29683.466489	-1340.658333	1290.202148	385.112732
29683.466489	-1340.658333	1289.099609	353.088867
29683.466489	-1340.658333	1287.998047	31.338255
29683.466489	-1340.658333	1286.895508	131.878250
29683.466489	-1340.658333	1285.792969	124.255455
29683.466489	-1340.658333	1284.689453	351.822021
29683.466489	-1340.658333	1283.586914	105.919815
29683.466489	-1340.658333	1282.483398	333.888824
29683.466489	-1340.658333	1281.379883	81.302811
29683.466489	-1340.658333	1280.276367	47.356186
29683.466489	-1340.658333	1279.171875	-64.940521
29683.466489	-1340.658333	1278.067383	41.714867
29683.466489	-1340.658333	1276.962891	66.421036
29683.466489	-1340.658333	1275.858398	-2.059258
29683.466489	-1340.658333	1274.753906	8.640262
29683.466489	-1340.658333	1273.648438	-185.549774
29683.466489	-1340.658333	1272.542969	82.483154
29683.466489	-1340.658333	1271.437500	56.628765
29683.466489	-1340.658333	1270.331055	58.747467
29683.466489	-1340.658333	1269.225586	-143.763184
29683.466489	-1340.658333	1268.119141	-218.159927
29683.466489	-1340.658333	1267.012695	-91.402657
29683.466489	-1340.658333	1265.906250	-259.562622
29683.466489	-1340.658333	1264.798828	-121.230423
29683.466489	-1340.658333	1263.691406	-195.373856
29683.466489	-1340.658333	1262.583984	1.183904
29683.466489	-1340.658333	1261.476563	74.178268
29683.466489	-1340.658333	1260.368164	-62.524254
29683.466489	-1340.658333	1259.260742	-99.596886
29683.466489	-1340.658333	1258.152344	-17.282234
29683.466489	-1340.658333	1257.043945	25.182232
29683.466489	-1340.658333	1255.934570	-33.959927
29683.466489	-1340.658333	1254.825195	-175.725525
29683.466489	-1340.658333	1253.716797	36.784554
29683.466489	-1340.658333	1252.606445	-198.087692
29683.466489	-1340.658333	1251.497070	71.024872
29683.466489	-1340.658333	1250.387695	113.092422
29683.466489	-1340.658333	1249.277344	-7.539800
29683.466489	-1340.658333	1248.166992	139.265579
29683.466489	-1340.658333	1247.055664	101.994453
29683.466489	-1340.658333	1245.945313	321.445801
29683.466489	-1340.658333	1244.833984	74.979057
29683.466489	-1340.658333	1243.722656	62.680752
29683.466489	-1340.658333	1242.611328	351.245300
29683.466489	-1340.658333	1241.499023	360.568878
29683.466489	-1340.658333	1240.387695	499.997131
29683.466489	-1340.658333	1239.275391	501.336975
29683.466489	-1340.658333	1238.162109	561.148071
29683.466489	-1340.658333	1237.049805	457.598358
29683.466489	-1340.658333	1235.936523	567.373596
29683.466489	-1340.658333	1234.823242	182.722473
29683.466489	-1340.658333	1233.709961	363.925262
29683.466489	-1340.658333	1232.596680	134.410843
29683.466489	-1340.658333	1231.482422	389.526581
29683.466489	-1340.658333	1230.369141	292.457947
29683.466489	-1340.658333	1229.253906	384.668762
29683.466489	-1340.658333	1228.139648	251.754059
29683.466489	-1340.658333	1227.025391	203.787796
29683.466489	-1340.658333	1225.910156	133.480652
29683.466489	-1340.658333	1224.794922	83.430832
29683.466489	-1340.658333	1223.679688	127.795685
29683.466489	-1340.658333	1222.563477	33.457775
29683.466489	-1340.658333	1221.447266	173.093414
29683.466489	-1340.658333	1220.331055	-53.714222
29683.466489	-1340.658333	1219.214844	249.879730
29683.466489	-1340.658333	1218.098633	288.433044
29683.466489	-1340.658333	1216.981445	152.316589
29683.466489	-1340.658333	1215.864258	-28.785505
29683.466489	-1340.658333	1214.747070	86.541992
29683.466489	-1340.658333	1213.629883	-60.967358
29683.466489	-1340.658333	1212.511719	36.781895
29683.466489	-1340.658333	1211.393555	-84.944023
29683.466489	-1340.658333	1210.275391	-38.005280
29683.466489	-1340.658333	1209.157227	89.083679
29683.466489	-1340.658333	1208.038086	206.781540
29683.466489	-1340.658333	1206.918945	-63.211807
29683.466489	-1340.658333	1205.799805	-164.768234
29683.466489	-1340.658333	1204.680664	81.923988
29683.466489	-1340.658333	1203.560547	-36.014362
29683.466489	-1340.658333	1202.441406	-33.184547
29683.466489	-1340.658333	1201.321289	-58.984886
29683.466489	-1340.658333	1200.200195	-39.865402
29683.466489	-1340.658333	1199.080078	-267.968262
29683.466489	-1340.658333	1197.958984	35.997589
29683.466489	-1340.658333	1196.837891	0.364999
29683.466489	-1340.658333	1195.716797	-96.552307
29683.466489	-1340.658333	1194.594727	69.903465
29683.466489	-1340.658333	1193.473633	46.307137
29683.466489	-1340.658333	1192.351563	-97.956657
29683.466489	-1340.658333	1191.229492	-6.959226
29683.466489	-1340.658333	1190.106445	-26.661997
29683.466489	-1340.658333	1188.984375	44.842075
29683.466489	-1340.658333	1187.861328	-53.402355
29683.466489	-1340.658333	1186.738281	51.818645
29683.466489	-1340.658333	1185.614258	-33.528675
29683.466489	-1340.658333	1184.491211	-76.857384
29683.466489	-1340.658333	1183.367188	93.023499
29683.466489	-1340.658333	1182.243164	-138.687607
29683.466489	-1340.658333	1181.119141	55.346527
29683.466489	-1340.658333	1179.994141	76.529556
29683.466489	-1340.658333	1178.869141	50.313904
29683.466489	-1340.658333	1177.744141	165.282913
29683.466489	-1340.658333	1176.619141	-25.259346
29683.466489	-1340.658333	1175.493164	139.317230
29683.466489	-1340.658333	1174.368164	-20.989738
29683.466489	-1340.658333	1173.242188	-34.511192
29683.466489	-1340.658333	1172.115234	-4.956817
29683.466489	-1340.658333	1170.989258	81.934883
29683.466489	-1340.658333	1169.862305	208.313263
29683.466489	-1340.658333	1168.735352	113.884956
29683.466489	-1340.658333	1167.608398	-28.065445
29683.466489	-1340.658333	1166.481445	52.113811
29683.466489	-1340.658333	1165.353516	-41.103630
29683.466489	-1340.658333	1164.225586	-99.876213
29683.466489	-1340.658333	1163.097656	-131.929092
29683.466489	-1340.658333	1161.968750	-37.659813
29683.466489	-1340.658333	1160.840820	-122.667557
29683.466489	-1340.658333	1159.711914	-21.215630
29683.466489	-1340.658333	1158.583008	-188.417328
29683.466489	-1340.658333	1157.453125	-38.123463
29683.466489	-1340.658333	1156.324219	-171.302017
29683.466489	-1340.658333	1155.194336	-57.116943
29683.466489	-1340.658333	1154.064453	-181.724365
29683.466489	-1340.658333	1152.933594	-318.227142
29683.466489	-1340.658333	1151.803711	-192.526550
29683.466489	-1340.658333	1150.672852	-140.079773
29683.466489	-1340.658333	1149.541992	-31.171675
29683.466489	-1340.658333	1148.411133	-62.652313
29683.466489	-1340.658333	1147.279297	-251.351288
29683.466489	-1340.658333	1146.147461	-269.406830
29683.466489	-1340.658333	1145.015625	-85.333008
29683.466489	-1340.658333	1143.883789	-119.790466
29683.466489	-1340.658333	1142.750977	-66.556198
29683.466489	-1340.658333	1141.619141	-41.550194
29683.466489	-1340.658333	1140.486328	-190.828003
29683.466489	-1340.658333	1139.352539	-215.347229
29683.466489	-1340.658333	1138.219727	67.978310
29683.466489	-1340.658333	1137.085938	-249.821259
29683.466489	-1340.658333	1135.952148	79.288162
29683.466489	-1340.658333	1134.818359	-31.152773
29683.466489	-1340.658333	1133.683594	215.994629
29683.466489	-1340.658333	1132.549805	38.621700
29683.466489	-1340.658333	1131.415039	-46.425434
29683.466489	-1340.658333	1130.279297	126.417175
29683.466489	-1340.658333	1129.144531	214.832169
29683.466489	-1340.658333	1128.008789	171.641968
29683.466489	-1340.658333	1126.873047	114.791283
29683.466489	-1340.658333	1125.737305	53.098129
29683.466489	-1340.658333	1124.601563	-50.181953
29683.466489	-1340.658333	1123.464844	11.552277
29683.466489	-1340.658333	1122.328125	147.357056
29683.466489	-1340.658333	1121.191406	-22.494478
29683.466489	-1340.658333	1120.054688	71.815735
29683.466489	-1340.658333	1118.916992	-36.345604
29683.466489	-1340.658333	1117.779297	-75.367348
29683.466489	-1340.658333	1116.641602	-63.802502
29683.466489	-1340.658333	1115.503906	-112.354469
29683.466489	-1340.658333	1114.365234	-37.691864
29683.466489	-1340.658333	1113.226563	-107.295120
29683.466489	-1340.658333	1112.087891	-11.226975
29683.466489	-1340.658333	1110.949219	30.150997
29683.466489	-1340.658333	1109.809570	-77.492111
29683.466489	-1340.658333	1108.669922	159.121307
29683.466489	-1340.658333	1107.530273	60.166840
29683.466489	-1340.658333	1106.390625	-34.570591
29683.466489	-1340.658333	1105.250000	124.870903
29683.466489	-1340.658333	1104.109375	106.054337
29683.466489	-1340.658333	1102.968750	195.721695
29683.466489	-1340.658333	1101.828125	-120.468994
29683.466489	-1340.658333	1100.686523	1.793572
29683.466489	-1340.658333	1099.544922	-2.540640
29683.466489	-1340.658333	1098.403320	48.065319
29683.466489	-1340.658333	1097.261719	56.906212
29683.466489	-1340.658333	1096.120117	255.378372
29683.466489	-1340.658333	1094.977539	196.306564
29683.466489	-1340.658333	1093.834961	301.650787
29683.466489	-1340.658333	1092.691406	79.257217
29683.466489	-1340.658333	1091.548828	192.749527
29683.466489	-1340.658333	1090.405273	271.277130
29683.466489	-1340.658333	1089.261719	92.718231
29683.466489	-1340.658333	1088.118164	89.793472
29683.466489	-1340.658333	1086.973633	145.342880
29683.466489	-1340.658333	1085.829102	93.186272
29683.466489	-1340.658333	1084.684570	134.052094
29683.466489	-1340.658333	1083.540039	-16.028471
29683.466489	-1340.658333	1082.395508	-15.278154
29683.466489	-1340.658333	1081.250000	-154.204803
29683.466489	-1340.658333	1080.104492	12.978500
29683.466489	-1340.658333	1078.958984	-73.400154
29683.466489	-1340.658333	1077.812500	-139.090958
29683.466489	-1340.658333	1076.666016	70.400238
29683.466489	-1340.658333	1075.519531	228.563629
29683.466489	-1340.658333	1074.373047	109.602333
29683.466489	-1340.658333	1073.226563	16.305393
29683.466489	-1340.658333	1072.079102	44.104023
29683.466489	-1340.658333	1070.931641	-124.843269
29683.466489	-1340.658333	1069.784180	-167.210312
29683.466489	-1340.658333	1068.635742	-5.903908
29683.466489	-1340.658333	1067.487305	-3.048586
29683.466489	-1340.658333	1066.338867	280.191620
29683.466489	-1340.658333	1065.190430	255.752289
29683.466489	-1340.658333	1064.041992	279.590485
29683.466489	-1340.658333	1062.892578	216.986633
29683.466489	-1340.658333	1061.743164	239.097794
29683.466489	-1340.658333	1060.593750	245.789246
29683.466489	-1340.658333	1059.443359	261.811981
29683.466489	-1340.658333	1058.292969	418.127930
29683.466489	-1340.658333	1057.142578	150.528152
29683.466489	-1340.658333	1055.992188	182.428757
29683.466489	-1340.658333	1054.841797	279.019257
29683.466489	-1340.658333	1053.690430	-133.275742
29683.466489	-1340.658333	1052.539063	-19.447168
29683.466489	-1340.658333	1051.387695	253.807816
29683.466489	-1340.658333	1050.235352	176.437073
29683.466489	-1340.658333	1049.083984	35.713104
29683.466489	-1340.658333	1047.931641	45.338142
29683.466489	-1340.658333	1046.778320	16.214485
29683.466489	-1340.658333	1045.625977	-96.369408
29683.466489	-1340.658333	1044.472656	-84.404976
29683.466489	-1340.658333	1043.319336	106.201332
29683.466489	-1340.658333	1042.166016	3.127397
29683.466489	-1340.658333	1041.012695	-19.417660
29683.466489	-1340.658333	1039.858398	159.193283
29683.466489	-1340.658333	1038.704102	89.708313
29683.466489	-1340.658333	1037.549805	-10.888041
29683.466489	-1340.658333	1036.394531	141.705032
29683.466489	-1340.658333	1035.239258	138.665451
29683.466489	-1340.658333	1034.083984	61.821545
29683.466489	-1340.658333	1032.928711	-14.387073
29683.466489	-1340.658333	1031.773438	-155.253189
29683.466489	-1340.658333	1030.617188	156.226913
29683.466489	-1340.658333	1029.460938	81.723610
29683.466489	-1340.658333	1028.304688	112.492981
29683.466489	-1340.658333	1027.147461	59.849113
29683.466489	-1340.658333	1025.991211	4.851875
29683.466489	-1340.658333	1024.833984	168.486633
29683.466489	-1340.658333	1023.675781	89.126503
29683.466489	-1340.658333	1022.518555	-103.648819
29683.466489	-1340.658333	1021.360352	83.370369
29683.466489	-1340.658333	1020.202148	94.798271
29683.466489	-1340.658333	1019.043945	221.078491
29683.466489	-1340.658333	1017.884766	82.669273
29683.466489	-1340.658333	1016.726563	57.709442
29683.466489	-1340.658333	1015.567383	75.490242
29683.466489	-1340.658333	1014.407227	92.974655
29683.466489	-1340.658333	1013.248047	144.127991
29683.466489	-1340.658333	1012.087891	223.723618
29683.466489	-1340.658333	1010.927734	-83.553513
29683.466489	-1340.658333	1009.767578	-102.517593
29683.466489	-1340.658333	1008.606445	164.740448
29683.466489	-1340.658333	1007.446289	253.196182
29683.466489	-1340.658333	1006.285156	69.462341
29683.466489	-1340.658333	1005.123047	57.427742
29683.466489	-1340.658333	1003.961914	119.474495
29683.466489	-1340.658333	1002.799805	-56.023209
29683.466489	-1340.658333	1001.637695	-86.489380
29683.466489	-1340.658333	1000.475586	12.916112
29683.466489	-1340.658333	999.312500	66.752350
29683.466489	-1340.658333	998.149414	-33.642796
29683.466489	-1340.658333	996.986328	53.729008
29683.466489	-1340.658333	995.823242	188.713745
29683.466489	-1340.658333	994.659180	134.956284
29683.466489	-1340.658333	993.496094	169.615005
29683.466489	-1340.658333	992.332031	-6.585172
29683.466489	-1340.658333	991.166992	167.486771
29683.466489	-1340.658333	990.002930	-196.729248
29683.466489	-1340.658333	988.837891	119.212143
29683.466489	-1340.658333	987.672852	208.451965
29683.466489	-1340.658333	986.506836	-5.181645
29683.466489	-1340.658333	985.341797	94.103172
29683.466489	-1340.658333	984.175781	135.784622
29683.466489	-1340.658333	983.009766	-2.058581
29683.466489	-1340.658333	981.843750	-104.404640
29683.466489	-1340.658333	980.676758	86.312668
29683.466489	-1340.658333	979.509766	-90.353203
29683.466489	-1340.658333	978.342773	87.320717
29683.466489	-1340.658333	977.175781	-61.026581
29683.466489	-1340.658333	976.007813	181.858444
29683.466489	-1340.658333	974.839844	-94.132660
29683.466489	-1340.658333	973.671875	39.736725
29683.466489	-1340.658333	972.503906	-52.495956
29683.466489	-1340.658333	971.334961	69.241035
29683.466489	-1340.658333	970.166016	106.819878
29683.466489	-1340.658333	968.997070	-258.624359
29683.466489	-1340.658333	967.828125	250.394974
29683.466489	-1340.658333	966.658203	-12.001690
29683.466489	-1340.658333	965.488281	54.364601
29683.466489	-1340.658333	964.318359	-85.341766
29683.466489	-1340.658333	963.148438	48.053364
29683.466489	-1340.658333	961.977539	20.043287
29683.466489	-1340.658333	960.806641	-117.733879
29683.466489	-1340.658333	959.635742	-130.490707
29683.466489	-1340.658333	958.463867	-188.208603
29683.466489	-1340.658333	957.292969	94.720703
29683.466489	-1340.658333	956.121094	68.769569
29683.466489	-1340.658333	954.948242	-53.083286
29683.466489	-1340.658333	953.776367	63.852680
29683.466489	-1340.658333	952.603516	-5.104700
29683.466489	-1340.658333	951.430664	186.085327
29683.466489	-1340.658333	950.257813	205.843002
29683.466489	-1340.658333	949.084961	52.375664
29683.466489	-1340.658333	947.911133	88.144920
29683.466489	-1340.658333	946.737305	155.894806
29683.466489	-1340.658333	945.563477	-90.626350
29683.466489	-1340.658333	944.388672	39.519535
29683.466489	-1340.658333	943.213867	8.750411
29683.466489	-1340.658333	942.039063	-72.370918
29683.466489	-1340.658333	940.864258	-183.535553
29683.466489	-1340.658333	939.688477	-244.079025
29683.466489	-1340.658333	938.513672	224.572937
29683.466489	-1340.658333	937.337891	74.334877
29683.466489	-1340.658333	936.161133	-29.886751
29683.466489	-1340.658333	934.985352	321.884857
29683.466489	-1340.658333	933.808594	-153.723083
29683.466489	-1340.658333	932.631836	-93.171204
29683.466489	-1340.658333	931.454102	38.468380
29683.466489	-1340.658333	930.277344	199.700073
29683.466489	-1340.658333	929.099609	5.928196
29683.466489	-1340.658333	927.921875	-25.266785
29683.466489	-1340.658333	926.743164	206.847595
29683.466489	-1340.658333	925.565430	452.576752
29683.466489	-1340.658333	924.386719	98.520042
29683.466489	-1340.658333	923.208008	248.004166
29683.466489	-1340.658333	922.028320	125.114967
29683.466489	-1340.658333	920.849609	86.884659
29683.466489	-1340.658333	919.669922	88.740463
29683.466489	-1340.658333	919.474609	204.470306
29683.466489	-1340.658333	918.309570	195.874802
29683.466489	-1340.658333	917.143555	123.235870
29683.466489	-1340.658333	915.977539	222.019043
29683.466489	-1340.658333	914.810547	336.725952
29683.466489	-1340.658333	913.644531	140.615753
29683.466489	-1340.658333	912.477539	360.300812
29683.466489	-1340.658333	911.310547	38.584641
29683.466489	-1340.658333	910.143555	-40.993458
29683.466489	-1340.658333	908.975586	-38.387085
29683.466489	-1340.658333	907.807617	-17.554363
29683.466489	-1340.658333	906.639648	99.079147
29683.466489	-1340.658333	905.471680	5.728507
29683.466489	-1340.658333	904.303711	167.864624
29683.466489	-1340.658333	903.134766	72.191963
29683.466489	-1340.658333	901.965820	-80.477951
29683.466489	-1340.658333	900.796875	120.232033
29683.466489	-1340.658333	899.626953	-5.100677
29683.466489	-1340.658333	898.457031	288.878479
29683.466489	-1340.658333	897.287109	427.779114
29683.466489	-1340.658333	896.117188	104.191185
29683.466489	-1340.658333	894.947266	115.478203
29683.466489	-1340.658333	893.776367	24.266237
29683.466489	-1340.658333	892.605469	-55.556820
29683.466489	-1340.658333	891.434570	-203.658768
29683.466489	-1340.658333	890.262695	21.453562
29683.466489	-1340.658333	889.091797	-124.393211
29683.466489	-1340.658333	887.919922	114.195274
29683.466489	-1340.658333	886.748047	-131.732834
29683.466489	-1340.658333	885.575195	86.235458
29683.466489	-1340.658333	884.403320	165.419113
29683.466489	-1340.658333	883.230469	62.720112
29683.466489	-1340.658333	882.057617	-37.694187
29683.466489	-1340.658333	880.883789	57.276596
29683.466489	-1340.658333	879.710938	165.805130
29683.466489	-1340.658333	878.537109	-11.868959
29683.466489	-1340.658333	877.362305	-87.331551
29683.466489	-1340.658333	876.188477	161.804993
29683.466489	-1340.658333	875.013672	63.580948
29683.466489	-1340.658333	873.839844	260.339111
29683.466489	-1340.658333	872.664063	-23.944363
29683.466489	-1340.658333	871.489258	145.473328
29683.466489	-1340.658333	870.313477	40.411507
29683.466489	-1340.658333	869.138672	205.152618
29683.466489	-1340.658333	867.962891	34.328426
29683.466489	-1340.658333	866.786133	-186.313049
29683.466489	-1340.658333	865.610352	-343.452118
29683.466489	-1340.658333	864.433594	-151.701340
29683.466489	-1340.658333	863.256836	-18.943800
29683.466489	-1340.658333	862.079102	269.971191
29683.466489	-1340.658333	860.902344	-140.808426
29683.466489	-1340.658333	859.724609	3.092911
29683.466489	-1340.658333	858.546875	-83.916832
29683.466489	-1340.658333	857.368164	-220.694870
29683.466489	-1340.658333	856.190430	104.010437
29683.466489	-1340.658333	855.011719	-197.906067
29683.466489	-1340.658333	853.833008	20.330889
29683.466489	-1340.658333	852.654297	-231.768936
29683.466489	-1340.658333	851.474609	291.452728
29683.466489	-1340.658333	850.294922	177.185257
29683.466489	-1340.658333	849.115234	-45.508873
29683.466489	-1340.658333	847.935547	-152.942139
29683.466489	-1340.658333	846.754883	-163.253296
29683.466489	-1340.658333	845.575195	88.323364
29683.466489	-1340.658333	844.393555	59.848141
29683.466489	-1340.658333	843.212891	243.508728
29683.466489	-1340.658333	842.032227	167.568695
29683.466489	-1340.658333	840.850586	-97.876442
29683.466489	-1340.658333	839.668945	-124.152794
29683.466489	-1340.658333	838.486328	-125.641472
29683.466489	-1340.658333	837.304688	-147.453445
29683.466489	-1340.658333	836.122070	-126.456406
29683.466489	-1340.658333	834.939453	-42.394337
29683.466489	-1340.658333	833.756836	115.957306
29683.466489	-1340.658333	832.573242	132.291473
29683.466489	-1340.658333	831.389648	-123.942398
29683.466489	-1340.658333	830.206055	20.726318
29683.466489	-1340.658333	829.022461	52.736996
29683.466489	-1340.658333	827.838867	-149.390930
29683.466489	-1340.658333	826.654297	-117.421669
29683.466489	-1340.658333	825.469727	-103.495544
29683.466489	-1340.658333	824.284180	-168.339722
29683.466489	-1340.658333	823.099609	20.954891
29683.466489	-1340.658333	821.914063	-127.149979
29683.466489	-1340.658333	820.728516	-34.675411
29683.466489	-1340.658333	819.542969	-216.484818
29683.466489	-1340.658333	818.356445	-135.328949
29683.466489	-1340.658333	817.169922	262.550476
29683.466489	-1340.658333	815.983398	-157.411163
29683.466489	-1340.658333	814.796875	42.614143
29683.466489	-1340.658333	813.609375	238.031769
29683.466489	-1340.658333	812.422852	80.889877
29683.466489	-1340.658333	811.235352	229.020813
29683.466489	-1340.658333	810.046875	226.711472
29683.466489	-1340.658333	808.859375	316.351929
29683.466489	-1340.658333	807.670898	329.661102
29683.466489	-1340.658333	806.482422	298.079071
29683.466489	-1340.658333	805.293945	315.800995
29683.466489	-1340.658333	804.104492	190.017151
29683.466489	-1340.658333	802.915039	304.056366
29683.466489	-1340.658333	801.725586	285.813019
29683.466489	-1340.658333	800.536133	301.144318
29683.466489	-1340.658333	799.345703	238.043182
29683.466489	-1340.658333	798.155273	537.701782
29683.466489	-1340.658333	796.964844	60.317265
29683.466489	-1340.658333	795.774414	301.619812
29683.466489	-1340.658333	794.583008	106.389374
29683.466489	-1340.658333	793.392578	-12.721614
29683.466489	-1340.658333	792.200195	152.277237
29683.466489	-1340.658333	791.008789	153.904877
29683.466489	-1340.658333	789.816406	262.826630
29683.466489	-1340.658333	788.625000	-10.623199
29683.466489	-1340.658333	787.432617	-71.658333
29683.466489	-1340.658333	786.239258	162.271698
29683.466489	-1340.658333	785.046875	-73.117760
29683.466489	-1340.658333	783.853516	40.016022
29683.466489	-1340.658333	782.660156	157.531586
29683.466489	-1340.658333	781.465820	310.683075
29683.466489	-1340.658333	780.272461	151.201721
29683.466489	-1340.658333	779.078125	-137.702850
29683.466489	-1340.658333	777.883789	-102.968834
29683.466489	-1340.658333	776.688477	23.181221
29683.466489	-1340.658333	775.494141	22.099833
29683.466489	-1340.658333	774.298828	7.596035
29683.466489	-1340.658333	773.103516	66.636017
29683.466489	-1340.658333	771.907227	101.086937
29683.466489	-1340.658333	770.711914	204.573059
29683.466489	-1340.658333	769.515625	29.450022
29683.466489	-1340.658333	768.318359	43.713566
29683.466489	-1340.658333	767.122070	316.292816
29683.466489	-1340.658333	765.924805	-8.068101
29683.466489	-1340.658333	764.727539	199.757370
29683.466489	-1340.658333	763.530273	187.093170
29683.466489	-1340.658333	762.333008	152.136322
29683.466489	-1340.658333	761.134766	181.673615
29683.466489	-1340.658333	759.936523	48.765305
29683.466489	-1340.658333	758.738281	147.168961
29683.466489	-1340.658333	757.540039	-52.471172
29683.466489	-1340.658333	756.340820	265.906952
29683.466489	-1340.658333	755.141602	-133.804199
29683.466489	-1340.658333	753.942383	8.816964
29683.466489	-1340.658333	752.742188	184.658539
29683.466489	-1340.658333	751.541992	22.747845
29683.466489	-1340.658333	750.341797	265.043610
29683.466489	-1340.658333	749.141602	158.602188
29683.466489	-1340.658333	747.941406	256.384277
29683.466489	-1340.658333	746.740234	21.166473
29683.466489	-1340.658333	745.539063	212.034851
29683.466489	-1340.658333	744.337891	152.088776
29683.466489	-1340.658333	743.135742	-109.721443
29683.466489	-1340.658333	741.933594	3.295860
29683.466489	-1340.658333	740.731445	222.636520
29683.466489	-1340.658333	739.529297	355.388184
29683.466489	-1340.658333	738.326172	326.252991
29683.466489	-1340.658333	737.124023	235.044601
29683.466489	-1340.658333	735.919922	365.342499
29683.466489	-1340.658333	734.716797	347.148743
29683.466489	-1340.658333	733.513672	291.270905
29683.466489	-1340.658333	732.309570	523.160950
29683.466489	-1340.658333	731.105469	484.870270
29683.466489	-1340.658333	729.900391	194.270660
29683.466489	-1340.658333	728.696289	379.420532
29683.466489	-1340.658333	727.491211	130.889801
29683.466489	-1340.658333	726.286133	125.677361
29683.466489	-1340.658333	725.080078	138.102081
29683.466489	-1340.658333	723.874023	203.522293
29683.466489	-1340.658333	722.668945	34.591339
29683.466489	-1340.658333	721.461914	35.816986
29683.466489	-1340.658333	720.255859	-111.025742
29683.466489	-1340.658333	719.048828	139.712662
29683.466489	-1340.658333	717.841797	-20.451069
29683.466489	-1340.658333	716.634766	-112.157776
29683.466489	-1340.658333	715.427734	-126.622490
29683.466489	-1340.658333	714.219727	-44.034447
29683.466489	-1340.658333	713.011719	-259.406036
29683.466489	-1340.658333	711.803711	-139.432755
29683.466489	-1340.658333	710.594727	-255.559799
29683.466489	-1340.658333	709.385742	-65.190056
29683.466489	-1340.658333	708.176758	17.020060
29683.466489	-1340.658333	706.967773	-24.292892
29683.466489	-1340.658333	705.758789	-259.566559
29683.466489	-1340.658333	704.548828	274.118896
29683.466489	-1340.658333	703.338867	118.063972
29683.466489	-1340.658333	702.127930	-71.020554
29683.466489	-1340.658333	700.917969	-31.087952
29683.466489	-1340.658333	699.707031	83.613541
29683.466489	-1340.658333	698.496094	-52.693516
29683.466489	-1340.658333	697.285156	-244.009247
29683.466489	-1340.658333	696.073242	-268.109344
29683.466489	-1340.658333	694.861328	-26.116842
29683.466489	-1340.658333	693.649414	103.565842
29683.466489	-1340.658333	692.436523	35.258587
29683.466489	-1340.658333	691.224609	-96.817314
29683.466489	-1340.658333	690.011719	-123.412689
29683.466489	-1340.658333	688.798828	-7.236216
29683.466489	-1340.658333	687.584961	135.188080
29683.466489	-1340.658333	686.372070	-12.408349
29683.466489	-1340.658333	685.158203	-8.495400
29683.466489	-1340.658333	683.943359	45.846691
29683.466489	-1340.658333	682.729492	163.765671
29683.466489	-1340.658333	681.514648	-115.620689
29683.466489	-1340.658333	680.299805	201.809341
29683.466489	-1340.658333	679.084961	152.733536
29683.466489	-1340.658333	677.869141	355.815063
29683.466489	-1340.658333	676.653320	280.293060
29683.466489	-1340.658333	675.437500	193.784714
29683.466489	-1340.658333	674.221680	225.604538
29683.466489	-1340.658333	673.004883	298.980042
29683.466489	-1340.658333	671.789063	48.042244
29683.466489	-1340.658333	670.571289	130.061386
29683.466489	-1340.658333	669.354492	137.540833
29683.466489	-1340.658333	668.136719	155.898270
29683.466489	-1340.658333	666.919922	-14.047379
29683.466489	-1340.658333	665.701172	163.967758
29683.466489	-1340.658333	664.483398	109.931992
29683.466489	-1340.658333	663.264648	-16.331041
29683.466489	-1340.658333	662.045898	-96.673401
29683.466489	-1340.658333	660.827148	6.633574
29683.466489	-1340.658333	659.608398	171.050995
29683.466489	-1340.658333	658.388672	73.055962
29683.466489	-1340.658333	657.168945	-29.324444
29683.466489	-1340.658333	655.949219	311.781067
29683.466489	-1340.658333	654.728516	456.095581
29683.466489	-1340.658333	653.507813	65.257668
29683.466489	-1340.658333	652.287109	8.582021
29683.466489	-1340.658333	651.066406	143.965347
29683.466489	-1340.658333	649.844727	78.447052
29683.466489	-1340.658333	648.623047	21.628782
29683.466489	-1340.658333	647.401367	73.852615
29683.466489	-1340.658333	646.179688	-0.502263
29683.466489	-1340.658333	644.957031	55.949127
29683.466489	-1340.658333	643.734375	101.418030
29683.466489	-1340.658333	642.511719	290.672333
29683.466489	-1340.658333	641.289063	37.413551
29683.466489	-1340.658333	640.065430	261.344910
29683.466489	-1340.658333	638.841797	249.875092
29683.466489	-1340.658333	637.618164	-81.782616
29683.466489	-1340.658333	636.393555	91.783905
29683.466489	-1340.658333	635.168945	-61.307495
29683.466489	-1340.658333	633.944336	-11.980248
29683.466489	-1340.658333	632.719727	368.019958
29683.466489	-1340.658333	631.494141	271.364929
29683.466489	-1340.658333	630.269531	-108.049423
29683.466489	-1340.658333	629.042969	-143.782883
29683.466489	-1340.658333	627.817383	53.086594
29683.466489	-1340.658333	626.590820	225.903946
29683.466489	-1340.658333	625.365234	9.600616
29683.466489	-1340.658333	624.137695	23.637907
29683.466489	-1340.658333	622.911133	-57.952301
29683.466489	-1340.658333	621.683594	162.317276
29683.466489	-1340.658333	620.456055	-12.739590
29683.466489	-1340.658333	619.228516	150.887375
29683.466489	-1340.658333	618.000977	27.901861
29683.466489	-1340.658333	616.772461	65.492920
29683.466489	-1340.658333	615.543945	159.429565
29683.466489	-1340.658333	614.314453	216.400833
29683.466489	-1340.658333	613.085938	39.100674
29683.466489	-1340.658333	611.856445	56.955383
29683.466489	-1340.658333	610.626953	5.394304
29683.466489	-1340.658333	609.397461	94.679771
29683.466489	-1340.658333	608.166992	53.873745
29683.466489	-1340.658333	606.936523	-67.111877
29683.466489	-1340.658333	605.706055	-110.116310
29683.466489	-1340.658333	604.474609	-339.372559
29683.466489	-1340.658333	603.244141	20.292412
29683.466489	-1340.658333	602.012695	-76.943550
29683.466489	-1340.658333	600.780273	7.592031
29683.466489	-1340.658333	599.548828	-18.279190
29683.466489	-1340.658333	598.316406	53.153709
29683.466489	-1340.658333	597.083984	-33.351395
29683.466489	-1340.658333	595.851563	76.897614
29683.466489	-1340.658333	594.618164	-199.883194
29683.466489	-1340.658333	593.384766	-145.914337
29683.466489	-1340.658333	592.151367	-44.464653
29683.466489	-1340.658333	590.917969	255.656067
29683.466489	-1340.658333	589.683594	123.638451
29683.466489	-1340.658333	588.449219	-36.425442
29683.466489	-1340.658333	587.214844	62.617496
29683.466489	-1340.658333	585.979492	168.055496
29683.466489	-1340.658333	584.745117	331.693237
29683.466489	-1340.658333	583.509766	121.967789
29683.466489	-1340.658333	582.273438	179.776306
29683.466489	-1340.658333	581.038086	-208.882996
29683.466489	-1340.658333	579.801758	45.126015
29683.466489	-1340.658333	578.565430	-235.614166
29683.466489	-1340.658333	577.329102	158.334747
29683.466489	-1340.658333	576.091797	125.432747
29683.466489	-1340.658333	574.854492	36.510445
29683.466489	-1340.658333	573.617188	218.988541
29683.466489	-1340.658333	572.378906	-16.401525
29683.466489	-1340.658333	571.141602	-79.469902
29683.466489	-1340.658333	569.903320	46.880260
29683.466489	-1340.658333	568.664063	-100.158897
29683.466489	-1340.658333	567.425781	-169.692368
29683.466489	-1340.658333	566.186523	-196.197601
29683.466489	-1340.658333	564.947266	-70.013832
29683.466489	-1340.658333	563.708008	-201.923477
29683.466489	-1340.658333	562.467773	-0.593655
29683.466489	-1340.658333	561.227539	-3.545203
29683.466489	-1340.658333	559.987305	-49.486359
29683.466489	-1340.658333	558.747070	168.825806
29683.466489	-1340.658333	557.505859	193.712433
29683.466489	-1340.658333	556.264648	74.699532
29683.466489	-1340.658333	555.023438	179.008530
29683.466489	-1340.658333	553.781250	148.024979
29683.466489	-1340.658333	552.539063	-52.494663
29683.466489	-1340.658333	551.296875	6.678829
29683.466489	-1340.658333	550.054688	-17.840599
29683.466489	-1340.658333	548.811523	2.670423
29683.466489	-1340.658333	547.569336	-165.518036
29683.466489	-1340.658333	546.325195	-164.299728
29683.466489	-1340.658333	545.082031	-128.789413
29683.466489	-1340.658333	543.837891	165.978439
29683.466489	-1340.658333	542.593750	160.680145
29683.466489	-1340.658333	541.349609	11.868984
29683.466489	-1340.658333	540.105469	126.518166
29683.466489	-1340.658333	538.860352	74.108727
29683.466489	-1340.658333	537.615234	68.811035
29683.466489	-1340.658333	536.369141	131.986954
29683.466489	-1340.658333	535.124023	218.677826
29683.466489	-1340.658333	533.877930	281.790436
29683.466489	-1340.658333	532.631836	9.094658
29683.466489	-1340.658333	531.384766	138.501083
29683.466489	-1340.658333	530.138672	291.375153
29683.466489	-1340.658333	528.891602	-43.140095
29683.466489	-1340.658333	527.643555	105.416542
29683.466489	-1340.658333	526.396484	211.189682
29683.466489	-1340.658333	525.148438	201.566422
29683.466489	-1340.658333	523.900391	-94.210968
29683.466489	-1340.658333	522.652344	114.013901
29683.466489	-1340.658333	521.403320	134.295914
29683.466489	-1340.658333	520.154297	188.715103
29683.466489	-1340.658333	518.905273	343.396484
29683.466489	-1340.658333	517.656250	86.300964
29683.466489	-1340.658333	516.406250	-185.622192
29683.466489	-1340.658333	515.156250	-7.511909
29683.466489	-1340.658333	513.906250	8.502748
29683.466489	-1340.658333	512.655273	-79.935730
29683.466489	-1340.658333	511.404297	-38.349236
29683.466489	-1340.658333	510.153320	-143.783020
29683.466489	-1340.658333	508.902344	147.008652
29683.466489	-1340.658333	507.650391	-169.255798
29683.466489	-1340.658333	506.398438	-40.405106
29683.466489	-1340.658333	505.146484	-277.738678
29683.466489	-1340.658333	503.893555	23.450064
29683.466489	-1340.658333	502.641602	105.357376
29683.466489	-1340.658333	501.388672	-6.362873
29683.466489	-1340.658333	500.134766	-28.723225
29683.466489	-1340.658333	498.881836	57.370811
29683.466489	-1340.658333	497.627930	-275.386108
29683.466489	-1340.658333	496.374023	-146.790085
29683.466489	-1340.658333	495.119141	47.609077
29683.466489	-1340.658333	493.865234	384.264954
29683.466489	-1340.658333	492.610352	393.649200
29683.466489	-1340.658333	491.355469	-134.255264
29683.466489	-1340.658333	490.099609	217.028702
29683.466489	-1340.658333	488.843750	96.907639
29683.466489	-1340.658333	487.587891	91.420944
29683.466489	-1340.658333	486.332031	349.018066
29683.466489	-1340.658333	485.075195	220.394516
29683.466489	-1340.658333	483.818359	223.296356
29683.466489	-1340.658333	482.561523	607.846558
29683.466489	-1340.658333	481.304688	398.615234
29683.466489	-1340.658333	480.046875	242.426376
29683.466489	-1340.658333	478.789063	546.101807
29683.466489	-1340.658333	477.531250	387.762146
29683.466489	-1340.658333	476.272461	449.730927
29683.466489	-1340.658333	475.013672	134.687134
29683.466489	-1340.658333	473.754883	414.672852
29683.466489	-1340.658333	472.496094	461.650055
29683.466489	-1340.658333	471.236328	459.875244
29683.466489	-1340.658333	469.976563	498.249664
29683.466489	-1340.658333	468.716797	564.053162
29683.466489	-1340.658333	467.456055	380.200043
29683.466489	-1340.658333	466.196289	373.986023
29683.466489	-1340.658333	464.935547	534.709534
29683.466489	-1340.658333	463.673828	486.042267
29683.466489	-1340.658333	462.413086	574.680298
29683.466489	-1340.658333	461.151367	563.901733
29683.466489	-1340.658333	459.889648	392.517059
29683.466489	-1340.658333	458.626953	708.919617
29683.466489	-1340.658333	457.364258	778.075928
29683.466489	-1340.658333	456.101563	861.879700
29683.466489	-1340.658333	454.838867	747.171509
29683.466489	-1340.658333	453.575195	809.628967
29683.466489	-1340.658333	452.312500	1009.070679
29683.466489	-1340.658333	451.047852	948.880676
29683.466489	-1340.658333	449.784180	869.626648
29683.466489	-1340.658333	448.519531	1034.806274
29683.466489	-1340.658333	447.254883	1050.135010
29683.466489	-1340.658333	445.990234	909.382324
29683.466489	-1340.658333	444.725586	768.543396
29683.466489	-1340.658333	443.459961	882.455505
29683.466489	-1340.658333	442.194336	817.162170
29683.466489	-1340.658333	440.927734	894.878845
29683.466489	-1340.658333	439.662109	1210.248413
29683.466489	-1340.658333	438.395508	1024.429321
29683.466489	-1340.658333	437.127930	1307.672729
29683.466489	-1340.658333	435.861328	1016.340881
29683.466489	-1340.658333	434.593750	888.951599
29683.466489	-1340.658333	433.326172	925.404968
29683.466489	-1340.658333	432.058594	961.612122
29683.466489	-1340.658333	430.790039	921.894897
29683.466489	-1340.658333	429.521484	722.252625
29683.466489	-1340.658333	428.252930	814.449219
29683.466489	-1340.658333	426.984375	1034.461182
29683.466489	-1340.658333	425.714844	1058.799805
29683.466489	-1340.658333	424.445313	774.223999
29683.466489	-1340.658333	423.174805	1150.636353
29683.466489	-1340.658333	421.905273	1092.195068
29683.466489	-1340.658333	420.634766	1113.172607
29683.466489	-1340.658333	419.364258	945.020691
29683.466489	-1340.658333	418.092773	768.196777
29683.466489	-1340.658333	416.822266	840.611450
29683.466489	-1340.658333	415.550781	908.418640
29683.466489	-1340.658333	414.278320	1028.192627
29683.466489	-1340.658333	413.006836	1111.911133
29683.466489	-1340.658333	411.734375	960.539917
29683.466489	-1340.658333	410.461914	764.827271
29683.466489	-1340.658333	409.188477	1100.614624
29683.466489	-1340.658333	407.916016	816.132996
29683.466489	-1340.658333	406.642578	635.943420
29683.466489	-1340.658333	405.368164	777.592224
29683.466489	-1340.658333	404.094727	761.781921
29683.466489	-1340.658333	402.820313	833.294983
29683.466489	-1340.658333	401.545898	895.875732
29683.466489	-1340.658333	400.270508	997.584900
29683.466489	-1340.658333	398.996094	1042.257446
29683.466489	-1340.658333	397.720703	1021.518738
29683.466489	-1340.658333	396.444336	745.251648
29683.466489	-1340.658333	395.168945	903.005615
29683.466489	-1340.658333	393.892578	805.226013
29683.466489	-1340.658333	392.616211	848.811401
29683.466489	-1340.658333	391.339844	870.816223
29683.466489	-1340.658333	390.062500	739.719666
29683.466489	-1340.658333	388.785156	708.113708
29683.466489	-1340.658333	387.507813	782.172485
29683.466489	-1340.658333	386.229492	611.364136
29683.466489	-1340.658333	384.951172	690.075867
29683.466489	-1340.658333	383.672852	661.605164
29683.466489	-1340.658333	382.394531	446.788300
29683.466489	-1340.658333	381.115234	468.749084
29683.466489	-1340.658333	379.835938	512.726501
29683.466489	-1340.658333	378.556641	832.816895
29683.466489	-1340.658333	377.277344	568.688354
29683.466489	-1340.658333	375.997070	682.633545
29683.466489	-1340.658333	374.716797	714.345032
29683.466489	-1340.658333	373.435547	1017.630554
29683.466489	-1340.658333	372.155273	828.690918
29683.466489	-1340.658333	370.874023	295.459290
29683.466489	-1340.658333	369.591797	466.402557
29683.466489	-1340.658333	368.310547	243.144577
29683.466489	-1340.658333	367.028320	293.205444
29683.466489	-1340.658333	365.746094	551.972412
29683.466489	-1340.658333	364.463867	306.488434
29683.466489	-1340.658333	363.180664	103.433990
29683.466489	-1340.658333	361.897461	374.843506
29683.466489	-1340.658333	360.614258	507.728638
29683.466489	-1340.658333	359.330078	37.018730
29683.466489	-1340.658333	358.045898	-36.336903
29683.466489	-1340.658333	356.761719	144.167435
29683.466489	-1340.658333	355.477539	99.017242
29683.466489	-1340.658333	354.192383	228.650162
29683.466489	-1340.658333	352.907227	273.706360
29683.466489	-1340.658333	351.622070	64.167145
29683.466489	-1340.658333	350.336914	-136.555267
29683.466489	-1340.658333	349.050781	287.027466
29683.466489	-1340.658333	347.764648	319.123566
29683.466489	-1340.658333	346.477539	-54.607113
29683.466489	-1340.658333	345.191406	-17.739338
29683.466489	-1340.658333	343.904297	-92.551712
29683.466489	-1340.658333	342.616211	126.782768
29683.466489	-1340.658333	341.329102	145.413864
29683.466489	-1340.658333	340.041016	-26.338686
29683.466489	-1340.658333	338.752930	13.055151
29683.466489	-1340.658333	337.463867	-189.678864
29683.466489	-1340.658333	336.175781	108.160507
29683.466489	-1340.658333	334.886719	271.281433
29683.466489	-1340.658333	333.596680	-12.437366
29683.466489	-1340.658333	332.307617	75.827568
29683.466489	-1340.658333	331.017578	-9.869062
29683.466489	-1340.658333	329.727539	-87.603951
29683.466489	-1340.658333	328.436523	82.078033
29683.466489	-1340.658333	327.146484	-110.063553
29683.466489	-1340.658333	325.855469	153.556412
29683.466489	-1340.658333	324.563477	191.424133
29683.466489	-1340.658333	323.272461	117.288033
29683.466489	-1340.658333	321.980469	333.319916
29683.466489	-1340.658333	320.688477	45.193058
29683.466489	-1340.658333	319.395508	73.876266
29683.466489	-1340.658333	318.103516	-133.297485
29683.466489	-1340.658333	316.810547	-174.447174
29683.466489	-1340.658333	315.516602	7.949749
29683.466489	-1340.658333	314.223633	30.617119
29683.466489	-1340.658333	312.929688	-182.823410
29683.466489	-1340.658333	311.635742	113.378929
29683.466489	-1340.658333	310.340820	-195.280777
29683.466489	-1340.658333	309.045898	-62.563145
29683.466489	-1340.658333	307.750977	-231.856155
29683.466489	-1340.658333	306.456055	-260.611481
29683.466489	-1340.658333	305.160156	309.673828
29683.466489	-1340.658333	303.865234	139.718994
29683.466489	-1340.658333	302.568359	11.025331
29683.466489	-1340.658333	301.272461	36.919365
29683.466489	-1340.658333	299.975586	718.523987
29683.466489	-1340.658333	298.678711	399.044586
