#X		#Y		#Wave		#Intensity
29506.554255	-1010.333333	1999.980469	164.137299
29506.554255	-1010.333333	1999.016602	46.819843
29506.554255	-1010.333333	1998.052734	114.727501
29506.554255	-1010.333333	1997.087891	-60.271626
29506.554255	-1010.333333	1996.123047	208.270355
29506.554255	-1010.333333	1995.158203	55.566086
29506.554255	-1010.333333	1994.193359	56.455109
29506.554255	-1010.333333	1993.228516	139.040604
29506.554255	-1010.333333	1992.262695	1.229400
29506.554255	-1010.333333	1991.297852	24.351135
29506.554255	-1010.333333	1990.332031	-110.944290
29506.554255	-1010.333333	1989.366211	-58.144695
29506.554255	-1010.333333	1988.399414	21.834269
29506.554255	-1010.333333	1987.433594	-128.261826
29506.554255	-1010.333333	1986.466797	-1.330197
29506.554255	-1010.333333	1985.500977	56.312172
29506.554255	-1010.333333	1984.534180	-78.900040
29506.554255	-1010.333333	1983.567383	-122.616936
29506.554255	-1010.333333	1982.599609	-42.760315
29506.554255	-1010.333333	1981.632813	-51.885548
29506.554255	-1010.333333	1980.665039	-28.896030
29506.554255	-1010.333333	1979.697266	-203.504517
29506.554255	-1010.333333	1978.729492	-121.233467
29506.554255	-1010.333333	1977.761719	47.423946
29506.554255	-1010.333333	1976.792969	-181.409378
29506.554255	-1010.333333	1975.825195	-0.460925
29506.554255	-1010.333333	1974.856445	-118.153831
29506.554255	-1010.333333	1973.887695	-21.162016
29506.554255	-1010.333333	1972.918945	11.667630
29506.554255	-1010.333333	1971.949219	-66.491364
29506.554255	-1010.333333	1970.980469	10.729009
29506.554255	-1010.333333	1970.010742	124.905479
29506.554255	-1010.333333	1969.041016	399.260406
29506.554255	-1010.333333	1968.071289	-68.254433
29506.554255	-1010.333333	1967.101563	55.752144
29506.554255	-1010.333333	1966.130859	125.523834
29506.554255	-1010.333333	1965.161133	104.150986
29506.554255	-1010.333333	1964.190430	-77.270218
29506.554255	-1010.333333	1963.219727	41.759682
29506.554255	-1010.333333	1962.249023	42.598507
29506.554255	-1010.333333	1961.277344	85.286736
29506.554255	-1010.333333	1960.306641	189.490616
29506.554255	-1010.333333	1959.334961	45.181286
29506.554255	-1010.333333	1958.363281	19.006445
29506.554255	-1010.333333	1957.391602	221.573761
29506.554255	-1010.333333	1956.419922	-129.171219
29506.554255	-1010.333333	1955.447266	-76.590454
29506.554255	-1010.333333	1954.474609	278.311218
29506.554255	-1010.333333	1953.501953	-180.339111
29506.554255	-1010.333333	1952.529297	29.513363
29506.554255	-1010.333333	1951.556641	160.687103
29506.554255	-1010.333333	1950.583984	304.107941
29506.554255	-1010.333333	1949.610352	204.376740
29506.554255	-1010.333333	1948.636719	136.613434
29506.554255	-1010.333333	1947.663086	125.349243
29506.554255	-1010.333333	1946.689453	6.113439
29506.554255	-1010.333333	1945.715820	102.872757
29506.554255	-1010.333333	1944.741211	27.872530
29506.554255	-1010.333333	1943.767578	156.506592
29506.554255	-1010.333333	1942.792969	20.240280
29506.554255	-1010.333333	1941.818359	-44.855576
29506.554255	-1010.333333	1940.842773	-9.400910
29506.554255	-1010.333333	1939.868164	-113.658340
29506.554255	-1010.333333	1938.892578	71.312096
29506.554255	-1010.333333	1937.916992	92.063515
29506.554255	-1010.333333	1936.941406	2.578080
29506.554255	-1010.333333	1935.965820	165.416061
29506.554255	-1010.333333	1934.990234	-24.424814
29506.554255	-1010.333333	1934.013672	6.165960
29506.554255	-1010.333333	1933.037109	-2.409070
29506.554255	-1010.333333	1932.060547	111.402473
29506.554255	-1010.333333	1931.083984	0.059200
29506.554255	-1010.333333	1930.107422	-10.925614
29506.554255	-1010.333333	1929.129883	193.357315
29506.554255	-1010.333333	1928.153320	-162.476273
29506.554255	-1010.333333	1927.175781	-53.583992
29506.554255	-1010.333333	1926.198242	38.161121
29506.554255	-1010.333333	1925.219727	-9.443021
29506.554255	-1010.333333	1924.242188	114.043419
29506.554255	-1010.333333	1923.263672	-80.144600
29506.554255	-1010.333333	1922.285156	-37.292332
29506.554255	-1010.333333	1921.306641	37.298916
29506.554255	-1010.333333	1920.328125	1.980140
29506.554255	-1010.333333	1919.349609	30.157030
29506.554255	-1010.333333	1918.370117	-134.517090
29506.554255	-1010.333333	1917.391602	-338.176788
29506.554255	-1010.333333	1916.412109	21.920679
29506.554255	-1010.333333	1915.431641	54.962212
29506.554255	-1010.333333	1914.452148	202.641296
29506.554255	-1010.333333	1913.472656	47.851440
29506.554255	-1010.333333	1912.492188	-72.742378
29506.554255	-1010.333333	1911.511719	143.138855
29506.554255	-1010.333333	1910.531250	-28.616867
29506.554255	-1010.333333	1909.550781	179.858902
29506.554255	-1010.333333	1908.569336	-116.104843
29506.554255	-1010.333333	1907.588867	236.031021
29506.554255	-1010.333333	1906.607422	132.573608
29506.554255	-1010.333333	1905.625977	-36.602455
29506.554255	-1010.333333	1904.644531	-8.507648
29506.554255	-1010.333333	1903.662109	148.585388
29506.554255	-1010.333333	1902.680664	-125.170959
29506.554255	-1010.333333	1901.698242	85.403381
29506.554255	-1010.333333	1900.715820	266.694763
29506.554255	-1010.333333	1899.733398	107.370346
29506.554255	-1010.333333	1898.750000	-117.571060
29506.554255	-1010.333333	1897.767578	129.278809
29506.554255	-1010.333333	1896.784180	-8.085644
29506.554255	-1010.333333	1895.800781	-65.201889
29506.554255	-1010.333333	1894.817383	1.628479
29506.554255	-1010.333333	1893.833984	170.467148
29506.554255	-1010.333333	1892.850586	93.873825
29506.554255	-1010.333333	1891.866211	163.019043
29506.554255	-1010.333333	1890.881836	-5.855351
29506.554255	-1010.333333	1889.897461	-147.976746
29506.554255	-1010.333333	1888.913086	219.696960
29506.554255	-1010.333333	1887.927734	-34.093464
29506.554255	-1010.333333	1886.943359	59.183548
29506.554255	-1010.333333	1885.958008	-63.515087
29506.554255	-1010.333333	1884.972656	175.226379
29506.554255	-1010.333333	1883.987305	120.411011
29506.554255	-1010.333333	1883.001953	-259.317535
29506.554255	-1010.333333	1882.015625	131.982513
29506.554255	-1010.333333	1881.029297	178.932053
29506.554255	-1010.333333	1880.042969	-144.936569
29506.554255	-1010.333333	1879.056641	294.502716
29506.554255	-1010.333333	1878.070313	-48.700176
29506.554255	-1010.333333	1877.083984	-30.926975
29506.554255	-1010.333333	1876.096680	204.744385
29506.554255	-1010.333333	1875.109375	-118.969345
29506.554255	-1010.333333	1874.122070	-108.549507
29506.554255	-1010.333333	1873.134766	243.077240
29506.554255	-1010.333333	1872.146484	-201.546066
29506.554255	-1010.333333	1871.159180	-38.805035
29506.554255	-1010.333333	1870.170898	227.850143
29506.554255	-1010.333333	1869.182617	187.236008
29506.554255	-1010.333333	1868.194336	1.527477
29506.554255	-1010.333333	1867.205078	-271.179871
29506.554255	-1010.333333	1866.216797	-31.419695
29506.554255	-1010.333333	1865.227539	-241.265610
29506.554255	-1010.333333	1864.238281	39.390121
29506.554255	-1010.333333	1863.249023	-37.613506
29506.554255	-1010.333333	1862.259766	129.300766
29506.554255	-1010.333333	1861.269531	105.345497
29506.554255	-1010.333333	1860.279297	-259.058899
29506.554255	-1010.333333	1859.290039	93.535469
29506.554255	-1010.333333	1858.298828	45.328331
29506.554255	-1010.333333	1857.308594	156.346802
29506.554255	-1010.333333	1856.318359	180.428360
29506.554255	-1010.333333	1855.327148	115.205254
29506.554255	-1010.333333	1854.335938	93.363785
29506.554255	-1010.333333	1853.344727	-15.319535
29506.554255	-1010.333333	1852.353516	141.158386
29506.554255	-1010.333333	1851.362305	198.708817
29506.554255	-1010.333333	1850.370117	65.811432
29506.554255	-1010.333333	1849.377930	5.187959
29506.554255	-1010.333333	1848.385742	250.456741
29506.554255	-1010.333333	1847.393555	76.517342
29506.554255	-1010.333333	1846.401367	254.146332
29506.554255	-1010.333333	1845.408203	289.606323
29506.554255	-1010.333333	1844.415039	-28.837673
29506.554255	-1010.333333	1843.421875	59.491268
29506.554255	-1010.333333	1842.428711	-198.755264
29506.554255	-1010.333333	1841.435547	134.828186
29506.554255	-1010.333333	1840.441406	-94.597527
29506.554255	-1010.333333	1839.448242	-42.637638
29506.554255	-1010.333333	1838.454102	83.768478
29506.554255	-1010.333333	1837.459961	-37.533672
29506.554255	-1010.333333	1836.464844	242.512985
29506.554255	-1010.333333	1835.470703	253.258850
29506.554255	-1010.333333	1834.475586	129.392975
29506.554255	-1010.333333	1833.480469	-198.666611
29506.554255	-1010.333333	1832.485352	-12.731131
29506.554255	-1010.333333	1831.490234	-59.842312
29506.554255	-1010.333333	1830.495117	157.069489
29506.554255	-1010.333333	1829.499023	306.619507
29506.554255	-1010.333333	1828.502930	302.458618
29506.554255	-1010.333333	1827.506836	27.101778
29506.554255	-1010.333333	1826.510742	152.390106
29506.554255	-1010.333333	1825.513672	13.727713
29506.554255	-1010.333333	1824.517578	78.874725
29506.554255	-1010.333333	1823.520508	83.983681
29506.554255	-1010.333333	1822.523438	132.162903
29506.554255	-1010.333333	1821.526367	197.023102
29506.554255	-1010.333333	1820.529297	163.542191
29506.554255	-1010.333333	1819.531250	163.532120
29506.554255	-1010.333333	1818.533203	110.749939
29506.554255	-1010.333333	1817.535156	500.949005
29506.554255	-1010.333333	1816.537109	280.359222
29506.554255	-1010.333333	1815.539063	-21.617628
29506.554255	-1010.333333	1814.540039	152.734375
29506.554255	-1010.333333	1813.541992	180.970016
29506.554255	-1010.333333	1812.542969	22.490351
29506.554255	-1010.333333	1811.543945	330.447540
29506.554255	-1010.333333	1810.543945	222.057266
29506.554255	-1010.333333	1809.544922	-1.148497
29506.554255	-1010.333333	1808.544922	-92.866928
29506.554255	-1010.333333	1807.544922	207.374817
29506.554255	-1010.333333	1806.544922	48.568489
29506.554255	-1010.333333	1805.544922	162.127701
29506.554255	-1010.333333	1804.544922	-8.725335
29506.554255	-1010.333333	1803.543945	-24.351620
29506.554255	-1010.333333	1802.542969	57.851051
29506.554255	-1010.333333	1801.541992	-199.100128
29506.554255	-1010.333333	1800.541016	-129.006348
29506.554255	-1010.333333	1799.539063	162.931259
29506.554255	-1010.333333	1798.538086	17.994637
29506.554255	-1010.333333	1797.536133	109.211510
29506.554255	-1010.333333	1796.534180	-136.024338
29506.554255	-1010.333333	1795.532227	57.558254
29506.554255	-1010.333333	1794.529297	-78.076210
29506.554255	-1010.333333	1793.527344	55.644173
29506.554255	-1010.333333	1792.524414	-34.833733
29506.554255	-1010.333333	1791.521484	-182.560974
29506.554255	-1010.333333	1790.518555	58.044201
29506.554255	-1010.333333	1789.514648	205.555328
29506.554255	-1010.333333	1788.511719	88.554970
29506.554255	-1010.333333	1787.507813	-159.467819
29506.554255	-1010.333333	1786.503906	-5.131977
29506.554255	-1010.333333	1785.500000	-36.615437
29506.554255	-1010.333333	1784.496094	195.989807
29506.554255	-1010.333333	1783.491211	211.875961
29506.554255	-1010.333333	1782.486328	308.549530
29506.554255	-1010.333333	1781.481445	169.617722
29506.554255	-1010.333333	1780.476563	37.777699
29506.554255	-1010.333333	1779.471680	-51.308578
29506.554255	-1010.333333	1778.465820	-71.523483
29506.554255	-1010.333333	1777.460938	202.899246
29506.554255	-1010.333333	1776.455078	87.403908
29506.554255	-1010.333333	1775.449219	90.650009
29506.554255	-1010.333333	1774.442383	-67.735359
29506.554255	-1010.333333	1773.436523	165.719894
29506.554255	-1010.333333	1772.429688	99.797310
29506.554255	-1010.333333	1771.422852	-167.991638
29506.554255	-1010.333333	1770.416016	98.286606
29506.554255	-1010.333333	1769.409180	3.651592
29506.554255	-1010.333333	1768.402344	-17.490440
29506.554255	-1010.333333	1767.394531	-31.612535
29506.554255	-1010.333333	1766.386719	-90.886307
29506.554255	-1010.333333	1765.378906	89.270325
29506.554255	-1010.333333	1764.371094	-36.580093
29506.554255	-1010.333333	1763.362305	93.520737
29506.554255	-1010.333333	1762.354492	22.035265
29506.554255	-1010.333333	1761.345703	158.993225
29506.554255	-1010.333333	1760.336914	-7.440444
29506.554255	-1010.333333	1759.328125	143.492188
29506.554255	-1010.333333	1758.318359	246.897461
29506.554255	-1010.333333	1757.308594	-68.918762
29506.554255	-1010.333333	1756.299805	-24.874861
29506.554255	-1010.333333	1755.290039	-75.623718
29506.554255	-1010.333333	1754.279297	-98.061913
29506.554255	-1010.333333	1753.269531	215.384094
29506.554255	-1010.333333	1752.258789	-67.493752
29506.554255	-1010.333333	1751.249023	-14.514150
29506.554255	-1010.333333	1750.238281	95.093048
29506.554255	-1010.333333	1749.226563	8.329778
29506.554255	-1010.333333	1748.215820	44.426746
29506.554255	-1010.333333	1747.204102	141.850876
29506.554255	-1010.333333	1746.193359	-290.108185
29506.554255	-1010.333333	1745.181641	-381.831451
29506.554255	-1010.333333	1744.168945	-46.123589
29506.554255	-1010.333333	1743.157227	338.965790
29506.554255	-1010.333333	1742.144531	-24.626490
29506.554255	-1010.333333	1741.132813	22.571796
29506.554255	-1010.333333	1740.120117	-185.239151
29506.554255	-1010.333333	1739.106445	-6.096339
29506.554255	-1010.333333	1738.093750	-211.646133
29506.554255	-1010.333333	1737.080078	-249.751312
29506.554255	-1010.333333	1736.067383	-70.960228
29506.554255	-1010.333333	1735.053711	105.305428
29506.554255	-1010.333333	1734.040039	215.404572
29506.554255	-1010.333333	1733.025391	-39.960617
29506.554255	-1010.333333	1732.011719	-90.292862
29506.554255	-1010.333333	1730.997070	-98.297653
29506.554255	-1010.333333	1729.982422	-96.967270
29506.554255	-1010.333333	1728.967773	-255.871536
29506.554255	-1010.333333	1727.952148	-141.673828
29506.554255	-1010.333333	1726.937500	184.286087
29506.554255	-1010.333333	1725.921875	-120.787849
29506.554255	-1010.333333	1724.906250	-18.707787
29506.554255	-1010.333333	1723.890625	132.659637
29506.554255	-1010.333333	1722.875000	86.279846
29506.554255	-1010.333333	1721.858398	145.658981
29506.554255	-1010.333333	1720.841797	61.489159
29506.554255	-1010.333333	1719.825195	40.745594
29506.554255	-1010.333333	1718.808594	-278.600403
29506.554255	-1010.333333	1717.791992	-172.526733
29506.554255	-1010.333333	1716.774414	74.396286
29506.554255	-1010.333333	1715.756836	163.742050
29506.554255	-1010.333333	1714.739258	-64.117676
29506.554255	-1010.333333	1713.721680	72.026741
29506.554255	-1010.333333	1712.704102	36.640816
29506.554255	-1010.333333	1711.685547	-144.365585
29506.554255	-1010.333333	1710.667969	-3.825813
29506.554255	-1010.333333	1709.649414	73.209976
29506.554255	-1010.333333	1708.630859	-260.430328
29506.554255	-1010.333333	1707.611328	-138.971893
29506.554255	-1010.333333	1706.592773	111.365829
29506.554255	-1010.333333	1705.573242	33.248978
29506.554255	-1010.333333	1704.553711	41.829956
29506.554255	-1010.333333	1703.534180	3.455237
29506.554255	-1010.333333	1702.513672	143.110336
29506.554255	-1010.333333	1701.494141	36.640972
29506.554255	-1010.333333	1700.473633	-18.338129
29506.554255	-1010.333333	1699.453125	-17.156590
29506.554255	-1010.333333	1698.432617	23.764530
29506.554255	-1010.333333	1697.412109	-45.437218
29506.554255	-1010.333333	1696.390625	257.483154
29506.554255	-1010.333333	1695.369141	89.823212
29506.554255	-1010.333333	1694.347656	188.902222
29506.554255	-1010.333333	1693.326172	133.476883
29506.554255	-1010.333333	1692.304688	10.180880
29506.554255	-1010.333333	1691.282227	20.145693
29506.554255	-1010.333333	1690.260742	9.015285
29506.554255	-1010.333333	1689.238281	282.998932
29506.554255	-1010.333333	1688.214844	281.019287
29506.554255	-1010.333333	1687.192383	14.949137
29506.554255	-1010.333333	1686.168945	265.212341
29506.554255	-1010.333333	1685.146484	134.603851
29506.554255	-1010.333333	1684.123047	67.027756
29506.554255	-1010.333333	1683.099609	162.862518
29506.554255	-1010.333333	1682.075195	242.248978
29506.554255	-1010.333333	1681.051758	39.150452
29506.554255	-1010.333333	1680.027344	382.109406
29506.554255	-1010.333333	1679.002930	101.947853
29506.554255	-1010.333333	1677.978516	174.071091
29506.554255	-1010.333333	1676.953125	94.508453
29506.554255	-1010.333333	1675.928711	318.065552
29506.554255	-1010.333333	1674.903320	289.694611
29506.554255	-1010.333333	1673.877930	212.337006
29506.554255	-1010.333333	1672.852539	120.980133
29506.554255	-1010.333333	1671.826172	325.498871
29506.554255	-1010.333333	1670.800781	341.220764
29506.554255	-1010.333333	1669.774414	54.099575
29506.554255	-1010.333333	1668.748047	412.067230
29506.554255	-1010.333333	1667.721680	320.523193
29506.554255	-1010.333333	1666.694336	196.369598
29506.554255	-1010.333333	1665.667969	142.055420
29506.554255	-1010.333333	1664.640625	145.877914
29506.554255	-1010.333333	1663.613281	459.064117
29506.554255	-1010.333333	1662.585938	239.462738
29506.554255	-1010.333333	1661.557617	289.647675
29506.554255	-1010.333333	1660.530273	307.242035
29506.554255	-1010.333333	1659.501953	248.070190
29506.554255	-1010.333333	1658.473633	514.263611
29506.554255	-1010.333333	1657.444336	550.265259
29506.554255	-1010.333333	1656.416016	381.796112
29506.554255	-1010.333333	1655.386719	475.817047
29506.554255	-1010.333333	1654.358398	588.367615
29506.554255	-1010.333333	1653.328125	782.080750
29506.554255	-1010.333333	1652.298828	353.573822
29506.554255	-1010.333333	1651.269531	658.627625
29506.554255	-1010.333333	1650.239258	617.770874
29506.554255	-1010.333333	1649.208984	641.865845
29506.554255	-1010.333333	1648.178711	765.675354
29506.554255	-1010.333333	1647.148438	819.841309
29506.554255	-1010.333333	1646.117188	658.310242
29506.554255	-1010.333333	1645.086914	948.901428
29506.554255	-1010.333333	1644.055664	1021.473755
29506.554255	-1010.333333	1643.024414	1024.479492
29506.554255	-1010.333333	1641.992188	712.355469
29506.554255	-1010.333333	1640.960938	1225.014648
29506.554255	-1010.333333	1639.928711	1318.249634
29506.554255	-1010.333333	1638.896484	1337.338867
29506.554255	-1010.333333	1637.864258	960.525513
29506.554255	-1010.333333	1636.832031	1345.375366
29506.554255	-1010.333333	1635.798828	1230.182861
29506.554255	-1010.333333	1634.766602	1318.655762
29506.554255	-1010.333333	1633.733398	1284.467651
29506.554255	-1010.333333	1632.699219	1437.615723
29506.554255	-1010.333333	1631.666016	1486.657471
29506.554255	-1010.333333	1630.632813	1258.242798
29506.554255	-1010.333333	1629.598633	1436.730591
29506.554255	-1010.333333	1628.564453	1446.440186
29506.554255	-1010.333333	1627.530273	1218.156006
29506.554255	-1010.333333	1626.495117	1373.436279
29506.554255	-1010.333333	1625.460938	1597.969116
29506.554255	-1010.333333	1624.425781	1596.096191
29506.554255	-1010.333333	1623.390625	1645.025513
29506.554255	-1010.333333	1622.355469	1698.559082
29506.554255	-1010.333333	1621.319336	1876.696411
29506.554255	-1010.333333	1620.284180	2128.631592
29506.554255	-1010.333333	1619.248047	2027.487793
29506.554255	-1010.333333	1618.211914	2136.294922
29506.554255	-1010.333333	1617.174805	1952.181763
29506.554255	-1010.333333	1616.138672	2284.646729
29506.554255	-1010.333333	1615.101563	2427.951660
29506.554255	-1010.333333	1614.065430	2172.509033
29506.554255	-1010.333333	1613.027344	2359.587158
29506.554255	-1010.333333	1611.990234	2251.729004
29506.554255	-1010.333333	1610.953125	2657.605957
29506.554255	-1010.333333	1609.915039	2489.885742
29506.554255	-1010.333333	1608.876953	2303.835205
29506.554255	-1010.333333	1607.838867	2472.408203
29506.554255	-1010.333333	1606.800781	2751.420898
29506.554255	-1010.333333	1605.761719	2655.241943
29506.554255	-1010.333333	1604.723633	2667.281738
29506.554255	-1010.333333	1603.684570	2725.337646
29506.554255	-1010.333333	1602.644531	2716.694336
29506.554255	-1010.333333	1601.605469	2783.982178
29506.554255	-1010.333333	1600.566406	2630.580322
29506.554255	-1010.333333	1599.526367	2725.496826
29506.554255	-1010.333333	1598.486328	2797.435059
29506.554255	-1010.333333	1597.446289	2860.193115
29506.554255	-1010.333333	1596.405273	2854.035156
29506.554255	-1010.333333	1595.365234	2540.176758
29506.554255	-1010.333333	1594.324219	2766.092529
29506.554255	-1010.333333	1593.283203	2978.188477
29506.554255	-1010.333333	1592.242188	2871.188721
29506.554255	-1010.333333	1591.200195	3053.423584
29506.554255	-1010.333333	1590.159180	2925.895996
29506.554255	-1010.333333	1589.117188	3142.557129
29506.554255	-1010.333333	1588.075195	3288.080322
29506.554255	-1010.333333	1587.032227	3316.636719
29506.554255	-1010.333333	1585.990234	3485.099121
29506.554255	-1010.333333	1584.947266	3559.555908
29506.554255	-1010.333333	1583.904297	3677.581055
29506.554255	-1010.333333	1582.861328	3440.461182
29506.554255	-1010.333333	1581.818359	3922.827881
29506.554255	-1010.333333	1580.775391	3889.715820
29506.554255	-1010.333333	1579.731445	3513.166992
29506.554255	-1010.333333	1578.687500	3771.026611
29506.554255	-1010.333333	1577.643555	3774.758545
29506.554255	-1010.333333	1576.598633	3364.296143
29506.554255	-1010.333333	1575.554688	3121.110596
29506.554255	-1010.333333	1574.509766	3461.447754
29506.554255	-1010.333333	1573.464844	3298.513916
29506.554255	-1010.333333	1572.419922	3208.890137
29506.554255	-1010.333333	1571.374023	3174.232178
29506.554255	-1010.333333	1570.329102	2655.050049
29506.554255	-1010.333333	1569.283203	2753.215332
29506.554255	-1010.333333	1568.237305	2668.613525
29506.554255	-1010.333333	1567.191406	2307.678955
29506.554255	-1010.333333	1566.144531	2394.646240
29506.554255	-1010.333333	1565.098633	2358.346680
29506.554255	-1010.333333	1564.051758	2084.668213
29506.554255	-1010.333333	1563.004883	2315.677490
29506.554255	-1010.333333	1561.957031	2384.616943
29506.554255	-1010.333333	1560.910156	2207.176758
29506.554255	-1010.333333	1559.862305	2155.354492
29506.554255	-1010.333333	1558.814453	2183.474365
29506.554255	-1010.333333	1557.766602	2232.191895
29506.554255	-1010.333333	1556.718750	2278.697266
29506.554255	-1010.333333	1555.669922	2133.767090
29506.554255	-1010.333333	1554.621094	2123.455322
29506.554255	-1010.333333	1553.573242	1709.905518
29506.554255	-1010.333333	1552.523438	1820.601318
29506.554255	-1010.333333	1551.474609	2138.643311
29506.554255	-1010.333333	1550.424805	1923.722168
29506.554255	-1010.333333	1549.375000	1531.375977
29506.554255	-1010.333333	1548.325195	1569.543213
29506.554255	-1010.333333	1547.275391	1689.730835
29506.554255	-1010.333333	1546.225586	1450.416382
29506.554255	-1010.333333	1545.174805	1752.781128
29506.554255	-1010.333333	1544.124023	1420.470215
29506.554255	-1010.333333	1543.073242	1202.105591
29506.554255	-1010.333333	1542.022461	1782.049561
29506.554255	-1010.333333	1540.970703	1263.804321
29506.554255	-1010.333333	1539.919922	1323.206421
29506.554255	-1010.333333	1538.868164	1378.134277
29506.554255	-1010.333333	1537.815430	1512.657349
29506.554255	-1010.333333	1536.763672	1504.133301
29506.554255	-1010.333333	1535.710938	1536.591431
29506.554255	-1010.333333	1534.659180	1412.474609
29506.554255	-1010.333333	1533.606445	1426.992310
29506.554255	-1010.333333	1532.552734	1595.952393
29506.554255	-1010.333333	1531.500000	1937.439819
29506.554255	-1010.333333	1530.446289	1770.656738
29506.554255	-1010.333333	1529.393555	1885.351685
29506.554255	-1010.333333	1528.338867	1730.204346
29506.554255	-1010.333333	1527.285156	1475.466309
29506.554255	-1010.333333	1526.231445	1615.426147
29506.554255	-1010.333333	1525.176758	1036.901733
29506.554255	-1010.333333	1524.122070	1190.717529
29506.554255	-1010.333333	1523.067383	839.319702
29506.554255	-1010.333333	1522.012695	916.330078
29506.554255	-1010.333333	1520.957031	902.825012
29506.554255	-1010.333333	1519.901367	524.874512
29506.554255	-1010.333333	1518.845703	765.264465
29506.554255	-1010.333333	1517.790039	908.349243
29506.554255	-1010.333333	1516.734375	1062.818970
29506.554255	-1010.333333	1515.677734	567.961487
29506.554255	-1010.333333	1514.621094	650.289490
29506.554255	-1010.333333	1513.564453	920.436523
29506.554255	-1010.333333	1512.507813	593.618225
29506.554255	-1010.333333	1511.450195	631.048523
29506.554255	-1010.333333	1510.393555	591.746887
29506.554255	-1010.333333	1509.335938	450.885010
29506.554255	-1010.333333	1508.278320	344.101715
29506.554255	-1010.333333	1507.219727	612.490356
29506.554255	-1010.333333	1506.162109	417.895691
29506.554255	-1010.333333	1505.103516	428.996002
29506.554255	-1010.333333	1504.044922	318.310547
29506.554255	-1010.333333	1502.986328	449.330170
29506.554255	-1010.333333	1501.926758	451.787537
29506.554255	-1010.333333	1500.868164	612.332581
29506.554255	-1010.333333	1499.808594	215.728897
29506.554255	-1010.333333	1498.749023	35.946194
29506.554255	-1010.333333	1497.688477	309.629700
29506.554255	-1010.333333	1496.628906	371.416565
29506.554255	-1010.333333	1495.568359	252.981522
29506.554255	-1010.333333	1494.507813	231.643372
29506.554255	-1010.333333	1493.447266	-23.884521
29506.554255	-1010.333333	1492.386719	295.292908
29506.554255	-1010.333333	1491.325195	121.214165
29506.554255	-1010.333333	1490.263672	68.951363
29506.554255	-1010.333333	1489.202148	-338.877869
29506.554255	-1010.333333	1488.140625	-134.126526
29506.554255	-1010.333333	1487.079102	-62.098911
29506.554255	-1010.333333	1486.016602	-1.207028
29506.554255	-1010.333333	1484.954102	-315.891235
29506.554255	-1010.333333	1483.891602	-211.947968
29506.554255	-1010.333333	1482.829102	89.990318
29506.554255	-1010.333333	1481.765625	32.215256
29506.554255	-1010.333333	1480.702148	-2.907472
29506.554255	-1010.333333	1479.638672	58.776798
29506.554255	-1010.333333	1478.575195	-27.710091
29506.554255	-1010.333333	1477.511719	130.815796
29506.554255	-1010.333333	1476.447266	-202.384567
29506.554255	-1010.333333	1475.382813	91.153389
29506.554255	-1010.333333	1474.318359	88.404572
29506.554255	-1010.333333	1473.253906	352.879059
29506.554255	-1010.333333	1472.189453	161.952087
29506.554255	-1010.333333	1471.124023	96.736893
29506.554255	-1010.333333	1470.058594	372.652313
29506.554255	-1010.333333	1468.993164	762.972046
29506.554255	-1010.333333	1467.927734	474.135834
29506.554255	-1010.333333	1466.861328	721.118591
29506.554255	-1010.333333	1465.794922	838.338684
29506.554255	-1010.333333	1464.728516	715.700562
29506.554255	-1010.333333	1463.662109	793.097046
29506.554255	-1010.333333	1462.594727	997.614929
29506.554255	-1010.333333	1461.528320	885.155334
29506.554255	-1010.333333	1460.460938	1279.302124
29506.554255	-1010.333333	1459.393555	1340.615234
29506.554255	-1010.333333	1458.326172	1298.512817
29506.554255	-1010.333333	1457.257813	1342.723022
29506.554255	-1010.333333	1456.189453	1583.119629
29506.554255	-1010.333333	1455.121094	1470.896118
29506.554255	-1010.333333	1454.052734	1631.226440
29506.554255	-1010.333333	1452.984375	1736.116577
29506.554255	-1010.333333	1451.915039	1776.164307
29506.554255	-1010.333333	1450.845703	1796.604248
29506.554255	-1010.333333	1449.776367	1418.332886
29506.554255	-1010.333333	1448.707031	1952.252441
29506.554255	-1010.333333	1447.636719	1585.069092
29506.554255	-1010.333333	1446.567383	1407.048584
29506.554255	-1010.333333	1445.497070	1613.716309
29506.554255	-1010.333333	1444.425781	1495.293213
29506.554255	-1010.333333	1443.355469	1640.191162
29506.554255	-1010.333333	1442.285156	1179.823242
29506.554255	-1010.333333	1441.213867	1199.505371
29506.554255	-1010.333333	1440.142578	1171.304565
29506.554255	-1010.333333	1439.070313	1106.869263
29506.554255	-1010.333333	1437.999023	822.589783
29506.554255	-1010.333333	1436.926758	1226.466431
29506.554255	-1010.333333	1435.854492	1206.374023
29506.554255	-1010.333333	1434.782227	865.537048
29506.554255	-1010.333333	1433.709961	965.033325
29506.554255	-1010.333333	1432.636719	1389.738647
29506.554255	-1010.333333	1431.563477	841.037109
29506.554255	-1010.333333	1430.490234	1135.807251
29506.554255	-1010.333333	1429.416992	841.867249
29506.554255	-1010.333333	1428.343750	824.992371
29506.554255	-1010.333333	1427.269531	978.689697
29506.554255	-1010.333333	1426.195313	554.719543
29506.554255	-1010.333333	1425.121094	792.688965
29506.554255	-1010.333333	1424.046875	639.197327
29506.554255	-1010.333333	1422.971680	886.711426
29506.554255	-1010.333333	1421.896484	998.369629
29506.554255	-1010.333333	1420.821289	824.230225
29506.554255	-1010.333333	1419.746094	761.699158
29506.554255	-1010.333333	1418.669922	907.808105
29506.554255	-1010.333333	1417.594727	904.037781
29506.554255	-1010.333333	1416.518555	1003.577026
29506.554255	-1010.333333	1415.442383	1130.969604
29506.554255	-1010.333333	1414.365234	1199.616821
29506.554255	-1010.333333	1413.289063	1062.668213
29506.554255	-1010.333333	1412.211914	1079.010742
29506.554255	-1010.333333	1411.134766	935.355774
29506.554255	-1010.333333	1410.057617	762.192993
29506.554255	-1010.333333	1408.979492	1084.151001
29506.554255	-1010.333333	1407.902344	1214.911011
29506.554255	-1010.333333	1406.824219	753.976563
29506.554255	-1010.333333	1405.746094	705.329773
29506.554255	-1010.333333	1404.666992	1059.832031
29506.554255	-1010.333333	1403.588867	959.331238
29506.554255	-1010.333333	1402.509766	1380.433838
29506.554255	-1010.333333	1401.430664	1092.343750
29506.554255	-1010.333333	1400.351563	1089.656128
29506.554255	-1010.333333	1399.271484	1158.397217
29506.554255	-1010.333333	1398.192383	1220.061890
29506.554255	-1010.333333	1397.112305	1601.011841
29506.554255	-1010.333333	1396.031250	1821.586670
29506.554255	-1010.333333	1394.951172	1568.450439
29506.554255	-1010.333333	1393.871094	1742.656982
29506.554255	-1010.333333	1392.790039	1713.070923
29506.554255	-1010.333333	1391.708984	1536.229004
29506.554255	-1010.333333	1390.626953	1730.261841
29506.554255	-1010.333333	1389.545898	2068.837891
29506.554255	-1010.333333	1388.463867	1895.803467
29506.554255	-1010.333333	1387.381836	1847.561523
29506.554255	-1010.333333	1386.299805	1789.728638
29506.554255	-1010.333333	1385.217773	2047.776733
29506.554255	-1010.333333	1384.134766	1786.202515
29506.554255	-1010.333333	1383.051758	1797.926147
29506.554255	-1010.333333	1381.968750	1843.085693
29506.554255	-1010.333333	1380.885742	2186.666504
29506.554255	-1010.333333	1379.802734	1889.826538
29506.554255	-1010.333333	1378.718750	2010.359253
29506.554255	-1010.333333	1377.634766	1819.614258
29506.554255	-1010.333333	1376.550781	2144.012695
29506.554255	-1010.333333	1375.465820	1831.955933
29506.554255	-1010.333333	1374.381836	1977.222778
29506.554255	-1010.333333	1373.296875	1826.197266
29506.554255	-1010.333333	1372.211914	1862.534912
29506.554255	-1010.333333	1371.126953	1717.504272
29506.554255	-1010.333333	1370.041016	1653.958984
29506.554255	-1010.333333	1368.955078	1758.909302
29506.554255	-1010.333333	1367.869141	1660.090698
29506.554255	-1010.333333	1366.783203	1750.625366
29506.554255	-1010.333333	1365.697266	1651.389404
29506.554255	-1010.333333	1364.610352	1472.766235
29506.554255	-1010.333333	1363.523438	1448.380615
29506.554255	-1010.333333	1362.436523	1135.757324
29506.554255	-1010.333333	1361.349609	1375.981079
29506.554255	-1010.333333	1360.261719	1097.689697
29506.554255	-1010.333333	1359.174805	1248.800537
29506.554255	-1010.333333	1358.086914	1214.341919
29506.554255	-1010.333333	1356.998047	926.330872
29506.554255	-1010.333333	1355.910156	901.338257
29506.554255	-1010.333333	1354.821289	1000.744568
29506.554255	-1010.333333	1353.732422	858.390442
29506.554255	-1010.333333	1352.643555	912.694885
29506.554255	-1010.333333	1351.554688	1110.234985
29506.554255	-1010.333333	1350.464844	920.877930
29506.554255	-1010.333333	1349.375000	1282.494995
29506.554255	-1010.333333	1348.285156	1240.204346
29506.554255	-1010.333333	1347.195313	1081.065674
29506.554255	-1010.333333	1346.105469	1763.140259
29506.554255	-1010.333333	1345.014648	1758.584839
29506.554255	-1010.333333	1343.923828	1885.526123
29506.554255	-1010.333333	1342.833008	1821.236450
29506.554255	-1010.333333	1341.741211	1968.042725
29506.554255	-1010.333333	1340.650391	2212.854736
29506.554255	-1010.333333	1339.558594	1997.039917
29506.554255	-1010.333333	1338.466797	2158.855469
29506.554255	-1010.333333	1337.374023	1976.706543
29506.554255	-1010.333333	1336.282227	1779.205444
29506.554255	-1010.333333	1335.189453	1823.937134
29506.554255	-1010.333333	1334.096680	1660.244263
29506.554255	-1010.333333	1333.003906	1534.104370
29506.554255	-1010.333333	1331.910156	1637.930664
29506.554255	-1010.333333	1330.817383	1535.498657
29506.554255	-1010.333333	1329.723633	1635.091553
29506.554255	-1010.333333	1328.629883	1642.053467
29506.554255	-1010.333333	1327.535156	1646.005005
29506.554255	-1010.333333	1326.441406	1511.730713
29506.554255	-1010.333333	1325.346680	1719.166748
29506.554255	-1010.333333	1324.251953	1538.268066
29506.554255	-1010.333333	1323.156250	1735.239990
29506.554255	-1010.333333	1322.061523	1578.549683
29506.554255	-1010.333333	1320.965820	1407.368286
29506.554255	-1010.333333	1319.870117	1254.767700
29506.554255	-1010.333333	1318.774414	1190.143311
29506.554255	-1010.333333	1317.678711	1259.745972
29506.554255	-1010.333333	1316.582031	1199.050537
29506.554255	-1010.333333	1315.485352	1486.337769
29506.554255	-1010.333333	1314.388672	1449.047729
29506.554255	-1010.333333	1313.291016	1276.429199
29506.554255	-1010.333333	1312.194336	1263.168823
29506.554255	-1010.333333	1311.096680	1097.251465
29506.554255	-1010.333333	1309.999023	1152.099976
29506.554255	-1010.333333	1308.901367	1300.144775
29506.554255	-1010.333333	1307.802734	1388.107544
29506.554255	-1010.333333	1306.705078	1207.394775
29506.554255	-1010.333333	1305.606445	1389.605591
29506.554255	-1010.333333	1304.506836	1247.828613
29506.554255	-1010.333333	1303.408203	1066.798218
29506.554255	-1010.333333	1302.308594	1363.158813
29506.554255	-1010.333333	1301.208984	1410.133057
29506.554255	-1010.333333	1300.109375	1377.155396
29506.554255	-1010.333333	1299.009766	1530.494263
29506.554255	-1010.333333	1297.909180	1472.992676
29506.554255	-1010.333333	1296.808594	1528.496704
29506.554255	-1010.333333	1295.708008	1521.418945
29506.554255	-1010.333333	1294.607422	1752.408569
29506.554255	-1010.333333	1293.506836	1434.023071
29506.554255	-1010.333333	1292.405273	1243.517944
29506.554255	-1010.333333	1291.303711	1241.654785
29506.554255	-1010.333333	1290.202148	1173.041626
29506.554255	-1010.333333	1289.099609	1091.715576
29506.554255	-1010.333333	1287.998047	942.710083
29506.554255	-1010.333333	1286.895508	809.627991
29506.554255	-1010.333333	1285.792969	838.082031
29506.554255	-1010.333333	1284.689453	786.927795
29506.554255	-1010.333333	1283.586914	488.774628
29506.554255	-1010.333333	1282.483398	570.049805
29506.554255	-1010.333333	1281.379883	508.856140
29506.554255	-1010.333333	1280.276367	324.422913
29506.554255	-1010.333333	1279.171875	663.107788
29506.554255	-1010.333333	1278.067383	678.394348
29506.554255	-1010.333333	1276.962891	517.822327
29506.554255	-1010.333333	1275.858398	430.486267
29506.554255	-1010.333333	1274.753906	636.515686
29506.554255	-1010.333333	1273.648438	751.036011
29506.554255	-1010.333333	1272.542969	305.780701
29506.554255	-1010.333333	1271.437500	515.523926
29506.554255	-1010.333333	1270.331055	603.383301
29506.554255	-1010.333333	1269.225586	520.674377
29506.554255	-1010.333333	1268.119141	382.426880
29506.554255	-1010.333333	1267.012695	522.784180
29506.554255	-1010.333333	1265.906250	353.258759
29506.554255	-1010.333333	1264.798828	537.232056
29506.554255	-1010.333333	1263.691406	454.111145
29506.554255	-1010.333333	1262.583984	347.457275
29506.554255	-1010.333333	1261.476563	325.216400
29506.554255	-1010.333333	1260.368164	298.920593
29506.554255	-1010.333333	1259.260742	387.255981
29506.554255	-1010.333333	1258.152344	89.912819
29506.554255	-1010.333333	1257.043945	415.450378
29506.554255	-1010.333333	1255.934570	294.150726
29506.554255	-1010.333333	1254.825195	24.330914
29506.554255	-1010.333333	1253.716797	359.341095
29506.554255	-1010.333333	1252.606445	274.799561
29506.554255	-1010.333333	1251.497070	125.681282
29506.554255	-1010.333333	1250.387695	43.184338
29506.554255	-1010.333333	1249.277344	92.102592
29506.554255	-1010.333333	1248.166992	53.782326
29506.554255	-1010.333333	1247.055664	77.341621
29506.554255	-1010.333333	1245.945313	-72.812881
29506.554255	-1010.333333	1244.833984	-11.312910
29506.554255	-1010.333333	1243.722656	221.006149
29506.554255	-1010.333333	1242.611328	145.813019
29506.554255	-1010.333333	1241.499023	-74.299599
29506.554255	-1010.333333	1240.387695	-2.829352
29506.554255	-1010.333333	1239.275391	43.955326
29506.554255	-1010.333333	1238.162109	26.580580
29506.554255	-1010.333333	1237.049805	136.970642
29506.554255	-1010.333333	1235.936523	39.911758
29506.554255	-1010.333333	1234.823242	83.045158
29506.554255	-1010.333333	1233.709961	8.547390
29506.554255	-1010.333333	1232.596680	-86.219452
29506.554255	-1010.333333	1231.482422	68.622505
29506.554255	-1010.333333	1230.369141	-108.973106
29506.554255	-1010.333333	1229.253906	138.104233
29506.554255	-1010.333333	1228.139648	-225.881378
29506.554255	-1010.333333	1227.025391	-76.139954
29506.554255	-1010.333333	1225.910156	73.618446
29506.554255	-1010.333333	1224.794922	-139.683594
29506.554255	-1010.333333	1223.679688	50.792610
29506.554255	-1010.333333	1222.563477	13.022522
29506.554255	-1010.333333	1221.447266	182.786209
29506.554255	-1010.333333	1220.331055	202.666504
29506.554255	-1010.333333	1219.214844	110.304909
29506.554255	-1010.333333	1218.098633	108.551834
29506.554255	-1010.333333	1216.981445	265.642456
29506.554255	-1010.333333	1215.864258	137.477997
29506.554255	-1010.333333	1214.747070	48.032028
29506.554255	-1010.333333	1213.629883	3.998751
29506.554255	-1010.333333	1212.511719	158.257751
29506.554255	-1010.333333	1211.393555	-72.326660
29506.554255	-1010.333333	1210.275391	9.072552
29506.554255	-1010.333333	1209.157227	-51.506603
29506.554255	-1010.333333	1208.038086	55.254822
29506.554255	-1010.333333	1206.918945	176.762283
29506.554255	-1010.333333	1205.799805	58.030338
29506.554255	-1010.333333	1204.680664	-99.123665
29506.554255	-1010.333333	1203.560547	-42.044952
29506.554255	-1010.333333	1202.441406	20.791685
29506.554255	-1010.333333	1201.321289	-111.457466
29506.554255	-1010.333333	1200.200195	138.677185
29506.554255	-1010.333333	1199.080078	82.920280
29506.554255	-1010.333333	1197.958984	181.427917
29506.554255	-1010.333333	1196.837891	265.309052
29506.554255	-1010.333333	1195.716797	55.074383
29506.554255	-1010.333333	1194.594727	186.134338
29506.554255	-1010.333333	1193.473633	123.878067
29506.554255	-1010.333333	1192.351563	67.142937
29506.554255	-1010.333333	1191.229492	140.754898
29506.554255	-1010.333333	1190.106445	-112.176537
29506.554255	-1010.333333	1188.984375	128.921722
29506.554255	-1010.333333	1187.861328	98.544937
29506.554255	-1010.333333	1186.738281	-10.133053
29506.554255	-1010.333333	1185.614258	182.530273
29506.554255	-1010.333333	1184.491211	175.876007
29506.554255	-1010.333333	1183.367188	33.570965
29506.554255	-1010.333333	1182.243164	-22.107315
29506.554255	-1010.333333	1181.119141	47.152809
29506.554255	-1010.333333	1179.994141	34.239758
29506.554255	-1010.333333	1178.869141	-122.183975
29506.554255	-1010.333333	1177.744141	-222.853592
29506.554255	-1010.333333	1176.619141	-138.887131
29506.554255	-1010.333333	1175.493164	68.556801
29506.554255	-1010.333333	1174.368164	-37.285202
29506.554255	-1010.333333	1173.242188	-39.551861
29506.554255	-1010.333333	1172.115234	40.904297
29506.554255	-1010.333333	1170.989258	-35.718815
29506.554255	-1010.333333	1169.862305	8.150698
29506.554255	-1010.333333	1168.735352	278.726685
29506.554255	-1010.333333	1167.608398	-3.602959
29506.554255	-1010.333333	1166.481445	22.426664
29506.554255	-1010.333333	1165.353516	89.318596
29506.554255	-1010.333333	1164.225586	199.511566
29506.554255	-1010.333333	1163.097656	-74.104523
29506.554255	-1010.333333	1161.968750	83.098221
29506.554255	-1010.333333	1160.840820	-39.169411
29506.554255	-1010.333333	1159.711914	-310.633392
29506.554255	-1010.333333	1158.583008	-167.020660
29506.554255	-1010.333333	1157.453125	-176.934006
29506.554255	-1010.333333	1156.324219	-365.320282
29506.554255	-1010.333333	1155.194336	-140.261429
29506.554255	-1010.333333	1154.064453	-362.171539
29506.554255	-1010.333333	1152.933594	-401.499390
29506.554255	-1010.333333	1151.803711	-170.523270
29506.554255	-1010.333333	1150.672852	-135.714264
29506.554255	-1010.333333	1149.541992	-333.085815
29506.554255	-1010.333333	1148.411133	-270.165863
29506.554255	-1010.333333	1147.279297	135.924728
29506.554255	-1010.333333	1146.147461	24.991116
29506.554255	-1010.333333	1145.015625	236.392105
29506.554255	-1010.333333	1143.883789	198.052933
29506.554255	-1010.333333	1142.750977	135.444290
29506.554255	-1010.333333	1141.619141	130.168076
29506.554255	-1010.333333	1140.486328	261.316528
29506.554255	-1010.333333	1139.352539	183.467041
29506.554255	-1010.333333	1138.219727	228.358719
29506.554255	-1010.333333	1137.085938	255.893936
29506.554255	-1010.333333	1135.952148	171.380524
29506.554255	-1010.333333	1134.818359	40.095371
29506.554255	-1010.333333	1133.683594	375.731323
29506.554255	-1010.333333	1132.549805	352.301666
29506.554255	-1010.333333	1131.415039	472.258911
29506.554255	-1010.333333	1130.279297	563.887573
29506.554255	-1010.333333	1129.144531	522.345947
29506.554255	-1010.333333	1128.008789	573.224792
29506.554255	-1010.333333	1126.873047	646.428345
29506.554255	-1010.333333	1125.737305	417.944458
29506.554255	-1010.333333	1124.601563	392.241577
29506.554255	-1010.333333	1123.464844	341.158417
29506.554255	-1010.333333	1122.328125	457.078064
29506.554255	-1010.333333	1121.191406	235.750198
29506.554255	-1010.333333	1120.054688	381.924500
29506.554255	-1010.333333	1118.916992	427.939453
29506.554255	-1010.333333	1117.779297	380.746826
29506.554255	-1010.333333	1116.641602	221.315140
29506.554255	-1010.333333	1115.503906	161.716354
29506.554255	-1010.333333	1114.365234	373.980072
29506.554255	-1010.333333	1113.226563	243.076019
29506.554255	-1010.333333	1112.087891	508.486420
29506.554255	-1010.333333	1110.949219	428.140717
29506.554255	-1010.333333	1109.809570	360.806519
29506.554255	-1010.333333	1108.669922	387.907043
29506.554255	-1010.333333	1107.530273	372.578827
29506.554255	-1010.333333	1106.390625	277.364685
29506.554255	-1010.333333	1105.250000	303.574829
29506.554255	-1010.333333	1104.109375	384.425934
29506.554255	-1010.333333	1102.968750	360.722443
29506.554255	-1010.333333	1101.828125	305.261169
29506.554255	-1010.333333	1100.686523	342.154816
29506.554255	-1010.333333	1099.544922	402.032440
29506.554255	-1010.333333	1098.403320	493.729858
29506.554255	-1010.333333	1097.261719	717.217712
29506.554255	-1010.333333	1096.120117	517.333801
29506.554255	-1010.333333	1094.977539	743.805725
29506.554255	-1010.333333	1093.834961	515.606812
29506.554255	-1010.333333	1092.691406	504.417542
29506.554255	-1010.333333	1091.548828	600.491882
29506.554255	-1010.333333	1090.405273	482.712372
29506.554255	-1010.333333	1089.261719	573.630798
29506.554255	-1010.333333	1088.118164	313.901550
29506.554255	-1010.333333	1086.973633	338.460632
29506.554255	-1010.333333	1085.829102	354.656982
29506.554255	-1010.333333	1084.684570	318.676178
29506.554255	-1010.333333	1083.540039	104.920586
29506.554255	-1010.333333	1082.395508	203.136383
29506.554255	-1010.333333	1081.250000	121.000488
29506.554255	-1010.333333	1080.104492	60.275375
29506.554255	-1010.333333	1078.958984	7.718944
29506.554255	-1010.333333	1077.812500	-68.215721
29506.554255	-1010.333333	1076.666016	318.784912
29506.554255	-1010.333333	1075.519531	290.059845
29506.554255	-1010.333333	1074.373047	269.115021
29506.554255	-1010.333333	1073.226563	339.692810
29506.554255	-1010.333333	1072.079102	182.464630
29506.554255	-1010.333333	1070.931641	338.109741
29506.554255	-1010.333333	1069.784180	289.498444
29506.554255	-1010.333333	1068.635742	363.149628
29506.554255	-1010.333333	1067.487305	453.915649
29506.554255	-1010.333333	1066.338867	385.386566
29506.554255	-1010.333333	1065.190430	367.337952
29506.554255	-1010.333333	1064.041992	388.091339
29506.554255	-1010.333333	1062.892578	613.816589
29506.554255	-1010.333333	1061.743164	504.046265
29506.554255	-1010.333333	1060.593750	527.124329
29506.554255	-1010.333333	1059.443359	403.187286
29506.554255	-1010.333333	1058.292969	502.596069
29506.554255	-1010.333333	1057.142578	228.299149
29506.554255	-1010.333333	1055.992188	223.631775
29506.554255	-1010.333333	1054.841797	178.020020
29506.554255	-1010.333333	1053.690430	-7.525947
29506.554255	-1010.333333	1052.539063	161.144287
29506.554255	-1010.333333	1051.387695	80.964622
29506.554255	-1010.333333	1050.235352	347.131561
29506.554255	-1010.333333	1049.083984	232.486374
29506.554255	-1010.333333	1047.931641	91.075012
29506.554255	-1010.333333	1046.778320	179.247192
29506.554255	-1010.333333	1045.625977	-159.186554
29506.554255	-1010.333333	1044.472656	245.149353
29506.554255	-1010.333333	1043.319336	108.793694
29506.554255	-1010.333333	1042.166016	148.649200
29506.554255	-1010.333333	1041.012695	133.459412
29506.554255	-1010.333333	1039.858398	69.528610
29506.554255	-1010.333333	1038.704102	71.534607
29506.554255	-1010.333333	1037.549805	54.460220
29506.554255	-1010.333333	1036.394531	-87.630714
29506.554255	-1010.333333	1035.239258	128.471130
29506.554255	-1010.333333	1034.083984	-7.305121
29506.554255	-1010.333333	1032.928711	47.136681
29506.554255	-1010.333333	1031.773438	184.307724
29506.554255	-1010.333333	1030.617188	60.908207
29506.554255	-1010.333333	1029.460938	91.488693
29506.554255	-1010.333333	1028.304688	-31.169109
29506.554255	-1010.333333	1027.147461	120.647514
29506.554255	-1010.333333	1025.991211	-50.928883
29506.554255	-1010.333333	1024.833984	-142.108154
29506.554255	-1010.333333	1023.675781	18.563078
29506.554255	-1010.333333	1022.518555	105.173897
29506.554255	-1010.333333	1021.360352	63.629253
29506.554255	-1010.333333	1020.202148	25.851416
29506.554255	-1010.333333	1019.043945	-172.432541
29506.554255	-1010.333333	1017.884766	-48.230133
29506.554255	-1010.333333	1016.726563	115.938065
29506.554255	-1010.333333	1015.567383	-41.670135
29506.554255	-1010.333333	1014.407227	-32.228226
29506.554255	-1010.333333	1013.248047	-17.374508
29506.554255	-1010.333333	1012.087891	212.521484
29506.554255	-1010.333333	1010.927734	-99.603722
29506.554255	-1010.333333	1009.767578	-20.203663
29506.554255	-1010.333333	1008.606445	79.439224
29506.554255	-1010.333333	1007.446289	34.273262
29506.554255	-1010.333333	1006.285156	29.458559
29506.554255	-1010.333333	1005.123047	-151.441025
29506.554255	-1010.333333	1003.961914	92.749779
29506.554255	-1010.333333	1002.799805	-20.535845
29506.554255	-1010.333333	1001.637695	144.488800
29506.554255	-1010.333333	1000.475586	143.105576
29506.554255	-1010.333333	999.312500	-47.902050
29506.554255	-1010.333333	998.149414	24.954014
29506.554255	-1010.333333	996.986328	30.844292
29506.554255	-1010.333333	995.823242	149.138519
29506.554255	-1010.333333	994.659180	43.471550
29506.554255	-1010.333333	993.496094	136.057877
29506.554255	-1010.333333	992.332031	-204.959457
29506.554255	-1010.333333	991.166992	147.236404
29506.554255	-1010.333333	990.002930	89.769508
29506.554255	-1010.333333	988.837891	133.805984
29506.554255	-1010.333333	987.672852	-96.443863
29506.554255	-1010.333333	986.506836	396.022614
29506.554255	-1010.333333	985.341797	-160.735519
29506.554255	-1010.333333	984.175781	-31.927570
29506.554255	-1010.333333	983.009766	65.738075
29506.554255	-1010.333333	981.843750	44.727863
29506.554255	-1010.333333	980.676758	124.093948
29506.554255	-1010.333333	979.509766	45.011909
29506.554255	-1010.333333	978.342773	247.557556
29506.554255	-1010.333333	977.175781	-16.108294
29506.554255	-1010.333333	976.007813	-75.560661
29506.554255	-1010.333333	974.839844	17.046169
29506.554255	-1010.333333	973.671875	230.966736
29506.554255	-1010.333333	972.503906	10.942888
29506.554255	-1010.333333	971.334961	1.382830
29506.554255	-1010.333333	970.166016	-82.371437
29506.554255	-1010.333333	968.997070	93.059624
29506.554255	-1010.333333	967.828125	149.204010
29506.554255	-1010.333333	966.658203	251.803696
29506.554255	-1010.333333	965.488281	344.191132
29506.554255	-1010.333333	964.318359	287.615967
29506.554255	-1010.333333	963.148438	322.557343
29506.554255	-1010.333333	961.977539	345.804932
29506.554255	-1010.333333	960.806641	241.525330
29506.554255	-1010.333333	959.635742	314.899841
29506.554255	-1010.333333	958.463867	219.468933
29506.554255	-1010.333333	957.292969	262.689636
29506.554255	-1010.333333	956.121094	413.260376
29506.554255	-1010.333333	954.948242	64.486397
29506.554255	-1010.333333	953.776367	353.467468
29506.554255	-1010.333333	952.603516	256.388184
29506.554255	-1010.333333	951.430664	202.668365
29506.554255	-1010.333333	950.257813	223.532288
29506.554255	-1010.333333	949.084961	133.542068
29506.554255	-1010.333333	947.911133	-3.593215
29506.554255	-1010.333333	946.737305	104.981010
29506.554255	-1010.333333	945.563477	7.931365
29506.554255	-1010.333333	944.388672	135.700180
29506.554255	-1010.333333	943.213867	207.692947
29506.554255	-1010.333333	942.039063	278.152405
29506.554255	-1010.333333	940.864258	23.342863
29506.554255	-1010.333333	939.688477	39.710377
29506.554255	-1010.333333	938.513672	377.921143
29506.554255	-1010.333333	937.337891	362.931152
29506.554255	-1010.333333	936.161133	130.048523
29506.554255	-1010.333333	934.985352	160.779449
29506.554255	-1010.333333	933.808594	356.094360
29506.554255	-1010.333333	932.631836	594.815002
29506.554255	-1010.333333	931.454102	533.377502
29506.554255	-1010.333333	930.277344	280.950409
29506.554255	-1010.333333	929.099609	388.861237
29506.554255	-1010.333333	927.921875	458.052063
29506.554255	-1010.333333	926.743164	396.554413
29506.554255	-1010.333333	925.565430	755.733459
29506.554255	-1010.333333	924.386719	437.933105
29506.554255	-1010.333333	923.208008	272.469391
29506.554255	-1010.333333	922.028320	496.064301
29506.554255	-1010.333333	920.849609	403.047974
29506.554255	-1010.333333	919.669922	405.003265
29506.554255	-1010.333333	919.474609	358.664398
29506.554255	-1010.333333	918.309570	490.212494
29506.554255	-1010.333333	917.143555	293.297455
29506.554255	-1010.333333	915.977539	359.562683
29506.554255	-1010.333333	914.810547	249.580429
29506.554255	-1010.333333	913.644531	216.828629
29506.554255	-1010.333333	912.477539	232.312607
29506.554255	-1010.333333	911.310547	-3.097592
29506.554255	-1010.333333	910.143555	-18.986496
29506.554255	-1010.333333	908.975586	-97.585716
29506.554255	-1010.333333	907.807617	-320.820099
29506.554255	-1010.333333	906.639648	-30.634508
29506.554255	-1010.333333	905.471680	-44.210228
29506.554255	-1010.333333	904.303711	173.469757
29506.554255	-1010.333333	903.134766	-16.028486
29506.554255	-1010.333333	901.965820	189.462112
29506.554255	-1010.333333	900.796875	-9.646961
29506.554255	-1010.333333	899.626953	-37.789700
29506.554255	-1010.333333	898.457031	-169.435730
29506.554255	-1010.333333	897.287109	-202.400146
29506.554255	-1010.333333	896.117188	-112.685532
29506.554255	-1010.333333	894.947266	-85.567940
29506.554255	-1010.333333	893.776367	222.867126
29506.554255	-1010.333333	892.605469	100.793663
29506.554255	-1010.333333	891.434570	269.597687
29506.554255	-1010.333333	890.262695	5.723917
29506.554255	-1010.333333	889.091797	-178.774780
29506.554255	-1010.333333	887.919922	-144.614838
29506.554255	-1010.333333	886.748047	120.078964
29506.554255	-1010.333333	885.575195	-35.583771
29506.554255	-1010.333333	884.403320	116.095482
29506.554255	-1010.333333	883.230469	-58.751286
29506.554255	-1010.333333	882.057617	-149.555450
29506.554255	-1010.333333	880.883789	-65.192863
29506.554255	-1010.333333	879.710938	-43.257866
29506.554255	-1010.333333	878.537109	55.394054
29506.554255	-1010.333333	877.362305	-102.586578
29506.554255	-1010.333333	876.188477	-138.257874
29506.554255	-1010.333333	875.013672	-130.792862
29506.554255	-1010.333333	873.839844	-99.388252
29506.554255	-1010.333333	872.664063	-15.307236
29506.554255	-1010.333333	871.489258	-58.238495
29506.554255	-1010.333333	870.313477	-7.771234
29506.554255	-1010.333333	869.138672	-163.267136
29506.554255	-1010.333333	867.962891	-136.779358
29506.554255	-1010.333333	866.786133	-55.273659
29506.554255	-1010.333333	865.610352	-241.834335
29506.554255	-1010.333333	864.433594	38.193363
29506.554255	-1010.333333	863.256836	-404.291779
29506.554255	-1010.333333	862.079102	105.196297
29506.554255	-1010.333333	860.902344	207.985474
29506.554255	-1010.333333	859.724609	-174.560699
29506.554255	-1010.333333	858.546875	255.635315
29506.554255	-1010.333333	857.368164	21.347538
29506.554255	-1010.333333	856.190430	-145.972992
29506.554255	-1010.333333	855.011719	183.572250
29506.554255	-1010.333333	853.833008	245.500290
29506.554255	-1010.333333	852.654297	-7.776789
29506.554255	-1010.333333	851.474609	8.770730
29506.554255	-1010.333333	850.294922	6.196998
29506.554255	-1010.333333	849.115234	170.629883
29506.554255	-1010.333333	847.935547	105.957024
29506.554255	-1010.333333	846.754883	-32.648426
29506.554255	-1010.333333	845.575195	112.551903
29506.554255	-1010.333333	844.393555	128.929153
29506.554255	-1010.333333	843.212891	-81.168297
29506.554255	-1010.333333	842.032227	-148.210907
29506.554255	-1010.333333	840.850586	244.606186
29506.554255	-1010.333333	839.668945	146.512009
29506.554255	-1010.333333	838.486328	-120.662285
29506.554255	-1010.333333	837.304688	-85.337341
29506.554255	-1010.333333	836.122070	-107.186638
29506.554255	-1010.333333	834.939453	49.467110
29506.554255	-1010.333333	833.756836	294.083649
29506.554255	-1010.333333	832.573242	19.904200
29506.554255	-1010.333333	831.389648	-42.477959
29506.554255	-1010.333333	830.206055	78.268013
29506.554255	-1010.333333	829.022461	49.140896
29506.554255	-1010.333333	827.838867	74.679504
29506.554255	-1010.333333	826.654297	192.878799
29506.554255	-1010.333333	825.469727	230.210037
29506.554255	-1010.333333	824.284180	122.577309
29506.554255	-1010.333333	823.099609	41.092487
29506.554255	-1010.333333	821.914063	-40.384281
29506.554255	-1010.333333	820.728516	-3.136567
29506.554255	-1010.333333	819.542969	19.826521
29506.554255	-1010.333333	818.356445	-28.446569
29506.554255	-1010.333333	817.169922	127.339722
29506.554255	-1010.333333	815.983398	43.425289
29506.554255	-1010.333333	814.796875	-99.780083
29506.554255	-1010.333333	813.609375	-122.013222
29506.554255	-1010.333333	812.422852	38.295074
29506.554255	-1010.333333	811.235352	165.321854
29506.554255	-1010.333333	810.046875	-1.603256
29506.554255	-1010.333333	808.859375	-42.909985
29506.554255	-1010.333333	807.670898	178.724075
29506.554255	-1010.333333	806.482422	210.759613
29506.554255	-1010.333333	805.293945	221.438416
29506.554255	-1010.333333	804.104492	390.703064
29506.554255	-1010.333333	802.915039	472.286743
29506.554255	-1010.333333	801.725586	461.510345
29506.554255	-1010.333333	800.536133	360.798126
29506.554255	-1010.333333	799.345703	115.796715
29506.554255	-1010.333333	798.155273	45.874115
29506.554255	-1010.333333	796.964844	-0.407649
29506.554255	-1010.333333	795.774414	151.874741
29506.554255	-1010.333333	794.583008	114.973167
29506.554255	-1010.333333	793.392578	89.867653
29506.554255	-1010.333333	792.200195	29.295229
29506.554255	-1010.333333	791.008789	-92.703880
29506.554255	-1010.333333	789.816406	54.532631
29506.554255	-1010.333333	788.625000	232.365845
29506.554255	-1010.333333	787.432617	325.102448
29506.554255	-1010.333333	786.239258	165.226181
29506.554255	-1010.333333	785.046875	231.901993
29506.554255	-1010.333333	783.853516	-36.490383
29506.554255	-1010.333333	782.660156	-66.588486
29506.554255	-1010.333333	781.465820	2.327917
29506.554255	-1010.333333	780.272461	134.830246
29506.554255	-1010.333333	779.078125	48.014767
29506.554255	-1010.333333	777.883789	-1.100682
29506.554255	-1010.333333	776.688477	-149.203278
29506.554255	-1010.333333	775.494141	-139.454712
29506.554255	-1010.333333	774.298828	89.280998
29506.554255	-1010.333333	773.103516	-84.787766
29506.554255	-1010.333333	771.907227	-2.217461
29506.554255	-1010.333333	770.711914	49.673237
29506.554255	-1010.333333	769.515625	70.898918
29506.554255	-1010.333333	768.318359	23.834793
29506.554255	-1010.333333	767.122070	110.823555
29506.554255	-1010.333333	765.924805	-4.532567
29506.554255	-1010.333333	764.727539	16.485798
29506.554255	-1010.333333	763.530273	147.931702
29506.554255	-1010.333333	762.333008	95.944153
29506.554255	-1010.333333	761.134766	95.620560
29506.554255	-1010.333333	759.936523	71.748817
29506.554255	-1010.333333	758.738281	-121.287956
29506.554255	-1010.333333	757.540039	246.967590
29506.554255	-1010.333333	756.340820	-75.273041
29506.554255	-1010.333333	755.141602	-108.703247
29506.554255	-1010.333333	753.942383	90.167503
29506.554255	-1010.333333	752.742188	-46.643745
29506.554255	-1010.333333	751.541992	-47.393742
29506.554255	-1010.333333	750.341797	322.380707
29506.554255	-1010.333333	749.141602	262.810760
29506.554255	-1010.333333	747.941406	144.592072
29506.554255	-1010.333333	746.740234	66.206238
29506.554255	-1010.333333	745.539063	-19.238972
29506.554255	-1010.333333	744.337891	-299.182709
29506.554255	-1010.333333	743.135742	151.792084
29506.554255	-1010.333333	741.933594	-53.255550
29506.554255	-1010.333333	740.731445	22.702070
29506.554255	-1010.333333	739.529297	105.584198
29506.554255	-1010.333333	738.326172	-195.490173
29506.554255	-1010.333333	737.124023	-105.710251
29506.554255	-1010.333333	735.919922	131.353378
29506.554255	-1010.333333	734.716797	-90.213402
29506.554255	-1010.333333	733.513672	174.675171
29506.554255	-1010.333333	732.309570	62.940548
29506.554255	-1010.333333	731.105469	93.779045
29506.554255	-1010.333333	729.900391	157.248734
29506.554255	-1010.333333	728.696289	232.306702
29506.554255	-1010.333333	727.491211	-50.177341
29506.554255	-1010.333333	726.286133	164.882767
29506.554255	-1010.333333	725.080078	13.150382
29506.554255	-1010.333333	723.874023	52.852440
29506.554255	-1010.333333	722.668945	1.430965
29506.554255	-1010.333333	721.461914	267.334900
29506.554255	-1010.333333	720.255859	-24.590961
29506.554255	-1010.333333	719.048828	21.774294
29506.554255	-1010.333333	717.841797	-27.581337
29506.554255	-1010.333333	716.634766	-97.981644
29506.554255	-1010.333333	715.427734	125.311111
29506.554255	-1010.333333	714.219727	8.129742
29506.554255	-1010.333333	713.011719	-13.540401
29506.554255	-1010.333333	711.803711	-9.654901
29506.554255	-1010.333333	710.594727	50.047596
29506.554255	-1010.333333	709.385742	-97.625061
29506.554255	-1010.333333	708.176758	-0.840346
29506.554255	-1010.333333	706.967773	-111.360435
29506.554255	-1010.333333	705.758789	-10.127189
29506.554255	-1010.333333	704.548828	39.784542
29506.554255	-1010.333333	703.338867	47.714241
29506.554255	-1010.333333	702.127930	27.640656
29506.554255	-1010.333333	700.917969	-1.808094
29506.554255	-1010.333333	699.707031	156.985046
29506.554255	-1010.333333	698.496094	201.726105
29506.554255	-1010.333333	697.285156	339.319977
29506.554255	-1010.333333	696.073242	256.034210
29506.554255	-1010.333333	694.861328	37.961811
29506.554255	-1010.333333	693.649414	86.979393
29506.554255	-1010.333333	692.436523	184.646362
29506.554255	-1010.333333	691.224609	207.897675
29506.554255	-1010.333333	690.011719	300.676605
29506.554255	-1010.333333	688.798828	-63.820900
29506.554255	-1010.333333	687.584961	82.152786
29506.554255	-1010.333333	686.372070	51.692459
29506.554255	-1010.333333	685.158203	406.115875
29506.554255	-1010.333333	683.943359	340.629730
29506.554255	-1010.333333	682.729492	335.355591
29506.554255	-1010.333333	681.514648	652.135315
29506.554255	-1010.333333	680.299805	590.998474
29506.554255	-1010.333333	679.084961	460.296539
29506.554255	-1010.333333	677.869141	292.493500
29506.554255	-1010.333333	676.653320	-5.007679
29506.554255	-1010.333333	675.437500	285.579071
29506.554255	-1010.333333	674.221680	256.524231
29506.554255	-1010.333333	673.004883	65.389336
29506.554255	-1010.333333	671.789063	22.326773
29506.554255	-1010.333333	670.571289	104.092133
29506.554255	-1010.333333	669.354492	0.718057
29506.554255	-1010.333333	668.136719	119.265747
29506.554255	-1010.333333	666.919922	-60.541435
29506.554255	-1010.333333	665.701172	233.436127
29506.554255	-1010.333333	664.483398	159.787674
29506.554255	-1010.333333	663.264648	79.141319
29506.554255	-1010.333333	662.045898	139.335663
29506.554255	-1010.333333	660.827148	127.825066
29506.554255	-1010.333333	659.608398	314.787537
29506.554255	-1010.333333	658.388672	333.063354
29506.554255	-1010.333333	657.168945	171.227768
29506.554255	-1010.333333	655.949219	161.657150
29506.554255	-1010.333333	654.728516	228.120346
29506.554255	-1010.333333	653.507813	209.129440
29506.554255	-1010.333333	652.287109	81.678070
29506.554255	-1010.333333	651.066406	51.020607
29506.554255	-1010.333333	649.844727	-28.124073
29506.554255	-1010.333333	648.623047	153.080750
29506.554255	-1010.333333	647.401367	269.609253
29506.554255	-1010.333333	646.179688	-74.694214
29506.554255	-1010.333333	644.957031	-25.134352
29506.554255	-1010.333333	643.734375	70.369095
29506.554255	-1010.333333	642.511719	73.666420
29506.554255	-1010.333333	641.289063	42.354027
29506.554255	-1010.333333	640.065430	-85.681511
29506.554255	-1010.333333	638.841797	-82.613457
29506.554255	-1010.333333	637.618164	-100.329689
29506.554255	-1010.333333	636.393555	-56.040413
29506.554255	-1010.333333	635.168945	-257.853180
29506.554255	-1010.333333	633.944336	-197.619629
29506.554255	-1010.333333	632.719727	50.955101
29506.554255	-1010.333333	631.494141	37.407780
29506.554255	-1010.333333	630.269531	-33.633053
29506.554255	-1010.333333	629.042969	92.777779
29506.554255	-1010.333333	627.817383	251.212814
29506.554255	-1010.333333	626.590820	39.892876
29506.554255	-1010.333333	625.365234	232.552582
29506.554255	-1010.333333	624.137695	48.707863
29506.554255	-1010.333333	622.911133	-192.477142
29506.554255	-1010.333333	621.683594	59.515949
29506.554255	-1010.333333	620.456055	267.761322
29506.554255	-1010.333333	619.228516	-193.638153
29506.554255	-1010.333333	618.000977	-290.435089
29506.554255	-1010.333333	616.772461	-73.288269
29506.554255	-1010.333333	615.543945	-271.025543
29506.554255	-1010.333333	614.314453	-193.850601
29506.554255	-1010.333333	613.085938	-34.308819
29506.554255	-1010.333333	611.856445	-97.018021
29506.554255	-1010.333333	610.626953	-180.363342
29506.554255	-1010.333333	609.397461	139.111847
29506.554255	-1010.333333	608.166992	12.151992
29506.554255	-1010.333333	606.936523	-142.263535
29506.554255	-1010.333333	605.706055	110.495804
29506.554255	-1010.333333	604.474609	6.326815
29506.554255	-1010.333333	603.244141	110.229980
29506.554255	-1010.333333	602.012695	-7.706842
29506.554255	-1010.333333	600.780273	166.893997
29506.554255	-1010.333333	599.548828	119.742271
29506.554255	-1010.333333	598.316406	93.119095
29506.554255	-1010.333333	597.083984	210.361771
29506.554255	-1010.333333	595.851563	5.538604
29506.554255	-1010.333333	594.618164	-208.375443
29506.554255	-1010.333333	593.384766	-209.954041
29506.554255	-1010.333333	592.151367	-81.486198
29506.554255	-1010.333333	590.917969	-14.706244
29506.554255	-1010.333333	589.683594	-281.032715
29506.554255	-1010.333333	588.449219	-145.883820
29506.554255	-1010.333333	587.214844	-81.500580
29506.554255	-1010.333333	585.979492	7.899645
29506.554255	-1010.333333	584.745117	6.086068
29506.554255	-1010.333333	583.509766	138.687363
29506.554255	-1010.333333	582.273438	-72.798203
29506.554255	-1010.333333	581.038086	-161.201859
29506.554255	-1010.333333	579.801758	-56.024788
29506.554255	-1010.333333	578.565430	1.286829
29506.554255	-1010.333333	577.329102	-118.978569
29506.554255	-1010.333333	576.091797	-41.214901
29506.554255	-1010.333333	574.854492	-102.278427
29506.554255	-1010.333333	573.617188	132.407440
29506.554255	-1010.333333	572.378906	294.210602
29506.554255	-1010.333333	571.141602	492.338074
29506.554255	-1010.333333	569.903320	356.202942
29506.554255	-1010.333333	568.664063	306.493286
29506.554255	-1010.333333	567.425781	311.363342
29506.554255	-1010.333333	566.186523	336.685333
29506.554255	-1010.333333	564.947266	262.074768
29506.554255	-1010.333333	563.708008	207.952179
29506.554255	-1010.333333	562.467773	15.373195
29506.554255	-1010.333333	561.227539	122.533409
29506.554255	-1010.333333	559.987305	238.751785
29506.554255	-1010.333333	558.747070	320.919586
29506.554255	-1010.333333	557.505859	151.274261
29506.554255	-1010.333333	556.264648	70.189079
29506.554255	-1010.333333	555.023438	349.711548
29506.554255	-1010.333333	553.781250	159.874222
29506.554255	-1010.333333	552.539063	321.474060
29506.554255	-1010.333333	551.296875	136.345749
29506.554255	-1010.333333	550.054688	73.687202
29506.554255	-1010.333333	548.811523	436.935425
29506.554255	-1010.333333	547.569336	308.671600
29506.554255	-1010.333333	546.325195	508.801239
29506.554255	-1010.333333	545.082031	238.078369
29506.554255	-1010.333333	543.837891	37.681225
29506.554255	-1010.333333	542.593750	267.343964
29506.554255	-1010.333333	541.349609	6.080906
29506.554255	-1010.333333	540.105469	174.724701
29506.554255	-1010.333333	538.860352	332.054565
29506.554255	-1010.333333	537.615234	148.023087
29506.554255	-1010.333333	536.369141	196.946701
29506.554255	-1010.333333	535.124023	363.444366
29506.554255	-1010.333333	533.877930	32.908169
29506.554255	-1010.333333	532.631836	549.643860
29506.554255	-1010.333333	531.384766	27.421219
29506.554255	-1010.333333	530.138672	126.421043
29506.554255	-1010.333333	528.891602	-13.813753
29506.554255	-1010.333333	527.643555	116.922577
29506.554255	-1010.333333	526.396484	89.765358
29506.554255	-1010.333333	525.148438	405.605560
29506.554255	-1010.333333	523.900391	328.974792
29506.554255	-1010.333333	522.652344	202.875259
29506.554255	-1010.333333	521.403320	176.124008
29506.554255	-1010.333333	520.154297	-64.628601
29506.554255	-1010.333333	518.905273	152.287476
29506.554255	-1010.333333	517.656250	-108.406944
29506.554255	-1010.333333	516.406250	-26.500170
29506.554255	-1010.333333	515.156250	-151.695908
29506.554255	-1010.333333	513.906250	47.503822
29506.554255	-1010.333333	512.655273	-52.654007
29506.554255	-1010.333333	511.404297	54.405727
29506.554255	-1010.333333	510.153320	-135.461792
29506.554255	-1010.333333	508.902344	-1.180755
29506.554255	-1010.333333	507.650391	-58.007931
29506.554255	-1010.333333	506.398438	-89.945084
29506.554255	-1010.333333	505.146484	-7.078742
29506.554255	-1010.333333	503.893555	-99.439041
29506.554255	-1010.333333	502.641602	-234.313431
29506.554255	-1010.333333	501.388672	-157.810394
29506.554255	-1010.333333	500.134766	127.690544
29506.554255	-1010.333333	498.881836	96.563087
29506.554255	-1010.333333	497.627930	-1.771598
29506.554255	-1010.333333	496.374023	162.712402
29506.554255	-1010.333333	495.119141	82.635429
29506.554255	-1010.333333	493.865234	92.490944
29506.554255	-1010.333333	492.610352	133.886108
29506.554255	-1010.333333	491.355469	265.119354
29506.554255	-1010.333333	490.099609	208.078522
29506.554255	-1010.333333	488.843750	344.002991
29506.554255	-1010.333333	487.587891	775.874939
29506.554255	-1010.333333	486.332031	530.951904
29506.554255	-1010.333333	485.075195	510.315033
29506.554255	-1010.333333	483.818359	599.583435
29506.554255	-1010.333333	482.561523	435.898865
29506.554255	-1010.333333	481.304688	590.356140
29506.554255	-1010.333333	480.046875	749.360352
29506.554255	-1010.333333	478.789063	310.888977
29506.554255	-1010.333333	477.531250	398.557709
29506.554255	-1010.333333	476.272461	432.632813
29506.554255	-1010.333333	475.013672	578.653320
29506.554255	-1010.333333	473.754883	744.867249
29506.554255	-1010.333333	472.496094	562.387512
29506.554255	-1010.333333	471.236328	395.757355
29506.554255	-1010.333333	469.976563	582.391602
29506.554255	-1010.333333	468.716797	487.566559
29506.554255	-1010.333333	467.456055	511.282227
29506.554255	-1010.333333	466.196289	604.333984
29506.554255	-1010.333333	464.935547	681.825928
29506.554255	-1010.333333	463.673828	433.488922
29506.554255	-1010.333333	462.413086	743.296814
29506.554255	-1010.333333	461.151367	508.644409
29506.554255	-1010.333333	459.889648	499.496582
29506.554255	-1010.333333	458.626953	497.131317
29506.554255	-1010.333333	457.364258	646.479492
29506.554255	-1010.333333	456.101563	780.238831
29506.554255	-1010.333333	454.838867	677.759033
29506.554255	-1010.333333	453.575195	720.233215
29506.554255	-1010.333333	452.312500	544.421021
29506.554255	-1010.333333	451.047852	609.296021
29506.554255	-1010.333333	449.784180	709.824097
29506.554255	-1010.333333	448.519531	850.423706
29506.554255	-1010.333333	447.254883	995.448608
29506.554255	-1010.333333	445.990234	1115.959229
29506.554255	-1010.333333	444.725586	1125.183350
29506.554255	-1010.333333	443.459961	1270.108643
29506.554255	-1010.333333	442.194336	1243.720093
29506.554255	-1010.333333	440.927734	1297.377319
29506.554255	-1010.333333	439.662109	1262.074341
29506.554255	-1010.333333	438.395508	1266.761963
29506.554255	-1010.333333	437.127930	1124.745728
29506.554255	-1010.333333	435.861328	1002.735352
29506.554255	-1010.333333	434.593750	1340.488647
29506.554255	-1010.333333	433.326172	1158.388306
29506.554255	-1010.333333	432.058594	1335.947266
29506.554255	-1010.333333	430.790039	1182.593872
29506.554255	-1010.333333	429.521484	1188.974854
29506.554255	-1010.333333	428.252930	1408.224976
29506.554255	-1010.333333	426.984375	1412.066284
29506.554255	-1010.333333	425.714844	1650.830811
29506.554255	-1010.333333	424.445313	1383.777222
29506.554255	-1010.333333	423.174805	1362.714722
29506.554255	-1010.333333	421.905273	1704.935669
29506.554255	-1010.333333	420.634766	1601.399170
29506.554255	-1010.333333	419.364258	1619.510864
29506.554255	-1010.333333	418.092773	1714.875732
29506.554255	-1010.333333	416.822266	1249.679810
29506.554255	-1010.333333	415.550781	1641.175293
29506.554255	-1010.333333	414.278320	1624.908325
29506.554255	-1010.333333	413.006836	1659.210449
29506.554255	-1010.333333	411.734375	1361.262695
29506.554255	-1010.333333	410.461914	1374.957642
29506.554255	-1010.333333	409.188477	1153.814453
29506.554255	-1010.333333	407.916016	1184.404663
29506.554255	-1010.333333	406.642578	1243.263306
29506.554255	-1010.333333	405.368164	1288.353394
29506.554255	-1010.333333	404.094727	1016.955383
29506.554255	-1010.333333	402.820313	1321.723145
29506.554255	-1010.333333	401.545898	1093.519531
29506.554255	-1010.333333	400.270508	1293.209106
29506.554255	-1010.333333	398.996094	1381.822876
29506.554255	-1010.333333	397.720703	1617.633179
29506.554255	-1010.333333	396.444336	1651.845093
29506.554255	-1010.333333	395.168945	1872.882568
29506.554255	-1010.333333	393.892578	1810.741089
29506.554255	-1010.333333	392.616211	1626.567871
29506.554255	-1010.333333	391.339844	1624.671753
29506.554255	-1010.333333	390.062500	1888.654419
29506.554255	-1010.333333	388.785156	1772.586060
29506.554255	-1010.333333	387.507813	1576.339233
29506.554255	-1010.333333	386.229492	1317.537842
29506.554255	-1010.333333	384.951172	1454.298584
29506.554255	-1010.333333	383.672852	1118.760132
29506.554255	-1010.333333	382.394531	1420.728638
29506.554255	-1010.333333	381.115234	1459.524414
29506.554255	-1010.333333	379.835938	1158.276367
29506.554255	-1010.333333	378.556641	1416.974854
29506.554255	-1010.333333	377.277344	1441.171997
29506.554255	-1010.333333	375.997070	1404.681885
29506.554255	-1010.333333	374.716797	1586.734375
29506.554255	-1010.333333	373.435547	1373.844360
29506.554255	-1010.333333	372.155273	1049.760254
29506.554255	-1010.333333	370.874023	1260.421021
29506.554255	-1010.333333	369.591797	1500.186768
29506.554255	-1010.333333	368.310547	1022.330505
29506.554255	-1010.333333	367.028320	1037.054077
29506.554255	-1010.333333	365.746094	1111.543335
29506.554255	-1010.333333	364.463867	1269.846313
29506.554255	-1010.333333	363.180664	1097.095093
29506.554255	-1010.333333	361.897461	1124.381836
29506.554255	-1010.333333	360.614258	897.494751
29506.554255	-1010.333333	359.330078	909.889526
29506.554255	-1010.333333	358.045898	900.492249
29506.554255	-1010.333333	356.761719	1130.085083
29506.554255	-1010.333333	355.477539	1206.183105
29506.554255	-1010.333333	354.192383	1019.227844
29506.554255	-1010.333333	352.907227	900.120483
29506.554255	-1010.333333	351.622070	918.826721
29506.554255	-1010.333333	350.336914	646.039429
29506.554255	-1010.333333	349.050781	585.301819
29506.554255	-1010.333333	347.764648	878.703552
29506.554255	-1010.333333	346.477539	860.702454
29506.554255	-1010.333333	345.191406	809.361023
29506.554255	-1010.333333	343.904297	744.188782
29506.554255	-1010.333333	342.616211	691.344666
29506.554255	-1010.333333	341.329102	937.246643
29506.554255	-1010.333333	340.041016	629.069336
29506.554255	-1010.333333	338.752930	525.416687
29506.554255	-1010.333333	337.463867	842.282898
29506.554255	-1010.333333	336.175781	485.129028
29506.554255	-1010.333333	334.886719	578.802307
29506.554255	-1010.333333	333.596680	533.414490
29506.554255	-1010.333333	332.307617	547.750916
29506.554255	-1010.333333	331.017578	217.775803
29506.554255	-1010.333333	329.727539	108.800369
29506.554255	-1010.333333	328.436523	281.561340
29506.554255	-1010.333333	327.146484	81.675545
29506.554255	-1010.333333	325.855469	339.841064
29506.554255	-1010.333333	324.563477	275.206787
29506.554255	-1010.333333	323.272461	-35.645012
29506.554255	-1010.333333	321.980469	385.506958
29506.554255	-1010.333333	320.688477	-4.240377
29506.554255	-1010.333333	319.395508	84.823082
29506.554255	-1010.333333	318.103516	18.811953
29506.554255	-1010.333333	316.810547	-50.132645
29506.554255	-1010.333333	315.516602	6.276828
29506.554255	-1010.333333	314.223633	-116.587433
29506.554255	-1010.333333	312.929688	-242.762955
29506.554255	-1010.333333	311.635742	-111.229851
29506.554255	-1010.333333	310.340820	81.837547
29506.554255	-1010.333333	309.045898	-59.323147
29506.554255	-1010.333333	307.750977	-108.570534
29506.554255	-1010.333333	306.456055	42.556530
29506.554255	-1010.333333	305.160156	-86.580307
29506.554255	-1010.333333	303.865234	40.945267
29506.554255	-1010.333333	302.568359	309.204834
29506.554255	-1010.333333	301.272461	286.336884
29506.554255	-1010.333333	299.975586	627.650452
29506.554255	-1010.333333	298.678711	317.136261
