#X		#Y		#Wave		#Intensity
29607.943617	-1539.793333	1999.980469	-158.019455
29607.943617	-1539.793333	1999.016602	-108.050812
29607.943617	-1539.793333	1998.052734	-116.593819
29607.943617	-1539.793333	1997.087891	-93.124916
29607.943617	-1539.793333	1996.123047	88.705345
29607.943617	-1539.793333	1995.158203	54.758202
29607.943617	-1539.793333	1994.193359	156.861526
29607.943617	-1539.793333	1993.228516	-16.119877
29607.943617	-1539.793333	1992.262695	58.374813
29607.943617	-1539.793333	1991.297852	437.149506
29607.943617	-1539.793333	1990.332031	256.294708
29607.943617	-1539.793333	1989.366211	30.816231
29607.943617	-1539.793333	1988.399414	220.908432
29607.943617	-1539.793333	1987.433594	-98.755104
29607.943617	-1539.793333	1986.466797	-124.138374
29607.943617	-1539.793333	1985.500977	97.627739
29607.943617	-1539.793333	1984.534180	-63.995815
29607.943617	-1539.793333	1983.567383	-99.618568
29607.943617	-1539.793333	1982.599609	252.647491
29607.943617	-1539.793333	1981.632813	325.484314
29607.943617	-1539.793333	1980.665039	210.447083
29607.943617	-1539.793333	1979.697266	21.264011
29607.943617	-1539.793333	1978.729492	313.598358
29607.943617	-1539.793333	1977.761719	-134.943466
29607.943617	-1539.793333	1976.792969	80.622849
29607.943617	-1539.793333	1975.825195	180.041977
29607.943617	-1539.793333	1974.856445	163.373108
29607.943617	-1539.793333	1973.887695	112.107826
29607.943617	-1539.793333	1972.918945	63.265999
29607.943617	-1539.793333	1971.949219	105.631706
29607.943617	-1539.793333	1970.980469	36.975025
29607.943617	-1539.793333	1970.010742	79.226944
29607.943617	-1539.793333	1969.041016	64.726410
29607.943617	-1539.793333	1968.071289	-87.813995
29607.943617	-1539.793333	1967.101563	-62.935711
29607.943617	-1539.793333	1966.130859	-65.203270
29607.943617	-1539.793333	1965.161133	107.375839
29607.943617	-1539.793333	1964.190430	141.954102
29607.943617	-1539.793333	1963.219727	225.735245
29607.943617	-1539.793333	1962.249023	92.839386
29607.943617	-1539.793333	1961.277344	215.931778
29607.943617	-1539.793333	1960.306641	-52.288338
29607.943617	-1539.793333	1959.334961	100.274147
29607.943617	-1539.793333	1958.363281	-103.902069
29607.943617	-1539.793333	1957.391602	191.232285
29607.943617	-1539.793333	1956.419922	247.738113
29607.943617	-1539.793333	1955.447266	269.797607
29607.943617	-1539.793333	1954.474609	328.713318
29607.943617	-1539.793333	1953.501953	417.094696
29607.943617	-1539.793333	1952.529297	-10.534812
29607.943617	-1539.793333	1951.556641	114.728920
29607.943617	-1539.793333	1950.583984	-42.504929
29607.943617	-1539.793333	1949.610352	31.154293
29607.943617	-1539.793333	1948.636719	340.494965
29607.943617	-1539.793333	1947.663086	-8.145522
29607.943617	-1539.793333	1946.689453	-113.671982
29607.943617	-1539.793333	1945.715820	94.946190
29607.943617	-1539.793333	1944.741211	50.796570
29607.943617	-1539.793333	1943.767578	-233.708344
29607.943617	-1539.793333	1942.792969	-201.724869
29607.943617	-1539.793333	1941.818359	158.833572
29607.943617	-1539.793333	1940.842773	119.665619
29607.943617	-1539.793333	1939.868164	156.517349
29607.943617	-1539.793333	1938.892578	203.173691
29607.943617	-1539.793333	1937.916992	-127.497887
29607.943617	-1539.793333	1936.941406	156.858734
29607.943617	-1539.793333	1935.965820	-46.277332
29607.943617	-1539.793333	1934.990234	414.315125
29607.943617	-1539.793333	1934.013672	208.797379
29607.943617	-1539.793333	1933.037109	140.462204
29607.943617	-1539.793333	1932.060547	52.595097
29607.943617	-1539.793333	1931.083984	-27.875923
29607.943617	-1539.793333	1930.107422	295.385284
29607.943617	-1539.793333	1929.129883	195.373825
29607.943617	-1539.793333	1928.153320	41.621475
29607.943617	-1539.793333	1927.175781	381.872040
29607.943617	-1539.793333	1926.198242	-4.062767
29607.943617	-1539.793333	1925.219727	138.128433
29607.943617	-1539.793333	1924.242188	231.416504
29607.943617	-1539.793333	1923.263672	126.777634
29607.943617	-1539.793333	1922.285156	-19.328302
29607.943617	-1539.793333	1921.306641	159.489075
29607.943617	-1539.793333	1920.328125	377.332977
29607.943617	-1539.793333	1919.349609	18.914021
29607.943617	-1539.793333	1918.370117	185.482819
29607.943617	-1539.793333	1917.391602	186.048660
29607.943617	-1539.793333	1916.412109	-233.076324
29607.943617	-1539.793333	1915.431641	170.156265
29607.943617	-1539.793333	1914.452148	65.896049
29607.943617	-1539.793333	1913.472656	78.756798
29607.943617	-1539.793333	1912.492188	79.436295
29607.943617	-1539.793333	1911.511719	158.145660
29607.943617	-1539.793333	1910.531250	10.161531
29607.943617	-1539.793333	1909.550781	-45.145721
29607.943617	-1539.793333	1908.569336	-285.595947
29607.943617	-1539.793333	1907.588867	-180.014664
29607.943617	-1539.793333	1906.607422	244.603699
29607.943617	-1539.793333	1905.625977	-112.610146
29607.943617	-1539.793333	1904.644531	-48.475452
29607.943617	-1539.793333	1903.662109	-71.985970
29607.943617	-1539.793333	1902.680664	-90.608131
29607.943617	-1539.793333	1901.698242	-104.350060
29607.943617	-1539.793333	1900.715820	280.914856
29607.943617	-1539.793333	1899.733398	-209.630829
29607.943617	-1539.793333	1898.750000	-79.834450
29607.943617	-1539.793333	1897.767578	280.915466
29607.943617	-1539.793333	1896.784180	-73.201752
29607.943617	-1539.793333	1895.800781	68.661057
29607.943617	-1539.793333	1894.817383	-171.061707
29607.943617	-1539.793333	1893.833984	-121.558685
29607.943617	-1539.793333	1892.850586	-8.913085
29607.943617	-1539.793333	1891.866211	195.980743
29607.943617	-1539.793333	1890.881836	0.118279
29607.943617	-1539.793333	1889.897461	-49.999767
29607.943617	-1539.793333	1888.913086	-58.839474
29607.943617	-1539.793333	1887.927734	-123.504242
29607.943617	-1539.793333	1886.943359	-35.279327
29607.943617	-1539.793333	1885.958008	1.953900
29607.943617	-1539.793333	1884.972656	-60.287689
29607.943617	-1539.793333	1883.987305	-8.534698
29607.943617	-1539.793333	1883.001953	31.063118
29607.943617	-1539.793333	1882.015625	-2.097769
29607.943617	-1539.793333	1881.029297	115.013168
29607.943617	-1539.793333	1880.042969	171.480515
29607.943617	-1539.793333	1879.056641	109.185745
29607.943617	-1539.793333	1878.070313	180.129425
29607.943617	-1539.793333	1877.083984	-105.006195
29607.943617	-1539.793333	1876.096680	-60.731064
29607.943617	-1539.793333	1875.109375	-11.655222
29607.943617	-1539.793333	1874.122070	95.471893
29607.943617	-1539.793333	1873.134766	-250.038620
29607.943617	-1539.793333	1872.146484	96.588371
29607.943617	-1539.793333	1871.159180	-64.986732
29607.943617	-1539.793333	1870.170898	12.928270
29607.943617	-1539.793333	1869.182617	-85.758972
29607.943617	-1539.793333	1868.194336	-15.188542
29607.943617	-1539.793333	1867.205078	11.801234
29607.943617	-1539.793333	1866.216797	-115.939491
29607.943617	-1539.793333	1865.227539	12.480391
29607.943617	-1539.793333	1864.238281	-66.970779
29607.943617	-1539.793333	1863.249023	-119.860817
29607.943617	-1539.793333	1862.259766	-71.335640
29607.943617	-1539.793333	1861.269531	119.594307
29607.943617	-1539.793333	1860.279297	-44.493095
29607.943617	-1539.793333	1859.290039	228.341507
29607.943617	-1539.793333	1858.298828	112.465874
29607.943617	-1539.793333	1857.308594	160.665726
29607.943617	-1539.793333	1856.318359	-97.585052
29607.943617	-1539.793333	1855.327148	-15.701437
29607.943617	-1539.793333	1854.335938	63.685745
29607.943617	-1539.793333	1853.344727	-1.676823
29607.943617	-1539.793333	1852.353516	84.797394
29607.943617	-1539.793333	1851.362305	330.255493
29607.943617	-1539.793333	1850.370117	124.936554
29607.943617	-1539.793333	1849.377930	-171.916916
29607.943617	-1539.793333	1848.385742	73.266037
29607.943617	-1539.793333	1847.393555	152.112991
29607.943617	-1539.793333	1846.401367	-154.400787
29607.943617	-1539.793333	1845.408203	215.631485
29607.943617	-1539.793333	1844.415039	224.403824
29607.943617	-1539.793333	1843.421875	69.457947
29607.943617	-1539.793333	1842.428711	44.429279
29607.943617	-1539.793333	1841.435547	-110.566231
29607.943617	-1539.793333	1840.441406	227.487305
29607.943617	-1539.793333	1839.448242	48.321888
29607.943617	-1539.793333	1838.454102	-80.365425
29607.943617	-1539.793333	1837.459961	269.285919
29607.943617	-1539.793333	1836.464844	25.082609
29607.943617	-1539.793333	1835.470703	25.999447
29607.943617	-1539.793333	1834.475586	-160.563934
29607.943617	-1539.793333	1833.480469	116.454552
29607.943617	-1539.793333	1832.485352	59.465874
29607.943617	-1539.793333	1831.490234	81.654449
29607.943617	-1539.793333	1830.495117	317.407837
29607.943617	-1539.793333	1829.499023	161.745163
29607.943617	-1539.793333	1828.502930	231.633224
29607.943617	-1539.793333	1827.506836	275.012390
29607.943617	-1539.793333	1826.510742	275.108185
29607.943617	-1539.793333	1825.513672	71.240166
29607.943617	-1539.793333	1824.517578	61.598015
29607.943617	-1539.793333	1823.520508	51.862930
29607.943617	-1539.793333	1822.523438	-51.448822
29607.943617	-1539.793333	1821.526367	70.466469
29607.943617	-1539.793333	1820.529297	338.406677
29607.943617	-1539.793333	1819.531250	371.360901
29607.943617	-1539.793333	1818.533203	353.906372
29607.943617	-1539.793333	1817.535156	99.270699
29607.943617	-1539.793333	1816.537109	359.421753
29607.943617	-1539.793333	1815.539063	437.434814
29607.943617	-1539.793333	1814.540039	-54.332237
29607.943617	-1539.793333	1813.541992	102.496017
29607.943617	-1539.793333	1812.542969	189.770828
29607.943617	-1539.793333	1811.543945	324.747955
29607.943617	-1539.793333	1810.543945	-159.871338
29607.943617	-1539.793333	1809.544922	29.908367
29607.943617	-1539.793333	1808.544922	143.000122
29607.943617	-1539.793333	1807.544922	353.941406
29607.943617	-1539.793333	1806.544922	144.084991
29607.943617	-1539.793333	1805.544922	177.914597
29607.943617	-1539.793333	1804.544922	-5.769645
29607.943617	-1539.793333	1803.543945	-79.634232
29607.943617	-1539.793333	1802.542969	89.997574
29607.943617	-1539.793333	1801.541992	-261.038879
29607.943617	-1539.793333	1800.541016	323.699158
29607.943617	-1539.793333	1799.539063	399.732361
29607.943617	-1539.793333	1798.538086	79.517662
29607.943617	-1539.793333	1797.536133	162.497238
29607.943617	-1539.793333	1796.534180	-26.596706
29607.943617	-1539.793333	1795.532227	-117.954124
29607.943617	-1539.793333	1794.529297	281.787018
29607.943617	-1539.793333	1793.527344	-48.223789
29607.943617	-1539.793333	1792.524414	134.220306
29607.943617	-1539.793333	1791.521484	116.299385
29607.943617	-1539.793333	1790.518555	160.214249
29607.943617	-1539.793333	1789.514648	132.519836
29607.943617	-1539.793333	1788.511719	26.130495
29607.943617	-1539.793333	1787.507813	10.140766
29607.943617	-1539.793333	1786.503906	-55.960022
29607.943617	-1539.793333	1785.500000	-93.592064
29607.943617	-1539.793333	1784.496094	68.582283
29607.943617	-1539.793333	1783.491211	278.152557
29607.943617	-1539.793333	1782.486328	473.249237
29607.943617	-1539.793333	1781.481445	161.518646
29607.943617	-1539.793333	1780.476563	108.995735
29607.943617	-1539.793333	1779.471680	351.201874
29607.943617	-1539.793333	1778.465820	262.751495
29607.943617	-1539.793333	1777.460938	219.380035
29607.943617	-1539.793333	1776.455078	154.507919
29607.943617	-1539.793333	1775.449219	213.079056
29607.943617	-1539.793333	1774.442383	162.227081
29607.943617	-1539.793333	1773.436523	170.657166
29607.943617	-1539.793333	1772.429688	50.724419
29607.943617	-1539.793333	1771.422852	336.678009
29607.943617	-1539.793333	1770.416016	-27.966410
29607.943617	-1539.793333	1769.409180	10.840055
29607.943617	-1539.793333	1768.402344	101.706856
29607.943617	-1539.793333	1767.394531	-170.549438
29607.943617	-1539.793333	1766.386719	228.393265
29607.943617	-1539.793333	1765.378906	53.195259
29607.943617	-1539.793333	1764.371094	141.108673
29607.943617	-1539.793333	1763.362305	67.666481
29607.943617	-1539.793333	1762.354492	160.037537
29607.943617	-1539.793333	1761.345703	76.894981
29607.943617	-1539.793333	1760.336914	301.641815
29607.943617	-1539.793333	1759.328125	-2.024473
29607.943617	-1539.793333	1758.318359	99.247047
29607.943617	-1539.793333	1757.308594	292.701538
29607.943617	-1539.793333	1756.299805	194.797501
29607.943617	-1539.793333	1755.290039	-324.500122
29607.943617	-1539.793333	1754.279297	256.632874
29607.943617	-1539.793333	1753.269531	101.633194
29607.943617	-1539.793333	1752.258789	34.080334
29607.943617	-1539.793333	1751.249023	120.173157
29607.943617	-1539.793333	1750.238281	146.984924
29607.943617	-1539.793333	1749.226563	60.173985
29607.943617	-1539.793333	1748.215820	48.930134
29607.943617	-1539.793333	1747.204102	219.525269
29607.943617	-1539.793333	1746.193359	73.339104
29607.943617	-1539.793333	1745.181641	90.076752
29607.943617	-1539.793333	1744.168945	-127.148285
29607.943617	-1539.793333	1743.157227	-82.275894
29607.943617	-1539.793333	1742.144531	-221.707031
29607.943617	-1539.793333	1741.132813	-285.650635
29607.943617	-1539.793333	1740.120117	-35.810825
29607.943617	-1539.793333	1739.106445	-121.261459
29607.943617	-1539.793333	1738.093750	-265.757690
29607.943617	-1539.793333	1737.080078	0.089589
29607.943617	-1539.793333	1736.067383	228.004181
29607.943617	-1539.793333	1735.053711	193.988098
29607.943617	-1539.793333	1734.040039	34.930046
29607.943617	-1539.793333	1733.025391	210.489273
29607.943617	-1539.793333	1732.011719	-47.703262
29607.943617	-1539.793333	1730.997070	-11.419739
29607.943617	-1539.793333	1729.982422	-158.993622
29607.943617	-1539.793333	1728.967773	-19.297152
29607.943617	-1539.793333	1727.952148	-49.310139
29607.943617	-1539.793333	1726.937500	-48.800976
29607.943617	-1539.793333	1725.921875	-333.218506
29607.943617	-1539.793333	1724.906250	-130.495209
29607.943617	-1539.793333	1723.890625	-92.655594
29607.943617	-1539.793333	1722.875000	145.021942
29607.943617	-1539.793333	1721.858398	6.174335
29607.943617	-1539.793333	1720.841797	-36.308247
29607.943617	-1539.793333	1719.825195	-8.344754
29607.943617	-1539.793333	1718.808594	176.999390
29607.943617	-1539.793333	1717.791992	-227.720139
29607.943617	-1539.793333	1716.774414	-9.722269
29607.943617	-1539.793333	1715.756836	-36.229561
29607.943617	-1539.793333	1714.739258	47.571518
29607.943617	-1539.793333	1713.721680	30.266014
29607.943617	-1539.793333	1712.704102	156.093277
29607.943617	-1539.793333	1711.685547	213.687531
29607.943617	-1539.793333	1710.667969	343.941711
29607.943617	-1539.793333	1709.649414	-42.206963
29607.943617	-1539.793333	1708.630859	200.461075
29607.943617	-1539.793333	1707.611328	72.314178
29607.943617	-1539.793333	1706.592773	-48.818539
29607.943617	-1539.793333	1705.573242	-193.457382
29607.943617	-1539.793333	1704.553711	205.756195
29607.943617	-1539.793333	1703.534180	234.399551
29607.943617	-1539.793333	1702.513672	328.547791
29607.943617	-1539.793333	1701.494141	-13.197672
29607.943617	-1539.793333	1700.473633	235.403885
29607.943617	-1539.793333	1699.453125	57.572773
29607.943617	-1539.793333	1698.432617	221.607132
29607.943617	-1539.793333	1697.412109	-225.544525
29607.943617	-1539.793333	1696.390625	247.286331
29607.943617	-1539.793333	1695.369141	144.150391
29607.943617	-1539.793333	1694.347656	487.888824
29607.943617	-1539.793333	1693.326172	300.383759
29607.943617	-1539.793333	1692.304688	-53.185719
29607.943617	-1539.793333	1691.282227	425.791992
29607.943617	-1539.793333	1690.260742	-40.029362
29607.943617	-1539.793333	1689.238281	188.501785
29607.943617	-1539.793333	1688.214844	178.474503
29607.943617	-1539.793333	1687.192383	402.072205
29607.943617	-1539.793333	1686.168945	151.246933
29607.943617	-1539.793333	1685.146484	302.229218
29607.943617	-1539.793333	1684.123047	77.084152
29607.943617	-1539.793333	1683.099609	241.892624
29607.943617	-1539.793333	1682.075195	119.424034
29607.943617	-1539.793333	1681.051758	473.098816
29607.943617	-1539.793333	1680.027344	411.192657
29607.943617	-1539.793333	1679.002930	437.913574
29607.943617	-1539.793333	1677.978516	289.624390
29607.943617	-1539.793333	1676.953125	414.186127
29607.943617	-1539.793333	1675.928711	461.722809
29607.943617	-1539.793333	1674.903320	364.634766
29607.943617	-1539.793333	1673.877930	579.868530
29607.943617	-1539.793333	1672.852539	543.290833
29607.943617	-1539.793333	1671.826172	434.438385
29607.943617	-1539.793333	1670.800781	682.013672
29607.943617	-1539.793333	1669.774414	549.801575
29607.943617	-1539.793333	1668.748047	629.500732
29607.943617	-1539.793333	1667.721680	532.192749
29607.943617	-1539.793333	1666.694336	679.273621
29607.943617	-1539.793333	1665.667969	775.082825
29607.943617	-1539.793333	1664.640625	700.946045
29607.943617	-1539.793333	1663.613281	878.052307
29607.943617	-1539.793333	1662.585938	875.963684
29607.943617	-1539.793333	1661.557617	1104.046875
29607.943617	-1539.793333	1660.530273	760.084961
29607.943617	-1539.793333	1659.501953	1322.782227
29607.943617	-1539.793333	1658.473633	1097.369019
29607.943617	-1539.793333	1657.444336	1067.186401
29607.943617	-1539.793333	1656.416016	1234.486450
29607.943617	-1539.793333	1655.386719	1255.348389
29607.943617	-1539.793333	1654.358398	1540.946167
29607.943617	-1539.793333	1653.328125	1422.376221
29607.943617	-1539.793333	1652.298828	1085.642944
29607.943617	-1539.793333	1651.269531	1484.769165
29607.943617	-1539.793333	1650.239258	1412.646606
29607.943617	-1539.793333	1649.208984	1456.545044
29607.943617	-1539.793333	1648.178711	1444.747070
29607.943617	-1539.793333	1647.148438	1841.117554
29607.943617	-1539.793333	1646.117188	1989.206909
29607.943617	-1539.793333	1645.086914	1671.284546
29607.943617	-1539.793333	1644.055664	1930.597656
29607.943617	-1539.793333	1643.024414	2108.701172
29607.943617	-1539.793333	1641.992188	1980.885010
29607.943617	-1539.793333	1640.960938	2114.899658
29607.943617	-1539.793333	1639.928711	2119.150635
29607.943617	-1539.793333	1638.896484	2484.633545
29607.943617	-1539.793333	1637.864258	2148.502686
29607.943617	-1539.793333	1636.832031	2377.286865
29607.943617	-1539.793333	1635.798828	2281.983643
29607.943617	-1539.793333	1634.766602	2080.317383
29607.943617	-1539.793333	1633.733398	2450.110107
29607.943617	-1539.793333	1632.699219	2391.875000
29607.943617	-1539.793333	1631.666016	2495.568848
29607.943617	-1539.793333	1630.632813	2647.792969
29607.943617	-1539.793333	1629.598633	2836.941406
29607.943617	-1539.793333	1628.564453	2880.439697
29607.943617	-1539.793333	1627.530273	3168.871338
29607.943617	-1539.793333	1626.495117	3228.488037
29607.943617	-1539.793333	1625.460938	3544.508301
29607.943617	-1539.793333	1624.425781	3604.083984
29607.943617	-1539.793333	1623.390625	3871.460938
29607.943617	-1539.793333	1622.355469	3737.105469
29607.943617	-1539.793333	1621.319336	3810.531250
29607.943617	-1539.793333	1620.284180	3655.540039
29607.943617	-1539.793333	1619.248047	3987.409424
29607.943617	-1539.793333	1618.211914	4007.799072
29607.943617	-1539.793333	1617.174805	4083.548584
29607.943617	-1539.793333	1616.138672	4143.188477
29607.943617	-1539.793333	1615.101563	4394.164063
29607.943617	-1539.793333	1614.065430	4294.776367
29607.943617	-1539.793333	1613.027344	4271.477051
29607.943617	-1539.793333	1611.990234	4149.185547
29607.943617	-1539.793333	1610.953125	3796.647217
29607.943617	-1539.793333	1609.915039	3976.269531
29607.943617	-1539.793333	1608.876953	4015.416504
29607.943617	-1539.793333	1607.838867	4165.104980
29607.943617	-1539.793333	1606.800781	4121.450195
29607.943617	-1539.793333	1605.761719	4301.067871
29607.943617	-1539.793333	1604.723633	4455.383301
29607.943617	-1539.793333	1603.684570	4352.044434
29607.943617	-1539.793333	1602.644531	4260.289063
29607.943617	-1539.793333	1601.605469	4357.203125
29607.943617	-1539.793333	1600.566406	4520.812012
29607.943617	-1539.793333	1599.526367	4555.688965
29607.943617	-1539.793333	1598.486328	4268.891113
29607.943617	-1539.793333	1597.446289	4189.058594
29607.943617	-1539.793333	1596.405273	4095.528564
29607.943617	-1539.793333	1595.365234	4236.388672
29607.943617	-1539.793333	1594.324219	4216.509277
29607.943617	-1539.793333	1593.283203	3941.878662
29607.943617	-1539.793333	1592.242188	4255.046875
29607.943617	-1539.793333	1591.200195	4093.105225
29607.943617	-1539.793333	1590.159180	4009.334229
29607.943617	-1539.793333	1589.117188	4217.001465
29607.943617	-1539.793333	1588.075195	4027.879883
29607.943617	-1539.793333	1587.032227	3893.935791
29607.943617	-1539.793333	1585.990234	4399.804688
29607.943617	-1539.793333	1584.947266	3906.131348
29607.943617	-1539.793333	1583.904297	4072.772461
29607.943617	-1539.793333	1582.861328	3934.692383
29607.943617	-1539.793333	1581.818359	3975.446777
29607.943617	-1539.793333	1580.775391	3878.849609
29607.943617	-1539.793333	1579.731445	3819.009033
29607.943617	-1539.793333	1578.687500	3960.767090
29607.943617	-1539.793333	1577.643555	3942.330078
29607.943617	-1539.793333	1576.598633	3676.808350
29607.943617	-1539.793333	1575.554688	3706.684814
29607.943617	-1539.793333	1574.509766	3315.688232
29607.943617	-1539.793333	1573.464844	3597.412109
29607.943617	-1539.793333	1572.419922	3700.756592
29607.943617	-1539.793333	1571.374023	3390.310547
29607.943617	-1539.793333	1570.329102	3041.247070
29607.943617	-1539.793333	1569.283203	3099.233887
29607.943617	-1539.793333	1568.237305	3346.965332
29607.943617	-1539.793333	1567.191406	3117.227783
29607.943617	-1539.793333	1566.144531	3191.470703
29607.943617	-1539.793333	1565.098633	2984.914307
29607.943617	-1539.793333	1564.051758	3219.209961
29607.943617	-1539.793333	1563.004883	3092.844482
29607.943617	-1539.793333	1561.957031	2818.277344
29607.943617	-1539.793333	1560.910156	3098.456299
29607.943617	-1539.793333	1559.862305	2643.996826
29607.943617	-1539.793333	1558.814453	2956.260010
29607.943617	-1539.793333	1557.766602	2584.350342
29607.943617	-1539.793333	1556.718750	2322.157715
29607.943617	-1539.793333	1555.669922	2620.976074
29607.943617	-1539.793333	1554.621094	2489.031738
29607.943617	-1539.793333	1553.573242	2676.305908
29607.943617	-1539.793333	1552.523438	2453.508789
29607.943617	-1539.793333	1551.474609	2306.112305
29607.943617	-1539.793333	1550.424805	2177.110107
29607.943617	-1539.793333	1549.375000	2134.817139
29607.943617	-1539.793333	1548.325195	2083.564941
29607.943617	-1539.793333	1547.275391	1556.764404
29607.943617	-1539.793333	1546.225586	1747.133423
29607.943617	-1539.793333	1545.174805	1794.215210
29607.943617	-1539.793333	1544.124023	1777.720703
29607.943617	-1539.793333	1543.073242	1927.395020
29607.943617	-1539.793333	1542.022461	1745.166870
29607.943617	-1539.793333	1540.970703	1754.105225
29607.943617	-1539.793333	1539.919922	1822.289917
29607.943617	-1539.793333	1538.868164	2013.293701
29607.943617	-1539.793333	1537.815430	2118.014404
29607.943617	-1539.793333	1536.763672	1770.800293
29607.943617	-1539.793333	1535.710938	2014.359741
29607.943617	-1539.793333	1534.659180	2221.648193
29607.943617	-1539.793333	1533.606445	2113.423096
29607.943617	-1539.793333	1532.552734	1671.716919
29607.943617	-1539.793333	1531.500000	2022.353271
29607.943617	-1539.793333	1530.446289	1973.661133
29607.943617	-1539.793333	1529.393555	1968.250244
29607.943617	-1539.793333	1528.338867	1479.883179
29607.943617	-1539.793333	1527.285156	1502.078247
29607.943617	-1539.793333	1526.231445	1708.054321
29607.943617	-1539.793333	1525.176758	1329.290649
29607.943617	-1539.793333	1524.122070	1179.721924
29607.943617	-1539.793333	1523.067383	1105.137817
29607.943617	-1539.793333	1522.012695	1341.093872
29607.943617	-1539.793333	1520.957031	899.901672
29607.943617	-1539.793333	1519.901367	882.493408
29607.943617	-1539.793333	1518.845703	641.115845
29607.943617	-1539.793333	1517.790039	730.472717
29607.943617	-1539.793333	1516.734375	632.117371
29607.943617	-1539.793333	1515.677734	450.235352
29607.943617	-1539.793333	1514.621094	268.589905
29607.943617	-1539.793333	1513.564453	159.554733
29607.943617	-1539.793333	1512.507813	89.167458
29607.943617	-1539.793333	1511.450195	233.748962
29607.943617	-1539.793333	1510.393555	204.393738
29607.943617	-1539.793333	1509.335938	116.448120
29607.943617	-1539.793333	1508.278320	-176.909592
29607.943617	-1539.793333	1507.219727	81.220116
29607.943617	-1539.793333	1506.162109	154.215622
29607.943617	-1539.793333	1505.103516	134.758438
29607.943617	-1539.793333	1504.044922	208.045700
29607.943617	-1539.793333	1502.986328	-197.068649
29607.943617	-1539.793333	1501.926758	-206.914780
29607.943617	-1539.793333	1500.868164	-128.580887
29607.943617	-1539.793333	1499.808594	-9.504971
29607.943617	-1539.793333	1498.749023	-88.787682
29607.943617	-1539.793333	1497.688477	249.309753
29607.943617	-1539.793333	1496.628906	17.039595
29607.943617	-1539.793333	1495.568359	-43.654079
29607.943617	-1539.793333	1494.507813	-131.194870
29607.943617	-1539.793333	1493.447266	-200.500412
29607.943617	-1539.793333	1492.386719	59.304562
29607.943617	-1539.793333	1491.325195	51.147240
29607.943617	-1539.793333	1490.263672	34.161888
29607.943617	-1539.793333	1489.202148	62.387833
29607.943617	-1539.793333	1488.140625	-8.266480
29607.943617	-1539.793333	1487.079102	333.138641
29607.943617	-1539.793333	1486.016602	127.802567
29607.943617	-1539.793333	1484.954102	122.944649
29607.943617	-1539.793333	1483.891602	111.520134
29607.943617	-1539.793333	1482.829102	178.994049
29607.943617	-1539.793333	1481.765625	80.251938
29607.943617	-1539.793333	1480.702148	512.231140
29607.943617	-1539.793333	1479.638672	328.457214
29607.943617	-1539.793333	1478.575195	515.680237
29607.943617	-1539.793333	1477.511719	512.064392
29607.943617	-1539.793333	1476.447266	791.673706
29607.943617	-1539.793333	1475.382813	343.938751
29607.943617	-1539.793333	1474.318359	473.400665
29607.943617	-1539.793333	1473.253906	318.004730
29607.943617	-1539.793333	1472.189453	862.942444
29607.943617	-1539.793333	1471.124023	669.889893
29607.943617	-1539.793333	1470.058594	596.145935
29607.943617	-1539.793333	1468.993164	746.620728
29607.943617	-1539.793333	1467.927734	556.618896
29607.943617	-1539.793333	1466.861328	696.301575
29607.943617	-1539.793333	1465.794922	538.234436
29607.943617	-1539.793333	1464.728516	832.571655
29607.943617	-1539.793333	1463.662109	959.713684
29607.943617	-1539.793333	1462.594727	775.605286
29607.943617	-1539.793333	1461.528320	1050.417114
29607.943617	-1539.793333	1460.460938	1053.738525
29607.943617	-1539.793333	1459.393555	1031.887817
29607.943617	-1539.793333	1458.326172	1121.339600
29607.943617	-1539.793333	1457.257813	1282.330688
29607.943617	-1539.793333	1456.189453	1334.096802
29607.943617	-1539.793333	1455.121094	1284.114502
29607.943617	-1539.793333	1454.052734	1108.342407
29607.943617	-1539.793333	1452.984375	1277.059570
29607.943617	-1539.793333	1451.915039	1548.654053
29607.943617	-1539.793333	1450.845703	1315.874390
29607.943617	-1539.793333	1449.776367	1418.905884
29607.943617	-1539.793333	1448.707031	1336.666260
29607.943617	-1539.793333	1447.636719	1205.090942
29607.943617	-1539.793333	1446.567383	1444.370850
29607.943617	-1539.793333	1445.497070	1410.056885
29607.943617	-1539.793333	1444.425781	1273.268433
29607.943617	-1539.793333	1443.355469	1301.535278
29607.943617	-1539.793333	1442.285156	1372.494141
29607.943617	-1539.793333	1441.213867	1794.593262
29607.943617	-1539.793333	1440.142578	1752.667236
29607.943617	-1539.793333	1439.070313	1178.672241
29607.943617	-1539.793333	1437.999023	1718.616821
29607.943617	-1539.793333	1436.926758	1477.630615
29607.943617	-1539.793333	1435.854492	1349.569214
29607.943617	-1539.793333	1434.782227	1489.508179
29607.943617	-1539.793333	1433.709961	1372.390625
29607.943617	-1539.793333	1432.636719	1503.171509
29607.943617	-1539.793333	1431.563477	1364.580566
29607.943617	-1539.793333	1430.490234	1300.064819
29607.943617	-1539.793333	1429.416992	1314.738770
29607.943617	-1539.793333	1428.343750	1396.479004
29607.943617	-1539.793333	1427.269531	1208.834961
29607.943617	-1539.793333	1426.195313	1183.086548
29607.943617	-1539.793333	1425.121094	1518.100220
29607.943617	-1539.793333	1424.046875	1195.026001
29607.943617	-1539.793333	1422.971680	1579.552612
29607.943617	-1539.793333	1421.896484	1224.031250
29607.943617	-1539.793333	1420.821289	1451.320923
29607.943617	-1539.793333	1419.746094	1402.805664
29607.943617	-1539.793333	1418.669922	1690.635986
29607.943617	-1539.793333	1417.594727	1970.470093
29607.943617	-1539.793333	1416.518555	1970.248291
29607.943617	-1539.793333	1415.442383	1535.004517
29607.943617	-1539.793333	1414.365234	1813.274414
29607.943617	-1539.793333	1413.289063	1588.504272
29607.943617	-1539.793333	1412.211914	1968.440186
29607.943617	-1539.793333	1411.134766	1852.414063
29607.943617	-1539.793333	1410.057617	1529.839355
29607.943617	-1539.793333	1408.979492	1759.920410
29607.943617	-1539.793333	1407.902344	2001.709473
29607.943617	-1539.793333	1406.824219	1797.385376
29607.943617	-1539.793333	1405.746094	1639.496460
29607.943617	-1539.793333	1404.666992	1707.427246
29607.943617	-1539.793333	1403.588867	1799.335938
29607.943617	-1539.793333	1402.509766	1828.129517
29607.943617	-1539.793333	1401.430664	1752.777222
29607.943617	-1539.793333	1400.351563	1820.194214
29607.943617	-1539.793333	1399.271484	2027.931885
29607.943617	-1539.793333	1398.192383	1924.469238
29607.943617	-1539.793333	1397.112305	1804.698975
29607.943617	-1539.793333	1396.031250	1970.811890
29607.943617	-1539.793333	1394.951172	1899.460205
29607.943617	-1539.793333	1393.871094	2100.949219
29607.943617	-1539.793333	1392.790039	1989.704346
29607.943617	-1539.793333	1391.708984	1878.228271
29607.943617	-1539.793333	1390.626953	2113.272705
29607.943617	-1539.793333	1389.545898	2398.090088
29607.943617	-1539.793333	1388.463867	2186.625488
29607.943617	-1539.793333	1387.381836	1839.686279
29607.943617	-1539.793333	1386.299805	2484.361572
29607.943617	-1539.793333	1385.217773	2242.919678
29607.943617	-1539.793333	1384.134766	2115.665771
29607.943617	-1539.793333	1383.051758	2221.951416
29607.943617	-1539.793333	1381.968750	2217.808838
29607.943617	-1539.793333	1380.885742	2111.293701
29607.943617	-1539.793333	1379.802734	2141.733154
29607.943617	-1539.793333	1378.718750	1979.366455
29607.943617	-1539.793333	1377.634766	2036.751465
29607.943617	-1539.793333	1376.550781	1918.199707
29607.943617	-1539.793333	1375.465820	2138.249756
29607.943617	-1539.793333	1374.381836	1983.270752
29607.943617	-1539.793333	1373.296875	1755.973633
29607.943617	-1539.793333	1372.211914	1936.833740
29607.943617	-1539.793333	1371.126953	2057.795166
29607.943617	-1539.793333	1370.041016	2019.172363
29607.943617	-1539.793333	1368.955078	2011.008423
29607.943617	-1539.793333	1367.869141	2092.147949
29607.943617	-1539.793333	1366.783203	2165.691650
29607.943617	-1539.793333	1365.697266	2183.730225
29607.943617	-1539.793333	1364.610352	2187.176270
29607.943617	-1539.793333	1363.523438	1958.073975
29607.943617	-1539.793333	1362.436523	1731.739014
29607.943617	-1539.793333	1361.349609	1932.611450
29607.943617	-1539.793333	1360.261719	1757.717773
29607.943617	-1539.793333	1359.174805	2231.863525
29607.943617	-1539.793333	1358.086914	2024.596558
29607.943617	-1539.793333	1356.998047	2178.193604
29607.943617	-1539.793333	1355.910156	1800.302979
29607.943617	-1539.793333	1354.821289	1693.303589
29607.943617	-1539.793333	1353.732422	1853.084473
29607.943617	-1539.793333	1352.643555	1653.091675
29607.943617	-1539.793333	1351.554688	1666.181763
29607.943617	-1539.793333	1350.464844	1562.694214
29607.943617	-1539.793333	1349.375000	1513.298950
29607.943617	-1539.793333	1348.285156	1623.789917
29607.943617	-1539.793333	1347.195313	1587.581787
29607.943617	-1539.793333	1346.105469	1523.984131
29607.943617	-1539.793333	1345.014648	2094.862305
29607.943617	-1539.793333	1343.923828	1742.690674
29607.943617	-1539.793333	1342.833008	1709.979614
29607.943617	-1539.793333	1341.741211	1958.007202
29607.943617	-1539.793333	1340.650391	1897.274536
29607.943617	-1539.793333	1339.558594	1963.051636
29607.943617	-1539.793333	1338.466797	1707.167725
29607.943617	-1539.793333	1337.374023	1619.510376
29607.943617	-1539.793333	1336.282227	1736.935547
29607.943617	-1539.793333	1335.189453	1676.792236
29607.943617	-1539.793333	1334.096680	1898.383545
29607.943617	-1539.793333	1333.003906	1585.559937
29607.943617	-1539.793333	1331.910156	1646.201782
29607.943617	-1539.793333	1330.817383	1389.117188
29607.943617	-1539.793333	1329.723633	1686.247681
29607.943617	-1539.793333	1328.629883	1378.392212
29607.943617	-1539.793333	1327.535156	1139.896240
29607.943617	-1539.793333	1326.441406	1270.746948
29607.943617	-1539.793333	1325.346680	1527.966675
29607.943617	-1539.793333	1324.251953	1211.020020
29607.943617	-1539.793333	1323.156250	1583.655029
29607.943617	-1539.793333	1322.061523	926.037964
29607.943617	-1539.793333	1320.965820	1184.437866
29607.943617	-1539.793333	1319.870117	1210.949829
29607.943617	-1539.793333	1318.774414	1194.533569
29607.943617	-1539.793333	1317.678711	1322.127319
29607.943617	-1539.793333	1316.582031	1248.878174
29607.943617	-1539.793333	1315.485352	1201.269531
29607.943617	-1539.793333	1314.388672	1280.202515
29607.943617	-1539.793333	1313.291016	963.867432
29607.943617	-1539.793333	1312.194336	1321.454346
29607.943617	-1539.793333	1311.096680	1204.876343
29607.943617	-1539.793333	1309.999023	1336.393677
29607.943617	-1539.793333	1308.901367	1350.169434
29607.943617	-1539.793333	1307.802734	1361.931274
29607.943617	-1539.793333	1306.705078	1746.319580
29607.943617	-1539.793333	1305.606445	1436.301147
29607.943617	-1539.793333	1304.506836	1562.323853
29607.943617	-1539.793333	1303.408203	1759.065063
29607.943617	-1539.793333	1302.308594	1508.298462
29607.943617	-1539.793333	1301.208984	1706.082520
29607.943617	-1539.793333	1300.109375	1539.808716
29607.943617	-1539.793333	1299.009766	1532.960327
29607.943617	-1539.793333	1297.909180	1522.093506
29607.943617	-1539.793333	1296.808594	1385.434814
29607.943617	-1539.793333	1295.708008	1658.434082
29607.943617	-1539.793333	1294.607422	1576.611816
29607.943617	-1539.793333	1293.506836	1131.527222
29607.943617	-1539.793333	1292.405273	1242.514282
29607.943617	-1539.793333	1291.303711	1246.435913
29607.943617	-1539.793333	1290.202148	1118.046753
29607.943617	-1539.793333	1289.099609	841.239502
29607.943617	-1539.793333	1287.998047	1081.629517
29607.943617	-1539.793333	1286.895508	1149.097290
29607.943617	-1539.793333	1285.792969	1053.433105
29607.943617	-1539.793333	1284.689453	932.113892
29607.943617	-1539.793333	1283.586914	1002.541748
29607.943617	-1539.793333	1282.483398	1190.818115
29607.943617	-1539.793333	1281.379883	1073.473633
29607.943617	-1539.793333	1280.276367	1049.626099
29607.943617	-1539.793333	1279.171875	1060.113892
29607.943617	-1539.793333	1278.067383	1101.463745
29607.943617	-1539.793333	1276.962891	1134.834351
29607.943617	-1539.793333	1275.858398	1217.841919
29607.943617	-1539.793333	1274.753906	1254.176636
29607.943617	-1539.793333	1273.648438	1264.819580
29607.943617	-1539.793333	1272.542969	1167.355835
29607.943617	-1539.793333	1271.437500	1190.913086
29607.943617	-1539.793333	1270.331055	1114.564331
29607.943617	-1539.793333	1269.225586	1024.033203
29607.943617	-1539.793333	1268.119141	1068.080200
29607.943617	-1539.793333	1267.012695	942.323303
29607.943617	-1539.793333	1265.906250	960.622742
29607.943617	-1539.793333	1264.798828	698.916931
29607.943617	-1539.793333	1263.691406	534.845337
29607.943617	-1539.793333	1262.583984	730.986877
29607.943617	-1539.793333	1261.476563	477.867828
29607.943617	-1539.793333	1260.368164	614.950073
29607.943617	-1539.793333	1259.260742	680.691223
29607.943617	-1539.793333	1258.152344	496.332733
29607.943617	-1539.793333	1257.043945	426.611572
29607.943617	-1539.793333	1255.934570	349.026855
29607.943617	-1539.793333	1254.825195	332.897675
29607.943617	-1539.793333	1253.716797	297.865204
29607.943617	-1539.793333	1252.606445	93.554169
29607.943617	-1539.793333	1251.497070	112.490059
29607.943617	-1539.793333	1250.387695	154.230667
29607.943617	-1539.793333	1249.277344	343.841644
29607.943617	-1539.793333	1248.166992	236.120468
29607.943617	-1539.793333	1247.055664	229.089844
29607.943617	-1539.793333	1245.945313	222.548889
29607.943617	-1539.793333	1244.833984	203.409317
29607.943617	-1539.793333	1243.722656	334.076019
29607.943617	-1539.793333	1242.611328	299.333130
29607.943617	-1539.793333	1241.499023	197.451462
29607.943617	-1539.793333	1240.387695	82.405884
29607.943617	-1539.793333	1239.275391	219.842545
29607.943617	-1539.793333	1238.162109	277.076874
29607.943617	-1539.793333	1237.049805	357.700897
29607.943617	-1539.793333	1235.936523	110.435081
29607.943617	-1539.793333	1234.823242	107.846413
29607.943617	-1539.793333	1233.709961	148.555023
29607.943617	-1539.793333	1232.596680	35.673222
29607.943617	-1539.793333	1231.482422	-45.016415
29607.943617	-1539.793333	1230.369141	-46.472527
29607.943617	-1539.793333	1229.253906	-98.839638
29607.943617	-1539.793333	1228.139648	-62.357922
29607.943617	-1539.793333	1227.025391	-6.203778
29607.943617	-1539.793333	1225.910156	-7.739168
29607.943617	-1539.793333	1224.794922	-2.922346
29607.943617	-1539.793333	1223.679688	22.987965
29607.943617	-1539.793333	1222.563477	-175.094818
29607.943617	-1539.793333	1221.447266	-21.248053
29607.943617	-1539.793333	1220.331055	-97.173790
29607.943617	-1539.793333	1219.214844	-50.837749
29607.943617	-1539.793333	1218.098633	21.784575
29607.943617	-1539.793333	1216.981445	-58.909054
29607.943617	-1539.793333	1215.864258	-231.515411
29607.943617	-1539.793333	1214.747070	-13.193551
29607.943617	-1539.793333	1213.629883	-60.901348
29607.943617	-1539.793333	1212.511719	-114.196159
29607.943617	-1539.793333	1211.393555	-9.537952
29607.943617	-1539.793333	1210.275391	93.531441
29607.943617	-1539.793333	1209.157227	109.649887
29607.943617	-1539.793333	1208.038086	-81.447060
29607.943617	-1539.793333	1206.918945	-4.863786
29607.943617	-1539.793333	1205.799805	-107.269043
29607.943617	-1539.793333	1204.680664	-69.530807
29607.943617	-1539.793333	1203.560547	72.676285
29607.943617	-1539.793333	1202.441406	125.048813
29607.943617	-1539.793333	1201.321289	-15.515677
29607.943617	-1539.793333	1200.200195	175.896057
29607.943617	-1539.793333	1199.080078	4.019859
29607.943617	-1539.793333	1197.958984	-16.172651
29607.943617	-1539.793333	1196.837891	-23.916430
29607.943617	-1539.793333	1195.716797	-127.294220
29607.943617	-1539.793333	1194.594727	-148.728882
29607.943617	-1539.793333	1193.473633	-15.939320
29607.943617	-1539.793333	1192.351563	-39.516659
29607.943617	-1539.793333	1191.229492	3.192995
29607.943617	-1539.793333	1190.106445	16.557722
29607.943617	-1539.793333	1188.984375	114.364731
29607.943617	-1539.793333	1187.861328	-18.416746
29607.943617	-1539.793333	1186.738281	264.918121
29607.943617	-1539.793333	1185.614258	90.065414
29607.943617	-1539.793333	1184.491211	405.744324
29607.943617	-1539.793333	1183.367188	343.316376
29607.943617	-1539.793333	1182.243164	431.431915
29607.943617	-1539.793333	1181.119141	453.750488
29607.943617	-1539.793333	1179.994141	288.532501
29607.943617	-1539.793333	1178.869141	337.002625
29607.943617	-1539.793333	1177.744141	399.115387
29607.943617	-1539.793333	1176.619141	297.063568
29607.943617	-1539.793333	1175.493164	379.230499
29607.943617	-1539.793333	1174.368164	417.236481
29607.943617	-1539.793333	1173.242188	62.047962
29607.943617	-1539.793333	1172.115234	356.431854
29607.943617	-1539.793333	1170.989258	230.487244
29607.943617	-1539.793333	1169.862305	476.797546
29607.943617	-1539.793333	1168.735352	149.763611
29607.943617	-1539.793333	1167.608398	101.541206
29607.943617	-1539.793333	1166.481445	344.647430
29607.943617	-1539.793333	1165.353516	89.520020
29607.943617	-1539.793333	1164.225586	153.479980
29607.943617	-1539.793333	1163.097656	52.917461
29607.943617	-1539.793333	1161.968750	28.697855
29607.943617	-1539.793333	1160.840820	66.434715
29607.943617	-1539.793333	1159.711914	129.374847
29607.943617	-1539.793333	1158.583008	-14.793297
29607.943617	-1539.793333	1157.453125	-202.308014
29607.943617	-1539.793333	1156.324219	-344.488953
29607.943617	-1539.793333	1155.194336	-149.154053
29607.943617	-1539.793333	1154.064453	-256.931122
29607.943617	-1539.793333	1152.933594	-93.921806
29607.943617	-1539.793333	1151.803711	-48.503986
29607.943617	-1539.793333	1150.672852	-30.255720
29607.943617	-1539.793333	1149.541992	-27.568220
29607.943617	-1539.793333	1148.411133	28.780827
29607.943617	-1539.793333	1147.279297	-86.062431
29607.943617	-1539.793333	1146.147461	68.030487
29607.943617	-1539.793333	1145.015625	-67.216133
29607.943617	-1539.793333	1143.883789	-42.992046
29607.943617	-1539.793333	1142.750977	-50.584869
29607.943617	-1539.793333	1141.619141	-57.568760
29607.943617	-1539.793333	1140.486328	138.987183
29607.943617	-1539.793333	1139.352539	-157.218246
29607.943617	-1539.793333	1138.219727	-22.307707
29607.943617	-1539.793333	1137.085938	-37.858391
29607.943617	-1539.793333	1135.952148	-7.169024
29607.943617	-1539.793333	1134.818359	204.418350
29607.943617	-1539.793333	1133.683594	19.133366
29607.943617	-1539.793333	1132.549805	10.580460
29607.943617	-1539.793333	1131.415039	375.051117
29607.943617	-1539.793333	1130.279297	405.988373
29607.943617	-1539.793333	1129.144531	414.414917
29607.943617	-1539.793333	1128.008789	410.163025
29607.943617	-1539.793333	1126.873047	370.969543
29607.943617	-1539.793333	1125.737305	324.146820
29607.943617	-1539.793333	1124.601563	468.286469
29607.943617	-1539.793333	1123.464844	294.584534
29607.943617	-1539.793333	1122.328125	346.926605
29607.943617	-1539.793333	1121.191406	179.712891
29607.943617	-1539.793333	1120.054688	332.960846
29607.943617	-1539.793333	1118.916992	-44.596581
29607.943617	-1539.793333	1117.779297	133.664719
29607.943617	-1539.793333	1116.641602	274.783691
29607.943617	-1539.793333	1115.503906	5.467263
29607.943617	-1539.793333	1114.365234	-98.704147
29607.943617	-1539.793333	1113.226563	-229.151123
29607.943617	-1539.793333	1112.087891	19.231731
29607.943617	-1539.793333	1110.949219	284.913086
29607.943617	-1539.793333	1109.809570	-79.577629
29607.943617	-1539.793333	1108.669922	-20.943920
29607.943617	-1539.793333	1107.530273	163.931335
29607.943617	-1539.793333	1106.390625	129.147675
29607.943617	-1539.793333	1105.250000	222.193390
29607.943617	-1539.793333	1104.109375	270.996002
29607.943617	-1539.793333	1102.968750	146.787949
29607.943617	-1539.793333	1101.828125	281.196106
29607.943617	-1539.793333	1100.686523	376.661713
29607.943617	-1539.793333	1099.544922	581.639893
29607.943617	-1539.793333	1098.403320	405.753693
29607.943617	-1539.793333	1097.261719	300.313660
29607.943617	-1539.793333	1096.120117	145.581528
29607.943617	-1539.793333	1094.977539	3.088078
29607.943617	-1539.793333	1093.834961	418.868835
29607.943617	-1539.793333	1092.691406	190.015091
29607.943617	-1539.793333	1091.548828	285.842377
29607.943617	-1539.793333	1090.405273	249.968689
29607.943617	-1539.793333	1089.261719	286.900482
29607.943617	-1539.793333	1088.118164	-64.248871
29607.943617	-1539.793333	1086.973633	89.873314
29607.943617	-1539.793333	1085.829102	160.908463
29607.943617	-1539.793333	1084.684570	242.608612
29607.943617	-1539.793333	1083.540039	119.221870
29607.943617	-1539.793333	1082.395508	554.447510
29607.943617	-1539.793333	1081.250000	440.493530
29607.943617	-1539.793333	1080.104492	362.984039
29607.943617	-1539.793333	1078.958984	183.876160
29607.943617	-1539.793333	1077.812500	393.074951
29607.943617	-1539.793333	1076.666016	496.935242
29607.943617	-1539.793333	1075.519531	250.457077
29607.943617	-1539.793333	1074.373047	464.232422
29607.943617	-1539.793333	1073.226563	426.243774
29607.943617	-1539.793333	1072.079102	406.171356
29607.943617	-1539.793333	1070.931641	324.706177
29607.943617	-1539.793333	1069.784180	694.498779
29607.943617	-1539.793333	1068.635742	233.635498
29607.943617	-1539.793333	1067.487305	407.623871
29607.943617	-1539.793333	1066.338867	350.497284
29607.943617	-1539.793333	1065.190430	398.705078
29607.943617	-1539.793333	1064.041992	501.388062
29607.943617	-1539.793333	1062.892578	268.296326
29607.943617	-1539.793333	1061.743164	583.474854
29607.943617	-1539.793333	1060.593750	623.312561
29607.943617	-1539.793333	1059.443359	362.309326
29607.943617	-1539.793333	1058.292969	468.623688
29607.943617	-1539.793333	1057.142578	570.179565
29607.943617	-1539.793333	1055.992188	544.381470
29607.943617	-1539.793333	1054.841797	613.329163
29607.943617	-1539.793333	1053.690430	636.106445
29607.943617	-1539.793333	1052.539063	688.840637
29607.943617	-1539.793333	1051.387695	464.881683
29607.943617	-1539.793333	1050.235352	207.262314
29607.943617	-1539.793333	1049.083984	600.501404
29607.943617	-1539.793333	1047.931641	404.156555
29607.943617	-1539.793333	1046.778320	202.636017
29607.943617	-1539.793333	1045.625977	141.466766
29607.943617	-1539.793333	1044.472656	324.692413
29607.943617	-1539.793333	1043.319336	350.893982
29607.943617	-1539.793333	1042.166016	403.534546
29607.943617	-1539.793333	1041.012695	165.862396
29607.943617	-1539.793333	1039.858398	274.907898
29607.943617	-1539.793333	1038.704102	440.758179
29607.943617	-1539.793333	1037.549805	52.362633
29607.943617	-1539.793333	1036.394531	361.071869
29607.943617	-1539.793333	1035.239258	436.519989
29607.943617	-1539.793333	1034.083984	261.052917
29607.943617	-1539.793333	1032.928711	367.497040
29607.943617	-1539.793333	1031.773438	283.307648
29607.943617	-1539.793333	1030.617188	268.266724
29607.943617	-1539.793333	1029.460938	251.328949
29607.943617	-1539.793333	1028.304688	339.387115
29607.943617	-1539.793333	1027.147461	173.234772
29607.943617	-1539.793333	1025.991211	254.724869
29607.943617	-1539.793333	1024.833984	155.879822
29607.943617	-1539.793333	1023.675781	283.641113
29607.943617	-1539.793333	1022.518555	114.994736
29607.943617	-1539.793333	1021.360352	33.476524
29607.943617	-1539.793333	1020.202148	-95.726051
29607.943617	-1539.793333	1019.043945	144.742706
29607.943617	-1539.793333	1017.884766	96.468941
29607.943617	-1539.793333	1016.726563	266.802429
29607.943617	-1539.793333	1015.567383	44.241394
29607.943617	-1539.793333	1014.407227	-12.882046
29607.943617	-1539.793333	1013.248047	10.819257
29607.943617	-1539.793333	1012.087891	-75.885262
29607.943617	-1539.793333	1010.927734	-72.190567
29607.943617	-1539.793333	1009.767578	184.221909
29607.943617	-1539.793333	1008.606445	27.600065
29607.943617	-1539.793333	1007.446289	101.718224
29607.943617	-1539.793333	1006.285156	178.860977
29607.943617	-1539.793333	1005.123047	379.846771
29607.943617	-1539.793333	1003.961914	251.233398
29607.943617	-1539.793333	1002.799805	-18.845230
29607.943617	-1539.793333	1001.637695	184.949493
29607.943617	-1539.793333	1000.475586	-116.983810
29607.943617	-1539.793333	999.312500	193.317245
29607.943617	-1539.793333	998.149414	90.076141
29607.943617	-1539.793333	996.986328	64.363365
29607.943617	-1539.793333	995.823242	-62.619701
29607.943617	-1539.793333	994.659180	-72.485100
29607.943617	-1539.793333	993.496094	-112.662552
29607.943617	-1539.793333	992.332031	49.740849
29607.943617	-1539.793333	991.166992	146.842331
29607.943617	-1539.793333	990.002930	-155.211411
29607.943617	-1539.793333	988.837891	-166.504288
29607.943617	-1539.793333	987.672852	-110.011696
29607.943617	-1539.793333	986.506836	-54.939728
29607.943617	-1539.793333	985.341797	149.854736
29607.943617	-1539.793333	984.175781	72.855782
29607.943617	-1539.793333	983.009766	303.511993
29607.943617	-1539.793333	981.843750	453.807922
29607.943617	-1539.793333	980.676758	462.361481
29607.943617	-1539.793333	979.509766	583.795166
29607.943617	-1539.793333	978.342773	486.595520
29607.943617	-1539.793333	977.175781	701.944275
29607.943617	-1539.793333	976.007813	250.150558
29607.943617	-1539.793333	974.839844	479.481628
29607.943617	-1539.793333	973.671875	295.662170
29607.943617	-1539.793333	972.503906	208.657196
29607.943617	-1539.793333	971.334961	216.232666
29607.943617	-1539.793333	970.166016	161.780975
29607.943617	-1539.793333	968.997070	361.643982
29607.943617	-1539.793333	967.828125	203.482010
29607.943617	-1539.793333	966.658203	225.029572
29607.943617	-1539.793333	965.488281	308.075653
29607.943617	-1539.793333	964.318359	513.395813
29607.943617	-1539.793333	963.148438	401.681427
29607.943617	-1539.793333	961.977539	759.157166
29607.943617	-1539.793333	960.806641	649.176636
29607.943617	-1539.793333	959.635742	564.962585
29607.943617	-1539.793333	958.463867	625.112427
29607.943617	-1539.793333	957.292969	283.320038
29607.943617	-1539.793333	956.121094	285.258850
29607.943617	-1539.793333	954.948242	475.649475
29607.943617	-1539.793333	953.776367	412.529663
29607.943617	-1539.793333	952.603516	222.267899
29607.943617	-1539.793333	951.430664	-99.143234
29607.943617	-1539.793333	950.257813	39.098995
29607.943617	-1539.793333	949.084961	-29.060068
29607.943617	-1539.793333	947.911133	-133.511597
29607.943617	-1539.793333	946.737305	-252.397690
29607.943617	-1539.793333	945.563477	13.459406
29607.943617	-1539.793333	944.388672	-25.323814
29607.943617	-1539.793333	943.213867	25.315746
29607.943617	-1539.793333	942.039063	-37.094585
29607.943617	-1539.793333	940.864258	-75.632950
29607.943617	-1539.793333	939.688477	-77.888115
29607.943617	-1539.793333	938.513672	268.465759
29607.943617	-1539.793333	937.337891	214.583145
29607.943617	-1539.793333	936.161133	73.647476
29607.943617	-1539.793333	934.985352	-139.366745
29607.943617	-1539.793333	933.808594	300.261078
29607.943617	-1539.793333	932.631836	237.180328
29607.943617	-1539.793333	931.454102	189.387833
29607.943617	-1539.793333	930.277344	224.377899
29607.943617	-1539.793333	929.099609	517.599304
29607.943617	-1539.793333	927.921875	617.564880
29607.943617	-1539.793333	926.743164	332.874756
29607.943617	-1539.793333	925.565430	599.896545
29607.943617	-1539.793333	924.386719	258.729187
29607.943617	-1539.793333	923.208008	154.338623
29607.943617	-1539.793333	922.028320	232.291656
29607.943617	-1539.793333	920.849609	101.805855
29607.943617	-1539.793333	919.669922	111.770714
29607.943617	-1539.793333	919.474609	9.879246
29607.943617	-1539.793333	918.309570	300.200195
29607.943617	-1539.793333	917.143555	104.458878
29607.943617	-1539.793333	915.977539	121.291458
29607.943617	-1539.793333	914.810547	142.414810
29607.943617	-1539.793333	913.644531	48.576290
29607.943617	-1539.793333	912.477539	-66.938683
29607.943617	-1539.793333	911.310547	84.088226
29607.943617	-1539.793333	910.143555	267.506439
29607.943617	-1539.793333	908.975586	43.575565
29607.943617	-1539.793333	907.807617	51.418327
29607.943617	-1539.793333	906.639648	-133.498672
29607.943617	-1539.793333	905.471680	49.629017
29607.943617	-1539.793333	904.303711	202.330490
29607.943617	-1539.793333	903.134766	-62.709099
29607.943617	-1539.793333	901.965820	122.316734
29607.943617	-1539.793333	900.796875	13.042522
29607.943617	-1539.793333	899.626953	83.266541
29607.943617	-1539.793333	898.457031	-123.347176
29607.943617	-1539.793333	897.287109	411.546814
29607.943617	-1539.793333	896.117188	217.817398
29607.943617	-1539.793333	894.947266	-222.221268
29607.943617	-1539.793333	893.776367	-147.946915
29607.943617	-1539.793333	892.605469	345.277344
29607.943617	-1539.793333	891.434570	52.183586
29607.943617	-1539.793333	890.262695	-119.930267
29607.943617	-1539.793333	889.091797	405.210175
29607.943617	-1539.793333	887.919922	-28.152596
29607.943617	-1539.793333	886.748047	218.302048
29607.943617	-1539.793333	885.575195	37.461632
29607.943617	-1539.793333	884.403320	-80.819016
29607.943617	-1539.793333	883.230469	145.932648
29607.943617	-1539.793333	882.057617	-2.607087
29607.943617	-1539.793333	880.883789	51.488129
29607.943617	-1539.793333	879.710938	-28.119864
29607.943617	-1539.793333	878.537109	191.755905
29607.943617	-1539.793333	877.362305	84.048531
29607.943617	-1539.793333	876.188477	73.240425
29607.943617	-1539.793333	875.013672	-79.733696
29607.943617	-1539.793333	873.839844	-51.865826
29607.943617	-1539.793333	872.664063	-54.189651
29607.943617	-1539.793333	871.489258	-368.621490
29607.943617	-1539.793333	870.313477	-28.894991
29607.943617	-1539.793333	869.138672	82.605621
29607.943617	-1539.793333	867.962891	112.279274
29607.943617	-1539.793333	866.786133	-174.202713
29607.943617	-1539.793333	865.610352	-43.568012
29607.943617	-1539.793333	864.433594	106.302696
29607.943617	-1539.793333	863.256836	-27.610868
29607.943617	-1539.793333	862.079102	-0.389101
29607.943617	-1539.793333	860.902344	-67.761208
29607.943617	-1539.793333	859.724609	73.155334
29607.943617	-1539.793333	858.546875	20.703737
29607.943617	-1539.793333	857.368164	-36.077496
29607.943617	-1539.793333	856.190430	40.164879
29607.943617	-1539.793333	855.011719	-48.915585
29607.943617	-1539.793333	853.833008	-32.901257
29607.943617	-1539.793333	852.654297	-4.087514
29607.943617	-1539.793333	851.474609	46.097046
29607.943617	-1539.793333	850.294922	59.744034
29607.943617	-1539.793333	849.115234	-68.164597
29607.943617	-1539.793333	847.935547	148.970291
29607.943617	-1539.793333	846.754883	160.245239
29607.943617	-1539.793333	845.575195	-218.467926
29607.943617	-1539.793333	844.393555	92.609489
29607.943617	-1539.793333	843.212891	155.072815
29607.943617	-1539.793333	842.032227	95.401352
29607.943617	-1539.793333	840.850586	20.705002
29607.943617	-1539.793333	839.668945	-6.951467
29607.943617	-1539.793333	838.486328	-28.245377
29607.943617	-1539.793333	837.304688	183.570892
29607.943617	-1539.793333	836.122070	-73.171310
29607.943617	-1539.793333	834.939453	37.919167
29607.943617	-1539.793333	833.756836	86.888702
29607.943617	-1539.793333	832.573242	-125.008713
29607.943617	-1539.793333	831.389648	-270.645386
29607.943617	-1539.793333	830.206055	-140.674179
29607.943617	-1539.793333	829.022461	-59.966690
29607.943617	-1539.793333	827.838867	-30.628897
29607.943617	-1539.793333	826.654297	-69.707909
29607.943617	-1539.793333	825.469727	-140.870667
29607.943617	-1539.793333	824.284180	-122.433922
29607.943617	-1539.793333	823.099609	134.913956
29607.943617	-1539.793333	821.914063	59.248833
29607.943617	-1539.793333	820.728516	143.515381
29607.943617	-1539.793333	819.542969	35.726765
29607.943617	-1539.793333	818.356445	-5.998585
29607.943617	-1539.793333	817.169922	-192.750961
29607.943617	-1539.793333	815.983398	-151.456650
29607.943617	-1539.793333	814.796875	-84.692322
29607.943617	-1539.793333	813.609375	11.791029
29607.943617	-1539.793333	812.422852	-60.127300
29607.943617	-1539.793333	811.235352	312.982788
29607.943617	-1539.793333	810.046875	313.257355
29607.943617	-1539.793333	808.859375	336.855347
29607.943617	-1539.793333	807.670898	402.925232
29607.943617	-1539.793333	806.482422	339.082458
29607.943617	-1539.793333	805.293945	232.629257
29607.943617	-1539.793333	804.104492	383.493774
29607.943617	-1539.793333	802.915039	385.352234
29607.943617	-1539.793333	801.725586	327.586945
29607.943617	-1539.793333	800.536133	182.605637
29607.943617	-1539.793333	799.345703	460.506104
29607.943617	-1539.793333	798.155273	213.388718
29607.943617	-1539.793333	796.964844	276.428741
29607.943617	-1539.793333	795.774414	69.617943
29607.943617	-1539.793333	794.583008	157.958099
29607.943617	-1539.793333	793.392578	176.106308
29607.943617	-1539.793333	792.200195	185.668243
29607.943617	-1539.793333	791.008789	415.824463
29607.943617	-1539.793333	789.816406	408.166504
29607.943617	-1539.793333	788.625000	254.049393
29607.943617	-1539.793333	787.432617	519.816345
29607.943617	-1539.793333	786.239258	450.363190
29607.943617	-1539.793333	785.046875	372.357910
29607.943617	-1539.793333	783.853516	311.246796
29607.943617	-1539.793333	782.660156	476.795319
29607.943617	-1539.793333	781.465820	267.190033
29607.943617	-1539.793333	780.272461	349.873016
29607.943617	-1539.793333	779.078125	152.887604
29607.943617	-1539.793333	777.883789	243.829712
29607.943617	-1539.793333	776.688477	252.078949
29607.943617	-1539.793333	775.494141	402.019501
29607.943617	-1539.793333	774.298828	431.188202
29607.943617	-1539.793333	773.103516	255.038757
29607.943617	-1539.793333	771.907227	199.419220
29607.943617	-1539.793333	770.711914	454.567993
29607.943617	-1539.793333	769.515625	341.640442
29607.943617	-1539.793333	768.318359	359.708313
29607.943617	-1539.793333	767.122070	398.797607
29607.943617	-1539.793333	765.924805	209.576889
29607.943617	-1539.793333	764.727539	282.270081
29607.943617	-1539.793333	763.530273	566.027283
29607.943617	-1539.793333	762.333008	235.100235
29607.943617	-1539.793333	761.134766	474.203522
29607.943617	-1539.793333	759.936523	301.522369
29607.943617	-1539.793333	758.738281	223.765549
29607.943617	-1539.793333	757.540039	280.962158
29607.943617	-1539.793333	756.340820	283.183929
29607.943617	-1539.793333	755.141602	338.020752
29607.943617	-1539.793333	753.942383	306.279114
29607.943617	-1539.793333	752.742188	487.354736
29607.943617	-1539.793333	751.541992	670.355408
29607.943617	-1539.793333	750.341797	752.027039
29607.943617	-1539.793333	749.141602	1351.809082
29607.943617	-1539.793333	747.941406	1254.053101
29607.943617	-1539.793333	746.740234	1074.101563
29607.943617	-1539.793333	745.539063	1197.295166
29607.943617	-1539.793333	744.337891	1295.067505
29607.943617	-1539.793333	743.135742	1209.597046
29607.943617	-1539.793333	741.933594	1180.861328
29607.943617	-1539.793333	740.731445	987.944519
29607.943617	-1539.793333	739.529297	940.121887
29607.943617	-1539.793333	738.326172	1037.298218
29607.943617	-1539.793333	737.124023	1069.154419
29607.943617	-1539.793333	735.919922	1187.062378
29607.943617	-1539.793333	734.716797	1456.117188
29607.943617	-1539.793333	733.513672	1042.122070
29607.943617	-1539.793333	732.309570	1457.914795
29607.943617	-1539.793333	731.105469	1207.682983
29607.943617	-1539.793333	729.900391	1198.908936
29607.943617	-1539.793333	728.696289	1204.726318
29607.943617	-1539.793333	727.491211	996.353210
29607.943617	-1539.793333	726.286133	800.546143
29607.943617	-1539.793333	725.080078	340.371002
29607.943617	-1539.793333	723.874023	580.846191
29607.943617	-1539.793333	722.668945	514.941650
29607.943617	-1539.793333	721.461914	367.186340
29607.943617	-1539.793333	720.255859	9.766754
29607.943617	-1539.793333	719.048828	149.079712
29607.943617	-1539.793333	717.841797	-9.305090
29607.943617	-1539.793333	716.634766	104.601006
29607.943617	-1539.793333	715.427734	-20.412508
29607.943617	-1539.793333	714.219727	101.610390
29607.943617	-1539.793333	713.011719	85.300346
29607.943617	-1539.793333	711.803711	154.708633
29607.943617	-1539.793333	710.594727	-112.937439
29607.943617	-1539.793333	709.385742	-14.438532
29607.943617	-1539.793333	708.176758	6.520349
29607.943617	-1539.793333	706.967773	119.387047
29607.943617	-1539.793333	705.758789	75.285194
29607.943617	-1539.793333	704.548828	-111.056206
29607.943617	-1539.793333	703.338867	-128.130661
29607.943617	-1539.793333	702.127930	203.661789
29607.943617	-1539.793333	700.917969	180.060623
29607.943617	-1539.793333	699.707031	-88.014168
29607.943617	-1539.793333	698.496094	-189.014694
29607.943617	-1539.793333	697.285156	-168.975342
29607.943617	-1539.793333	696.073242	72.217270
29607.943617	-1539.793333	694.861328	221.384796
29607.943617	-1539.793333	693.649414	117.924553
29607.943617	-1539.793333	692.436523	300.201752
29607.943617	-1539.793333	691.224609	236.203339
29607.943617	-1539.793333	690.011719	397.338531
29607.943617	-1539.793333	688.798828	299.798615
29607.943617	-1539.793333	687.584961	302.251343
29607.943617	-1539.793333	686.372070	285.862122
29607.943617	-1539.793333	685.158203	313.137268
29607.943617	-1539.793333	683.943359	600.683167
29607.943617	-1539.793333	682.729492	296.571899
29607.943617	-1539.793333	681.514648	348.541931
29607.943617	-1539.793333	680.299805	452.445404
29607.943617	-1539.793333	679.084961	477.133057
29607.943617	-1539.793333	677.869141	458.022339
29607.943617	-1539.793333	676.653320	58.123772
29607.943617	-1539.793333	675.437500	309.339020
29607.943617	-1539.793333	674.221680	156.940796
29607.943617	-1539.793333	673.004883	27.391285
29607.943617	-1539.793333	671.789063	165.969101
29607.943617	-1539.793333	670.571289	439.481995
29607.943617	-1539.793333	669.354492	276.478363
29607.943617	-1539.793333	668.136719	111.387062
29607.943617	-1539.793333	666.919922	284.830963
29607.943617	-1539.793333	665.701172	281.619232
29607.943617	-1539.793333	664.483398	400.828400
29607.943617	-1539.793333	663.264648	17.623249
29607.943617	-1539.793333	662.045898	184.423630
29607.943617	-1539.793333	660.827148	369.760345
29607.943617	-1539.793333	659.608398	229.295105
29607.943617	-1539.793333	658.388672	105.411667
29607.943617	-1539.793333	657.168945	344.358276
29607.943617	-1539.793333	655.949219	348.904144
29607.943617	-1539.793333	654.728516	417.628235
29607.943617	-1539.793333	653.507813	221.042755
29607.943617	-1539.793333	652.287109	341.446228
29607.943617	-1539.793333	651.066406	474.170502
29607.943617	-1539.793333	649.844727	459.759338
29607.943617	-1539.793333	648.623047	186.512253
29607.943617	-1539.793333	647.401367	424.593170
29607.943617	-1539.793333	646.179688	410.056641
29607.943617	-1539.793333	644.957031	236.159302
29607.943617	-1539.793333	643.734375	300.179413
29607.943617	-1539.793333	642.511719	297.950928
29607.943617	-1539.793333	641.289063	59.967934
29607.943617	-1539.793333	640.065430	138.330811
29607.943617	-1539.793333	638.841797	5.812168
29607.943617	-1539.793333	637.618164	247.330017
29607.943617	-1539.793333	636.393555	222.199570
29607.943617	-1539.793333	635.168945	261.082245
29607.943617	-1539.793333	633.944336	213.189117
29607.943617	-1539.793333	632.719727	239.617905
29607.943617	-1539.793333	631.494141	38.943645
29607.943617	-1539.793333	630.269531	69.481567
29607.943617	-1539.793333	629.042969	161.872452
29607.943617	-1539.793333	627.817383	210.893845
29607.943617	-1539.793333	626.590820	160.875351
29607.943617	-1539.793333	625.365234	49.013206
29607.943617	-1539.793333	624.137695	-33.963928
29607.943617	-1539.793333	622.911133	-184.922867
29607.943617	-1539.793333	621.683594	-232.797668
29607.943617	-1539.793333	620.456055	112.854713
29607.943617	-1539.793333	619.228516	40.216221
29607.943617	-1539.793333	618.000977	-281.578064
29607.943617	-1539.793333	616.772461	-61.734177
29607.943617	-1539.793333	615.543945	-95.176254
29607.943617	-1539.793333	614.314453	-332.352509
29607.943617	-1539.793333	613.085938	41.708839
29607.943617	-1539.793333	611.856445	49.435226
29607.943617	-1539.793333	610.626953	57.172112
29607.943617	-1539.793333	609.397461	-4.992217
29607.943617	-1539.793333	608.166992	-114.402321
29607.943617	-1539.793333	606.936523	-125.081917
29607.943617	-1539.793333	605.706055	-16.540354
29607.943617	-1539.793333	604.474609	-39.518574
29607.943617	-1539.793333	603.244141	136.800613
29607.943617	-1539.793333	602.012695	-64.813126
29607.943617	-1539.793333	600.780273	-58.933483
29607.943617	-1539.793333	599.548828	72.211647
29607.943617	-1539.793333	598.316406	98.659706
29607.943617	-1539.793333	597.083984	51.267658
29607.943617	-1539.793333	595.851563	133.186325
29607.943617	-1539.793333	594.618164	350.481689
29607.943617	-1539.793333	593.384766	106.336777
29607.943617	-1539.793333	592.151367	61.216858
29607.943617	-1539.793333	590.917969	-110.916710
29607.943617	-1539.793333	589.683594	-143.570038
29607.943617	-1539.793333	588.449219	194.697495
29607.943617	-1539.793333	587.214844	20.767155
29607.943617	-1539.793333	585.979492	-142.792831
29607.943617	-1539.793333	584.745117	-152.641144
29607.943617	-1539.793333	583.509766	-47.782326
29607.943617	-1539.793333	582.273438	-139.389664
29607.943617	-1539.793333	581.038086	-83.546082
29607.943617	-1539.793333	579.801758	-131.996017
29607.943617	-1539.793333	578.565430	-49.441967
29607.943617	-1539.793333	577.329102	47.471817
29607.943617	-1539.793333	576.091797	68.772903
29607.943617	-1539.793333	574.854492	-3.880116
29607.943617	-1539.793333	573.617188	-94.809311
29607.943617	-1539.793333	572.378906	43.225925
29607.943617	-1539.793333	571.141602	30.131657
29607.943617	-1539.793333	569.903320	-89.073944
29607.943617	-1539.793333	568.664063	-103.997986
29607.943617	-1539.793333	567.425781	-108.608009
29607.943617	-1539.793333	566.186523	-6.985092
29607.943617	-1539.793333	564.947266	219.171097
29607.943617	-1539.793333	563.708008	-111.635628
29607.943617	-1539.793333	562.467773	147.286896
29607.943617	-1539.793333	561.227539	22.814787
29607.943617	-1539.793333	559.987305	318.514252
29607.943617	-1539.793333	558.747070	110.701416
29607.943617	-1539.793333	557.505859	188.406525
29607.943617	-1539.793333	556.264648	164.313721
29607.943617	-1539.793333	555.023438	113.865952
29607.943617	-1539.793333	553.781250	63.550583
29607.943617	-1539.793333	552.539063	25.594296
29607.943617	-1539.793333	551.296875	-150.661713
29607.943617	-1539.793333	550.054688	171.949890
29607.943617	-1539.793333	548.811523	144.529877
29607.943617	-1539.793333	547.569336	84.698769
29607.943617	-1539.793333	546.325195	-204.841049
29607.943617	-1539.793333	545.082031	-191.112137
29607.943617	-1539.793333	543.837891	58.586075
29607.943617	-1539.793333	542.593750	46.078506
29607.943617	-1539.793333	541.349609	23.543669
29607.943617	-1539.793333	540.105469	80.394363
29607.943617	-1539.793333	538.860352	161.725693
29607.943617	-1539.793333	537.615234	125.354034
29607.943617	-1539.793333	536.369141	353.103027
29607.943617	-1539.793333	535.124023	294.639130
29607.943617	-1539.793333	533.877930	376.382568
29607.943617	-1539.793333	532.631836	299.937927
29607.943617	-1539.793333	531.384766	511.753937
29607.943617	-1539.793333	530.138672	307.788666
29607.943617	-1539.793333	528.891602	523.835815
29607.943617	-1539.793333	527.643555	612.184509
29607.943617	-1539.793333	526.396484	716.848450
29607.943617	-1539.793333	525.148438	645.276001
29607.943617	-1539.793333	523.900391	545.495850
29607.943617	-1539.793333	522.652344	723.429138
29607.943617	-1539.793333	521.403320	808.245056
29607.943617	-1539.793333	520.154297	686.608459
29607.943617	-1539.793333	518.905273	723.064941
29607.943617	-1539.793333	517.656250	709.031006
29607.943617	-1539.793333	516.406250	715.363281
29607.943617	-1539.793333	515.156250	733.954102
29607.943617	-1539.793333	513.906250	473.518372
29607.943617	-1539.793333	512.655273	549.019897
29607.943617	-1539.793333	511.404297	834.883362
29607.943617	-1539.793333	510.153320	898.379944
29607.943617	-1539.793333	508.902344	497.124176
29607.943617	-1539.793333	507.650391	469.960449
29607.943617	-1539.793333	506.398438	547.964722
29607.943617	-1539.793333	505.146484	836.092896
29607.943617	-1539.793333	503.893555	827.360840
29607.943617	-1539.793333	502.641602	780.373352
29607.943617	-1539.793333	501.388672	769.831055
29607.943617	-1539.793333	500.134766	936.966675
29607.943617	-1539.793333	498.881836	1089.995117
29607.943617	-1539.793333	497.627930	1099.824097
29607.943617	-1539.793333	496.374023	1365.845581
29607.943617	-1539.793333	495.119141	1192.281372
29607.943617	-1539.793333	493.865234	1474.436890
29607.943617	-1539.793333	492.610352	1470.348267
29607.943617	-1539.793333	491.355469	1556.990356
29607.943617	-1539.793333	490.099609	1567.097778
29607.943617	-1539.793333	488.843750	1692.047119
29607.943617	-1539.793333	487.587891	1597.496460
29607.943617	-1539.793333	486.332031	1492.950562
29607.943617	-1539.793333	485.075195	1575.666992
29607.943617	-1539.793333	483.818359	1394.749634
29607.943617	-1539.793333	482.561523	1417.124512
29607.943617	-1539.793333	481.304688	1511.907104
29607.943617	-1539.793333	480.046875	1385.431641
29607.943617	-1539.793333	478.789063	1771.703125
29607.943617	-1539.793333	477.531250	1641.171997
29607.943617	-1539.793333	476.272461	1731.739868
29607.943617	-1539.793333	475.013672	1597.188232
29607.943617	-1539.793333	473.754883	1542.999390
29607.943617	-1539.793333	472.496094	1587.189209
29607.943617	-1539.793333	471.236328	1627.276855
29607.943617	-1539.793333	469.976563	1727.495483
29607.943617	-1539.793333	468.716797	1805.500244
29607.943617	-1539.793333	467.456055	1622.498535
29607.943617	-1539.793333	466.196289	1916.957275
29607.943617	-1539.793333	464.935547	1966.448120
29607.943617	-1539.793333	463.673828	1899.466309
29607.943617	-1539.793333	462.413086	2086.995361
29607.943617	-1539.793333	461.151367	2139.974854
29607.943617	-1539.793333	459.889648	2180.727051
29607.943617	-1539.793333	458.626953	2145.129395
29607.943617	-1539.793333	457.364258	2241.553223
29607.943617	-1539.793333	456.101563	2439.858398
29607.943617	-1539.793333	454.838867	2265.394775
29607.943617	-1539.793333	453.575195	2383.037598
29607.943617	-1539.793333	452.312500	2366.257813
29607.943617	-1539.793333	451.047852	2773.425781
29607.943617	-1539.793333	449.784180	2415.865967
29607.943617	-1539.793333	448.519531	2658.200439
29607.943617	-1539.793333	447.254883	2660.114746
29607.943617	-1539.793333	445.990234	3087.531006
29607.943617	-1539.793333	444.725586	2746.795654
29607.943617	-1539.793333	443.459961	2879.447510
29607.943617	-1539.793333	442.194336	3281.358154
29607.943617	-1539.793333	440.927734	2687.832520
29607.943617	-1539.793333	439.662109	3206.541260
29607.943617	-1539.793333	438.395508	3289.240234
29607.943617	-1539.793333	437.127930	3069.945068
29607.943617	-1539.793333	435.861328	3113.674561
29607.943617	-1539.793333	434.593750	2901.405273
29607.943617	-1539.793333	433.326172	2806.352783
29607.943617	-1539.793333	432.058594	2760.599609
29607.943617	-1539.793333	430.790039	2989.423096
29607.943617	-1539.793333	429.521484	2928.395752
29607.943617	-1539.793333	428.252930	3177.662354
29607.943617	-1539.793333	426.984375	3105.256348
29607.943617	-1539.793333	425.714844	2884.686279
29607.943617	-1539.793333	424.445313	3031.961670
29607.943617	-1539.793333	423.174805	3048.907227
29607.943617	-1539.793333	421.905273	3216.350098
29607.943617	-1539.793333	420.634766	3134.002197
29607.943617	-1539.793333	419.364258	3255.792236
29607.943617	-1539.793333	418.092773	3342.758057
29607.943617	-1539.793333	416.822266	3510.301758
29607.943617	-1539.793333	415.550781	3398.300293
29607.943617	-1539.793333	414.278320	3631.304688
29607.943617	-1539.793333	413.006836	3417.813232
29607.943617	-1539.793333	411.734375	3515.357666
29607.943617	-1539.793333	410.461914	3750.819824
29607.943617	-1539.793333	409.188477	3659.135986
29607.943617	-1539.793333	407.916016	3304.079590
29607.943617	-1539.793333	406.642578	3720.435791
29607.943617	-1539.793333	405.368164	3511.821533
29607.943617	-1539.793333	404.094727	3466.733643
29607.943617	-1539.793333	402.820313	3632.611328
29607.943617	-1539.793333	401.545898	3646.173828
29607.943617	-1539.793333	400.270508	3430.084961
29607.943617	-1539.793333	398.996094	3387.123779
29607.943617	-1539.793333	397.720703	3499.230469
29607.943617	-1539.793333	396.444336	3437.154785
29607.943617	-1539.793333	395.168945	3355.624268
29607.943617	-1539.793333	393.892578	3254.536865
29607.943617	-1539.793333	392.616211	3353.804932
29607.943617	-1539.793333	391.339844	3453.182129
29607.943617	-1539.793333	390.062500	3354.540527
29607.943617	-1539.793333	388.785156	3453.980225
29607.943617	-1539.793333	387.507813	3333.636719
29607.943617	-1539.793333	386.229492	3098.449951
29607.943617	-1539.793333	384.951172	3229.283203
29607.943617	-1539.793333	383.672852	3033.468018
29607.943617	-1539.793333	382.394531	3322.044922
29607.943617	-1539.793333	381.115234	3408.448730
29607.943617	-1539.793333	379.835938	3350.122559
29607.943617	-1539.793333	378.556641	3081.873779
29607.943617	-1539.793333	377.277344	3129.409912
29607.943617	-1539.793333	375.997070	3093.321777
29607.943617	-1539.793333	374.716797	2934.144287
29607.943617	-1539.793333	373.435547	3050.736328
29607.943617	-1539.793333	372.155273	2795.376953
29607.943617	-1539.793333	370.874023	2997.162598
29607.943617	-1539.793333	369.591797	2886.052734
29607.943617	-1539.793333	368.310547	2667.510742
29607.943617	-1539.793333	367.028320	2828.631836
29607.943617	-1539.793333	365.746094	2862.301758
29607.943617	-1539.793333	364.463867	2709.374023
29607.943617	-1539.793333	363.180664	2661.568604
29607.943617	-1539.793333	361.897461	2909.989502
29607.943617	-1539.793333	360.614258	2841.536377
29607.943617	-1539.793333	359.330078	2609.912842
29607.943617	-1539.793333	358.045898	2512.632080
29607.943617	-1539.793333	356.761719	2661.765137
29607.943617	-1539.793333	355.477539	2178.986328
29607.943617	-1539.793333	354.192383	2062.470703
29607.943617	-1539.793333	352.907227	2099.445068
29607.943617	-1539.793333	351.622070	1919.826904
29607.943617	-1539.793333	350.336914	2269.173584
29607.943617	-1539.793333	349.050781	1795.861450
29607.943617	-1539.793333	347.764648	1918.060059
29607.943617	-1539.793333	346.477539	1404.592773
29607.943617	-1539.793333	345.191406	1824.338501
29607.943617	-1539.793333	343.904297	1875.578369
29607.943617	-1539.793333	342.616211	1358.057373
29607.943617	-1539.793333	341.329102	1582.314575
29607.943617	-1539.793333	340.041016	1332.010620
29607.943617	-1539.793333	338.752930	1734.343506
29607.943617	-1539.793333	337.463867	1253.748413
29607.943617	-1539.793333	336.175781	1433.365601
29607.943617	-1539.793333	334.886719	1334.559082
29607.943617	-1539.793333	333.596680	1165.298950
29607.943617	-1539.793333	332.307617	1131.724731
29607.943617	-1539.793333	331.017578	1239.186768
29607.943617	-1539.793333	329.727539	764.313416
29607.943617	-1539.793333	328.436523	941.833374
29607.943617	-1539.793333	327.146484	887.870300
29607.943617	-1539.793333	325.855469	560.952881
29607.943617	-1539.793333	324.563477	478.151978
29607.943617	-1539.793333	323.272461	786.390625
29607.943617	-1539.793333	321.980469	124.343346
29607.943617	-1539.793333	320.688477	287.442871
29607.943617	-1539.793333	319.395508	368.810944
29607.943617	-1539.793333	318.103516	349.199341
29607.943617	-1539.793333	316.810547	116.616600
29607.943617	-1539.793333	315.516602	128.617447
29607.943617	-1539.793333	314.223633	41.241310
29607.943617	-1539.793333	312.929688	37.674511
29607.943617	-1539.793333	311.635742	65.165504
29607.943617	-1539.793333	310.340820	-367.117676
29607.943617	-1539.793333	309.045898	-141.482513
29607.943617	-1539.793333	307.750977	-336.546356
29607.943617	-1539.793333	306.456055	90.436256
29607.943617	-1539.793333	305.160156	-42.398663
29607.943617	-1539.793333	303.865234	-125.402344
29607.943617	-1539.793333	302.568359	68.663254
29607.943617	-1539.793333	301.272461	9.663294
29607.943617	-1539.793333	299.975586	471.290405
29607.943617	-1539.793333	298.678711	328.187378
