#X		#Y		#Wave		#Intensity
29643.930319	-422.733333	1999.980469	25.359783
29643.930319	-422.733333	1999.016602	-23.425430
29643.930319	-422.733333	1998.052734	31.019804
29643.930319	-422.733333	1997.087891	258.870148
29643.930319	-422.733333	1996.123047	-162.548599
29643.930319	-422.733333	1995.158203	146.928802
29643.930319	-422.733333	1994.193359	-227.327316
29643.930319	-422.733333	1993.228516	-200.317764
29643.930319	-422.733333	1992.262695	-101.555649
29643.930319	-422.733333	1991.297852	140.713196
29643.930319	-422.733333	1990.332031	56.168400
29643.930319	-422.733333	1989.366211	132.465881
29643.930319	-422.733333	1988.399414	-18.903770
29643.930319	-422.733333	1987.433594	-78.721397
29643.930319	-422.733333	1986.466797	-9.946359
29643.930319	-422.733333	1985.500977	214.556549
29643.930319	-422.733333	1984.534180	396.919647
29643.930319	-422.733333	1983.567383	119.457085
29643.930319	-422.733333	1982.599609	192.985382
29643.930319	-422.733333	1981.632813	9.507018
29643.930319	-422.733333	1980.665039	179.329849
29643.930319	-422.733333	1979.697266	94.670372
29643.930319	-422.733333	1978.729492	232.271622
29643.930319	-422.733333	1977.761719	98.220345
29643.930319	-422.733333	1976.792969	-174.042145
29643.930319	-422.733333	1975.825195	123.902725
29643.930319	-422.733333	1974.856445	-15.045706
29643.930319	-422.733333	1973.887695	92.752884
29643.930319	-422.733333	1972.918945	37.697659
29643.930319	-422.733333	1971.949219	409.298126
29643.930319	-422.733333	1970.980469	95.273674
29643.930319	-422.733333	1970.010742	252.218765
29643.930319	-422.733333	1969.041016	36.906479
29643.930319	-422.733333	1968.071289	-40.334408
29643.930319	-422.733333	1967.101563	-11.610701
29643.930319	-422.733333	1966.130859	-37.106411
29643.930319	-422.733333	1965.161133	208.331467
29643.930319	-422.733333	1964.190430	-78.243843
29643.930319	-422.733333	1963.219727	-219.457733
29643.930319	-422.733333	1962.249023	45.539944
29643.930319	-422.733333	1961.277344	288.276001
29643.930319	-422.733333	1960.306641	193.803848
29643.930319	-422.733333	1959.334961	151.020279
29643.930319	-422.733333	1958.363281	218.936600
29643.930319	-422.733333	1957.391602	220.420441
29643.930319	-422.733333	1956.419922	145.673447
29643.930319	-422.733333	1955.447266	-81.476906
29643.930319	-422.733333	1954.474609	131.427887
29643.930319	-422.733333	1953.501953	-24.375425
29643.930319	-422.733333	1952.529297	1.697510
29643.930319	-422.733333	1951.556641	145.672470
29643.930319	-422.733333	1950.583984	156.961914
29643.930319	-422.733333	1949.610352	-23.304008
29643.930319	-422.733333	1948.636719	86.210083
29643.930319	-422.733333	1947.663086	230.049438
29643.930319	-422.733333	1946.689453	-40.943851
29643.930319	-422.733333	1945.715820	14.523492
29643.930319	-422.733333	1944.741211	72.419434
29643.930319	-422.733333	1943.767578	81.238548
29643.930319	-422.733333	1942.792969	-189.532730
29643.930319	-422.733333	1941.818359	206.745560
29643.930319	-422.733333	1940.842773	203.267929
29643.930319	-422.733333	1939.868164	20.864824
29643.930319	-422.733333	1938.892578	250.235519
29643.930319	-422.733333	1937.916992	92.389099
29643.930319	-422.733333	1936.941406	-38.447712
29643.930319	-422.733333	1935.965820	190.807312
29643.930319	-422.733333	1934.990234	221.625031
29643.930319	-422.733333	1934.013672	357.707703
29643.930319	-422.733333	1933.037109	-304.279419
29643.930319	-422.733333	1932.060547	150.023163
29643.930319	-422.733333	1931.083984	53.582359
29643.930319	-422.733333	1930.107422	170.029160
29643.930319	-422.733333	1929.129883	-80.483040
29643.930319	-422.733333	1928.153320	79.971695
29643.930319	-422.733333	1927.175781	223.246918
29643.930319	-422.733333	1926.198242	-51.576221
29643.930319	-422.733333	1925.219727	-59.873631
29643.930319	-422.733333	1924.242188	-90.155006
29643.930319	-422.733333	1923.263672	67.710564
29643.930319	-422.733333	1922.285156	-16.326693
29643.930319	-422.733333	1921.306641	-68.577278
29643.930319	-422.733333	1920.328125	-42.664230
29643.930319	-422.733333	1919.349609	295.760132
29643.930319	-422.733333	1918.370117	1.815967
29643.930319	-422.733333	1917.391602	39.913364
29643.930319	-422.733333	1916.412109	-144.060898
29643.930319	-422.733333	1915.431641	74.584610
29643.930319	-422.733333	1914.452148	-48.341667
29643.930319	-422.733333	1913.472656	-207.799667
29643.930319	-422.733333	1912.492188	-8.764932
29643.930319	-422.733333	1911.511719	-68.217072
29643.930319	-422.733333	1910.531250	306.218872
29643.930319	-422.733333	1909.550781	-82.257957
29643.930319	-422.733333	1908.569336	287.167908
29643.930319	-422.733333	1907.588867	40.136837
29643.930319	-422.733333	1906.607422	263.268097
29643.930319	-422.733333	1905.625977	60.165974
29643.930319	-422.733333	1904.644531	10.527666
29643.930319	-422.733333	1903.662109	-238.702484
29643.930319	-422.733333	1902.680664	-176.307983
29643.930319	-422.733333	1901.698242	32.062828
29643.930319	-422.733333	1900.715820	-58.890072
29643.930319	-422.733333	1899.733398	-88.996880
29643.930319	-422.733333	1898.750000	29.257071
29643.930319	-422.733333	1897.767578	329.836212
29643.930319	-422.733333	1896.784180	112.480942
29643.930319	-422.733333	1895.800781	291.398987
29643.930319	-422.733333	1894.817383	-168.882477
29643.930319	-422.733333	1893.833984	10.023142
29643.930319	-422.733333	1892.850586	96.549286
29643.930319	-422.733333	1891.866211	47.027012
29643.930319	-422.733333	1890.881836	-34.044971
29643.930319	-422.733333	1889.897461	18.446447
29643.930319	-422.733333	1888.913086	63.637821
29643.930319	-422.733333	1887.927734	-97.487457
29643.930319	-422.733333	1886.943359	-103.250206
29643.930319	-422.733333	1885.958008	19.564573
29643.930319	-422.733333	1884.972656	122.928207
29643.930319	-422.733333	1883.987305	238.379578
29643.930319	-422.733333	1883.001953	14.324730
29643.930319	-422.733333	1882.015625	-6.012701
29643.930319	-422.733333	1881.029297	182.102264
29643.930319	-422.733333	1880.042969	9.065889
29643.930319	-422.733333	1879.056641	172.874084
29643.930319	-422.733333	1878.070313	7.167271
29643.930319	-422.733333	1877.083984	35.279221
29643.930319	-422.733333	1876.096680	-35.910210
29643.930319	-422.733333	1875.109375	154.400345
29643.930319	-422.733333	1874.122070	-100.756134
29643.930319	-422.733333	1873.134766	33.825226
29643.930319	-422.733333	1872.146484	320.789886
29643.930319	-422.733333	1871.159180	31.865795
29643.930319	-422.733333	1870.170898	11.527685
29643.930319	-422.733333	1869.182617	95.182381
29643.930319	-422.733333	1868.194336	171.546463
29643.930319	-422.733333	1867.205078	325.232178
29643.930319	-422.733333	1866.216797	-149.557938
29643.930319	-422.733333	1865.227539	195.025848
29643.930319	-422.733333	1864.238281	36.929428
29643.930319	-422.733333	1863.249023	151.853729
29643.930319	-422.733333	1862.259766	44.532913
29643.930319	-422.733333	1861.269531	-156.932526
29643.930319	-422.733333	1860.279297	-97.588882
29643.930319	-422.733333	1859.290039	178.976547
29643.930319	-422.733333	1858.298828	192.364563
29643.930319	-422.733333	1857.308594	372.235596
29643.930319	-422.733333	1856.318359	-26.958273
29643.930319	-422.733333	1855.327148	174.574844
29643.930319	-422.733333	1854.335938	318.148041
29643.930319	-422.733333	1853.344727	145.804031
29643.930319	-422.733333	1852.353516	-175.941788
29643.930319	-422.733333	1851.362305	131.484573
29643.930319	-422.733333	1850.370117	-156.423843
29643.930319	-422.733333	1849.377930	6.302300
29643.930319	-422.733333	1848.385742	154.506546
29643.930319	-422.733333	1847.393555	49.764805
29643.930319	-422.733333	1846.401367	-18.827438
29643.930319	-422.733333	1845.408203	271.304840
29643.930319	-422.733333	1844.415039	149.716980
29643.930319	-422.733333	1843.421875	184.592361
29643.930319	-422.733333	1842.428711	132.823288
29643.930319	-422.733333	1841.435547	49.788456
29643.930319	-422.733333	1840.441406	219.316772
29643.930319	-422.733333	1839.448242	-121.035446
29643.930319	-422.733333	1838.454102	231.165237
29643.930319	-422.733333	1837.459961	47.161705
29643.930319	-422.733333	1836.464844	9.818004
29643.930319	-422.733333	1835.470703	453.071381
29643.930319	-422.733333	1834.475586	252.271225
29643.930319	-422.733333	1833.480469	133.201492
29643.930319	-422.733333	1832.485352	95.818970
29643.930319	-422.733333	1831.490234	267.338287
29643.930319	-422.733333	1830.495117	-74.971237
29643.930319	-422.733333	1829.499023	-261.151886
29643.930319	-422.733333	1828.502930	-77.710678
29643.930319	-422.733333	1827.506836	196.820938
29643.930319	-422.733333	1826.510742	312.909515
29643.930319	-422.733333	1825.513672	292.223724
29643.930319	-422.733333	1824.517578	300.310394
29643.930319	-422.733333	1823.520508	373.108582
29643.930319	-422.733333	1822.523438	-107.859413
29643.930319	-422.733333	1821.526367	22.476570
29643.930319	-422.733333	1820.529297	265.368256
29643.930319	-422.733333	1819.531250	223.054550
29643.930319	-422.733333	1818.533203	147.210175
29643.930319	-422.733333	1817.535156	212.668961
29643.930319	-422.733333	1816.537109	-52.332996
29643.930319	-422.733333	1815.539063	230.952179
29643.930319	-422.733333	1814.540039	413.583618
29643.930319	-422.733333	1813.541992	253.932724
29643.930319	-422.733333	1812.542969	218.735107
29643.930319	-422.733333	1811.543945	95.023071
29643.930319	-422.733333	1810.543945	55.045155
29643.930319	-422.733333	1809.544922	247.012726
29643.930319	-422.733333	1808.544922	245.235504
29643.930319	-422.733333	1807.544922	18.753700
29643.930319	-422.733333	1806.544922	186.662827
29643.930319	-422.733333	1805.544922	36.699059
29643.930319	-422.733333	1804.544922	-311.506927
29643.930319	-422.733333	1803.543945	357.889069
29643.930319	-422.733333	1802.542969	12.099131
29643.930319	-422.733333	1801.541992	41.269623
29643.930319	-422.733333	1800.541016	46.539063
29643.930319	-422.733333	1799.539063	-67.553139
29643.930319	-422.733333	1798.538086	61.778965
29643.930319	-422.733333	1797.536133	257.838959
29643.930319	-422.733333	1796.534180	127.014877
29643.930319	-422.733333	1795.532227	-20.474674
29643.930319	-422.733333	1794.529297	120.581535
29643.930319	-422.733333	1793.527344	330.702057
29643.930319	-422.733333	1792.524414	25.879778
29643.930319	-422.733333	1791.521484	192.996964
29643.930319	-422.733333	1790.518555	240.901154
29643.930319	-422.733333	1789.514648	272.084747
29643.930319	-422.733333	1788.511719	260.369232
29643.930319	-422.733333	1787.507813	215.294189
29643.930319	-422.733333	1786.503906	36.888504
29643.930319	-422.733333	1785.500000	77.523148
29643.930319	-422.733333	1784.496094	130.020309
29643.930319	-422.733333	1783.491211	122.981659
29643.930319	-422.733333	1782.486328	151.609985
29643.930319	-422.733333	1781.481445	380.004822
29643.930319	-422.733333	1780.476563	294.380890
29643.930319	-422.733333	1779.471680	44.708866
29643.930319	-422.733333	1778.465820	37.576664
29643.930319	-422.733333	1777.460938	213.442917
29643.930319	-422.733333	1776.455078	118.313675
29643.930319	-422.733333	1775.449219	203.762955
29643.930319	-422.733333	1774.442383	127.626678
29643.930319	-422.733333	1773.436523	108.498421
29643.930319	-422.733333	1772.429688	41.858685
29643.930319	-422.733333	1771.422852	141.406586
29643.930319	-422.733333	1770.416016	-22.576672
29643.930319	-422.733333	1769.409180	254.883484
29643.930319	-422.733333	1768.402344	188.175674
29643.930319	-422.733333	1767.394531	19.458006
29643.930319	-422.733333	1766.386719	206.550797
29643.930319	-422.733333	1765.378906	-230.114349
29643.930319	-422.733333	1764.371094	137.093414
29643.930319	-422.733333	1763.362305	98.789162
29643.930319	-422.733333	1762.354492	39.152828
29643.930319	-422.733333	1761.345703	372.850098
29643.930319	-422.733333	1760.336914	28.842085
29643.930319	-422.733333	1759.328125	222.618988
29643.930319	-422.733333	1758.318359	63.434471
29643.930319	-422.733333	1757.308594	8.466491
29643.930319	-422.733333	1756.299805	83.703621
29643.930319	-422.733333	1755.290039	-89.635933
29643.930319	-422.733333	1754.279297	-16.833452
29643.930319	-422.733333	1753.269531	-142.816025
29643.930319	-422.733333	1752.258789	166.468430
29643.930319	-422.733333	1751.249023	-54.147308
29643.930319	-422.733333	1750.238281	-59.533096
29643.930319	-422.733333	1749.226563	10.705582
29643.930319	-422.733333	1748.215820	121.083252
29643.930319	-422.733333	1747.204102	4.519020
29643.930319	-422.733333	1746.193359	-60.034992
29643.930319	-422.733333	1745.181641	-65.538651
29643.930319	-422.733333	1744.168945	-26.191175
29643.930319	-422.733333	1743.157227	-5.768842
29643.930319	-422.733333	1742.144531	253.075027
29643.930319	-422.733333	1741.132813	374.894318
29643.930319	-422.733333	1740.120117	149.705551
29643.930319	-422.733333	1739.106445	-49.471710
29643.930319	-422.733333	1738.093750	150.111847
29643.930319	-422.733333	1737.080078	-44.316399
29643.930319	-422.733333	1736.067383	-153.790253
29643.930319	-422.733333	1735.053711	-67.551170
29643.930319	-422.733333	1734.040039	-129.881607
29643.930319	-422.733333	1733.025391	128.323288
29643.930319	-422.733333	1732.011719	-122.583405
29643.930319	-422.733333	1730.997070	-38.868656
29643.930319	-422.733333	1729.982422	-25.875383
29643.930319	-422.733333	1728.967773	-168.345657
29643.930319	-422.733333	1727.952148	-157.739166
29643.930319	-422.733333	1726.937500	34.125515
29643.930319	-422.733333	1725.921875	87.014450
29643.930319	-422.733333	1724.906250	-78.997192
29643.930319	-422.733333	1723.890625	124.432495
29643.930319	-422.733333	1722.875000	43.122028
29643.930319	-422.733333	1721.858398	22.965174
29643.930319	-422.733333	1720.841797	-300.550720
29643.930319	-422.733333	1719.825195	-276.007568
29643.930319	-422.733333	1718.808594	-211.532120
29643.930319	-422.733333	1717.791992	-332.766846
29643.930319	-422.733333	1716.774414	227.437866
29643.930319	-422.733333	1715.756836	117.864349
29643.930319	-422.733333	1714.739258	-198.383698
29643.930319	-422.733333	1713.721680	13.852084
29643.930319	-422.733333	1712.704102	-128.549210
29643.930319	-422.733333	1711.685547	-36.174400
29643.930319	-422.733333	1710.667969	145.336227
29643.930319	-422.733333	1709.649414	-135.521255
29643.930319	-422.733333	1708.630859	45.895054
29643.930319	-422.733333	1707.611328	-49.573990
29643.930319	-422.733333	1706.592773	258.359192
29643.930319	-422.733333	1705.573242	83.126144
29643.930319	-422.733333	1704.553711	-167.076492
29643.930319	-422.733333	1703.534180	-77.340324
29643.930319	-422.733333	1702.513672	-41.562809
29643.930319	-422.733333	1701.494141	158.198090
29643.930319	-422.733333	1700.473633	-98.932854
29643.930319	-422.733333	1699.453125	81.983269
29643.930319	-422.733333	1698.432617	52.065823
29643.930319	-422.733333	1697.412109	267.967377
29643.930319	-422.733333	1696.390625	57.749401
29643.930319	-422.733333	1695.369141	102.684845
29643.930319	-422.733333	1694.347656	-93.415497
29643.930319	-422.733333	1693.326172	-83.590462
29643.930319	-422.733333	1692.304688	-148.632767
29643.930319	-422.733333	1691.282227	-49.977089
29643.930319	-422.733333	1690.260742	88.375557
29643.930319	-422.733333	1689.238281	207.954010
29643.930319	-422.733333	1688.214844	-9.083305
29643.930319	-422.733333	1687.192383	325.411102
29643.930319	-422.733333	1686.168945	64.018761
29643.930319	-422.733333	1685.146484	169.434082
29643.930319	-422.733333	1684.123047	-112.874733
29643.930319	-422.733333	1683.099609	380.090057
29643.930319	-422.733333	1682.075195	207.532394
29643.930319	-422.733333	1681.051758	56.039356
29643.930319	-422.733333	1680.027344	151.940414
29643.930319	-422.733333	1679.002930	-62.508835
29643.930319	-422.733333	1677.978516	138.320801
29643.930319	-422.733333	1676.953125	220.111755
29643.930319	-422.733333	1675.928711	479.078156
29643.930319	-422.733333	1674.903320	444.184143
29643.930319	-422.733333	1673.877930	274.103394
29643.930319	-422.733333	1672.852539	132.041260
29643.930319	-422.733333	1671.826172	111.174271
29643.930319	-422.733333	1670.800781	55.367035
29643.930319	-422.733333	1669.774414	341.935242
29643.930319	-422.733333	1668.748047	435.109192
29643.930319	-422.733333	1667.721680	290.766174
29643.930319	-422.733333	1666.694336	234.914719
29643.930319	-422.733333	1665.667969	72.030830
29643.930319	-422.733333	1664.640625	253.559067
29643.930319	-422.733333	1663.613281	46.509064
29643.930319	-422.733333	1662.585938	325.642853
29643.930319	-422.733333	1661.557617	290.719025
29643.930319	-422.733333	1660.530273	272.082733
29643.930319	-422.733333	1659.501953	225.545685
29643.930319	-422.733333	1658.473633	313.816803
29643.930319	-422.733333	1657.444336	18.637035
29643.930319	-422.733333	1656.416016	278.818390
29643.930319	-422.733333	1655.386719	262.477295
29643.930319	-422.733333	1654.358398	462.121063
29643.930319	-422.733333	1653.328125	255.341080
29643.930319	-422.733333	1652.298828	452.568115
29643.930319	-422.733333	1651.269531	545.273621
29643.930319	-422.733333	1650.239258	234.161499
29643.930319	-422.733333	1649.208984	310.616425
29643.930319	-422.733333	1648.178711	547.089966
29643.930319	-422.733333	1647.148438	472.703461
29643.930319	-422.733333	1646.117188	546.731201
29643.930319	-422.733333	1645.086914	539.598511
29643.930319	-422.733333	1644.055664	706.292847
29643.930319	-422.733333	1643.024414	662.042664
29643.930319	-422.733333	1641.992188	722.059753
29643.930319	-422.733333	1640.960938	615.277161
29643.930319	-422.733333	1639.928711	800.344543
29643.930319	-422.733333	1638.896484	802.408325
29643.930319	-422.733333	1637.864258	693.347778
29643.930319	-422.733333	1636.832031	767.188660
29643.930319	-422.733333	1635.798828	602.630981
29643.930319	-422.733333	1634.766602	870.818787
29643.930319	-422.733333	1633.733398	909.878357
29643.930319	-422.733333	1632.699219	673.687012
29643.930319	-422.733333	1631.666016	569.404358
29643.930319	-422.733333	1630.632813	858.199158
29643.930319	-422.733333	1629.598633	1035.925781
29643.930319	-422.733333	1628.564453	1128.076416
29643.930319	-422.733333	1627.530273	1307.997070
29643.930319	-422.733333	1626.495117	1178.284302
29643.930319	-422.733333	1625.460938	1235.718750
29643.930319	-422.733333	1624.425781	1173.047852
29643.930319	-422.733333	1623.390625	1151.965088
29643.930319	-422.733333	1622.355469	1105.503784
29643.930319	-422.733333	1621.319336	1239.078979
29643.930319	-422.733333	1620.284180	1271.086426
29643.930319	-422.733333	1619.248047	1141.588257
29643.930319	-422.733333	1618.211914	1309.697632
29643.930319	-422.733333	1617.174805	1184.860596
29643.930319	-422.733333	1616.138672	979.391052
29643.930319	-422.733333	1615.101563	1276.544434
29643.930319	-422.733333	1614.065430	1292.411621
29643.930319	-422.733333	1613.027344	1485.703857
29643.930319	-422.733333	1611.990234	1404.773315
29643.930319	-422.733333	1610.953125	1277.816162
29643.930319	-422.733333	1609.915039	1010.427185
29643.930319	-422.733333	1608.876953	1132.286011
29643.930319	-422.733333	1607.838867	1219.574463
29643.930319	-422.733333	1606.800781	1387.400391
29643.930319	-422.733333	1605.761719	1136.347046
29643.930319	-422.733333	1604.723633	1297.243286
29643.930319	-422.733333	1603.684570	1294.763062
29643.930319	-422.733333	1602.644531	1462.478882
29643.930319	-422.733333	1601.605469	1305.934570
29643.930319	-422.733333	1600.566406	1200.039551
29643.930319	-422.733333	1599.526367	1395.300781
29643.930319	-422.733333	1598.486328	1335.413208
29643.930319	-422.733333	1597.446289	907.947449
29643.930319	-422.733333	1596.405273	1328.311279
29643.930319	-422.733333	1595.365234	1091.671021
29643.930319	-422.733333	1594.324219	990.614868
29643.930319	-422.733333	1593.283203	1135.265381
29643.930319	-422.733333	1592.242188	1376.283203
29643.930319	-422.733333	1591.200195	1523.126587
29643.930319	-422.733333	1590.159180	1105.495117
29643.930319	-422.733333	1589.117188	1064.258423
29643.930319	-422.733333	1588.075195	1406.085938
29643.930319	-422.733333	1587.032227	1185.973022
29643.930319	-422.733333	1585.990234	1481.826294
29643.930319	-422.733333	1584.947266	1087.616943
29643.930319	-422.733333	1583.904297	1426.949829
29643.930319	-422.733333	1582.861328	1225.419067
29643.930319	-422.733333	1581.818359	1111.038696
29643.930319	-422.733333	1580.775391	1088.344238
29643.930319	-422.733333	1579.731445	1189.331421
29643.930319	-422.733333	1578.687500	1217.036621
29643.930319	-422.733333	1577.643555	878.499084
29643.930319	-422.733333	1576.598633	883.408264
29643.930319	-422.733333	1575.554688	1183.521484
29643.930319	-422.733333	1574.509766	964.216858
29643.930319	-422.733333	1573.464844	1136.149658
29643.930319	-422.733333	1572.419922	1099.935425
29643.930319	-422.733333	1571.374023	942.576172
29643.930319	-422.733333	1570.329102	1116.772339
29643.930319	-422.733333	1569.283203	890.956970
29643.930319	-422.733333	1568.237305	1069.710938
29643.930319	-422.733333	1567.191406	1255.274902
29643.930319	-422.733333	1566.144531	1148.414551
29643.930319	-422.733333	1565.098633	991.388611
29643.930319	-422.733333	1564.051758	1087.886353
29643.930319	-422.733333	1563.004883	1382.978760
29643.930319	-422.733333	1561.957031	1116.517578
29643.930319	-422.733333	1560.910156	1210.737915
29643.930319	-422.733333	1559.862305	1065.389648
29643.930319	-422.733333	1558.814453	1013.651306
29643.930319	-422.733333	1557.766602	763.550415
29643.930319	-422.733333	1556.718750	935.403748
29643.930319	-422.733333	1555.669922	986.391357
29643.930319	-422.733333	1554.621094	943.939331
29643.930319	-422.733333	1553.573242	997.251282
29643.930319	-422.733333	1552.523438	1018.665405
29643.930319	-422.733333	1551.474609	1090.222900
29643.930319	-422.733333	1550.424805	929.481140
29643.930319	-422.733333	1549.375000	1073.949951
29643.930319	-422.733333	1548.325195	933.828918
29643.930319	-422.733333	1547.275391	984.987549
29643.930319	-422.733333	1546.225586	583.307007
29643.930319	-422.733333	1545.174805	953.104370
29643.930319	-422.733333	1544.124023	840.543701
29643.930319	-422.733333	1543.073242	903.183960
29643.930319	-422.733333	1542.022461	1031.777466
29643.930319	-422.733333	1540.970703	1128.520142
29643.930319	-422.733333	1539.919922	970.696716
29643.930319	-422.733333	1538.868164	1124.300659
29643.930319	-422.733333	1537.815430	962.056824
29643.930319	-422.733333	1536.763672	1115.675537
29643.930319	-422.733333	1535.710938	1176.146484
29643.930319	-422.733333	1534.659180	1309.298828
29643.930319	-422.733333	1533.606445	1235.837280
29643.930319	-422.733333	1532.552734	1101.152832
29643.930319	-422.733333	1531.500000	1300.164307
29643.930319	-422.733333	1530.446289	1424.254395
29643.930319	-422.733333	1529.393555	1403.157959
29643.930319	-422.733333	1528.338867	1463.749146
29643.930319	-422.733333	1527.285156	1397.375122
29643.930319	-422.733333	1526.231445	1185.972778
29643.930319	-422.733333	1525.176758	763.886902
29643.930319	-422.733333	1524.122070	808.853333
29643.930319	-422.733333	1523.067383	969.397644
29643.930319	-422.733333	1522.012695	860.344299
29643.930319	-422.733333	1520.957031	678.896057
29643.930319	-422.733333	1519.901367	436.421143
29643.930319	-422.733333	1518.845703	689.898254
29643.930319	-422.733333	1517.790039	216.720352
29643.930319	-422.733333	1516.734375	490.594635
29643.930319	-422.733333	1515.677734	357.120422
29643.930319	-422.733333	1514.621094	379.837708
29643.930319	-422.733333	1513.564453	599.359985
29643.930319	-422.733333	1512.507813	359.794861
29643.930319	-422.733333	1511.450195	509.232147
29643.930319	-422.733333	1510.393555	428.096619
29643.930319	-422.733333	1509.335938	525.571472
29643.930319	-422.733333	1508.278320	238.934555
29643.930319	-422.733333	1507.219727	365.861786
29643.930319	-422.733333	1506.162109	29.771681
29643.930319	-422.733333	1505.103516	131.941544
29643.930319	-422.733333	1504.044922	439.570984
29643.930319	-422.733333	1502.986328	119.601578
29643.930319	-422.733333	1501.926758	192.488708
29643.930319	-422.733333	1500.868164	127.759842
29643.930319	-422.733333	1499.808594	56.331360
29643.930319	-422.733333	1498.749023	129.330353
29643.930319	-422.733333	1497.688477	62.530716
29643.930319	-422.733333	1496.628906	392.617706
29643.930319	-422.733333	1495.568359	488.187805
29643.930319	-422.733333	1494.507813	254.727249
29643.930319	-422.733333	1493.447266	226.454956
29643.930319	-422.733333	1492.386719	94.611374
29643.930319	-422.733333	1491.325195	-34.878990
29643.930319	-422.733333	1490.263672	236.567596
29643.930319	-422.733333	1489.202148	226.525513
29643.930319	-422.733333	1488.140625	-28.823421
29643.930319	-422.733333	1487.079102	186.345154
29643.930319	-422.733333	1486.016602	16.706013
29643.930319	-422.733333	1484.954102	-296.794098
29643.930319	-422.733333	1483.891602	-167.022247
29643.930319	-422.733333	1482.829102	-79.976318
29643.930319	-422.733333	1481.765625	189.198334
29643.930319	-422.733333	1480.702148	-0.231464
29643.930319	-422.733333	1479.638672	-18.738228
29643.930319	-422.733333	1478.575195	-39.437061
29643.930319	-422.733333	1477.511719	124.138962
29643.930319	-422.733333	1476.447266	92.334930
29643.930319	-422.733333	1475.382813	-53.920464
29643.930319	-422.733333	1474.318359	-231.439606
29643.930319	-422.733333	1473.253906	-25.142303
29643.930319	-422.733333	1472.189453	-49.946419
29643.930319	-422.733333	1471.124023	-229.426544
29643.930319	-422.733333	1470.058594	429.767609
29643.930319	-422.733333	1468.993164	295.341217
29643.930319	-422.733333	1467.927734	199.140076
29643.930319	-422.733333	1466.861328	194.570251
29643.930319	-422.733333	1465.794922	118.749405
29643.930319	-422.733333	1464.728516	221.884628
29643.930319	-422.733333	1463.662109	285.048279
29643.930319	-422.733333	1462.594727	75.318481
29643.930319	-422.733333	1461.528320	335.039246
29643.930319	-422.733333	1460.460938	303.978119
29643.930319	-422.733333	1459.393555	304.209503
29643.930319	-422.733333	1458.326172	430.373993
29643.930319	-422.733333	1457.257813	499.675049
29643.930319	-422.733333	1456.189453	341.911377
29643.930319	-422.733333	1455.121094	193.528412
29643.930319	-422.733333	1454.052734	713.946106
29643.930319	-422.733333	1452.984375	827.420288
29643.930319	-422.733333	1451.915039	1028.017944
29643.930319	-422.733333	1450.845703	1016.137085
29643.930319	-422.733333	1449.776367	752.477051
29643.930319	-422.733333	1448.707031	784.465576
29643.930319	-422.733333	1447.636719	636.558411
29643.930319	-422.733333	1446.567383	866.105896
29643.930319	-422.733333	1445.497070	807.529236
29643.930319	-422.733333	1444.425781	678.822876
29643.930319	-422.733333	1443.355469	633.276123
29643.930319	-422.733333	1442.285156	432.159363
29643.930319	-422.733333	1441.213867	506.643433
29643.930319	-422.733333	1440.142578	566.424744
29643.930319	-422.733333	1439.070313	669.363708
29643.930319	-422.733333	1437.999023	863.298096
29643.930319	-422.733333	1436.926758	469.124573
29643.930319	-422.733333	1435.854492	580.166321
29643.930319	-422.733333	1434.782227	487.173218
29643.930319	-422.733333	1433.709961	628.401184
29643.930319	-422.733333	1432.636719	416.996033
29643.930319	-422.733333	1431.563477	584.007263
29643.930319	-422.733333	1430.490234	357.438721
29643.930319	-422.733333	1429.416992	337.518860
29643.930319	-422.733333	1428.343750	331.622650
29643.930319	-422.733333	1427.269531	693.308289
29643.930319	-422.733333	1426.195313	290.298798
29643.930319	-422.733333	1425.121094	125.443741
29643.930319	-422.733333	1424.046875	291.286011
29643.930319	-422.733333	1422.971680	517.821472
29643.930319	-422.733333	1421.896484	532.124573
29643.930319	-422.733333	1420.821289	207.384567
29643.930319	-422.733333	1419.746094	0.958876
29643.930319	-422.733333	1418.669922	306.384583
29643.930319	-422.733333	1417.594727	369.798187
29643.930319	-422.733333	1416.518555	276.043579
29643.930319	-422.733333	1415.442383	122.544388
29643.930319	-422.733333	1414.365234	268.171906
29643.930319	-422.733333	1413.289063	71.997719
29643.930319	-422.733333	1412.211914	433.854431
29643.930319	-422.733333	1411.134766	613.333374
29643.930319	-422.733333	1410.057617	240.696198
29643.930319	-422.733333	1408.979492	475.335876
29643.930319	-422.733333	1407.902344	90.538353
29643.930319	-422.733333	1406.824219	214.554642
29643.930319	-422.733333	1405.746094	606.071533
29643.930319	-422.733333	1404.666992	601.624817
29643.930319	-422.733333	1403.588867	351.775421
29643.930319	-422.733333	1402.509766	449.085236
29643.930319	-422.733333	1401.430664	130.498718
29643.930319	-422.733333	1400.351563	215.820374
29643.930319	-422.733333	1399.271484	332.304962
29643.930319	-422.733333	1398.192383	595.301941
29643.930319	-422.733333	1397.112305	448.826813
29643.930319	-422.733333	1396.031250	319.022186
29643.930319	-422.733333	1394.951172	321.860229
29643.930319	-422.733333	1393.871094	483.441498
29643.930319	-422.733333	1392.790039	110.698685
29643.930319	-422.733333	1391.708984	581.856995
29643.930319	-422.733333	1390.626953	454.052429
29643.930319	-422.733333	1389.545898	660.348450
29643.930319	-422.733333	1388.463867	820.628540
29643.930319	-422.733333	1387.381836	659.260193
29643.930319	-422.733333	1386.299805	436.460083
29643.930319	-422.733333	1385.217773	619.212341
29643.930319	-422.733333	1384.134766	669.985229
29643.930319	-422.733333	1383.051758	690.650024
29643.930319	-422.733333	1381.968750	644.604919
29643.930319	-422.733333	1380.885742	912.703186
29643.930319	-422.733333	1379.802734	1007.714172
29643.930319	-422.733333	1378.718750	817.537964
29643.930319	-422.733333	1377.634766	772.078796
29643.930319	-422.733333	1376.550781	922.215271
29643.930319	-422.733333	1375.465820	655.269531
29643.930319	-422.733333	1374.381836	876.614258
29643.930319	-422.733333	1373.296875	920.003357
29643.930319	-422.733333	1372.211914	779.420837
29643.930319	-422.733333	1371.126953	918.034424
29643.930319	-422.733333	1370.041016	722.600037
29643.930319	-422.733333	1368.955078	817.958923
29643.930319	-422.733333	1367.869141	725.194885
29643.930319	-422.733333	1366.783203	1031.442383
29643.930319	-422.733333	1365.697266	834.769531
29643.930319	-422.733333	1364.610352	752.590576
29643.930319	-422.733333	1363.523438	1041.535767
29643.930319	-422.733333	1362.436523	1058.280518
29643.930319	-422.733333	1361.349609	857.724915
29643.930319	-422.733333	1360.261719	687.459290
29643.930319	-422.733333	1359.174805	1005.481995
29643.930319	-422.733333	1358.086914	596.626099
29643.930319	-422.733333	1356.998047	827.803711
29643.930319	-422.733333	1355.910156	522.006897
29643.930319	-422.733333	1354.821289	436.994965
29643.930319	-422.733333	1353.732422	920.147583
29643.930319	-422.733333	1352.643555	580.187134
29643.930319	-422.733333	1351.554688	644.982422
29643.930319	-422.733333	1350.464844	894.639709
29643.930319	-422.733333	1349.375000	741.958435
29643.930319	-422.733333	1348.285156	688.567200
29643.930319	-422.733333	1347.195313	716.307434
29643.930319	-422.733333	1346.105469	1001.255005
29643.930319	-422.733333	1345.014648	1054.610107
29643.930319	-422.733333	1343.923828	1549.781372
29643.930319	-422.733333	1342.833008	1671.832886
29643.930319	-422.733333	1341.741211	1819.685547
29643.930319	-422.733333	1340.650391	1964.453613
29643.930319	-422.733333	1339.558594	2091.350342
29643.930319	-422.733333	1338.466797	1857.739380
29643.930319	-422.733333	1337.374023	1785.830811
29643.930319	-422.733333	1336.282227	1183.031372
29643.930319	-422.733333	1335.189453	1083.226807
29643.930319	-422.733333	1334.096680	971.428650
29643.930319	-422.733333	1333.003906	754.808533
29643.930319	-422.733333	1331.910156	1089.168579
29643.930319	-422.733333	1330.817383	793.552002
29643.930319	-422.733333	1329.723633	726.694153
29643.930319	-422.733333	1328.629883	397.948547
29643.930319	-422.733333	1327.535156	626.670105
29643.930319	-422.733333	1326.441406	757.044250
29643.930319	-422.733333	1325.346680	600.736450
29643.930319	-422.733333	1324.251953	585.476929
29643.930319	-422.733333	1323.156250	473.821960
29643.930319	-422.733333	1322.061523	438.251587
29643.930319	-422.733333	1320.965820	243.593643
29643.930319	-422.733333	1319.870117	412.552795
29643.930319	-422.733333	1318.774414	250.888428
29643.930319	-422.733333	1317.678711	524.219299
29643.930319	-422.733333	1316.582031	336.693604
29643.930319	-422.733333	1315.485352	494.445618
29643.930319	-422.733333	1314.388672	31.199547
29643.930319	-422.733333	1313.291016	199.980667
29643.930319	-422.733333	1312.194336	524.852478
29643.930319	-422.733333	1311.096680	388.947998
29643.930319	-422.733333	1309.999023	174.844635
29643.930319	-422.733333	1308.901367	347.471710
29643.930319	-422.733333	1307.802734	262.788208
29643.930319	-422.733333	1306.705078	353.302643
29643.930319	-422.733333	1305.606445	300.515503
29643.930319	-422.733333	1304.506836	434.100250
29643.930319	-422.733333	1303.408203	170.069199
29643.930319	-422.733333	1302.308594	229.362396
29643.930319	-422.733333	1301.208984	351.412506
29643.930319	-422.733333	1300.109375	282.959351
29643.930319	-422.733333	1299.009766	261.656799
29643.930319	-422.733333	1297.909180	350.778534
29643.930319	-422.733333	1296.808594	158.743439
29643.930319	-422.733333	1295.708008	257.959290
29643.930319	-422.733333	1294.607422	155.593597
29643.930319	-422.733333	1293.506836	146.849106
29643.930319	-422.733333	1292.405273	338.491760
29643.930319	-422.733333	1291.303711	76.082878
29643.930319	-422.733333	1290.202148	303.067383
29643.930319	-422.733333	1289.099609	77.961250
29643.930319	-422.733333	1287.998047	-155.071548
29643.930319	-422.733333	1286.895508	83.081566
29643.930319	-422.733333	1285.792969	127.397820
29643.930319	-422.733333	1284.689453	-126.788330
29643.930319	-422.733333	1283.586914	16.407606
29643.930319	-422.733333	1282.483398	165.621780
29643.930319	-422.733333	1281.379883	-88.670578
29643.930319	-422.733333	1280.276367	22.203892
29643.930319	-422.733333	1279.171875	92.751625
29643.930319	-422.733333	1278.067383	129.195801
29643.930319	-422.733333	1276.962891	-53.473763
29643.930319	-422.733333	1275.858398	172.215118
29643.930319	-422.733333	1274.753906	191.113571
29643.930319	-422.733333	1273.648438	253.636292
29643.930319	-422.733333	1272.542969	26.566942
29643.930319	-422.733333	1271.437500	-76.757042
29643.930319	-422.733333	1270.331055	81.872047
29643.930319	-422.733333	1269.225586	-91.601219
29643.930319	-422.733333	1268.119141	102.012497
29643.930319	-422.733333	1267.012695	8.811206
29643.930319	-422.733333	1265.906250	-13.521940
29643.930319	-422.733333	1264.798828	-12.165888
29643.930319	-422.733333	1263.691406	81.553520
29643.930319	-422.733333	1262.583984	54.881935
29643.930319	-422.733333	1261.476563	-14.427202
29643.930319	-422.733333	1260.368164	-8.169974
29643.930319	-422.733333	1259.260742	-3.237972
29643.930319	-422.733333	1258.152344	-273.611572
29643.930319	-422.733333	1257.043945	-155.356949
29643.930319	-422.733333	1255.934570	-56.158802
29643.930319	-422.733333	1254.825195	-4.354785
29643.930319	-422.733333	1253.716797	-119.061882
29643.930319	-422.733333	1252.606445	-115.518852
29643.930319	-422.733333	1251.497070	-109.034714
29643.930319	-422.733333	1250.387695	-91.444565
29643.930319	-422.733333	1249.277344	-105.276833
29643.930319	-422.733333	1248.166992	67.548744
29643.930319	-422.733333	1247.055664	-273.834106
29643.930319	-422.733333	1245.945313	-182.268402
29643.930319	-422.733333	1244.833984	-352.156158
29643.930319	-422.733333	1243.722656	-192.298035
29643.930319	-422.733333	1242.611328	-153.460083
29643.930319	-422.733333	1241.499023	-14.082808
29643.930319	-422.733333	1240.387695	-158.222107
29643.930319	-422.733333	1239.275391	87.139923
29643.930319	-422.733333	1238.162109	-190.735443
29643.930319	-422.733333	1237.049805	-255.224442
29643.930319	-422.733333	1235.936523	-194.059143
29643.930319	-422.733333	1234.823242	-17.751154
29643.930319	-422.733333	1233.709961	25.488165
29643.930319	-422.733333	1232.596680	-46.951015
29643.930319	-422.733333	1231.482422	-110.759171
29643.930319	-422.733333	1230.369141	-297.246155
29643.930319	-422.733333	1229.253906	-92.435577
29643.930319	-422.733333	1228.139648	-68.718773
29643.930319	-422.733333	1227.025391	35.362232
29643.930319	-422.733333	1225.910156	40.304470
29643.930319	-422.733333	1224.794922	-2.292313
29643.930319	-422.733333	1223.679688	-45.518402
29643.930319	-422.733333	1222.563477	-45.122868
29643.930319	-422.733333	1221.447266	88.964752
29643.930319	-422.733333	1220.331055	-25.630991
29643.930319	-422.733333	1219.214844	35.716431
29643.930319	-422.733333	1218.098633	245.309311
29643.930319	-422.733333	1216.981445	44.787254
29643.930319	-422.733333	1215.864258	-30.781233
29643.930319	-422.733333	1214.747070	134.867096
29643.930319	-422.733333	1213.629883	-40.190056
29643.930319	-422.733333	1212.511719	-97.463516
29643.930319	-422.733333	1211.393555	-13.222622
29643.930319	-422.733333	1210.275391	139.790009
29643.930319	-422.733333	1209.157227	54.646233
29643.930319	-422.733333	1208.038086	159.069565
29643.930319	-422.733333	1206.918945	146.353210
29643.930319	-422.733333	1205.799805	133.809250
29643.930319	-422.733333	1204.680664	78.605217
29643.930319	-422.733333	1203.560547	145.759567
29643.930319	-422.733333	1202.441406	176.579865
29643.930319	-422.733333	1201.321289	48.540901
29643.930319	-422.733333	1200.200195	41.034805
29643.930319	-422.733333	1199.080078	207.216888
29643.930319	-422.733333	1197.958984	260.348969
29643.930319	-422.733333	1196.837891	119.835678
29643.930319	-422.733333	1195.716797	175.787918
29643.930319	-422.733333	1194.594727	178.097092
29643.930319	-422.733333	1193.473633	43.139343
29643.930319	-422.733333	1192.351563	165.281860
29643.930319	-422.733333	1191.229492	222.327759
29643.930319	-422.733333	1190.106445	131.082443
29643.930319	-422.733333	1188.984375	236.195633
29643.930319	-422.733333	1187.861328	118.360550
29643.930319	-422.733333	1186.738281	74.306160
29643.930319	-422.733333	1185.614258	9.738246
29643.930319	-422.733333	1184.491211	106.374954
29643.930319	-422.733333	1183.367188	26.063736
29643.930319	-422.733333	1182.243164	50.449635
29643.930319	-422.733333	1181.119141	330.196320
29643.930319	-422.733333	1179.994141	119.478279
29643.930319	-422.733333	1178.869141	-92.264511
29643.930319	-422.733333	1177.744141	-177.546082
29643.930319	-422.733333	1176.619141	-58.976185
29643.930319	-422.733333	1175.493164	32.326614
29643.930319	-422.733333	1174.368164	-178.198502
29643.930319	-422.733333	1173.242188	-174.110626
29643.930319	-422.733333	1172.115234	-45.228512
29643.930319	-422.733333	1170.989258	-18.817951
29643.930319	-422.733333	1169.862305	-8.008428
29643.930319	-422.733333	1168.735352	41.220322
29643.930319	-422.733333	1167.608398	56.908962
29643.930319	-422.733333	1166.481445	35.084499
29643.930319	-422.733333	1165.353516	-16.231165
29643.930319	-422.733333	1164.225586	-3.558702
29643.930319	-422.733333	1163.097656	126.060539
29643.930319	-422.733333	1161.968750	86.095673
29643.930319	-422.733333	1160.840820	27.630898
29643.930319	-422.733333	1159.711914	166.247330
29643.930319	-422.733333	1158.583008	117.434181
29643.930319	-422.733333	1157.453125	-162.296539
29643.930319	-422.733333	1156.324219	-166.030365
29643.930319	-422.733333	1155.194336	7.581234
29643.930319	-422.733333	1154.064453	14.343972
29643.930319	-422.733333	1152.933594	132.332275
29643.930319	-422.733333	1151.803711	-34.855602
29643.930319	-422.733333	1150.672852	64.070099
29643.930319	-422.733333	1149.541992	-69.813301
29643.930319	-422.733333	1148.411133	77.980209
29643.930319	-422.733333	1147.279297	144.812073
29643.930319	-422.733333	1146.147461	165.497971
29643.930319	-422.733333	1145.015625	383.588379
29643.930319	-422.733333	1143.883789	597.598633
29643.930319	-422.733333	1142.750977	509.399841
29643.930319	-422.733333	1141.619141	532.498901
29643.930319	-422.733333	1140.486328	263.845398
29643.930319	-422.733333	1139.352539	489.907654
29643.930319	-422.733333	1138.219727	241.313858
29643.930319	-422.733333	1137.085938	138.771210
29643.930319	-422.733333	1135.952148	-37.068455
29643.930319	-422.733333	1134.818359	281.068054
29643.930319	-422.733333	1133.683594	344.729401
29643.930319	-422.733333	1132.549805	40.538170
29643.930319	-422.733333	1131.415039	42.754017
29643.930319	-422.733333	1130.279297	176.503571
29643.930319	-422.733333	1129.144531	82.130302
29643.930319	-422.733333	1128.008789	-101.602379
29643.930319	-422.733333	1126.873047	-218.114624
29643.930319	-422.733333	1125.737305	-66.039497
29643.930319	-422.733333	1124.601563	112.802475
29643.930319	-422.733333	1123.464844	114.078850
29643.930319	-422.733333	1122.328125	-22.946804
29643.930319	-422.733333	1121.191406	-40.684860
29643.930319	-422.733333	1120.054688	-236.432404
29643.930319	-422.733333	1118.916992	220.722137
29643.930319	-422.733333	1117.779297	197.526871
29643.930319	-422.733333	1116.641602	38.159317
29643.930319	-422.733333	1115.503906	76.185669
29643.930319	-422.733333	1114.365234	27.380705
29643.930319	-422.733333	1113.226563	79.129356
29643.930319	-422.733333	1112.087891	-51.386936
29643.930319	-422.733333	1110.949219	-10.178121
29643.930319	-422.733333	1109.809570	316.997253
29643.930319	-422.733333	1108.669922	127.112160
29643.930319	-422.733333	1107.530273	256.088287
29643.930319	-422.733333	1106.390625	50.724281
29643.930319	-422.733333	1105.250000	232.253677
29643.930319	-422.733333	1104.109375	382.397644
29643.930319	-422.733333	1102.968750	93.655968
29643.930319	-422.733333	1101.828125	22.005091
29643.930319	-422.733333	1100.686523	305.899109
29643.930319	-422.733333	1099.544922	104.086693
29643.930319	-422.733333	1098.403320	183.153595
29643.930319	-422.733333	1097.261719	201.062576
29643.930319	-422.733333	1096.120117	45.196289
29643.930319	-422.733333	1094.977539	359.659119
29643.930319	-422.733333	1093.834961	120.026031
29643.930319	-422.733333	1092.691406	349.831024
29643.930319	-422.733333	1091.548828	261.406097
29643.930319	-422.733333	1090.405273	155.569321
29643.930319	-422.733333	1089.261719	216.069672
29643.930319	-422.733333	1088.118164	334.910919
29643.930319	-422.733333	1086.973633	344.999969
29643.930319	-422.733333	1085.829102	363.671814
29643.930319	-422.733333	1084.684570	145.342361
29643.930319	-422.733333	1083.540039	136.038879
29643.930319	-422.733333	1082.395508	284.419464
29643.930319	-422.733333	1081.250000	28.238483
29643.930319	-422.733333	1080.104492	108.962021
29643.930319	-422.733333	1078.958984	191.177872
29643.930319	-422.733333	1077.812500	-66.461235
29643.930319	-422.733333	1076.666016	236.631973
29643.930319	-422.733333	1075.519531	235.639053
29643.930319	-422.733333	1074.373047	190.696671
29643.930319	-422.733333	1073.226563	202.097717
29643.930319	-422.733333	1072.079102	164.971298
29643.930319	-422.733333	1070.931641	21.705706
29643.930319	-422.733333	1069.784180	103.064529
29643.930319	-422.733333	1068.635742	99.874069
29643.930319	-422.733333	1067.487305	87.499260
29643.930319	-422.733333	1066.338867	261.024017
29643.930319	-422.733333	1065.190430	235.428818
29643.930319	-422.733333	1064.041992	103.840530
29643.930319	-422.733333	1062.892578	140.929047
29643.930319	-422.733333	1061.743164	23.604435
29643.930319	-422.733333	1060.593750	-43.625538
29643.930319	-422.733333	1059.443359	320.836670
29643.930319	-422.733333	1058.292969	19.299629
29643.930319	-422.733333	1057.142578	257.675476
29643.930319	-422.733333	1055.992188	214.692657
29643.930319	-422.733333	1054.841797	-55.023792
29643.930319	-422.733333	1053.690430	174.135193
29643.930319	-422.733333	1052.539063	255.671768
29643.930319	-422.733333	1051.387695	223.595703
29643.930319	-422.733333	1050.235352	118.088249
29643.930319	-422.733333	1049.083984	-14.379141
29643.930319	-422.733333	1047.931641	82.813820
29643.930319	-422.733333	1046.778320	-21.762661
29643.930319	-422.733333	1045.625977	225.177567
29643.930319	-422.733333	1044.472656	-139.243484
29643.930319	-422.733333	1043.319336	1.662215
29643.930319	-422.733333	1042.166016	6.111493
29643.930319	-422.733333	1041.012695	101.596558
29643.930319	-422.733333	1039.858398	234.698776
29643.930319	-422.733333	1038.704102	203.354340
29643.930319	-422.733333	1037.549805	324.565277
29643.930319	-422.733333	1036.394531	35.785862
29643.930319	-422.733333	1035.239258	328.440735
29643.930319	-422.733333	1034.083984	24.199842
29643.930319	-422.733333	1032.928711	103.198029
29643.930319	-422.733333	1031.773438	273.140411
29643.930319	-422.733333	1030.617188	509.483093
29643.930319	-422.733333	1029.460938	155.301254
29643.930319	-422.733333	1028.304688	-99.862038
29643.930319	-422.733333	1027.147461	14.607395
29643.930319	-422.733333	1025.991211	265.551636
29643.930319	-422.733333	1024.833984	128.173630
29643.930319	-422.733333	1023.675781	-93.337250
29643.930319	-422.733333	1022.518555	65.564461
29643.930319	-422.733333	1021.360352	121.222092
29643.930319	-422.733333	1020.202148	-25.788855
29643.930319	-422.733333	1019.043945	93.590309
29643.930319	-422.733333	1017.884766	337.623932
29643.930319	-422.733333	1016.726563	-134.937149
29643.930319	-422.733333	1015.567383	-170.929581
29643.930319	-422.733333	1014.407227	-127.775269
29643.930319	-422.733333	1013.248047	-24.857874
29643.930319	-422.733333	1012.087891	34.794304
29643.930319	-422.733333	1010.927734	0.276611
29643.930319	-422.733333	1009.767578	295.473938
29643.930319	-422.733333	1008.606445	125.613220
29643.930319	-422.733333	1007.446289	97.977203
29643.930319	-422.733333	1006.285156	239.918091
29643.930319	-422.733333	1005.123047	120.123413
29643.930319	-422.733333	1003.961914	-95.016487
29643.930319	-422.733333	1002.799805	56.434402
29643.930319	-422.733333	1001.637695	-54.129444
29643.930319	-422.733333	1000.475586	-156.112183
29643.930319	-422.733333	999.312500	20.335939
29643.930319	-422.733333	998.149414	8.373188
29643.930319	-422.733333	996.986328	-18.853817
29643.930319	-422.733333	995.823242	229.268356
29643.930319	-422.733333	994.659180	-38.752457
29643.930319	-422.733333	993.496094	146.343857
29643.930319	-422.733333	992.332031	76.578674
29643.930319	-422.733333	991.166992	-104.311623
29643.930319	-422.733333	990.002930	-361.193665
29643.930319	-422.733333	988.837891	24.766199
29643.930319	-422.733333	987.672852	-138.310532
29643.930319	-422.733333	986.506836	7.550574
29643.930319	-422.733333	985.341797	-106.493431
29643.930319	-422.733333	984.175781	-16.261456
29643.930319	-422.733333	983.009766	87.729439
29643.930319	-422.733333	981.843750	273.895447
29643.930319	-422.733333	980.676758	-179.070419
29643.930319	-422.733333	979.509766	3.881289
29643.930319	-422.733333	978.342773	127.680443
29643.930319	-422.733333	977.175781	-134.752853
29643.930319	-422.733333	976.007813	-40.253040
29643.930319	-422.733333	974.839844	214.161102
29643.930319	-422.733333	973.671875	-231.865707
29643.930319	-422.733333	972.503906	-26.161404
29643.930319	-422.733333	971.334961	6.347668
29643.930319	-422.733333	970.166016	-45.835659
29643.930319	-422.733333	968.997070	-127.683853
29643.930319	-422.733333	967.828125	-152.786560
29643.930319	-422.733333	966.658203	124.386795
29643.930319	-422.733333	965.488281	44.942696
29643.930319	-422.733333	964.318359	-143.153824
29643.930319	-422.733333	963.148438	-110.049049
29643.930319	-422.733333	961.977539	124.027733
29643.930319	-422.733333	960.806641	174.022949
29643.930319	-422.733333	959.635742	81.307915
29643.930319	-422.733333	958.463867	-140.897537
29643.930319	-422.733333	957.292969	116.922585
29643.930319	-422.733333	956.121094	183.141327
29643.930319	-422.733333	954.948242	199.407242
29643.930319	-422.733333	953.776367	23.886896
29643.930319	-422.733333	952.603516	-58.177696
29643.930319	-422.733333	951.430664	97.982414
29643.930319	-422.733333	950.257813	307.158447
29643.930319	-422.733333	949.084961	178.028381
29643.930319	-422.733333	947.911133	-22.543682
29643.930319	-422.733333	946.737305	-79.253502
29643.930319	-422.733333	945.563477	105.375702
29643.930319	-422.733333	944.388672	202.237274
29643.930319	-422.733333	943.213867	76.776154
29643.930319	-422.733333	942.039063	-119.085564
29643.930319	-422.733333	940.864258	-107.312500
29643.930319	-422.733333	939.688477	158.773758
29643.930319	-422.733333	938.513672	48.576805
29643.930319	-422.733333	937.337891	217.533295
29643.930319	-422.733333	936.161133	-234.917175
29643.930319	-422.733333	934.985352	170.242432
29643.930319	-422.733333	933.808594	-72.231056
29643.930319	-422.733333	932.631836	191.392654
29643.930319	-422.733333	931.454102	470.434418
29643.930319	-422.733333	930.277344	241.169250
29643.930319	-422.733333	929.099609	91.394806
29643.930319	-422.733333	927.921875	266.398132
29643.930319	-422.733333	926.743164	293.380859
29643.930319	-422.733333	925.565430	99.448250
29643.930319	-422.733333	924.386719	197.026688
29643.930319	-422.733333	923.208008	133.397461
29643.930319	-422.733333	922.028320	166.844116
29643.930319	-422.733333	920.849609	-79.969261
29643.930319	-422.733333	919.669922	-82.264938
29643.930319	-422.733333	919.474609	-108.689957
29643.930319	-422.733333	918.309570	116.632950
29643.930319	-422.733333	917.143555	165.416046
29643.930319	-422.733333	915.977539	-30.576813
29643.930319	-422.733333	914.810547	-25.927471
29643.930319	-422.733333	913.644531	-164.557510
29643.930319	-422.733333	912.477539	84.638664
29643.930319	-422.733333	911.310547	124.424995
29643.930319	-422.733333	910.143555	175.180618
29643.930319	-422.733333	908.975586	-340.043610
29643.930319	-422.733333	907.807617	-33.884079
29643.930319	-422.733333	906.639648	-60.250702
29643.930319	-422.733333	905.471680	7.997373
29643.930319	-422.733333	904.303711	102.594749
29643.930319	-422.733333	903.134766	-5.259383
29643.930319	-422.733333	901.965820	-181.275513
29643.930319	-422.733333	900.796875	-187.929977
29643.930319	-422.733333	899.626953	-78.088104
29643.930319	-422.733333	898.457031	-87.009140
29643.930319	-422.733333	897.287109	-89.360832
29643.930319	-422.733333	896.117188	33.499615
29643.930319	-422.733333	894.947266	99.173996
29643.930319	-422.733333	893.776367	90.121132
29643.930319	-422.733333	892.605469	43.718548
29643.930319	-422.733333	891.434570	-13.664378
29643.930319	-422.733333	890.262695	67.227982
29643.930319	-422.733333	889.091797	132.703384
29643.930319	-422.733333	887.919922	233.231827
29643.930319	-422.733333	886.748047	88.017128
29643.930319	-422.733333	885.575195	109.512093
29643.930319	-422.733333	884.403320	-154.065216
29643.930319	-422.733333	883.230469	-345.219543
29643.930319	-422.733333	882.057617	248.333023
29643.930319	-422.733333	880.883789	116.293343
29643.930319	-422.733333	879.710938	194.611984
29643.930319	-422.733333	878.537109	88.877815
29643.930319	-422.733333	877.362305	147.411331
29643.930319	-422.733333	876.188477	-26.186384
29643.930319	-422.733333	875.013672	-195.359772
29643.930319	-422.733333	873.839844	-71.206886
29643.930319	-422.733333	872.664063	28.799725
29643.930319	-422.733333	871.489258	71.865448
29643.930319	-422.733333	870.313477	73.332840
29643.930319	-422.733333	869.138672	-52.054256
29643.930319	-422.733333	867.962891	34.667744
29643.930319	-422.733333	866.786133	-1.081062
29643.930319	-422.733333	865.610352	-253.197388
29643.930319	-422.733333	864.433594	-140.329041
29643.930319	-422.733333	863.256836	11.796414
29643.930319	-422.733333	862.079102	-67.682945
29643.930319	-422.733333	860.902344	-238.859039
29643.930319	-422.733333	859.724609	-154.547760
29643.930319	-422.733333	858.546875	-55.009819
29643.930319	-422.733333	857.368164	-66.833763
29643.930319	-422.733333	856.190430	-76.484459
29643.930319	-422.733333	855.011719	-86.154869
29643.930319	-422.733333	853.833008	69.919762
29643.930319	-422.733333	852.654297	127.788452
29643.930319	-422.733333	851.474609	314.237579
29643.930319	-422.733333	850.294922	136.588547
29643.930319	-422.733333	849.115234	41.806431
29643.930319	-422.733333	847.935547	158.389435
29643.930319	-422.733333	846.754883	81.032120
29643.930319	-422.733333	845.575195	62.494411
29643.930319	-422.733333	844.393555	-14.845596
29643.930319	-422.733333	843.212891	-68.223030
29643.930319	-422.733333	842.032227	26.412096
29643.930319	-422.733333	840.850586	-94.443016
29643.930319	-422.733333	839.668945	50.163998
29643.930319	-422.733333	838.486328	-51.103661
29643.930319	-422.733333	837.304688	121.674255
29643.930319	-422.733333	836.122070	126.945030
29643.930319	-422.733333	834.939453	-2.583068
29643.930319	-422.733333	833.756836	170.033508
29643.930319	-422.733333	832.573242	229.565308
29643.930319	-422.733333	831.389648	236.919846
29643.930319	-422.733333	830.206055	14.017220
29643.930319	-422.733333	829.022461	-130.628708
29643.930319	-422.733333	827.838867	208.941193
29643.930319	-422.733333	826.654297	214.063873
29643.930319	-422.733333	825.469727	353.726929
29643.930319	-422.733333	824.284180	367.468475
29643.930319	-422.733333	823.099609	5.888616
29643.930319	-422.733333	821.914063	58.709805
29643.930319	-422.733333	820.728516	209.075958
29643.930319	-422.733333	819.542969	107.877853
29643.930319	-422.733333	818.356445	104.245323
29643.930319	-422.733333	817.169922	185.121124
29643.930319	-422.733333	815.983398	114.282745
29643.930319	-422.733333	814.796875	-84.347748
29643.930319	-422.733333	813.609375	-55.501923
29643.930319	-422.733333	812.422852	14.465430
29643.930319	-422.733333	811.235352	259.745361
29643.930319	-422.733333	810.046875	-101.138588
29643.930319	-422.733333	808.859375	7.708845
29643.930319	-422.733333	807.670898	-89.040878
29643.930319	-422.733333	806.482422	-116.544556
29643.930319	-422.733333	805.293945	333.904999
29643.930319	-422.733333	804.104492	38.185543
29643.930319	-422.733333	802.915039	-30.433907
29643.930319	-422.733333	801.725586	-101.197350
29643.930319	-422.733333	800.536133	167.315277
29643.930319	-422.733333	799.345703	204.538376
29643.930319	-422.733333	798.155273	71.096428
29643.930319	-422.733333	796.964844	26.239563
29643.930319	-422.733333	795.774414	197.301926
29643.930319	-422.733333	794.583008	14.262782
29643.930319	-422.733333	793.392578	-21.949280
29643.930319	-422.733333	792.200195	142.509537
29643.930319	-422.733333	791.008789	240.016403
29643.930319	-422.733333	789.816406	87.273857
29643.930319	-422.733333	788.625000	-104.225029
29643.930319	-422.733333	787.432617	142.003510
29643.930319	-422.733333	786.239258	-45.140022
29643.930319	-422.733333	785.046875	155.700745
29643.930319	-422.733333	783.853516	125.902122
29643.930319	-422.733333	782.660156	160.731232
29643.930319	-422.733333	781.465820	40.468082
29643.930319	-422.733333	780.272461	2.072580
29643.930319	-422.733333	779.078125	-1.871963
29643.930319	-422.733333	777.883789	136.235565
29643.930319	-422.733333	776.688477	46.167355
29643.930319	-422.733333	775.494141	-28.806124
29643.930319	-422.733333	774.298828	-4.810570
29643.930319	-422.733333	773.103516	109.491470
29643.930319	-422.733333	771.907227	131.280365
29643.930319	-422.733333	770.711914	-64.065956
29643.930319	-422.733333	769.515625	121.078720
29643.930319	-422.733333	768.318359	-57.012043
29643.930319	-422.733333	767.122070	271.979156
29643.930319	-422.733333	765.924805	119.692184
29643.930319	-422.733333	764.727539	431.316101
29643.930319	-422.733333	763.530273	55.753326
29643.930319	-422.733333	762.333008	62.433716
29643.930319	-422.733333	761.134766	-48.935066
29643.930319	-422.733333	759.936523	69.324310
29643.930319	-422.733333	758.738281	191.817444
29643.930319	-422.733333	757.540039	-54.648926
29643.930319	-422.733333	756.340820	33.496178
29643.930319	-422.733333	755.141602	-7.034762
29643.930319	-422.733333	753.942383	149.641190
29643.930319	-422.733333	752.742188	261.241455
29643.930319	-422.733333	751.541992	171.390686
29643.930319	-422.733333	750.341797	417.881927
29643.930319	-422.733333	749.141602	92.441864
29643.930319	-422.733333	747.941406	392.369476
29643.930319	-422.733333	746.740234	-18.574865
29643.930319	-422.733333	745.539063	144.256912
29643.930319	-422.733333	744.337891	41.669609
29643.930319	-422.733333	743.135742	-30.927942
29643.930319	-422.733333	741.933594	29.114273
29643.930319	-422.733333	740.731445	127.624504
29643.930319	-422.733333	739.529297	127.735687
29643.930319	-422.733333	738.326172	-158.606232
29643.930319	-422.733333	737.124023	-75.091591
29643.930319	-422.733333	735.919922	198.548828
29643.930319	-422.733333	734.716797	290.487488
29643.930319	-422.733333	733.513672	190.156616
29643.930319	-422.733333	732.309570	247.883072
29643.930319	-422.733333	731.105469	87.814888
29643.930319	-422.733333	729.900391	-23.098068
29643.930319	-422.733333	728.696289	405.957794
29643.930319	-422.733333	727.491211	158.466003
29643.930319	-422.733333	726.286133	179.855896
29643.930319	-422.733333	725.080078	-133.606247
29643.930319	-422.733333	723.874023	-16.219625
29643.930319	-422.733333	722.668945	-376.412354
29643.930319	-422.733333	721.461914	261.032074
29643.930319	-422.733333	720.255859	-120.385742
29643.930319	-422.733333	719.048828	-7.371709
29643.930319	-422.733333	717.841797	-56.289455
29643.930319	-422.733333	716.634766	-58.338051
29643.930319	-422.733333	715.427734	-158.327896
29643.930319	-422.733333	714.219727	-15.606000
29643.930319	-422.733333	713.011719	114.284332
29643.930319	-422.733333	711.803711	10.060033
29643.930319	-422.733333	710.594727	110.102646
29643.930319	-422.733333	709.385742	261.150085
29643.930319	-422.733333	708.176758	22.985716
29643.930319	-422.733333	706.967773	-55.624680
29643.930319	-422.733333	705.758789	6.086640
29643.930319	-422.733333	704.548828	-144.746811
29643.930319	-422.733333	703.338867	-29.928146
29643.930319	-422.733333	702.127930	146.441803
29643.930319	-422.733333	700.917969	-140.247269
29643.930319	-422.733333	699.707031	-80.710892
29643.930319	-422.733333	698.496094	50.980263
29643.930319	-422.733333	697.285156	99.841988
29643.930319	-422.733333	696.073242	174.146500
29643.930319	-422.733333	694.861328	61.719624
29643.930319	-422.733333	693.649414	-73.989258
29643.930319	-422.733333	692.436523	13.028429
29643.930319	-422.733333	691.224609	-95.046623
29643.930319	-422.733333	690.011719	-285.748230
29643.930319	-422.733333	688.798828	32.276760
29643.930319	-422.733333	687.584961	-35.474792
29643.930319	-422.733333	686.372070	64.168022
29643.930319	-422.733333	685.158203	7.036667
29643.930319	-422.733333	683.943359	193.449722
29643.930319	-422.733333	682.729492	153.257767
29643.930319	-422.733333	681.514648	396.718079
29643.930319	-422.733333	680.299805	767.054871
29643.930319	-422.733333	679.084961	214.754700
29643.930319	-422.733333	677.869141	331.136780
29643.930319	-422.733333	676.653320	274.054230
29643.930319	-422.733333	675.437500	-21.934153
29643.930319	-422.733333	674.221680	113.466820
29643.930319	-422.733333	673.004883	250.925995
29643.930319	-422.733333	671.789063	111.516518
29643.930319	-422.733333	670.571289	141.180099
29643.930319	-422.733333	669.354492	27.207914
29643.930319	-422.733333	668.136719	18.876991
29643.930319	-422.733333	666.919922	232.250641
29643.930319	-422.733333	665.701172	-132.852356
29643.930319	-422.733333	664.483398	194.439194
29643.930319	-422.733333	663.264648	4.644545
29643.930319	-422.733333	662.045898	91.288658
29643.930319	-422.733333	660.827148	226.414780
29643.930319	-422.733333	659.608398	15.671599
29643.930319	-422.733333	658.388672	45.359001
29643.930319	-422.733333	657.168945	460.767517
29643.930319	-422.733333	655.949219	205.875977
29643.930319	-422.733333	654.728516	119.650291
29643.930319	-422.733333	653.507813	86.132942
29643.930319	-422.733333	652.287109	400.126953
29643.930319	-422.733333	651.066406	124.447105
29643.930319	-422.733333	649.844727	29.928495
29643.930319	-422.733333	648.623047	-104.527031
29643.930319	-422.733333	647.401367	-1.137914
29643.930319	-422.733333	646.179688	177.953583
29643.930319	-422.733333	644.957031	173.990860
29643.930319	-422.733333	643.734375	81.719452
29643.930319	-422.733333	642.511719	-50.446236
29643.930319	-422.733333	641.289063	195.816391
29643.930319	-422.733333	640.065430	-56.081249
29643.930319	-422.733333	638.841797	-125.063553
29643.930319	-422.733333	637.618164	-65.862595
29643.930319	-422.733333	636.393555	108.837402
29643.930319	-422.733333	635.168945	-134.376282
29643.930319	-422.733333	633.944336	86.479134
29643.930319	-422.733333	632.719727	168.730179
29643.930319	-422.733333	631.494141	72.593086
29643.930319	-422.733333	630.269531	1.689217
29643.930319	-422.733333	629.042969	132.193970
29643.930319	-422.733333	627.817383	-98.039963
29643.930319	-422.733333	626.590820	-116.398743
29643.930319	-422.733333	625.365234	-92.804092
29643.930319	-422.733333	624.137695	41.866879
29643.930319	-422.733333	622.911133	-28.838037
29643.930319	-422.733333	621.683594	164.458847
29643.930319	-422.733333	620.456055	-75.856491
29643.930319	-422.733333	619.228516	-98.273895
29643.930319	-422.733333	618.000977	302.234375
29643.930319	-422.733333	616.772461	-172.326096
29643.930319	-422.733333	615.543945	-313.930756
29643.930319	-422.733333	614.314453	103.164268
29643.930319	-422.733333	613.085938	51.550617
29643.930319	-422.733333	611.856445	-119.227699
29643.930319	-422.733333	610.626953	-172.819992
29643.930319	-422.733333	609.397461	66.293701
29643.930319	-422.733333	608.166992	62.888618
29643.930319	-422.733333	606.936523	49.061501
29643.930319	-422.733333	605.706055	72.869408
29643.930319	-422.733333	604.474609	-220.787323
29643.930319	-422.733333	603.244141	-301.292023
29643.930319	-422.733333	602.012695	100.534454
29643.930319	-422.733333	600.780273	97.274658
29643.930319	-422.733333	599.548828	25.175997
29643.930319	-422.733333	598.316406	55.370884
29643.930319	-422.733333	597.083984	-50.010902
29643.930319	-422.733333	595.851563	115.804512
29643.930319	-422.733333	594.618164	135.616104
29643.930319	-422.733333	593.384766	65.809425
29643.930319	-422.733333	592.151367	-8.107257
29643.930319	-422.733333	590.917969	80.573532
29643.930319	-422.733333	589.683594	-70.337425
29643.930319	-422.733333	588.449219	-64.939026
29643.930319	-422.733333	587.214844	-144.889038
29643.930319	-422.733333	585.979492	110.426170
29643.930319	-422.733333	584.745117	-75.623581
29643.930319	-422.733333	583.509766	-142.938431
29643.930319	-422.733333	582.273438	-62.465107
29643.930319	-422.733333	581.038086	-2.792929
29643.930319	-422.733333	579.801758	31.928125
29643.930319	-422.733333	578.565430	-28.979206
29643.930319	-422.733333	577.329102	59.854656
29643.930319	-422.733333	576.091797	48.920502
29643.930319	-422.733333	574.854492	11.011677
29643.930319	-422.733333	573.617188	-12.301072
29643.930319	-422.733333	572.378906	-29.335464
29643.930319	-422.733333	571.141602	11.822600
29643.930319	-422.733333	569.903320	-50.812332
29643.930319	-422.733333	568.664063	23.619633
29643.930319	-422.733333	567.425781	-20.235191
29643.930319	-422.733333	566.186523	8.589102
29643.930319	-422.733333	564.947266	107.973473
29643.930319	-422.733333	563.708008	-51.898094
29643.930319	-422.733333	562.467773	-18.817682
29643.930319	-422.733333	561.227539	240.261566
29643.930319	-422.733333	559.987305	26.695484
29643.930319	-422.733333	558.747070	-0.232328
29643.930319	-422.733333	557.505859	22.615829
29643.930319	-422.733333	556.264648	18.567900
29643.930319	-422.733333	555.023438	78.764862
29643.930319	-422.733333	553.781250	109.992950
29643.930319	-422.733333	552.539063	180.579971
29643.930319	-422.733333	551.296875	27.666870
29643.930319	-422.733333	550.054688	63.156326
29643.930319	-422.733333	548.811523	282.789764
29643.930319	-422.733333	547.569336	219.024719
29643.930319	-422.733333	546.325195	60.209965
29643.930319	-422.733333	545.082031	273.637939
29643.930319	-422.733333	543.837891	-54.517273
29643.930319	-422.733333	542.593750	303.591278
29643.930319	-422.733333	541.349609	145.081039
29643.930319	-422.733333	540.105469	-77.346603
29643.930319	-422.733333	538.860352	109.268723
29643.930319	-422.733333	537.615234	219.457367
29643.930319	-422.733333	536.369141	282.168030
29643.930319	-422.733333	535.124023	119.943329
29643.930319	-422.733333	533.877930	273.534027
29643.930319	-422.733333	532.631836	-113.385262
29643.930319	-422.733333	531.384766	81.538597
29643.930319	-422.733333	530.138672	-1.952970
29643.930319	-422.733333	528.891602	-0.831624
29643.930319	-422.733333	527.643555	-234.638199
29643.930319	-422.733333	526.396484	147.866486
29643.930319	-422.733333	525.148438	93.472664
29643.930319	-422.733333	523.900391	156.565521
29643.930319	-422.733333	522.652344	199.084473
29643.930319	-422.733333	521.403320	-73.388710
29643.930319	-422.733333	520.154297	395.376648
29643.930319	-422.733333	518.905273	244.505417
29643.930319	-422.733333	517.656250	91.688919
29643.930319	-422.733333	516.406250	235.225739
29643.930319	-422.733333	515.156250	230.662704
29643.930319	-422.733333	513.906250	256.995697
29643.930319	-422.733333	512.655273	-33.240307
29643.930319	-422.733333	511.404297	-10.877599
29643.930319	-422.733333	510.153320	-15.189924
29643.930319	-422.733333	508.902344	48.347771
29643.930319	-422.733333	507.650391	76.985329
29643.930319	-422.733333	506.398438	-11.402801
29643.930319	-422.733333	505.146484	-91.490883
29643.930319	-422.733333	503.893555	35.832260
29643.930319	-422.733333	502.641602	-152.914978
29643.930319	-422.733333	501.388672	17.546846
29643.930319	-422.733333	500.134766	48.482857
29643.930319	-422.733333	498.881836	-14.899421
29643.930319	-422.733333	497.627930	-149.980621
29643.930319	-422.733333	496.374023	-233.707214
29643.930319	-422.733333	495.119141	6.496779
29643.930319	-422.733333	493.865234	-75.093208
29643.930319	-422.733333	492.610352	-109.486633
29643.930319	-422.733333	491.355469	-156.114655
29643.930319	-422.733333	490.099609	-110.526352
29643.930319	-422.733333	488.843750	-40.350323
29643.930319	-422.733333	487.587891	183.361588
29643.930319	-422.733333	486.332031	290.354370
29643.930319	-422.733333	485.075195	-50.772690
29643.930319	-422.733333	483.818359	103.345581
29643.930319	-422.733333	482.561523	32.448147
29643.930319	-422.733333	481.304688	444.195801
29643.930319	-422.733333	480.046875	285.406403
29643.930319	-422.733333	478.789063	94.011208
29643.930319	-422.733333	477.531250	201.079041
29643.930319	-422.733333	476.272461	475.660065
29643.930319	-422.733333	475.013672	374.298553
29643.930319	-422.733333	473.754883	219.904922
29643.930319	-422.733333	472.496094	494.367981
29643.930319	-422.733333	471.236328	489.069733
29643.930319	-422.733333	469.976563	259.294373
29643.930319	-422.733333	468.716797	209.190216
29643.930319	-422.733333	467.456055	287.641052
29643.930319	-422.733333	466.196289	72.369171
29643.930319	-422.733333	464.935547	258.905701
29643.930319	-422.733333	463.673828	-47.991898
29643.930319	-422.733333	462.413086	-59.209049
29643.930319	-422.733333	461.151367	192.455093
29643.930319	-422.733333	459.889648	113.953896
29643.930319	-422.733333	458.626953	286.026001
29643.930319	-422.733333	457.364258	291.024994
29643.930319	-422.733333	456.101563	322.481171
29643.930319	-422.733333	454.838867	384.442444
29643.930319	-422.733333	453.575195	397.518066
29643.930319	-422.733333	452.312500	465.503601
29643.930319	-422.733333	451.047852	81.828575
29643.930319	-422.733333	449.784180	505.728729
29643.930319	-422.733333	448.519531	252.292435
29643.930319	-422.733333	447.254883	497.009277
29643.930319	-422.733333	445.990234	536.299377
29643.930319	-422.733333	444.725586	593.817139
29643.930319	-422.733333	443.459961	567.971680
29643.930319	-422.733333	442.194336	521.775513
29643.930319	-422.733333	440.927734	331.362122
29643.930319	-422.733333	439.662109	524.704102
29643.930319	-422.733333	438.395508	246.968414
29643.930319	-422.733333	437.127930	482.736420
29643.930319	-422.733333	435.861328	493.111511
29643.930319	-422.733333	434.593750	266.064667
29643.930319	-422.733333	433.326172	550.121643
29643.930319	-422.733333	432.058594	481.154236
29643.930319	-422.733333	430.790039	412.122498
29643.930319	-422.733333	429.521484	180.881912
29643.930319	-422.733333	428.252930	194.827377
29643.930319	-422.733333	426.984375	660.443481
29643.930319	-422.733333	425.714844	560.630615
29643.930319	-422.733333	424.445313	588.320251
29643.930319	-422.733333	423.174805	573.351746
29643.930319	-422.733333	421.905273	671.613586
29643.930319	-422.733333	420.634766	698.862610
29643.930319	-422.733333	419.364258	756.301270
29643.930319	-422.733333	418.092773	552.613586
29643.930319	-422.733333	416.822266	504.580963
29643.930319	-422.733333	415.550781	379.567780
29643.930319	-422.733333	414.278320	585.964844
29643.930319	-422.733333	413.006836	646.571228
29643.930319	-422.733333	411.734375	413.962952
29643.930319	-422.733333	410.461914	338.834381
29643.930319	-422.733333	409.188477	259.492157
29643.930319	-422.733333	407.916016	428.351105
29643.930319	-422.733333	406.642578	485.871857
29643.930319	-422.733333	405.368164	272.654633
29643.930319	-422.733333	404.094727	551.694702
29643.930319	-422.733333	402.820313	219.025208
29643.930319	-422.733333	401.545898	521.646851
29643.930319	-422.733333	400.270508	418.502228
29643.930319	-422.733333	398.996094	147.772766
29643.930319	-422.733333	397.720703	475.575134
29643.930319	-422.733333	396.444336	381.708923
29643.930319	-422.733333	395.168945	269.440247
29643.930319	-422.733333	393.892578	126.674683
29643.930319	-422.733333	392.616211	313.951752
29643.930319	-422.733333	391.339844	253.119583
29643.930319	-422.733333	390.062500	222.150070
29643.930319	-422.733333	388.785156	287.438171
29643.930319	-422.733333	387.507813	281.885925
29643.930319	-422.733333	386.229492	211.553406
29643.930319	-422.733333	384.951172	265.554321
29643.930319	-422.733333	383.672852	272.858215
29643.930319	-422.733333	382.394531	366.180542
29643.930319	-422.733333	381.115234	147.434311
29643.930319	-422.733333	379.835938	408.643555
29643.930319	-422.733333	378.556641	243.294205
29643.930319	-422.733333	377.277344	461.215759
29643.930319	-422.733333	375.997070	224.627151
29643.930319	-422.733333	374.716797	188.419739
29643.930319	-422.733333	373.435547	149.672379
29643.930319	-422.733333	372.155273	289.028534
29643.930319	-422.733333	370.874023	273.234253
29643.930319	-422.733333	369.591797	0.051310
29643.930319	-422.733333	368.310547	77.407913
29643.930319	-422.733333	367.028320	-32.398834
29643.930319	-422.733333	365.746094	184.005341
29643.930319	-422.733333	364.463867	-121.506599
29643.930319	-422.733333	363.180664	81.452171
29643.930319	-422.733333	361.897461	209.496490
29643.930319	-422.733333	360.614258	106.404442
29643.930319	-422.733333	359.330078	104.749535
29643.930319	-422.733333	358.045898	-189.993637
29643.930319	-422.733333	356.761719	-28.960262
29643.930319	-422.733333	355.477539	135.212143
29643.930319	-422.733333	354.192383	52.356785
29643.930319	-422.733333	352.907227	10.710600
29643.930319	-422.733333	351.622070	-79.781189
29643.930319	-422.733333	350.336914	-103.126923
29643.930319	-422.733333	349.050781	48.545231
29643.930319	-422.733333	347.764648	-108.597290
29643.930319	-422.733333	346.477539	-24.843227
29643.930319	-422.733333	345.191406	-16.008562
29643.930319	-422.733333	343.904297	-160.014328
29643.930319	-422.733333	342.616211	-1.455889
29643.930319	-422.733333	341.329102	4.258136
29643.930319	-422.733333	340.041016	-164.809113
29643.930319	-422.733333	338.752930	22.329956
29643.930319	-422.733333	337.463867	-128.987595
29643.930319	-422.733333	336.175781	123.584221
29643.930319	-422.733333	334.886719	73.662315
29643.930319	-422.733333	333.596680	122.209869
29643.930319	-422.733333	332.307617	127.644989
29643.930319	-422.733333	331.017578	28.122421
29643.930319	-422.733333	329.727539	-8.906971
29643.930319	-422.733333	328.436523	-61.245369
29643.930319	-422.733333	327.146484	-178.644882
29643.930319	-422.733333	325.855469	92.876915
29643.930319	-422.733333	324.563477	6.413626
29643.930319	-422.733333	323.272461	137.506729
29643.930319	-422.733333	321.980469	99.821846
29643.930319	-422.733333	320.688477	-124.435165
29643.930319	-422.733333	319.395508	-218.929993
29643.930319	-422.733333	318.103516	17.166771
29643.930319	-422.733333	316.810547	-178.026215
29643.930319	-422.733333	315.516602	8.794596
29643.930319	-422.733333	314.223633	-303.030060
29643.930319	-422.733333	312.929688	227.962387
29643.930319	-422.733333	311.635742	-164.885513
29643.930319	-422.733333	310.340820	-45.044205
29643.930319	-422.733333	309.045898	58.949162
29643.930319	-422.733333	307.750977	35.880177
29643.930319	-422.733333	306.456055	199.404846
29643.930319	-422.733333	305.160156	-0.393480
29643.930319	-422.733333	303.865234	228.416885
29643.930319	-422.733333	302.568359	78.013405
29643.930319	-422.733333	301.272461	441.193390
29643.930319	-422.733333	299.975586	718.672180
29643.930319	-422.733333	298.678711	414.943878
