#X		#Y		#Wave		#Intensity
29647.314894	-1240.276667	1999.980469	104.759773
29647.314894	-1240.276667	1999.016602	25.683115
29647.314894	-1240.276667	1998.052734	-40.007908
29647.314894	-1240.276667	1997.087891	99.836922
29647.314894	-1240.276667	1996.123047	-55.384296
29647.314894	-1240.276667	1995.158203	-104.195175
29647.314894	-1240.276667	1994.193359	-44.174088
29647.314894	-1240.276667	1993.228516	30.523386
29647.314894	-1240.276667	1992.262695	-38.558666
29647.314894	-1240.276667	1991.297852	38.278297
29647.314894	-1240.276667	1990.332031	6.044930
29647.314894	-1240.276667	1989.366211	-23.846292
29647.314894	-1240.276667	1988.399414	-56.339909
29647.314894	-1240.276667	1987.433594	-4.858999
29647.314894	-1240.276667	1986.466797	118.189667
29647.314894	-1240.276667	1985.500977	20.999147
29647.314894	-1240.276667	1984.534180	119.019440
29647.314894	-1240.276667	1983.567383	-40.175850
29647.314894	-1240.276667	1982.599609	136.656570
29647.314894	-1240.276667	1981.632813	81.053795
29647.314894	-1240.276667	1980.665039	57.472424
29647.314894	-1240.276667	1979.697266	-89.703621
29647.314894	-1240.276667	1978.729492	59.396500
29647.314894	-1240.276667	1977.761719	-18.805643
29647.314894	-1240.276667	1976.792969	58.434692
29647.314894	-1240.276667	1975.825195	-32.277046
29647.314894	-1240.276667	1974.856445	-24.348673
29647.314894	-1240.276667	1973.887695	64.899956
29647.314894	-1240.276667	1972.918945	119.492180
29647.314894	-1240.276667	1971.949219	124.652000
29647.314894	-1240.276667	1970.980469	-72.463692
29647.314894	-1240.276667	1970.010742	95.272743
29647.314894	-1240.276667	1969.041016	26.244776
29647.314894	-1240.276667	1968.071289	-15.726176
29647.314894	-1240.276667	1967.101563	-158.775772
29647.314894	-1240.276667	1966.130859	20.866592
29647.314894	-1240.276667	1965.161133	0.872098
29647.314894	-1240.276667	1964.190430	20.217295
29647.314894	-1240.276667	1963.219727	-17.137537
29647.314894	-1240.276667	1962.249023	-49.617359
29647.314894	-1240.276667	1961.277344	50.755882
29647.314894	-1240.276667	1960.306641	-40.899933
29647.314894	-1240.276667	1959.334961	113.445580
29647.314894	-1240.276667	1958.363281	220.943695
29647.314894	-1240.276667	1957.391602	-87.277534
29647.314894	-1240.276667	1956.419922	0.444527
29647.314894	-1240.276667	1955.447266	51.208454
29647.314894	-1240.276667	1954.474609	20.793987
29647.314894	-1240.276667	1953.501953	-7.195913
29647.314894	-1240.276667	1952.529297	-76.987434
29647.314894	-1240.276667	1951.556641	165.193192
29647.314894	-1240.276667	1950.583984	122.333069
29647.314894	-1240.276667	1949.610352	153.120132
29647.314894	-1240.276667	1948.636719	-32.199577
29647.314894	-1240.276667	1947.663086	89.360947
29647.314894	-1240.276667	1946.689453	85.673904
29647.314894	-1240.276667	1945.715820	-65.273308
29647.314894	-1240.276667	1944.741211	88.024261
29647.314894	-1240.276667	1943.767578	-82.548172
29647.314894	-1240.276667	1942.792969	-76.507713
29647.314894	-1240.276667	1941.818359	-45.974552
29647.314894	-1240.276667	1940.842773	16.391478
29647.314894	-1240.276667	1939.868164	-34.036575
29647.314894	-1240.276667	1938.892578	99.329338
29647.314894	-1240.276667	1937.916992	43.960278
29647.314894	-1240.276667	1936.941406	52.286198
29647.314894	-1240.276667	1935.965820	60.591991
29647.314894	-1240.276667	1934.990234	103.161530
29647.314894	-1240.276667	1934.013672	11.036768
29647.314894	-1240.276667	1933.037109	122.109116
29647.314894	-1240.276667	1932.060547	3.066157
29647.314894	-1240.276667	1931.083984	-177.119873
29647.314894	-1240.276667	1930.107422	63.556423
29647.314894	-1240.276667	1929.129883	39.951729
29647.314894	-1240.276667	1928.153320	-125.496979
29647.314894	-1240.276667	1927.175781	51.429951
29647.314894	-1240.276667	1926.198242	10.703376
29647.314894	-1240.276667	1925.219727	-37.350437
29647.314894	-1240.276667	1924.242188	-14.518694
29647.314894	-1240.276667	1923.263672	196.435181
29647.314894	-1240.276667	1922.285156	62.857452
29647.314894	-1240.276667	1921.306641	-60.904461
29647.314894	-1240.276667	1920.328125	83.996353
29647.314894	-1240.276667	1919.349609	-44.610809
29647.314894	-1240.276667	1918.370117	29.435080
29647.314894	-1240.276667	1917.391602	57.083469
29647.314894	-1240.276667	1916.412109	6.633719
29647.314894	-1240.276667	1915.431641	-16.962893
29647.314894	-1240.276667	1914.452148	105.808426
29647.314894	-1240.276667	1913.472656	67.574890
29647.314894	-1240.276667	1912.492188	-7.220878
29647.314894	-1240.276667	1911.511719	13.092303
29647.314894	-1240.276667	1910.531250	-32.410393
29647.314894	-1240.276667	1909.550781	-80.329102
29647.314894	-1240.276667	1908.569336	-30.768148
29647.314894	-1240.276667	1907.588867	179.562439
29647.314894	-1240.276667	1906.607422	29.345160
29647.314894	-1240.276667	1905.625977	-30.709900
29647.314894	-1240.276667	1904.644531	67.518692
29647.314894	-1240.276667	1903.662109	92.685814
29647.314894	-1240.276667	1902.680664	-59.814724
29647.314894	-1240.276667	1901.698242	-24.886883
29647.314894	-1240.276667	1900.715820	-145.670807
29647.314894	-1240.276667	1899.733398	-8.564707
29647.314894	-1240.276667	1898.750000	104.174637
29647.314894	-1240.276667	1897.767578	-6.818434
29647.314894	-1240.276667	1896.784180	-86.161263
29647.314894	-1240.276667	1895.800781	-48.797352
29647.314894	-1240.276667	1894.817383	-16.299801
29647.314894	-1240.276667	1893.833984	-180.612808
29647.314894	-1240.276667	1892.850586	106.984428
29647.314894	-1240.276667	1891.866211	107.881554
29647.314894	-1240.276667	1890.881836	43.221359
29647.314894	-1240.276667	1889.897461	46.574223
29647.314894	-1240.276667	1888.913086	98.483162
29647.314894	-1240.276667	1887.927734	79.995987
29647.314894	-1240.276667	1886.943359	-42.813881
29647.314894	-1240.276667	1885.958008	144.965530
29647.314894	-1240.276667	1884.972656	-28.734547
29647.314894	-1240.276667	1883.987305	-73.826744
29647.314894	-1240.276667	1883.001953	24.163511
29647.314894	-1240.276667	1882.015625	-23.332205
29647.314894	-1240.276667	1881.029297	-65.954056
29647.314894	-1240.276667	1880.042969	-35.851528
29647.314894	-1240.276667	1879.056641	16.053411
29647.314894	-1240.276667	1878.070313	-196.098221
29647.314894	-1240.276667	1877.083984	5.996680
29647.314894	-1240.276667	1876.096680	-72.876320
29647.314894	-1240.276667	1875.109375	-16.131445
29647.314894	-1240.276667	1874.122070	-17.495888
29647.314894	-1240.276667	1873.134766	167.500900
29647.314894	-1240.276667	1872.146484	74.165939
29647.314894	-1240.276667	1871.159180	-132.830170
29647.314894	-1240.276667	1870.170898	-1.110513
29647.314894	-1240.276667	1869.182617	77.362236
29647.314894	-1240.276667	1868.194336	-15.858915
29647.314894	-1240.276667	1867.205078	-51.022594
29647.314894	-1240.276667	1866.216797	78.191063
29647.314894	-1240.276667	1865.227539	1.953930
29647.314894	-1240.276667	1864.238281	24.810087
29647.314894	-1240.276667	1863.249023	-39.299313
29647.314894	-1240.276667	1862.259766	0.473132
29647.314894	-1240.276667	1861.269531	11.256209
29647.314894	-1240.276667	1860.279297	-72.116997
29647.314894	-1240.276667	1859.290039	88.343307
29647.314894	-1240.276667	1858.298828	-48.100971
29647.314894	-1240.276667	1857.308594	129.190506
29647.314894	-1240.276667	1856.318359	156.846512
29647.314894	-1240.276667	1855.327148	27.712135
29647.314894	-1240.276667	1854.335938	-91.724350
29647.314894	-1240.276667	1853.344727	-112.258675
29647.314894	-1240.276667	1852.353516	76.942825
29647.314894	-1240.276667	1851.362305	20.235777
29647.314894	-1240.276667	1850.370117	62.348553
29647.314894	-1240.276667	1849.377930	80.353378
29647.314894	-1240.276667	1848.385742	59.810940
29647.314894	-1240.276667	1847.393555	-8.890926
29647.314894	-1240.276667	1846.401367	6.710800
29647.314894	-1240.276667	1845.408203	94.528076
29647.314894	-1240.276667	1844.415039	199.161407
29647.314894	-1240.276667	1843.421875	7.745685
29647.314894	-1240.276667	1842.428711	20.920673
29647.314894	-1240.276667	1841.435547	55.739708
29647.314894	-1240.276667	1840.441406	13.574687
29647.314894	-1240.276667	1839.448242	5.091817
29647.314894	-1240.276667	1838.454102	6.224223
29647.314894	-1240.276667	1837.459961	7.353153
29647.314894	-1240.276667	1836.464844	-68.433693
29647.314894	-1240.276667	1835.470703	76.878029
29647.314894	-1240.276667	1834.475586	82.783447
29647.314894	-1240.276667	1833.480469	-45.833275
29647.314894	-1240.276667	1832.485352	-23.106316
29647.314894	-1240.276667	1831.490234	9.211480
29647.314894	-1240.276667	1830.495117	118.332611
29647.314894	-1240.276667	1829.499023	-48.623535
29647.314894	-1240.276667	1828.502930	46.053406
29647.314894	-1240.276667	1827.506836	126.290764
29647.314894	-1240.276667	1826.510742	24.175541
29647.314894	-1240.276667	1825.513672	85.181595
29647.314894	-1240.276667	1824.517578	-38.485714
29647.314894	-1240.276667	1823.520508	-8.676124
29647.314894	-1240.276667	1822.523438	-74.770058
29647.314894	-1240.276667	1821.526367	192.280899
29647.314894	-1240.276667	1820.529297	-115.858620
29647.314894	-1240.276667	1819.531250	-16.623482
29647.314894	-1240.276667	1818.533203	10.705515
29647.314894	-1240.276667	1817.535156	52.381386
29647.314894	-1240.276667	1816.537109	50.931076
29647.314894	-1240.276667	1815.539063	-15.165834
29647.314894	-1240.276667	1814.540039	-14.236371
29647.314894	-1240.276667	1813.541992	39.327869
29647.314894	-1240.276667	1812.542969	23.472353
29647.314894	-1240.276667	1811.543945	91.332390
29647.314894	-1240.276667	1810.543945	99.358742
29647.314894	-1240.276667	1809.544922	23.677988
29647.314894	-1240.276667	1808.544922	60.373676
29647.314894	-1240.276667	1807.544922	-168.282593
29647.314894	-1240.276667	1806.544922	30.912888
29647.314894	-1240.276667	1805.544922	17.361107
29647.314894	-1240.276667	1804.544922	-34.425137
29647.314894	-1240.276667	1803.543945	23.659134
29647.314894	-1240.276667	1802.542969	-80.682274
29647.314894	-1240.276667	1801.541992	8.392056
29647.314894	-1240.276667	1800.541016	18.639080
29647.314894	-1240.276667	1799.539063	-64.219093
29647.314894	-1240.276667	1798.538086	-58.772339
29647.314894	-1240.276667	1797.536133	-105.836815
29647.314894	-1240.276667	1796.534180	45.078983
29647.314894	-1240.276667	1795.532227	-4.411527
29647.314894	-1240.276667	1794.529297	124.924927
29647.314894	-1240.276667	1793.527344	-46.186405
29647.314894	-1240.276667	1792.524414	80.683273
29647.314894	-1240.276667	1791.521484	-99.931938
29647.314894	-1240.276667	1790.518555	134.074066
29647.314894	-1240.276667	1789.514648	5.877353
29647.314894	-1240.276667	1788.511719	180.187271
29647.314894	-1240.276667	1787.507813	-131.372742
29647.314894	-1240.276667	1786.503906	19.039637
29647.314894	-1240.276667	1785.500000	-44.860577
29647.314894	-1240.276667	1784.496094	150.648956
29647.314894	-1240.276667	1783.491211	108.111382
29647.314894	-1240.276667	1782.486328	56.049789
29647.314894	-1240.276667	1781.481445	-10.289061
29647.314894	-1240.276667	1780.476563	11.362119
29647.314894	-1240.276667	1779.471680	-9.818257
29647.314894	-1240.276667	1778.465820	99.726532
29647.314894	-1240.276667	1777.460938	116.513512
29647.314894	-1240.276667	1776.455078	21.578264
29647.314894	-1240.276667	1775.449219	147.606674
29647.314894	-1240.276667	1774.442383	123.906372
29647.314894	-1240.276667	1773.436523	52.691837
29647.314894	-1240.276667	1772.429688	19.465784
29647.314894	-1240.276667	1771.422852	306.720367
29647.314894	-1240.276667	1770.416016	233.051498
29647.314894	-1240.276667	1769.409180	154.635727
29647.314894	-1240.276667	1768.402344	-108.848976
29647.314894	-1240.276667	1767.394531	21.526440
29647.314894	-1240.276667	1766.386719	-4.715439
29647.314894	-1240.276667	1765.378906	80.476433
29647.314894	-1240.276667	1764.371094	-99.933319
29647.314894	-1240.276667	1763.362305	8.885152
29647.314894	-1240.276667	1762.354492	-29.303211
29647.314894	-1240.276667	1761.345703	-10.642226
29647.314894	-1240.276667	1760.336914	50.624763
29647.314894	-1240.276667	1759.328125	154.472672
29647.314894	-1240.276667	1758.318359	52.214622
29647.314894	-1240.276667	1757.308594	77.822227
29647.314894	-1240.276667	1756.299805	-183.049194
29647.314894	-1240.276667	1755.290039	81.579765
29647.314894	-1240.276667	1754.279297	137.831421
29647.314894	-1240.276667	1753.269531	-25.998447
29647.314894	-1240.276667	1752.258789	79.863350
29647.314894	-1240.276667	1751.249023	-74.497238
29647.314894	-1240.276667	1750.238281	102.205574
29647.314894	-1240.276667	1749.226563	-217.662216
29647.314894	-1240.276667	1748.215820	-3.245428
29647.314894	-1240.276667	1747.204102	10.178092
29647.314894	-1240.276667	1746.193359	96.813263
29647.314894	-1240.276667	1745.181641	-29.230658
29647.314894	-1240.276667	1744.168945	-63.151127
29647.314894	-1240.276667	1743.157227	84.741837
29647.314894	-1240.276667	1742.144531	38.941124
29647.314894	-1240.276667	1741.132813	75.746696
29647.314894	-1240.276667	1740.120117	152.621567
29647.314894	-1240.276667	1739.106445	-67.883675
29647.314894	-1240.276667	1738.093750	-31.184645
29647.314894	-1240.276667	1737.080078	-147.854660
29647.314894	-1240.276667	1736.067383	-94.714500
29647.314894	-1240.276667	1735.053711	3.165833
29647.314894	-1240.276667	1734.040039	-26.323751
29647.314894	-1240.276667	1733.025391	-41.699329
29647.314894	-1240.276667	1732.011719	-35.890297
29647.314894	-1240.276667	1730.997070	-138.499588
29647.314894	-1240.276667	1729.982422	-12.613223
29647.314894	-1240.276667	1728.967773	87.283928
29647.314894	-1240.276667	1727.952148	1.085331
29647.314894	-1240.276667	1726.937500	79.684692
29647.314894	-1240.276667	1725.921875	64.064240
29647.314894	-1240.276667	1724.906250	-135.143585
29647.314894	-1240.276667	1723.890625	63.324894
29647.314894	-1240.276667	1722.875000	-86.474609
29647.314894	-1240.276667	1721.858398	-12.819194
29647.314894	-1240.276667	1720.841797	56.070698
29647.314894	-1240.276667	1719.825195	9.697551
29647.314894	-1240.276667	1718.808594	5.618556
29647.314894	-1240.276667	1717.791992	187.170197
29647.314894	-1240.276667	1716.774414	98.395584
29647.314894	-1240.276667	1715.756836	56.605698
29647.314894	-1240.276667	1714.739258	101.704422
29647.314894	-1240.276667	1713.721680	-118.614784
29647.314894	-1240.276667	1712.704102	6.261445
29647.314894	-1240.276667	1711.685547	-59.095097
29647.314894	-1240.276667	1710.667969	35.142502
29647.314894	-1240.276667	1709.649414	68.293968
29647.314894	-1240.276667	1708.630859	-1.830425
29647.314894	-1240.276667	1707.611328	10.132027
29647.314894	-1240.276667	1706.592773	76.001663
29647.314894	-1240.276667	1705.573242	-52.809223
29647.314894	-1240.276667	1704.553711	174.733398
29647.314894	-1240.276667	1703.534180	92.764465
29647.314894	-1240.276667	1702.513672	198.262268
29647.314894	-1240.276667	1701.494141	-85.242058
29647.314894	-1240.276667	1700.473633	38.924244
29647.314894	-1240.276667	1699.453125	90.405251
29647.314894	-1240.276667	1698.432617	113.734848
29647.314894	-1240.276667	1697.412109	97.223259
29647.314894	-1240.276667	1696.390625	-41.037552
29647.314894	-1240.276667	1695.369141	3.264111
29647.314894	-1240.276667	1694.347656	59.216339
29647.314894	-1240.276667	1693.326172	182.957520
29647.314894	-1240.276667	1692.304688	-114.387611
29647.314894	-1240.276667	1691.282227	-37.498711
29647.314894	-1240.276667	1690.260742	-33.143291
29647.314894	-1240.276667	1689.238281	15.587678
29647.314894	-1240.276667	1688.214844	101.657242
29647.314894	-1240.276667	1687.192383	28.775112
29647.314894	-1240.276667	1686.168945	166.146072
29647.314894	-1240.276667	1685.146484	39.496555
29647.314894	-1240.276667	1684.123047	111.363281
29647.314894	-1240.276667	1683.099609	-80.668221
29647.314894	-1240.276667	1682.075195	16.808168
29647.314894	-1240.276667	1681.051758	-72.494583
29647.314894	-1240.276667	1680.027344	38.886349
29647.314894	-1240.276667	1679.002930	28.875477
29647.314894	-1240.276667	1677.978516	-74.464890
29647.314894	-1240.276667	1676.953125	123.052017
29647.314894	-1240.276667	1675.928711	-24.625204
29647.314894	-1240.276667	1674.903320	-69.702400
29647.314894	-1240.276667	1673.877930	230.173798
29647.314894	-1240.276667	1672.852539	0.910935
29647.314894	-1240.276667	1671.826172	121.193741
29647.314894	-1240.276667	1670.800781	41.074593
29647.314894	-1240.276667	1669.774414	137.960709
29647.314894	-1240.276667	1668.748047	-0.403287
29647.314894	-1240.276667	1667.721680	152.278854
29647.314894	-1240.276667	1666.694336	160.553085
29647.314894	-1240.276667	1665.667969	301.459351
29647.314894	-1240.276667	1664.640625	123.510147
29647.314894	-1240.276667	1663.613281	173.586945
29647.314894	-1240.276667	1662.585938	146.865875
29647.314894	-1240.276667	1661.557617	215.470001
29647.314894	-1240.276667	1660.530273	151.505875
29647.314894	-1240.276667	1659.501953	201.439911
29647.314894	-1240.276667	1658.473633	181.609756
29647.314894	-1240.276667	1657.444336	187.319092
29647.314894	-1240.276667	1656.416016	330.080841
29647.314894	-1240.276667	1655.386719	159.187531
29647.314894	-1240.276667	1654.358398	78.916794
29647.314894	-1240.276667	1653.328125	235.471695
29647.314894	-1240.276667	1652.298828	234.098236
29647.314894	-1240.276667	1651.269531	388.209412
29647.314894	-1240.276667	1650.239258	277.697662
29647.314894	-1240.276667	1649.208984	396.894989
29647.314894	-1240.276667	1648.178711	423.244202
29647.314894	-1240.276667	1647.148438	521.459534
29647.314894	-1240.276667	1646.117188	454.984222
29647.314894	-1240.276667	1645.086914	460.389221
29647.314894	-1240.276667	1644.055664	593.248901
29647.314894	-1240.276667	1643.024414	563.826050
29647.314894	-1240.276667	1641.992188	495.005219
29647.314894	-1240.276667	1640.960938	579.087952
29647.314894	-1240.276667	1639.928711	408.354584
29647.314894	-1240.276667	1638.896484	487.754517
29647.314894	-1240.276667	1637.864258	365.694397
29647.314894	-1240.276667	1636.832031	417.268494
29647.314894	-1240.276667	1635.798828	399.375916
29647.314894	-1240.276667	1634.766602	293.560547
29647.314894	-1240.276667	1633.733398	423.725739
29647.314894	-1240.276667	1632.699219	426.615051
29647.314894	-1240.276667	1631.666016	459.559540
29647.314894	-1240.276667	1630.632813	238.162476
29647.314894	-1240.276667	1629.598633	541.551514
29647.314894	-1240.276667	1628.564453	535.128235
29647.314894	-1240.276667	1627.530273	593.395081
29647.314894	-1240.276667	1626.495117	489.911316
29647.314894	-1240.276667	1625.460938	682.111633
29647.314894	-1240.276667	1624.425781	770.304504
29647.314894	-1240.276667	1623.390625	867.690369
29647.314894	-1240.276667	1622.355469	1195.870361
29647.314894	-1240.276667	1621.319336	1380.816895
29647.314894	-1240.276667	1620.284180	1572.614990
29647.314894	-1240.276667	1619.248047	1660.509644
29647.314894	-1240.276667	1618.211914	1462.347778
29647.314894	-1240.276667	1617.174805	1351.885132
29647.314894	-1240.276667	1616.138672	1010.898010
29647.314894	-1240.276667	1615.101563	1209.460693
29647.314894	-1240.276667	1614.065430	1000.001038
29647.314894	-1240.276667	1613.027344	813.650879
29647.314894	-1240.276667	1611.990234	894.628967
29647.314894	-1240.276667	1610.953125	1116.083496
29647.314894	-1240.276667	1609.915039	1084.115601
29647.314894	-1240.276667	1608.876953	1047.553955
29647.314894	-1240.276667	1607.838867	1006.401917
29647.314894	-1240.276667	1606.800781	956.060364
29647.314894	-1240.276667	1605.761719	1032.297607
29647.314894	-1240.276667	1604.723633	958.965271
29647.314894	-1240.276667	1603.684570	777.542908
29647.314894	-1240.276667	1602.644531	782.475403
29647.314894	-1240.276667	1601.605469	872.493164
29647.314894	-1240.276667	1600.566406	764.768982
29647.314894	-1240.276667	1599.526367	939.801514
29647.314894	-1240.276667	1598.486328	889.559937
29647.314894	-1240.276667	1597.446289	1018.556396
29647.314894	-1240.276667	1596.405273	926.975281
29647.314894	-1240.276667	1595.365234	885.969055
29647.314894	-1240.276667	1594.324219	776.092407
29647.314894	-1240.276667	1593.283203	859.113159
29647.314894	-1240.276667	1592.242188	1024.743774
29647.314894	-1240.276667	1591.200195	802.469543
29647.314894	-1240.276667	1590.159180	825.805908
29647.314894	-1240.276667	1589.117188	706.907349
29647.314894	-1240.276667	1588.075195	505.495850
29647.314894	-1240.276667	1587.032227	790.310547
29647.314894	-1240.276667	1585.990234	705.909790
29647.314894	-1240.276667	1584.947266	621.546875
29647.314894	-1240.276667	1583.904297	729.739563
29647.314894	-1240.276667	1582.861328	638.555725
29647.314894	-1240.276667	1581.818359	570.330811
29647.314894	-1240.276667	1580.775391	557.116211
29647.314894	-1240.276667	1579.731445	704.213623
29647.314894	-1240.276667	1578.687500	915.375183
29647.314894	-1240.276667	1577.643555	480.946045
29647.314894	-1240.276667	1576.598633	657.764282
29647.314894	-1240.276667	1575.554688	484.442566
29647.314894	-1240.276667	1574.509766	727.569458
29647.314894	-1240.276667	1573.464844	744.175232
29647.314894	-1240.276667	1572.419922	593.853149
29647.314894	-1240.276667	1571.374023	772.844666
29647.314894	-1240.276667	1570.329102	624.898987
29647.314894	-1240.276667	1569.283203	607.299255
29647.314894	-1240.276667	1568.237305	628.572571
29647.314894	-1240.276667	1567.191406	631.580933
29647.314894	-1240.276667	1566.144531	570.647766
29647.314894	-1240.276667	1565.098633	560.007507
29647.314894	-1240.276667	1564.051758	521.988342
29647.314894	-1240.276667	1563.004883	436.068542
29647.314894	-1240.276667	1561.957031	567.023865
29647.314894	-1240.276667	1560.910156	506.277100
29647.314894	-1240.276667	1559.862305	518.580322
29647.314894	-1240.276667	1558.814453	558.275146
29647.314894	-1240.276667	1557.766602	536.404907
29647.314894	-1240.276667	1556.718750	398.282654
29647.314894	-1240.276667	1555.669922	588.509521
29647.314894	-1240.276667	1554.621094	418.569397
29647.314894	-1240.276667	1553.573242	526.742065
29647.314894	-1240.276667	1552.523438	518.693237
29647.314894	-1240.276667	1551.474609	355.785553
29647.314894	-1240.276667	1550.424805	197.520630
29647.314894	-1240.276667	1549.375000	394.558105
29647.314894	-1240.276667	1548.325195	489.104492
29647.314894	-1240.276667	1547.275391	526.741333
29647.314894	-1240.276667	1546.225586	236.701523
29647.314894	-1240.276667	1545.174805	440.520050
29647.314894	-1240.276667	1544.124023	462.310455
29647.314894	-1240.276667	1543.073242	468.205994
29647.314894	-1240.276667	1542.022461	442.296997
29647.314894	-1240.276667	1540.970703	427.795319
29647.314894	-1240.276667	1539.919922	499.710327
29647.314894	-1240.276667	1538.868164	498.905731
29647.314894	-1240.276667	1537.815430	550.388916
29647.314894	-1240.276667	1536.763672	579.176880
29647.314894	-1240.276667	1535.710938	632.967529
29647.314894	-1240.276667	1534.659180	600.491516
29647.314894	-1240.276667	1533.606445	683.844299
29647.314894	-1240.276667	1532.552734	755.846863
29647.314894	-1240.276667	1531.500000	873.252930
29647.314894	-1240.276667	1530.446289	849.971863
29647.314894	-1240.276667	1529.393555	1017.296387
29647.314894	-1240.276667	1528.338867	744.586853
29647.314894	-1240.276667	1527.285156	725.999451
29647.314894	-1240.276667	1526.231445	682.520752
29647.314894	-1240.276667	1525.176758	478.161041
29647.314894	-1240.276667	1524.122070	428.028137
29647.314894	-1240.276667	1523.067383	214.819748
29647.314894	-1240.276667	1522.012695	232.802917
29647.314894	-1240.276667	1520.957031	62.830788
29647.314894	-1240.276667	1519.901367	148.850922
29647.314894	-1240.276667	1518.845703	-109.246620
29647.314894	-1240.276667	1517.790039	1.761211
29647.314894	-1240.276667	1516.734375	210.081848
29647.314894	-1240.276667	1515.677734	370.845032
29647.314894	-1240.276667	1514.621094	58.790058
29647.314894	-1240.276667	1513.564453	7.006194
29647.314894	-1240.276667	1512.507813	115.842453
29647.314894	-1240.276667	1511.450195	-46.625950
29647.314894	-1240.276667	1510.393555	102.958588
29647.314894	-1240.276667	1509.335938	245.747101
29647.314894	-1240.276667	1508.278320	51.859501
29647.314894	-1240.276667	1507.219727	248.911179
29647.314894	-1240.276667	1506.162109	91.334557
29647.314894	-1240.276667	1505.103516	17.417759
29647.314894	-1240.276667	1504.044922	-67.708794
29647.314894	-1240.276667	1502.986328	18.800957
29647.314894	-1240.276667	1501.926758	-9.774273
29647.314894	-1240.276667	1500.868164	-45.053349
29647.314894	-1240.276667	1499.808594	79.899780
29647.314894	-1240.276667	1498.749023	-77.080635
29647.314894	-1240.276667	1497.688477	-107.668800
29647.314894	-1240.276667	1496.628906	48.941776
29647.314894	-1240.276667	1495.568359	104.103539
29647.314894	-1240.276667	1494.507813	17.312647
29647.314894	-1240.276667	1493.447266	0.461006
29647.314894	-1240.276667	1492.386719	-128.970612
29647.314894	-1240.276667	1491.325195	-163.701050
29647.314894	-1240.276667	1490.263672	-83.516632
29647.314894	-1240.276667	1489.202148	-77.607475
29647.314894	-1240.276667	1488.140625	-78.399086
29647.314894	-1240.276667	1487.079102	-148.901917
29647.314894	-1240.276667	1486.016602	-219.324814
29647.314894	-1240.276667	1484.954102	-37.701447
29647.314894	-1240.276667	1483.891602	-101.258095
29647.314894	-1240.276667	1482.829102	1.676394
29647.314894	-1240.276667	1481.765625	102.377739
29647.314894	-1240.276667	1480.702148	79.461479
29647.314894	-1240.276667	1479.638672	27.406366
29647.314894	-1240.276667	1478.575195	20.380623
29647.314894	-1240.276667	1477.511719	85.274139
29647.314894	-1240.276667	1476.447266	134.501541
29647.314894	-1240.276667	1475.382813	235.365570
29647.314894	-1240.276667	1474.318359	376.691650
29647.314894	-1240.276667	1473.253906	134.195816
29647.314894	-1240.276667	1472.189453	149.972031
29647.314894	-1240.276667	1471.124023	358.568024
29647.314894	-1240.276667	1470.058594	192.789108
29647.314894	-1240.276667	1468.993164	105.606224
29647.314894	-1240.276667	1467.927734	27.346703
29647.314894	-1240.276667	1466.861328	175.623886
29647.314894	-1240.276667	1465.794922	185.142303
29647.314894	-1240.276667	1464.728516	37.851360
29647.314894	-1240.276667	1463.662109	241.950439
29647.314894	-1240.276667	1462.594727	146.421249
29647.314894	-1240.276667	1461.528320	142.327316
29647.314894	-1240.276667	1460.460938	254.882889
29647.314894	-1240.276667	1459.393555	309.550934
29647.314894	-1240.276667	1458.326172	164.694870
29647.314894	-1240.276667	1457.257813	360.507599
29647.314894	-1240.276667	1456.189453	178.275162
29647.314894	-1240.276667	1455.121094	377.625580
29647.314894	-1240.276667	1454.052734	416.970123
29647.314894	-1240.276667	1452.984375	506.806000
29647.314894	-1240.276667	1451.915039	499.500183
29647.314894	-1240.276667	1450.845703	424.473175
29647.314894	-1240.276667	1449.776367	621.649841
29647.314894	-1240.276667	1448.707031	349.261688
29647.314894	-1240.276667	1447.636719	364.656525
29647.314894	-1240.276667	1446.567383	216.255402
29647.314894	-1240.276667	1445.497070	315.016418
29647.314894	-1240.276667	1444.425781	333.633179
29647.314894	-1240.276667	1443.355469	284.779358
29647.314894	-1240.276667	1442.285156	262.213959
29647.314894	-1240.276667	1441.213867	276.035889
29647.314894	-1240.276667	1440.142578	208.162079
29647.314894	-1240.276667	1439.070313	220.497284
29647.314894	-1240.276667	1437.999023	322.075897
29647.314894	-1240.276667	1436.926758	244.135223
29647.314894	-1240.276667	1435.854492	349.069366
29647.314894	-1240.276667	1434.782227	277.621582
29647.314894	-1240.276667	1433.709961	359.370941
29647.314894	-1240.276667	1432.636719	252.766495
29647.314894	-1240.276667	1431.563477	195.594727
29647.314894	-1240.276667	1430.490234	407.435699
29647.314894	-1240.276667	1429.416992	206.280655
29647.314894	-1240.276667	1428.343750	180.813156
29647.314894	-1240.276667	1427.269531	129.301865
29647.314894	-1240.276667	1426.195313	217.452835
29647.314894	-1240.276667	1425.121094	-45.369686
29647.314894	-1240.276667	1424.046875	77.838165
29647.314894	-1240.276667	1422.971680	58.001534
29647.314894	-1240.276667	1421.896484	64.970726
29647.314894	-1240.276667	1420.821289	87.428322
29647.314894	-1240.276667	1419.746094	235.969971
29647.314894	-1240.276667	1418.669922	151.636276
29647.314894	-1240.276667	1417.594727	264.239502
29647.314894	-1240.276667	1416.518555	-40.501392
29647.314894	-1240.276667	1415.442383	-16.517715
29647.314894	-1240.276667	1414.365234	244.537003
29647.314894	-1240.276667	1413.289063	193.852448
29647.314894	-1240.276667	1412.211914	149.274033
29647.314894	-1240.276667	1411.134766	419.169006
29647.314894	-1240.276667	1410.057617	421.542145
29647.314894	-1240.276667	1408.979492	297.551727
29647.314894	-1240.276667	1407.902344	263.297943
29647.314894	-1240.276667	1406.824219	129.134598
29647.314894	-1240.276667	1405.746094	148.188354
29647.314894	-1240.276667	1404.666992	141.106964
29647.314894	-1240.276667	1403.588867	147.701080
29647.314894	-1240.276667	1402.509766	270.346436
29647.314894	-1240.276667	1401.430664	132.341309
29647.314894	-1240.276667	1400.351563	270.165070
29647.314894	-1240.276667	1399.271484	138.282089
29647.314894	-1240.276667	1398.192383	162.425293
29647.314894	-1240.276667	1397.112305	270.024689
29647.314894	-1240.276667	1396.031250	282.798035
29647.314894	-1240.276667	1394.951172	314.391937
29647.314894	-1240.276667	1393.871094	116.573624
29647.314894	-1240.276667	1392.790039	188.724838
29647.314894	-1240.276667	1391.708984	285.349335
29647.314894	-1240.276667	1390.626953	96.581863
29647.314894	-1240.276667	1389.545898	274.615295
29647.314894	-1240.276667	1388.463867	142.391281
29647.314894	-1240.276667	1387.381836	186.636932
29647.314894	-1240.276667	1386.299805	335.989777
29647.314894	-1240.276667	1385.217773	47.396816
29647.314894	-1240.276667	1384.134766	400.230469
29647.314894	-1240.276667	1383.051758	359.054535
29647.314894	-1240.276667	1381.968750	387.504547
29647.314894	-1240.276667	1380.885742	508.496246
29647.314894	-1240.276667	1379.802734	400.890747
29647.314894	-1240.276667	1378.718750	405.843903
29647.314894	-1240.276667	1377.634766	365.727783
29647.314894	-1240.276667	1376.550781	340.984558
29647.314894	-1240.276667	1375.465820	287.486969
29647.314894	-1240.276667	1374.381836	361.715332
29647.314894	-1240.276667	1373.296875	331.322693
29647.314894	-1240.276667	1372.211914	356.953369
29647.314894	-1240.276667	1371.126953	210.643173
29647.314894	-1240.276667	1370.041016	343.434113
29647.314894	-1240.276667	1368.955078	268.499573
29647.314894	-1240.276667	1367.869141	251.291367
29647.314894	-1240.276667	1366.783203	209.881531
29647.314894	-1240.276667	1365.697266	455.868347
29647.314894	-1240.276667	1364.610352	296.299927
29647.314894	-1240.276667	1363.523438	328.367889
29647.314894	-1240.276667	1362.436523	260.050476
29647.314894	-1240.276667	1361.349609	177.855164
29647.314894	-1240.276667	1360.261719	189.654434
29647.314894	-1240.276667	1359.174805	235.585220
29647.314894	-1240.276667	1358.086914	386.651642
29647.314894	-1240.276667	1356.998047	417.433594
29647.314894	-1240.276667	1355.910156	341.278656
29647.314894	-1240.276667	1354.821289	193.534927
29647.314894	-1240.276667	1353.732422	252.376999
29647.314894	-1240.276667	1352.643555	259.783020
29647.314894	-1240.276667	1351.554688	244.945053
29647.314894	-1240.276667	1350.464844	399.581665
29647.314894	-1240.276667	1349.375000	520.136719
29647.314894	-1240.276667	1348.285156	682.824707
29647.314894	-1240.276667	1347.195313	734.041687
29647.314894	-1240.276667	1346.105469	906.132141
29647.314894	-1240.276667	1345.014648	1026.849976
29647.314894	-1240.276667	1343.923828	1140.695313
29647.314894	-1240.276667	1342.833008	1201.139648
29647.314894	-1240.276667	1341.741211	1116.753418
29647.314894	-1240.276667	1340.650391	1080.239136
29647.314894	-1240.276667	1339.558594	810.002991
29647.314894	-1240.276667	1338.466797	906.901367
29647.314894	-1240.276667	1337.374023	642.838928
29647.314894	-1240.276667	1336.282227	656.827515
29647.314894	-1240.276667	1335.189453	308.923859
29647.314894	-1240.276667	1334.096680	454.276276
29647.314894	-1240.276667	1333.003906	215.191910
29647.314894	-1240.276667	1331.910156	199.327606
29647.314894	-1240.276667	1330.817383	204.246445
29647.314894	-1240.276667	1329.723633	204.910934
29647.314894	-1240.276667	1328.629883	106.577492
29647.314894	-1240.276667	1327.535156	198.498779
29647.314894	-1240.276667	1326.441406	156.745346
29647.314894	-1240.276667	1325.346680	337.828857
29647.314894	-1240.276667	1324.251953	295.598328
29647.314894	-1240.276667	1323.156250	250.108292
29647.314894	-1240.276667	1322.061523	284.448517
29647.314894	-1240.276667	1320.965820	247.441544
29647.314894	-1240.276667	1319.870117	229.954727
29647.314894	-1240.276667	1318.774414	235.388016
29647.314894	-1240.276667	1317.678711	362.470428
29647.314894	-1240.276667	1316.582031	289.793884
29647.314894	-1240.276667	1315.485352	383.665985
29647.314894	-1240.276667	1314.388672	420.584381
29647.314894	-1240.276667	1313.291016	228.548233
29647.314894	-1240.276667	1312.194336	443.708130
29647.314894	-1240.276667	1311.096680	476.405792
29647.314894	-1240.276667	1309.999023	496.958466
29647.314894	-1240.276667	1308.901367	346.941803
29647.314894	-1240.276667	1307.802734	376.447968
29647.314894	-1240.276667	1306.705078	80.048073
29647.314894	-1240.276667	1305.606445	81.660362
29647.314894	-1240.276667	1304.506836	180.885040
29647.314894	-1240.276667	1303.408203	47.493156
29647.314894	-1240.276667	1302.308594	73.689301
29647.314894	-1240.276667	1301.208984	67.680038
29647.314894	-1240.276667	1300.109375	37.796890
29647.314894	-1240.276667	1299.009766	171.905579
29647.314894	-1240.276667	1297.909180	92.698158
29647.314894	-1240.276667	1296.808594	164.311722
29647.314894	-1240.276667	1295.708008	117.513321
29647.314894	-1240.276667	1294.607422	121.215561
29647.314894	-1240.276667	1293.506836	220.916946
29647.314894	-1240.276667	1292.405273	27.028425
29647.314894	-1240.276667	1291.303711	91.269936
29647.314894	-1240.276667	1290.202148	235.754242
29647.314894	-1240.276667	1289.099609	263.255646
29647.314894	-1240.276667	1287.998047	188.003326
29647.314894	-1240.276667	1286.895508	120.462463
29647.314894	-1240.276667	1285.792969	14.798129
29647.314894	-1240.276667	1284.689453	160.063049
29647.314894	-1240.276667	1283.586914	93.074104
29647.314894	-1240.276667	1282.483398	174.529053
29647.314894	-1240.276667	1281.379883	44.273552
29647.314894	-1240.276667	1280.276367	105.853958
29647.314894	-1240.276667	1279.171875	186.577988
29647.314894	-1240.276667	1278.067383	170.984589
29647.314894	-1240.276667	1276.962891	176.346664
29647.314894	-1240.276667	1275.858398	-25.624380
29647.314894	-1240.276667	1274.753906	104.439079
29647.314894	-1240.276667	1273.648438	-55.158066
29647.314894	-1240.276667	1272.542969	87.025352
29647.314894	-1240.276667	1271.437500	-60.206490
29647.314894	-1240.276667	1270.331055	-71.514488
29647.314894	-1240.276667	1269.225586	-34.568672
29647.314894	-1240.276667	1268.119141	11.764822
29647.314894	-1240.276667	1267.012695	12.510072
29647.314894	-1240.276667	1265.906250	-168.232864
29647.314894	-1240.276667	1264.798828	53.107643
29647.314894	-1240.276667	1263.691406	85.847610
29647.314894	-1240.276667	1262.583984	-52.827938
29647.314894	-1240.276667	1261.476563	-98.436142
29647.314894	-1240.276667	1260.368164	-22.973661
29647.314894	-1240.276667	1259.260742	-64.287605
29647.314894	-1240.276667	1258.152344	-99.359047
29647.314894	-1240.276667	1257.043945	-126.922852
29647.314894	-1240.276667	1255.934570	-108.417999
29647.314894	-1240.276667	1254.825195	-38.406540
29647.314894	-1240.276667	1253.716797	-51.960320
29647.314894	-1240.276667	1252.606445	-78.862968
29647.314894	-1240.276667	1251.497070	30.454218
29647.314894	-1240.276667	1250.387695	-88.100067
29647.314894	-1240.276667	1249.277344	-87.618080
29647.314894	-1240.276667	1248.166992	-173.113083
29647.314894	-1240.276667	1247.055664	-136.532791
29647.314894	-1240.276667	1245.945313	52.138710
29647.314894	-1240.276667	1244.833984	104.088585
29647.314894	-1240.276667	1243.722656	-25.556829
29647.314894	-1240.276667	1242.611328	-57.673058
29647.314894	-1240.276667	1241.499023	21.272722
29647.314894	-1240.276667	1240.387695	62.519958
29647.314894	-1240.276667	1239.275391	64.174850
29647.314894	-1240.276667	1238.162109	100.925377
29647.314894	-1240.276667	1237.049805	90.192596
29647.314894	-1240.276667	1235.936523	22.349350
29647.314894	-1240.276667	1234.823242	74.538521
29647.314894	-1240.276667	1233.709961	180.776199
29647.314894	-1240.276667	1232.596680	235.419296
29647.314894	-1240.276667	1231.482422	174.476257
29647.314894	-1240.276667	1230.369141	325.666931
29647.314894	-1240.276667	1229.253906	445.055817
29647.314894	-1240.276667	1228.139648	624.365479
29647.314894	-1240.276667	1227.025391	580.311462
29647.314894	-1240.276667	1225.910156	464.509552
29647.314894	-1240.276667	1224.794922	676.610535
29647.314894	-1240.276667	1223.679688	618.408813
29647.314894	-1240.276667	1222.563477	502.107117
29647.314894	-1240.276667	1221.447266	480.444122
29647.314894	-1240.276667	1220.331055	442.307007
29647.314894	-1240.276667	1219.214844	175.248962
29647.314894	-1240.276667	1218.098633	285.141571
29647.314894	-1240.276667	1216.981445	261.403473
29647.314894	-1240.276667	1215.864258	117.207848
29647.314894	-1240.276667	1214.747070	182.214340
29647.314894	-1240.276667	1213.629883	181.658798
29647.314894	-1240.276667	1212.511719	176.355377
29647.314894	-1240.276667	1211.393555	20.932306
29647.314894	-1240.276667	1210.275391	117.078583
29647.314894	-1240.276667	1209.157227	82.576935
29647.314894	-1240.276667	1208.038086	32.079369
29647.314894	-1240.276667	1206.918945	87.393860
29647.314894	-1240.276667	1205.799805	53.752365
29647.314894	-1240.276667	1204.680664	-2.451050
29647.314894	-1240.276667	1203.560547	55.053288
29647.314894	-1240.276667	1202.441406	106.885292
29647.314894	-1240.276667	1201.321289	-67.918159
29647.314894	-1240.276667	1200.200195	-111.477196
29647.314894	-1240.276667	1199.080078	-53.688904
29647.314894	-1240.276667	1197.958984	-78.798706
29647.314894	-1240.276667	1196.837891	12.285155
29647.314894	-1240.276667	1195.716797	-36.616467
29647.314894	-1240.276667	1194.594727	11.445724
29647.314894	-1240.276667	1193.473633	15.615753
29647.314894	-1240.276667	1192.351563	-81.325516
29647.314894	-1240.276667	1191.229492	53.963261
29647.314894	-1240.276667	1190.106445	84.950378
29647.314894	-1240.276667	1188.984375	-60.935841
29647.314894	-1240.276667	1187.861328	90.100998
29647.314894	-1240.276667	1186.738281	13.982382
29647.314894	-1240.276667	1185.614258	-65.149605
29647.314894	-1240.276667	1184.491211	-67.889481
29647.314894	-1240.276667	1183.367188	-169.960953
29647.314894	-1240.276667	1182.243164	-77.570885
29647.314894	-1240.276667	1181.119141	-118.006813
29647.314894	-1240.276667	1179.994141	8.200471
29647.314894	-1240.276667	1178.869141	23.113663
29647.314894	-1240.276667	1177.744141	-110.899460
29647.314894	-1240.276667	1176.619141	-102.976974
29647.314894	-1240.276667	1175.493164	-11.796241
29647.314894	-1240.276667	1174.368164	-96.766899
29647.314894	-1240.276667	1173.242188	71.629776
29647.314894	-1240.276667	1172.115234	-90.146194
29647.314894	-1240.276667	1170.989258	-132.498001
29647.314894	-1240.276667	1169.862305	-55.328392
29647.314894	-1240.276667	1168.735352	-75.463158
29647.314894	-1240.276667	1167.608398	-91.959297
29647.314894	-1240.276667	1166.481445	-53.696548
29647.314894	-1240.276667	1165.353516	-129.923691
29647.314894	-1240.276667	1164.225586	-20.887808
29647.314894	-1240.276667	1163.097656	-84.755249
29647.314894	-1240.276667	1161.968750	-173.584396
29647.314894	-1240.276667	1160.840820	-109.493889
29647.314894	-1240.276667	1159.711914	-37.363358
29647.314894	-1240.276667	1158.583008	-74.408020
29647.314894	-1240.276667	1157.453125	-131.088196
29647.314894	-1240.276667	1156.324219	-43.927601
29647.314894	-1240.276667	1155.194336	-2.674185
29647.314894	-1240.276667	1154.064453	-78.847755
29647.314894	-1240.276667	1152.933594	-126.689957
29647.314894	-1240.276667	1151.803711	-151.710129
29647.314894	-1240.276667	1150.672852	26.193195
29647.314894	-1240.276667	1149.541992	-46.943516
29647.314894	-1240.276667	1148.411133	-81.527298
29647.314894	-1240.276667	1147.279297	79.802170
29647.314894	-1240.276667	1146.147461	88.051155
29647.314894	-1240.276667	1145.015625	92.752579
29647.314894	-1240.276667	1143.883789	1.703049
29647.314894	-1240.276667	1142.750977	73.967392
29647.314894	-1240.276667	1141.619141	97.686134
29647.314894	-1240.276667	1140.486328	42.909107
29647.314894	-1240.276667	1139.352539	76.243385
29647.314894	-1240.276667	1138.219727	5.097756
29647.314894	-1240.276667	1137.085938	73.156647
29647.314894	-1240.276667	1135.952148	152.015457
29647.314894	-1240.276667	1134.818359	36.738407
29647.314894	-1240.276667	1133.683594	85.709969
29647.314894	-1240.276667	1132.549805	251.369965
29647.314894	-1240.276667	1131.415039	71.261467
29647.314894	-1240.276667	1130.279297	82.311928
29647.314894	-1240.276667	1129.144531	142.382721
29647.314894	-1240.276667	1128.008789	-23.288404
29647.314894	-1240.276667	1126.873047	156.828293
29647.314894	-1240.276667	1125.737305	77.887405
29647.314894	-1240.276667	1124.601563	196.075745
29647.314894	-1240.276667	1123.464844	117.947006
29647.314894	-1240.276667	1122.328125	140.499313
29647.314894	-1240.276667	1121.191406	68.980553
29647.314894	-1240.276667	1120.054688	92.611725
29647.314894	-1240.276667	1118.916992	140.805313
29647.314894	-1240.276667	1117.779297	150.220245
29647.314894	-1240.276667	1116.641602	148.292847
29647.314894	-1240.276667	1115.503906	60.218315
29647.314894	-1240.276667	1114.365234	114.927086
29647.314894	-1240.276667	1113.226563	120.617744
29647.314894	-1240.276667	1112.087891	16.365843
29647.314894	-1240.276667	1110.949219	78.253761
29647.314894	-1240.276667	1109.809570	12.076118
29647.314894	-1240.276667	1108.669922	1.662981
29647.314894	-1240.276667	1107.530273	20.529369
29647.314894	-1240.276667	1106.390625	31.605829
29647.314894	-1240.276667	1105.250000	96.242538
29647.314894	-1240.276667	1104.109375	39.237968
29647.314894	-1240.276667	1102.968750	77.768776
29647.314894	-1240.276667	1101.828125	-67.400482
29647.314894	-1240.276667	1100.686523	-16.138979
29647.314894	-1240.276667	1099.544922	-30.227686
29647.314894	-1240.276667	1098.403320	25.788395
29647.314894	-1240.276667	1097.261719	63.237801
29647.314894	-1240.276667	1096.120117	-74.740868
29647.314894	-1240.276667	1094.977539	10.696458
29647.314894	-1240.276667	1093.834961	146.160599
29647.314894	-1240.276667	1092.691406	199.879364
29647.314894	-1240.276667	1091.548828	191.008728
29647.314894	-1240.276667	1090.405273	-23.408211
29647.314894	-1240.276667	1089.261719	72.480682
29647.314894	-1240.276667	1088.118164	97.835541
29647.314894	-1240.276667	1086.973633	6.483158
29647.314894	-1240.276667	1085.829102	165.617599
29647.314894	-1240.276667	1084.684570	-101.967194
29647.314894	-1240.276667	1083.540039	37.032444
29647.314894	-1240.276667	1082.395508	-18.603703
29647.314894	-1240.276667	1081.250000	147.435898
29647.314894	-1240.276667	1080.104492	-12.962626
29647.314894	-1240.276667	1078.958984	100.550842
29647.314894	-1240.276667	1077.812500	31.338032
29647.314894	-1240.276667	1076.666016	169.420944
29647.314894	-1240.276667	1075.519531	69.376251
29647.314894	-1240.276667	1074.373047	28.730833
29647.314894	-1240.276667	1073.226563	17.327475
29647.314894	-1240.276667	1072.079102	136.892532
29647.314894	-1240.276667	1070.931641	100.225525
29647.314894	-1240.276667	1069.784180	105.473465
29647.314894	-1240.276667	1068.635742	94.769363
29647.314894	-1240.276667	1067.487305	102.112549
29647.314894	-1240.276667	1066.338867	87.264305
29647.314894	-1240.276667	1065.190430	140.607010
29647.314894	-1240.276667	1064.041992	158.027451
29647.314894	-1240.276667	1062.892578	149.317673
29647.314894	-1240.276667	1061.743164	146.122208
29647.314894	-1240.276667	1060.593750	163.205765
29647.314894	-1240.276667	1059.443359	111.826172
29647.314894	-1240.276667	1058.292969	-11.567272
29647.314894	-1240.276667	1057.142578	-19.969097
29647.314894	-1240.276667	1055.992188	115.232597
29647.314894	-1240.276667	1054.841797	42.511059
29647.314894	-1240.276667	1053.690430	70.459381
29647.314894	-1240.276667	1052.539063	-63.714626
29647.314894	-1240.276667	1051.387695	117.472061
29647.314894	-1240.276667	1050.235352	25.772625
29647.314894	-1240.276667	1049.083984	-56.276035
29647.314894	-1240.276667	1047.931641	89.554977
29647.314894	-1240.276667	1046.778320	8.470273
29647.314894	-1240.276667	1045.625977	-46.075562
29647.314894	-1240.276667	1044.472656	162.108109
29647.314894	-1240.276667	1043.319336	-10.659796
29647.314894	-1240.276667	1042.166016	-14.843974
29647.314894	-1240.276667	1041.012695	21.611376
29647.314894	-1240.276667	1039.858398	126.249245
29647.314894	-1240.276667	1038.704102	-10.006823
29647.314894	-1240.276667	1037.549805	52.281815
29647.314894	-1240.276667	1036.394531	33.022804
29647.314894	-1240.276667	1035.239258	55.626621
29647.314894	-1240.276667	1034.083984	-117.925613
29647.314894	-1240.276667	1032.928711	141.338928
29647.314894	-1240.276667	1031.773438	239.629883
29647.314894	-1240.276667	1030.617188	145.540802
29647.314894	-1240.276667	1029.460938	-53.652905
29647.314894	-1240.276667	1028.304688	-62.480862
29647.314894	-1240.276667	1027.147461	182.748077
29647.314894	-1240.276667	1025.991211	68.494942
29647.314894	-1240.276667	1024.833984	78.196968
29647.314894	-1240.276667	1023.675781	3.715114
29647.314894	-1240.276667	1022.518555	104.482742
29647.314894	-1240.276667	1021.360352	36.474056
29647.314894	-1240.276667	1020.202148	125.164406
29647.314894	-1240.276667	1019.043945	6.842078
29647.314894	-1240.276667	1017.884766	55.977810
29647.314894	-1240.276667	1016.726563	-0.297974
29647.314894	-1240.276667	1015.567383	163.401276
29647.314894	-1240.276667	1014.407227	144.962906
29647.314894	-1240.276667	1013.248047	113.813416
29647.314894	-1240.276667	1012.087891	129.579910
29647.314894	-1240.276667	1010.927734	34.574905
29647.314894	-1240.276667	1009.767578	-85.885956
29647.314894	-1240.276667	1008.606445	167.477463
29647.314894	-1240.276667	1007.446289	-59.034561
29647.314894	-1240.276667	1006.285156	17.527132
29647.314894	-1240.276667	1005.123047	96.781357
29647.314894	-1240.276667	1003.961914	2.655033
29647.314894	-1240.276667	1002.799805	6.094234
29647.314894	-1240.276667	1001.637695	86.244690
29647.314894	-1240.276667	1000.475586	-41.749798
29647.314894	-1240.276667	999.312500	197.351654
29647.314894	-1240.276667	998.149414	11.653338
29647.314894	-1240.276667	996.986328	-19.863033
29647.314894	-1240.276667	995.823242	54.767639
29647.314894	-1240.276667	994.659180	162.107437
29647.314894	-1240.276667	993.496094	107.019272
29647.314894	-1240.276667	992.332031	165.743744
29647.314894	-1240.276667	991.166992	99.543251
29647.314894	-1240.276667	990.002930	19.526947
29647.314894	-1240.276667	988.837891	70.918686
29647.314894	-1240.276667	987.672852	-104.722404
29647.314894	-1240.276667	986.506836	-15.824141
29647.314894	-1240.276667	985.341797	-105.643394
29647.314894	-1240.276667	984.175781	90.381424
29647.314894	-1240.276667	983.009766	57.836857
29647.314894	-1240.276667	981.843750	63.966839
29647.314894	-1240.276667	980.676758	120.808800
29647.314894	-1240.276667	979.509766	31.828762
29647.314894	-1240.276667	978.342773	63.200832
29647.314894	-1240.276667	977.175781	34.375481
29647.314894	-1240.276667	976.007813	-33.307678
29647.314894	-1240.276667	974.839844	-67.903061
29647.314894	-1240.276667	973.671875	-11.911353
29647.314894	-1240.276667	972.503906	-73.816154
29647.314894	-1240.276667	971.334961	54.741100
29647.314894	-1240.276667	970.166016	-25.701130
29647.314894	-1240.276667	968.997070	-62.586411
29647.314894	-1240.276667	967.828125	-85.983299
29647.314894	-1240.276667	966.658203	-70.831635
29647.314894	-1240.276667	965.488281	-36.186146
29647.314894	-1240.276667	964.318359	8.398764
29647.314894	-1240.276667	963.148438	-2.288530
29647.314894	-1240.276667	961.977539	-112.714294
29647.314894	-1240.276667	960.806641	-200.169037
29647.314894	-1240.276667	959.635742	68.894409
29647.314894	-1240.276667	958.463867	-75.156776
29647.314894	-1240.276667	957.292969	42.439026
29647.314894	-1240.276667	956.121094	115.046722
29647.314894	-1240.276667	954.948242	-46.398380
29647.314894	-1240.276667	953.776367	107.126167
29647.314894	-1240.276667	952.603516	69.570641
29647.314894	-1240.276667	951.430664	75.868279
29647.314894	-1240.276667	950.257813	-43.658833
29647.314894	-1240.276667	949.084961	-29.859537
29647.314894	-1240.276667	947.911133	-38.588955
29647.314894	-1240.276667	946.737305	-96.201859
29647.314894	-1240.276667	945.563477	-37.694057
29647.314894	-1240.276667	944.388672	106.057312
29647.314894	-1240.276667	943.213867	4.494392
29647.314894	-1240.276667	942.039063	141.582794
29647.314894	-1240.276667	940.864258	-57.064884
29647.314894	-1240.276667	939.688477	-19.843904
29647.314894	-1240.276667	938.513672	75.336403
29647.314894	-1240.276667	937.337891	-72.471024
29647.314894	-1240.276667	936.161133	45.859547
29647.314894	-1240.276667	934.985352	25.213779
29647.314894	-1240.276667	933.808594	32.341316
29647.314894	-1240.276667	932.631836	-108.564140
29647.314894	-1240.276667	931.454102	-110.780266
29647.314894	-1240.276667	930.277344	111.602135
29647.314894	-1240.276667	929.099609	35.386799
29647.314894	-1240.276667	927.921875	104.947647
29647.314894	-1240.276667	926.743164	102.825821
29647.314894	-1240.276667	925.565430	35.911030
29647.314894	-1240.276667	924.386719	82.284286
29647.314894	-1240.276667	923.208008	154.039764
29647.314894	-1240.276667	922.028320	-39.926964
29647.314894	-1240.276667	920.849609	-72.137245
29647.314894	-1240.276667	919.669922	-70.607307
29647.314894	-1240.276667	919.474609	46.021172
29647.314894	-1240.276667	918.309570	32.240589
29647.314894	-1240.276667	917.143555	-55.412315
29647.314894	-1240.276667	915.977539	-159.194901
29647.314894	-1240.276667	914.810547	-142.951889
29647.314894	-1240.276667	913.644531	-82.891571
29647.314894	-1240.276667	912.477539	-41.314957
29647.314894	-1240.276667	911.310547	80.950287
29647.314894	-1240.276667	910.143555	117.849213
29647.314894	-1240.276667	908.975586	-57.349171
29647.314894	-1240.276667	907.807617	-6.622898
29647.314894	-1240.276667	906.639648	-61.919014
29647.314894	-1240.276667	905.471680	23.329601
29647.314894	-1240.276667	904.303711	-52.693737
29647.314894	-1240.276667	903.134766	-13.550138
29647.314894	-1240.276667	901.965820	0.245267
29647.314894	-1240.276667	900.796875	-45.820007
29647.314894	-1240.276667	899.626953	99.146019
29647.314894	-1240.276667	898.457031	-34.367367
29647.314894	-1240.276667	897.287109	76.018440
29647.314894	-1240.276667	896.117188	-126.446838
29647.314894	-1240.276667	894.947266	-59.788902
29647.314894	-1240.276667	893.776367	112.595634
29647.314894	-1240.276667	892.605469	181.467529
29647.314894	-1240.276667	891.434570	64.158028
29647.314894	-1240.276667	890.262695	-37.023464
29647.314894	-1240.276667	889.091797	107.631432
29647.314894	-1240.276667	887.919922	82.265762
29647.314894	-1240.276667	886.748047	107.424461
29647.314894	-1240.276667	885.575195	-80.938057
29647.314894	-1240.276667	884.403320	77.365105
29647.314894	-1240.276667	883.230469	-99.447365
29647.314894	-1240.276667	882.057617	-30.691845
29647.314894	-1240.276667	880.883789	145.847748
29647.314894	-1240.276667	879.710938	95.259720
29647.314894	-1240.276667	878.537109	99.721672
29647.314894	-1240.276667	877.362305	170.663452
29647.314894	-1240.276667	876.188477	0.908185
29647.314894	-1240.276667	875.013672	14.546580
29647.314894	-1240.276667	873.839844	28.176199
29647.314894	-1240.276667	872.664063	41.799927
29647.314894	-1240.276667	871.489258	18.772057
29647.314894	-1240.276667	870.313477	98.789696
29647.314894	-1240.276667	869.138672	-118.828407
29647.314894	-1240.276667	867.962891	-187.588287
29647.314894	-1240.276667	866.786133	-73.257904
29647.314894	-1240.276667	865.610352	214.897018
29647.314894	-1240.276667	864.433594	-0.282901
29647.314894	-1240.276667	863.256836	40.754093
29647.314894	-1240.276667	862.079102	-87.420044
29647.314894	-1240.276667	860.902344	179.924088
29647.314894	-1240.276667	859.724609	-62.502335
29647.314894	-1240.276667	858.546875	28.780672
29647.314894	-1240.276667	857.368164	53.774727
29647.314894	-1240.276667	856.190430	3.382055
29647.314894	-1240.276667	855.011719	-19.586554
29647.314894	-1240.276667	853.833008	-63.094513
29647.314894	-1240.276667	852.654297	176.465164
29647.314894	-1240.276667	851.474609	27.953449
29647.314894	-1240.276667	850.294922	-115.934875
29647.314894	-1240.276667	849.115234	-54.450756
29647.314894	-1240.276667	847.935547	18.410732
29647.314894	-1240.276667	846.754883	2.310829
29647.314894	-1240.276667	845.575195	-63.941040
29647.314894	-1240.276667	844.393555	24.834112
29647.314894	-1240.276667	843.212891	36.088188
29647.314894	-1240.276667	842.032227	-27.852053
29647.314894	-1240.276667	840.850586	95.029099
29647.314894	-1240.276667	839.668945	3.773551
29647.314894	-1240.276667	838.486328	51.455112
29647.314894	-1240.276667	837.304688	-10.159787
29647.314894	-1240.276667	836.122070	-21.674520
29647.314894	-1240.276667	834.939453	-192.479324
29647.314894	-1240.276667	833.756836	-81.093742
29647.314894	-1240.276667	832.573242	112.135574
29647.314894	-1240.276667	831.389648	-8.559053
29647.314894	-1240.276667	830.206055	98.171455
29647.314894	-1240.276667	829.022461	32.086819
29647.314894	-1240.276667	827.838867	-49.880882
29647.314894	-1240.276667	826.654297	-111.363464
29647.314894	-1240.276667	825.469727	47.551540
29647.314894	-1240.276667	824.284180	38.316288
29647.314894	-1240.276667	823.099609	-45.858505
29647.314894	-1240.276667	821.914063	-168.597275
29647.314894	-1240.276667	820.728516	-34.774681
29647.314894	-1240.276667	819.542969	87.643852
29647.314894	-1240.276667	818.356445	-123.542862
29647.314894	-1240.276667	817.169922	44.213840
29647.314894	-1240.276667	815.983398	-17.182823
29647.314894	-1240.276667	814.796875	-40.004925
29647.314894	-1240.276667	813.609375	-35.611881
29647.314894	-1240.276667	812.422852	7.311002
29647.314894	-1240.276667	811.235352	-124.287537
29647.314894	-1240.276667	810.046875	63.644627
29647.314894	-1240.276667	808.859375	77.065735
29647.314894	-1240.276667	807.670898	29.328806
29647.314894	-1240.276667	806.482422	-31.977497
29647.314894	-1240.276667	805.293945	115.020218
29647.314894	-1240.276667	804.104492	33.346279
29647.314894	-1240.276667	802.915039	-25.667009
29647.314894	-1240.276667	801.725586	14.891819
29647.314894	-1240.276667	800.536133	-50.886086
29647.314894	-1240.276667	799.345703	62.026489
29647.314894	-1240.276667	798.155273	43.743591
29647.314894	-1240.276667	796.964844	-67.222260
29647.314894	-1240.276667	795.774414	86.295746
29647.314894	-1240.276667	794.583008	-92.431557
29647.314894	-1240.276667	793.392578	18.093647
29647.314894	-1240.276667	792.200195	-88.272331
29647.314894	-1240.276667	791.008789	22.197781
29647.314894	-1240.276667	789.816406	69.398346
29647.314894	-1240.276667	788.625000	14.991739
29647.314894	-1240.276667	787.432617	120.843483
29647.314894	-1240.276667	786.239258	-32.843533
29647.314894	-1240.276667	785.046875	91.010567
29647.314894	-1240.276667	783.853516	32.112564
29647.314894	-1240.276667	782.660156	-76.378090
29647.314894	-1240.276667	781.465820	-72.100815
29647.314894	-1240.276667	780.272461	89.953972
29647.314894	-1240.276667	779.078125	-61.319508
29647.314894	-1240.276667	777.883789	-2.993240
29647.314894	-1240.276667	776.688477	107.114120
29647.314894	-1240.276667	775.494141	70.772423
29647.314894	-1240.276667	774.298828	74.970573
29647.314894	-1240.276667	773.103516	-67.175430
29647.314894	-1240.276667	771.907227	-157.501373
29647.314894	-1240.276667	770.711914	-4.760808
29647.314894	-1240.276667	769.515625	-38.832565
29647.314894	-1240.276667	768.318359	57.567722
29647.314894	-1240.276667	767.122070	-30.497049
29647.314894	-1240.276667	765.924805	77.084450
29647.314894	-1240.276667	764.727539	105.929718
29647.314894	-1240.276667	763.530273	-58.536739
29647.314894	-1240.276667	762.333008	28.727760
29647.314894	-1240.276667	761.134766	8.108033
29647.314894	-1240.276667	759.936523	135.731354
29647.314894	-1240.276667	758.738281	7.282471
29647.314894	-1240.276667	757.540039	-127.861465
29647.314894	-1240.276667	756.340820	206.191620
29647.314894	-1240.276667	755.141602	50.840042
29647.314894	-1240.276667	753.942383	86.264137
29647.314894	-1240.276667	752.742188	-127.350098
29647.314894	-1240.276667	751.541992	15.728171
29647.314894	-1240.276667	750.341797	145.278412
29647.314894	-1240.276667	749.141602	7.969255
29647.314894	-1240.276667	747.941406	58.985916
29647.314894	-1240.276667	746.740234	213.053879
29647.314894	-1240.276667	745.539063	-25.052050
29647.314894	-1240.276667	744.337891	57.255711
29647.314894	-1240.276667	743.135742	126.075630
29647.314894	-1240.276667	741.933594	78.415962
29647.314894	-1240.276667	740.731445	12.850099
29647.314894	-1240.276667	739.529297	135.303009
29647.314894	-1240.276667	738.326172	228.597702
29647.314894	-1240.276667	737.124023	171.938187
29647.314894	-1240.276667	735.919922	218.177933
29647.314894	-1240.276667	734.716797	217.416412
29647.314894	-1240.276667	733.513672	180.862350
29647.314894	-1240.276667	732.309570	249.368484
29647.314894	-1240.276667	731.105469	398.283997
29647.314894	-1240.276667	729.900391	332.609528
29647.314894	-1240.276667	728.696289	340.663055
29647.314894	-1240.276667	727.491211	181.179108
29647.314894	-1240.276667	726.286133	202.618256
29647.314894	-1240.276667	725.080078	94.536743
29647.314894	-1240.276667	723.874023	24.425442
29647.314894	-1240.276667	722.668945	59.208416
29647.314894	-1240.276667	721.461914	-35.453823
29647.314894	-1240.276667	720.255859	-23.024731
29647.314894	-1240.276667	719.048828	45.132317
29647.314894	-1240.276667	717.841797	61.952621
29647.314894	-1240.276667	716.634766	270.463196
29647.314894	-1240.276667	715.427734	117.787689
29647.314894	-1240.276667	714.219727	43.144787
29647.314894	-1240.276667	713.011719	66.537254
29647.314894	-1240.276667	711.803711	56.482327
29647.314894	-1240.276667	710.594727	39.724979
29647.314894	-1240.276667	709.385742	38.534641
29647.314894	-1240.276667	708.176758	-98.471840
29647.314894	-1240.276667	706.967773	29.397581
29647.314894	-1240.276667	705.758789	-89.802261
29647.314894	-1240.276667	704.548828	-160.037430
29647.314894	-1240.276667	703.338867	118.926949
29647.314894	-1240.276667	702.127930	-4.747780
29647.314894	-1240.276667	700.917969	58.353943
29647.314894	-1240.276667	699.707031	-183.122147
29647.314894	-1240.276667	698.496094	68.829453
29647.314894	-1240.276667	697.285156	71.797752
29647.314894	-1240.276667	696.073242	-54.105812
29647.314894	-1240.276667	694.861328	104.290817
29647.314894	-1240.276667	693.649414	78.292999
29647.314894	-1240.276667	692.436523	134.413940
29647.314894	-1240.276667	691.224609	50.650169
29647.314894	-1240.276667	690.011719	95.594826
29647.314894	-1240.276667	688.798828	-8.157042
29647.314894	-1240.276667	687.584961	-71.971695
29647.314894	-1240.276667	686.372070	-38.215191
29647.314894	-1240.276667	685.158203	28.751324
29647.314894	-1240.276667	683.943359	171.025131
29647.314894	-1240.276667	682.729492	5.145627
29647.314894	-1240.276667	681.514648	109.627968
29647.314894	-1240.276667	680.299805	187.448288
29647.314894	-1240.276667	679.084961	205.400238
29647.314894	-1240.276667	677.869141	187.878601
29647.314894	-1240.276667	676.653320	119.408928
29647.314894	-1240.276667	675.437500	77.493866
29647.314894	-1240.276667	674.221680	-30.828737
29647.314894	-1240.276667	673.004883	152.910995
29647.314894	-1240.276667	671.789063	-8.543883
29647.314894	-1240.276667	670.571289	188.309479
29647.314894	-1240.276667	669.354492	115.286613
29647.314894	-1240.276667	668.136719	119.629166
29647.314894	-1240.276667	666.919922	17.844118
29647.314894	-1240.276667	665.701172	-44.161709
29647.314894	-1240.276667	664.483398	86.027191
29647.314894	-1240.276667	663.264648	211.704498
29647.314894	-1240.276667	662.045898	114.249191
29647.314894	-1240.276667	660.827148	111.734314
29647.314894	-1240.276667	659.608398	184.233902
29647.314894	-1240.276667	658.388672	77.901146
29647.314894	-1240.276667	657.168945	75.277756
29647.314894	-1240.276667	655.949219	163.062302
29647.314894	-1240.276667	654.728516	91.970390
29647.314894	-1240.276667	653.507813	91.431557
29647.314894	-1240.276667	652.287109	-23.786779
29647.314894	-1240.276667	651.066406	94.641914
29647.314894	-1240.276667	649.844727	43.296440
29647.314894	-1240.276667	648.623047	-27.896456
29647.314894	-1240.276667	647.401367	44.078243
29647.314894	-1240.276667	646.179688	135.802460
29647.314894	-1240.276667	644.957031	73.319275
29647.314894	-1240.276667	643.734375	-4.588467
29647.314894	-1240.276667	642.511719	122.177780
29647.314894	-1240.276667	641.289063	61.813755
29647.314894	-1240.276667	640.065430	74.031364
29647.314894	-1240.276667	638.841797	55.409531
29647.314894	-1240.276667	637.618164	-2.828657
29647.314894	-1240.276667	636.393555	20.261560
29647.314894	-1240.276667	635.168945	140.016052
29647.314894	-1240.276667	633.944336	184.959213
29647.314894	-1240.276667	632.719727	-99.731728
29647.314894	-1240.276667	631.494141	-193.233200
29647.314894	-1240.276667	630.269531	71.249031
29647.314894	-1240.276667	629.042969	-44.291935
29647.314894	-1240.276667	627.817383	129.954056
29647.314894	-1240.276667	626.590820	62.652092
29647.314894	-1240.276667	625.365234	-142.905746
29647.314894	-1240.276667	624.137695	-12.756474
29647.314894	-1240.276667	622.911133	-163.461105
29647.314894	-1240.276667	621.683594	30.150099
29647.314894	-1240.276667	620.456055	30.697702
29647.314894	-1240.276667	619.228516	37.779446
29647.314894	-1240.276667	618.000977	110.563393
29647.314894	-1240.276667	616.772461	40.851856
29647.314894	-1240.276667	615.543945	67.516029
29647.314894	-1240.276667	614.314453	8.708759
29647.314894	-1240.276667	613.085938	76.890831
29647.314894	-1240.276667	611.856445	-52.031616
29647.314894	-1240.276667	610.626953	-40.858112
29647.314894	-1240.276667	609.397461	42.484261
29647.314894	-1240.276667	608.166992	9.791799
29647.314894	-1240.276667	606.936523	53.631794
29647.314894	-1240.276667	605.706055	-62.232861
29647.314894	-1240.276667	604.474609	-134.361404
29647.314894	-1240.276667	603.244141	7.729994
29647.314894	-1240.276667	602.012695	-1.082248
29647.314894	-1240.276667	600.780273	-75.484505
29647.314894	-1240.276667	599.548828	18.321226
29647.314894	-1240.276667	598.316406	68.363564
29647.314894	-1240.276667	597.083984	65.937164
29647.314894	-1240.276667	595.851563	15.442707
29647.314894	-1240.276667	594.618164	-120.197762
29647.314894	-1240.276667	593.384766	-94.330566
29647.314894	-1240.276667	592.151367	-46.694183
29647.314894	-1240.276667	590.917969	3.065722
29647.314894	-1240.276667	589.683594	59.306667
29647.314894	-1240.276667	588.449219	52.255230
29647.314894	-1240.276667	587.214844	29.910286
29647.314894	-1240.276667	585.979492	96.894447
29647.314894	-1240.276667	584.745117	122.415688
29647.314894	-1240.276667	583.509766	-78.682503
29647.314894	-1240.276667	582.273438	-120.732346
29647.314894	-1240.276667	581.038086	89.808304
29647.314894	-1240.276667	579.801758	130.402908
29647.314894	-1240.276667	578.565430	-114.201134
29647.314894	-1240.276667	577.329102	126.565422
29647.314894	-1240.276667	576.091797	-35.324852
29647.314894	-1240.276667	574.854492	-79.712372
29647.314894	-1240.276667	573.617188	-41.469746
29647.314894	-1240.276667	572.378906	11.941954
29647.314894	-1240.276667	571.141602	-93.393646
29647.314894	-1240.276667	569.903320	-7.454815
29647.314894	-1240.276667	568.664063	-19.371029
29647.314894	-1240.276667	567.425781	-53.035069
29647.314894	-1240.276667	566.186523	-15.039574
29647.314894	-1240.276667	564.947266	59.827049
29647.314894	-1240.276667	563.708008	-26.030901
29647.314894	-1240.276667	562.467773	139.913177
29647.314894	-1240.276667	561.227539	119.120949
29647.314894	-1240.276667	559.987305	-18.855797
29647.314894	-1240.276667	558.747070	-57.014107
29647.314894	-1240.276667	557.505859	-1.927051
29647.314894	-1240.276667	556.264648	-40.128952
29647.314894	-1240.276667	555.023438	66.908554
29647.314894	-1240.276667	553.781250	98.011772
29647.314894	-1240.276667	552.539063	79.237259
29647.314894	-1240.276667	551.296875	21.449821
29647.314894	-1240.276667	550.054688	188.930267
29647.314894	-1240.276667	548.811523	18.484829
29647.314894	-1240.276667	547.569336	45.117409
29647.314894	-1240.276667	546.325195	26.252399
29647.314894	-1240.276667	545.082031	72.302925
29647.314894	-1240.276667	543.837891	77.198219
29647.314894	-1240.276667	542.593750	-138.579727
29647.314894	-1240.276667	541.349609	-142.332596
29647.314894	-1240.276667	540.105469	-61.772266
29647.314894	-1240.276667	538.860352	-7.210773
29647.314894	-1240.276667	537.615234	10.564893
29647.314894	-1240.276667	536.369141	56.404278
29647.314894	-1240.276667	535.124023	82.765648
29647.314894	-1240.276667	533.877930	44.295303
29647.314894	-1240.276667	532.631836	-171.257095
29647.314894	-1240.276667	531.384766	-86.624100
29647.314894	-1240.276667	530.138672	51.926563
29647.314894	-1240.276667	528.891602	-21.100037
29647.314894	-1240.276667	527.643555	-40.170223
29647.314894	-1240.276667	526.396484	-162.789978
29647.314894	-1240.276667	525.148438	-63.226265
29647.314894	-1240.276667	523.900391	1.780836
29647.314894	-1240.276667	522.652344	-75.538216
29647.314894	-1240.276667	521.403320	13.125409
29647.314894	-1240.276667	520.154297	47.866112
29647.314894	-1240.276667	518.905273	-96.238518
29647.314894	-1240.276667	517.656250	-7.660722
29647.314894	-1240.276667	516.406250	-24.657663
29647.314894	-1240.276667	515.156250	-39.504101
29647.314894	-1240.276667	513.906250	-54.353462
29647.314894	-1240.276667	512.655273	-43.383392
29647.314894	-1240.276667	511.404297	40.729954
29647.314894	-1240.276667	510.153320	-47.298256
29647.314894	-1240.276667	508.902344	-64.321716
29647.314894	-1240.276667	507.650391	56.269432
29647.314894	-1240.276667	506.398438	86.507965
29647.314894	-1240.276667	505.146484	206.999588
29647.314894	-1240.276667	503.893555	118.985428
29647.314894	-1240.276667	502.641602	194.287079
29647.314894	-1240.276667	501.388672	323.245422
29647.314894	-1240.276667	500.134766	172.960693
29647.314894	-1240.276667	498.881836	389.884277
29647.314894	-1240.276667	497.627930	447.856476
29647.314894	-1240.276667	496.374023	327.668182
29647.314894	-1240.276667	495.119141	274.037384
29647.314894	-1240.276667	493.865234	430.657501
29647.314894	-1240.276667	492.610352	349.133423
29647.314894	-1240.276667	491.355469	199.020477
29647.314894	-1240.276667	490.099609	190.454483
29647.314894	-1240.276667	488.843750	188.315506
29647.314894	-1240.276667	487.587891	98.311333
29647.314894	-1240.276667	486.332031	231.152191
29647.314894	-1240.276667	485.075195	128.307190
29647.314894	-1240.276667	483.818359	36.206516
29647.314894	-1240.276667	482.561523	94.010933
29647.314894	-1240.276667	481.304688	136.797653
29647.314894	-1240.276667	480.046875	49.005333
29647.314894	-1240.276667	478.789063	188.045898
29647.314894	-1240.276667	477.531250	181.550140
29647.314894	-1240.276667	476.272461	217.817841
29647.314894	-1240.276667	475.013672	288.271057
29647.314894	-1240.276667	473.754883	226.136093
29647.314894	-1240.276667	472.496094	87.070381
29647.314894	-1240.276667	471.236328	142.504791
29647.314894	-1240.276667	469.976563	229.947098
29647.314894	-1240.276667	468.716797	212.672684
29647.314894	-1240.276667	467.456055	146.268448
29647.314894	-1240.276667	466.196289	363.841064
29647.314894	-1240.276667	464.935547	9.225423
29647.314894	-1240.276667	463.673828	265.100830
29647.314894	-1240.276667	462.413086	313.881500
29647.314894	-1240.276667	461.151367	302.883881
29647.314894	-1240.276667	459.889648	272.671906
29647.314894	-1240.276667	458.626953	363.983215
29647.314894	-1240.276667	457.364258	276.153107
29647.314894	-1240.276667	456.101563	303.425415
29647.314894	-1240.276667	454.838867	322.130371
29647.314894	-1240.276667	453.575195	336.529083
29647.314894	-1240.276667	452.312500	227.350296
29647.314894	-1240.276667	451.047852	305.571869
29647.314894	-1240.276667	449.784180	332.626190
29647.314894	-1240.276667	448.519531	440.509094
29647.314894	-1240.276667	447.254883	433.380920
29647.314894	-1240.276667	445.990234	258.121552
29647.314894	-1240.276667	444.725586	267.956848
29647.314894	-1240.276667	443.459961	269.223541
29647.314894	-1240.276667	442.194336	329.970856
29647.314894	-1240.276667	440.927734	209.932205
29647.314894	-1240.276667	439.662109	262.044403
29647.314894	-1240.276667	438.395508	224.817841
29647.314894	-1240.276667	437.127930	395.732483
29647.314894	-1240.276667	435.861328	313.748993
29647.314894	-1240.276667	434.593750	250.832657
29647.314894	-1240.276667	433.326172	408.665955
29647.314894	-1240.276667	432.058594	328.613220
29647.314894	-1240.276667	430.790039	496.796936
29647.314894	-1240.276667	429.521484	374.142029
29647.314894	-1240.276667	428.252930	474.175903
29647.314894	-1240.276667	426.984375	599.515259
29647.314894	-1240.276667	425.714844	279.421356
29647.314894	-1240.276667	424.445313	514.762634
29647.314894	-1240.276667	423.174805	277.252899
29647.314894	-1240.276667	421.905273	359.693115
29647.314894	-1240.276667	420.634766	431.374939
29647.314894	-1240.276667	419.364258	197.897354
29647.314894	-1240.276667	418.092773	495.890686
29647.314894	-1240.276667	416.822266	319.383911
29647.314894	-1240.276667	415.550781	324.831757
29647.314894	-1240.276667	414.278320	298.373688
29647.314894	-1240.276667	413.006836	354.285919
29647.314894	-1240.276667	411.734375	490.380707
29647.314894	-1240.276667	410.461914	237.114426
29647.314894	-1240.276667	409.188477	296.695282
29647.314894	-1240.276667	407.916016	430.054382
29647.314894	-1240.276667	406.642578	372.942139
29647.314894	-1240.276667	405.368164	292.401276
29647.314894	-1240.276667	404.094727	403.929138
29647.314894	-1240.276667	402.820313	289.190002
29647.314894	-1240.276667	401.545898	262.959503
29647.314894	-1240.276667	400.270508	401.164795
29647.314894	-1240.276667	398.996094	218.246002
29647.314894	-1240.276667	397.720703	284.150726
29647.314894	-1240.276667	396.444336	413.046417
29647.314894	-1240.276667	395.168945	381.311554
29647.314894	-1240.276667	393.892578	383.039215
29647.314894	-1240.276667	392.616211	302.242889
29647.314894	-1240.276667	391.339844	387.704254
29647.314894	-1240.276667	390.062500	167.217300
29647.314894	-1240.276667	388.785156	119.274818
29647.314894	-1240.276667	387.507813	302.736298
29647.314894	-1240.276667	386.229492	300.420441
29647.314894	-1240.276667	384.951172	198.776886
29647.314894	-1240.276667	383.672852	265.217926
29647.314894	-1240.276667	382.394531	251.262543
29647.314894	-1240.276667	381.115234	180.086426
29647.314894	-1240.276667	379.835938	238.964233
29647.314894	-1240.276667	378.556641	188.014038
29647.314894	-1240.276667	377.277344	376.375549
29647.314894	-1240.276667	375.997070	99.547081
29647.314894	-1240.276667	374.716797	64.097107
29647.314894	-1240.276667	373.435547	255.128906
29647.314894	-1240.276667	372.155273	260.695465
29647.314894	-1240.276667	370.874023	150.195587
29647.314894	-1240.276667	369.591797	91.700249
29647.314894	-1240.276667	368.310547	38.994568
29647.314894	-1240.276667	367.028320	48.707710
29647.314894	-1240.276667	365.746094	108.203575
29647.314894	-1240.276667	364.463867	70.548378
29647.314894	-1240.276667	363.180664	304.997131
29647.314894	-1240.276667	361.897461	242.969498
29647.314894	-1240.276667	360.614258	150.953751
29647.314894	-1240.276667	359.330078	104.405769
29647.314894	-1240.276667	358.045898	270.977753
29647.314894	-1240.276667	356.761719	300.545319
29647.314894	-1240.276667	355.477539	38.138012
29647.314894	-1240.276667	354.192383	-78.306953
29647.314894	-1240.276667	352.907227	3.467366
29647.314894	-1240.276667	351.622070	-18.192562
29647.314894	-1240.276667	350.336914	82.834641
29647.314894	-1240.276667	349.050781	124.346069
29647.314894	-1240.276667	347.764648	-144.709518
29647.314894	-1240.276667	346.477539	51.931362
29647.314894	-1240.276667	345.191406	-32.672306
29647.314894	-1240.276667	343.904297	105.527405
29647.314894	-1240.276667	342.616211	-29.109253
29647.314894	-1240.276667	341.329102	-32.986450
29647.314894	-1240.276667	340.041016	187.765839
29647.314894	-1240.276667	338.752930	54.287815
29647.314894	-1240.276667	337.463867	-236.902496
29647.314894	-1240.276667	336.175781	-13.242409
29647.314894	-1240.276667	334.886719	-28.867668
29647.314894	-1240.276667	333.596680	-33.168541
29647.314894	-1240.276667	332.307617	-120.031181
29647.314894	-1240.276667	331.017578	-110.062294
29647.314894	-1240.276667	329.727539	32.138653
29647.314894	-1240.276667	328.436523	-77.328186
29647.314894	-1240.276667	327.146484	64.251671
29647.314894	-1240.276667	325.855469	31.336473
29647.314894	-1240.276667	324.563477	-55.112587
29647.314894	-1240.276667	323.272461	-126.255836
29647.314894	-1240.276667	321.980469	51.109566
29647.314894	-1240.276667	320.688477	47.760357
29647.314894	-1240.276667	319.395508	-13.407106
29647.314894	-1240.276667	318.103516	28.000772
29647.314894	-1240.276667	316.810547	-55.088833
29647.314894	-1240.276667	315.516602	138.995483
29647.314894	-1240.276667	314.223633	-14.041016
29647.314894	-1240.276667	312.929688	-110.569984
29647.314894	-1240.276667	311.635742	-173.497299
29647.314894	-1240.276667	310.340820	227.449661
29647.314894	-1240.276667	309.045898	133.676529
29647.314894	-1240.276667	307.750977	-40.958908
29647.314894	-1240.276667	306.456055	-9.709983
29647.314894	-1240.276667	305.160156	121.238518
29647.314894	-1240.276667	303.865234	15.426797
29647.314894	-1240.276667	302.568359	177.363953
29647.314894	-1240.276667	301.272461	278.994934
29647.314894	-1240.276667	299.975586	363.770966
29647.314894	-1240.276667	298.678711	417.187469
