#X		#Y		#Wave		#Intensity
30179.702128	-1851.621667	1999.980469	10.848405
30179.702128	-1851.621667	1999.016602	-73.016617
30179.702128	-1851.621667	1998.052734	65.238724
30179.702128	-1851.621667	1997.087891	34.854622
30179.702128	-1851.621667	1996.123047	118.381622
30179.702128	-1851.621667	1995.158203	82.899948
30179.702128	-1851.621667	1994.193359	-88.858879
30179.702128	-1851.621667	1993.228516	19.199448
30179.702128	-1851.621667	1992.262695	114.773071
30179.702128	-1851.621667	1991.297852	49.348949
30179.702128	-1851.621667	1990.332031	-26.012699
30179.702128	-1851.621667	1989.366211	56.958656
30179.702128	-1851.621667	1988.399414	-30.864893
30179.702128	-1851.621667	1987.433594	-113.764595
30179.702128	-1851.621667	1986.466797	127.284492
30179.702128	-1851.621667	1985.500977	138.238586
30179.702128	-1851.621667	1984.534180	5.751241
30179.702128	-1851.621667	1983.567383	38.867561
30179.702128	-1851.621667	1982.599609	-145.546249
30179.702128	-1851.621667	1981.632813	8.560073
30179.702128	-1851.621667	1980.665039	-15.300096
30179.702128	-1851.621667	1979.697266	-49.074249
30179.702128	-1851.621667	1978.729492	151.716171
30179.702128	-1851.621667	1977.761719	110.434479
30179.702128	-1851.621667	1976.792969	-37.016933
30179.702128	-1851.621667	1975.825195	87.033592
30179.702128	-1851.621667	1974.856445	33.335114
30179.702128	-1851.621667	1973.887695	149.852798
30179.702128	-1851.621667	1972.918945	81.294525
30179.702128	-1851.621667	1971.949219	182.895874
30179.702128	-1851.621667	1970.980469	-23.788469
30179.702128	-1851.621667	1970.010742	-67.717941
30179.702128	-1851.621667	1969.041016	92.920807
30179.702128	-1851.621667	1968.071289	135.183167
30179.702128	-1851.621667	1967.101563	78.846695
30179.702128	-1851.621667	1966.130859	-31.691257
30179.702128	-1851.621667	1965.161133	47.440083
30179.702128	-1851.621667	1964.190430	99.429733
30179.702128	-1851.621667	1963.219727	131.681366
30179.702128	-1851.621667	1962.249023	107.282959
30179.702128	-1851.621667	1961.277344	119.789841
30179.702128	-1851.621667	1960.306641	-49.818249
30179.702128	-1851.621667	1959.334961	-86.528389
30179.702128	-1851.621667	1958.363281	48.942951
30179.702128	-1851.621667	1957.391602	-24.695286
30179.702128	-1851.621667	1956.419922	54.129089
30179.702128	-1851.621667	1955.447266	2.611802
30179.702128	-1851.621667	1954.474609	147.737549
30179.702128	-1851.621667	1953.501953	88.823555
30179.702128	-1851.621667	1952.529297	42.204632
30179.702128	-1851.621667	1951.556641	61.920139
30179.702128	-1851.621667	1950.583984	-60.837753
30179.702128	-1851.621667	1949.610352	108.664574
30179.702128	-1851.621667	1948.636719	-11.620955
30179.702128	-1851.621667	1947.663086	-60.681923
30179.702128	-1851.621667	1946.689453	74.340752
30179.702128	-1851.621667	1945.715820	71.890610
30179.702128	-1851.621667	1944.741211	-23.794958
30179.702128	-1851.621667	1943.767578	76.785782
30179.702128	-1851.621667	1942.792969	89.033676
30179.702128	-1851.621667	1941.818359	10.547532
30179.702128	-1851.621667	1940.842773	-188.041794
30179.702128	-1851.621667	1939.868164	-38.500683
30179.702128	-1851.621667	1938.892578	35.009609
30179.702128	-1851.621667	1937.916992	44.785572
30179.702128	-1851.621667	1936.941406	-9.137623
30179.702128	-1851.621667	1935.965820	27.581804
30179.702128	-1851.621667	1934.990234	-70.398460
30179.702128	-1851.621667	1934.013672	42.215405
30179.702128	-1851.621667	1933.037109	66.662674
30179.702128	-1851.621667	1932.060547	98.443275
30179.702128	-1851.621667	1931.083984	34.780251
30179.702128	-1851.621667	1930.107422	120.381020
30179.702128	-1851.621667	1929.129883	-119.379631
30179.702128	-1851.621667	1928.153320	166.763947
30179.702128	-1851.621667	1927.175781	103.140541
30179.702128	-1851.621667	1926.198242	-19.129333
30179.702128	-1851.621667	1925.219727	-16.694859
30179.702128	-1851.621667	1924.242188	-63.132763
30179.702128	-1851.621667	1923.263672	0.399877
30179.702128	-1851.621667	1922.285156	-43.575619
30179.702128	-1851.621667	1921.306641	0.397533
30179.702128	-1851.621667	1920.328125	-4.481215
30179.702128	-1851.621667	1919.349609	-21.561256
30179.702128	-1851.621667	1918.370117	-58.160774
30179.702128	-1851.621667	1917.391602	78.544212
30179.702128	-1851.621667	1916.412109	-89.819214
30179.702128	-1851.621667	1915.431641	68.805283
30179.702128	-1851.621667	1914.452148	105.414467
30179.702128	-1851.621667	1913.472656	22.514322
30179.702128	-1851.621667	1912.492188	-6.707519
30179.702128	-1851.621667	1911.511719	66.479050
30179.702128	-1851.621667	1910.531250	-13.914146
30179.702128	-1851.621667	1909.550781	32.451366
30179.702128	-1851.621667	1908.569336	13.018086
30179.702128	-1851.621667	1907.588867	-33.197369
30179.702128	-1851.621667	1906.607422	-37.984905
30179.702128	-1851.621667	1905.625977	71.687721
30179.702128	-1851.621667	1904.644531	125.327881
30179.702128	-1851.621667	1903.662109	69.411263
30179.702128	-1851.621667	1902.680664	57.331299
30179.702128	-1851.621667	1901.698242	-37.472389
30179.702128	-1851.621667	1900.715820	-227.116562
30179.702128	-1851.621667	1899.733398	72.234688
30179.702128	-1851.621667	1898.750000	-76.004463
30179.702128	-1851.621667	1897.767578	16.540253
30179.702128	-1851.621667	1896.784180	-12.497671
30179.702128	-1851.621667	1895.800781	116.470970
30179.702128	-1851.621667	1894.817383	55.845055
30179.702128	-1851.621667	1893.833984	80.288094
30179.702128	-1851.621667	1892.850586	0.269747
30179.702128	-1851.621667	1891.866211	36.868710
30179.702128	-1851.621667	1890.881836	61.318161
30179.702128	-1851.621667	1889.897461	46.917809
30179.702128	-1851.621667	1888.913086	59.231037
30179.702128	-1851.621667	1887.927734	158.914658
30179.702128	-1851.621667	1886.943359	54.740185
30179.702128	-1851.621667	1885.958008	-141.582184
30179.702128	-1851.621667	1884.972656	62.401363
30179.702128	-1851.621667	1883.987305	-46.532459
30179.702128	-1851.621667	1883.001953	-58.431637
30179.702128	-1851.621667	1882.015625	-50.928913
30179.702128	-1851.621667	1881.029297	29.289818
30179.702128	-1851.621667	1880.042969	-135.275116
30179.702128	-1851.621667	1879.056641	63.660309
30179.702128	-1851.621667	1878.070313	-180.780548
30179.702128	-1851.621667	1877.083984	-54.562687
30179.702128	-1851.621667	1876.096680	18.337389
30179.702128	-1851.621667	1875.109375	54.897778
30179.702128	-1851.621667	1874.122070	-24.741570
30179.702128	-1851.621667	1873.134766	-39.003208
30179.702128	-1851.621667	1872.146484	-21.801620
30179.702128	-1851.621667	1871.159180	14.752609
30179.702128	-1851.621667	1870.170898	31.943495
30179.702128	-1851.621667	1869.182617	5.600642
30179.702128	-1851.621667	1868.194336	124.344444
30179.702128	-1851.621667	1867.205078	10.969400
30179.702128	-1851.621667	1866.216797	20.906860
30179.702128	-1851.621667	1865.227539	-63.404362
30179.702128	-1851.621667	1864.238281	-2.716726
30179.702128	-1851.621667	1863.249023	-67.663277
30179.702128	-1851.621667	1862.259766	-57.713970
30179.702128	-1851.621667	1861.269531	-83.989853
30179.702128	-1851.621667	1860.279297	-144.054916
30179.702128	-1851.621667	1859.290039	49.354935
30179.702128	-1851.621667	1858.298828	-54.153702
30179.702128	-1851.621667	1857.308594	1.629477
30179.702128	-1851.621667	1856.318359	52.566326
30179.702128	-1851.621667	1855.327148	69.714500
30179.702128	-1851.621667	1854.335938	110.970924
30179.702128	-1851.621667	1853.344727	-14.155882
30179.702128	-1851.621667	1852.353516	15.044765
30179.702128	-1851.621667	1851.362305	-1.560699
30179.702128	-1851.621667	1850.370117	95.094650
30179.702128	-1851.621667	1849.377930	133.888184
30179.702128	-1851.621667	1848.385742	141.350403
30179.702128	-1851.621667	1847.393555	86.188560
30179.702128	-1851.621667	1846.401367	38.268585
30179.702128	-1851.621667	1845.408203	77.031425
30179.702128	-1851.621667	1844.415039	96.519478
30179.702128	-1851.621667	1843.421875	-93.374947
30179.702128	-1851.621667	1842.428711	-13.717052
30179.702128	-1851.621667	1841.435547	75.529503
30179.702128	-1851.621667	1840.441406	-58.948776
30179.702128	-1851.621667	1839.448242	-73.141449
30179.702128	-1851.621667	1838.454102	-17.610779
30179.702128	-1851.621667	1837.459961	146.067505
30179.702128	-1851.621667	1836.464844	93.370422
30179.702128	-1851.621667	1835.470703	26.270836
30179.702128	-1851.621667	1834.475586	36.068760
30179.702128	-1851.621667	1833.480469	17.032228
30179.702128	-1851.621667	1832.485352	86.854324
30179.702128	-1851.621667	1831.490234	29.382919
30179.702128	-1851.621667	1830.495117	96.761292
30179.702128	-1851.621667	1829.499023	-27.913462
30179.702128	-1851.621667	1828.502930	89.828873
30179.702128	-1851.621667	1827.506836	106.746811
30179.702128	-1851.621667	1826.510742	-173.811783
30179.702128	-1851.621667	1825.513672	118.949883
30179.702128	-1851.621667	1824.517578	61.488693
30179.702128	-1851.621667	1823.520508	-3.153783
30179.702128	-1851.621667	1822.523438	-48.605423
30179.702128	-1851.621667	1821.526367	35.367878
30179.702128	-1851.621667	1820.529297	71.375717
30179.702128	-1851.621667	1819.531250	11.529757
30179.702128	-1851.621667	1818.533203	164.874039
30179.702128	-1851.621667	1817.535156	37.956142
30179.702128	-1851.621667	1816.537109	128.961853
30179.702128	-1851.621667	1815.539063	-21.863495
30179.702128	-1851.621667	1814.540039	-36.217846
30179.702128	-1851.621667	1813.541992	95.395966
30179.702128	-1851.621667	1812.542969	4.438737
30179.702128	-1851.621667	1811.543945	147.928711
30179.702128	-1851.621667	1810.543945	61.752354
30179.702128	-1851.621667	1809.544922	30.594446
30179.702128	-1851.621667	1808.544922	-24.474440
30179.702128	-1851.621667	1807.544922	200.127945
30179.702128	-1851.621667	1806.544922	90.054199
30179.702128	-1851.621667	1805.544922	82.751343
30179.702128	-1851.621667	1804.544922	68.270401
30179.702128	-1851.621667	1803.543945	77.663315
30179.702128	-1851.621667	1802.542969	-22.812292
30179.702128	-1851.621667	1801.541992	12.827724
30179.702128	-1851.621667	1800.541016	77.084106
30179.702128	-1851.621667	1799.539063	-9.061562
30179.702128	-1851.621667	1798.538086	59.915634
30179.702128	-1851.621667	1797.536133	-11.911552
30179.702128	-1851.621667	1796.534180	16.455318
30179.702128	-1851.621667	1795.532227	104.417397
30179.702128	-1851.621667	1794.529297	-34.193211
30179.702128	-1851.621667	1793.527344	-65.487656
30179.702128	-1851.621667	1792.524414	215.451889
30179.702128	-1851.621667	1791.521484	19.654224
30179.702128	-1851.621667	1790.518555	81.235367
30179.702128	-1851.621667	1789.514648	78.455086
30179.702128	-1851.621667	1788.511719	44.697029
30179.702128	-1851.621667	1787.507813	-24.787134
30179.702128	-1851.621667	1786.503906	24.777103
30179.702128	-1851.621667	1785.500000	17.175198
30179.702128	-1851.621667	1784.496094	69.054916
30179.702128	-1851.621667	1783.491211	59.027988
30179.702128	-1851.621667	1782.486328	13.300651
30179.702128	-1851.621667	1781.481445	46.063156
30179.702128	-1851.621667	1780.476563	-125.722755
30179.702128	-1851.621667	1779.471680	40.162476
30179.702128	-1851.621667	1778.465820	20.541941
30179.702128	-1851.621667	1777.460938	-113.173920
30179.702128	-1851.621667	1776.455078	0.273532
30179.702128	-1851.621667	1775.449219	-55.027493
30179.702128	-1851.621667	1774.442383	-15.314518
30179.702128	-1851.621667	1773.436523	-75.382980
30179.702128	-1851.621667	1772.429688	106.746307
30179.702128	-1851.621667	1771.422852	34.762730
30179.702128	-1851.621667	1770.416016	76.717422
30179.702128	-1851.621667	1769.409180	113.888573
30179.702128	-1851.621667	1768.402344	44.253094
30179.702128	-1851.621667	1767.394531	12.575312
30179.702128	-1851.621667	1766.386719	-80.778519
30179.702128	-1851.621667	1765.378906	-27.095633
30179.702128	-1851.621667	1764.371094	43.140465
30179.702128	-1851.621667	1763.362305	139.400070
30179.702128	-1851.621667	1762.354492	150.283752
30179.702128	-1851.621667	1761.345703	82.943123
30179.702128	-1851.621667	1760.336914	-27.037624
30179.702128	-1851.621667	1759.328125	7.487404
30179.702128	-1851.621667	1758.318359	-85.908051
30179.702128	-1851.621667	1757.308594	-41.962505
30179.702128	-1851.621667	1756.299805	146.349792
30179.702128	-1851.621667	1755.290039	24.509836
30179.702128	-1851.621667	1754.279297	-21.585041
30179.702128	-1851.621667	1753.269531	-6.169338
30179.702128	-1851.621667	1752.258789	68.351120
30179.702128	-1851.621667	1751.249023	-58.204845
30179.702128	-1851.621667	1750.238281	25.708523
30179.702128	-1851.621667	1749.226563	50.460732
30179.702128	-1851.621667	1748.215820	34.999653
30179.702128	-1851.621667	1747.204102	-8.840506
30179.702128	-1851.621667	1746.193359	51.276409
30179.702128	-1851.621667	1745.181641	-44.569382
30179.702128	-1851.621667	1744.168945	152.467239
30179.702128	-1851.621667	1743.157227	73.120514
30179.702128	-1851.621667	1742.144531	-169.130035
30179.702128	-1851.621667	1741.132813	-59.591591
30179.702128	-1851.621667	1740.120117	-11.483426
30179.702128	-1851.621667	1739.106445	17.701696
30179.702128	-1851.621667	1738.093750	-68.744614
30179.702128	-1851.621667	1737.080078	59.458233
30179.702128	-1851.621667	1736.067383	76.752327
30179.702128	-1851.621667	1735.053711	-19.163351
30179.702128	-1851.621667	1734.040039	-8.984740
30179.702128	-1851.621667	1733.025391	95.439583
30179.702128	-1851.621667	1732.011719	13.641253
30179.702128	-1851.621667	1730.997070	-119.985603
30179.702128	-1851.621667	1729.982422	69.127350
30179.702128	-1851.621667	1728.967773	24.986973
30179.702128	-1851.621667	1727.952148	39.702595
30179.702128	-1851.621667	1726.937500	52.037060
30179.702128	-1851.621667	1725.921875	-36.872551
30179.702128	-1851.621667	1724.906250	-73.999275
30179.702128	-1851.621667	1723.890625	-87.607719
30179.702128	-1851.621667	1722.875000	-77.711014
30179.702128	-1851.621667	1721.858398	-86.661362
30179.702128	-1851.621667	1720.841797	3.131771
30179.702128	-1851.621667	1719.825195	36.440426
30179.702128	-1851.621667	1718.808594	-76.026360
30179.702128	-1851.621667	1717.791992	70.044968
30179.702128	-1851.621667	1716.774414	-0.141249
30179.702128	-1851.621667	1715.756836	-166.644730
30179.702128	-1851.621667	1714.739258	-112.319389
30179.702128	-1851.621667	1713.721680	45.289917
30179.702128	-1851.621667	1712.704102	-165.808914
30179.702128	-1851.621667	1711.685547	-113.936989
30179.702128	-1851.621667	1710.667969	-125.474289
30179.702128	-1851.621667	1709.649414	104.662430
30179.702128	-1851.621667	1708.630859	69.575722
30179.702128	-1851.621667	1707.611328	34.475170
30179.702128	-1851.621667	1706.592773	15.785668
30179.702128	-1851.621667	1705.573242	123.693817
30179.702128	-1851.621667	1704.553711	62.746136
30179.702128	-1851.621667	1703.534180	22.893902
30179.702128	-1851.621667	1702.513672	-7.595776
30179.702128	-1851.621667	1701.494141	48.597252
30179.702128	-1851.621667	1700.473633	182.045624
30179.702128	-1851.621667	1699.453125	83.554764
30179.702128	-1851.621667	1698.432617	-80.486031
30179.702128	-1851.621667	1697.412109	-47.827606
30179.702128	-1851.621667	1696.390625	-22.229805
30179.702128	-1851.621667	1695.369141	38.440033
30179.702128	-1851.621667	1694.347656	7.811938
30179.702128	-1851.621667	1693.326172	66.069656
30179.702128	-1851.621667	1692.304688	-6.696315
30179.702128	-1851.621667	1691.282227	-35.028629
30179.702128	-1851.621667	1690.260742	-11.930884
30179.702128	-1851.621667	1689.238281	-115.096451
30179.702128	-1851.621667	1688.214844	-166.829895
30179.702128	-1851.621667	1687.192383	36.137257
30179.702128	-1851.621667	1686.168945	14.723367
30179.702128	-1851.621667	1685.146484	-16.041769
30179.702128	-1851.621667	1684.123047	4.557983
30179.702128	-1851.621667	1683.099609	120.859650
30179.702128	-1851.621667	1682.075195	73.682266
30179.702128	-1851.621667	1681.051758	262.239380
30179.702128	-1851.621667	1680.027344	117.005325
30179.702128	-1851.621667	1679.002930	41.799595
30179.702128	-1851.621667	1677.978516	13.256685
30179.702128	-1851.621667	1676.953125	-80.599838
30179.702128	-1851.621667	1675.928711	56.406631
30179.702128	-1851.621667	1674.903320	137.386993
30179.702128	-1851.621667	1673.877930	55.158894
30179.702128	-1851.621667	1672.852539	108.106361
30179.702128	-1851.621667	1671.826172	172.661087
30179.702128	-1851.621667	1670.800781	8.887562
30179.702128	-1851.621667	1669.774414	57.097202
30179.702128	-1851.621667	1668.748047	70.342644
30179.702128	-1851.621667	1667.721680	-2.576082
30179.702128	-1851.621667	1666.694336	12.964563
30179.702128	-1851.621667	1665.667969	-48.312084
30179.702128	-1851.621667	1664.640625	57.942375
30179.702128	-1851.621667	1663.613281	-12.661722
30179.702128	-1851.621667	1662.585938	-90.233025
30179.702128	-1851.621667	1661.557617	-11.989354
30179.702128	-1851.621667	1660.530273	87.137016
30179.702128	-1851.621667	1659.501953	-4.406525
30179.702128	-1851.621667	1658.473633	71.404510
30179.702128	-1851.621667	1657.444336	-54.990528
30179.702128	-1851.621667	1656.416016	78.851692
30179.702128	-1851.621667	1655.386719	175.459045
30179.702128	-1851.621667	1654.358398	172.160156
30179.702128	-1851.621667	1653.328125	180.449265
30179.702128	-1851.621667	1652.298828	167.833649
30179.702128	-1851.621667	1651.269531	199.306824
30179.702128	-1851.621667	1650.239258	277.160645
30179.702128	-1851.621667	1649.208984	187.927551
30179.702128	-1851.621667	1648.178711	56.963734
30179.702128	-1851.621667	1647.148438	97.655235
30179.702128	-1851.621667	1646.117188	50.204018
30179.702128	-1851.621667	1645.086914	211.406693
30179.702128	-1851.621667	1644.055664	214.919815
30179.702128	-1851.621667	1643.024414	243.911652
30179.702128	-1851.621667	1641.992188	409.574341
30179.702128	-1851.621667	1640.960938	220.748032
30179.702128	-1851.621667	1639.928711	275.161041
30179.702128	-1851.621667	1638.896484	262.391754
30179.702128	-1851.621667	1637.864258	307.495178
30179.702128	-1851.621667	1636.832031	424.326111
30179.702128	-1851.621667	1635.798828	351.332520
30179.702128	-1851.621667	1634.766602	248.283401
30179.702128	-1851.621667	1633.733398	383.532928
30179.702128	-1851.621667	1632.699219	386.883606
30179.702128	-1851.621667	1631.666016	429.539978
30179.702128	-1851.621667	1630.632813	587.771362
30179.702128	-1851.621667	1629.598633	540.203003
30179.702128	-1851.621667	1628.564453	423.314178
30179.702128	-1851.621667	1627.530273	519.040833
30179.702128	-1851.621667	1626.495117	319.016968
30179.702128	-1851.621667	1625.460938	567.156128
30179.702128	-1851.621667	1624.425781	572.713867
30179.702128	-1851.621667	1623.390625	693.705627
30179.702128	-1851.621667	1622.355469	551.489258
30179.702128	-1851.621667	1621.319336	693.194275
30179.702128	-1851.621667	1620.284180	668.705017
30179.702128	-1851.621667	1619.248047	667.286316
30179.702128	-1851.621667	1618.211914	578.214355
30179.702128	-1851.621667	1617.174805	574.495239
30179.702128	-1851.621667	1616.138672	589.224792
30179.702128	-1851.621667	1615.101563	592.414307
30179.702128	-1851.621667	1614.065430	604.823059
30179.702128	-1851.621667	1613.027344	368.346588
30179.702128	-1851.621667	1611.990234	422.255615
30179.702128	-1851.621667	1610.953125	372.486328
30179.702128	-1851.621667	1609.915039	553.029724
30179.702128	-1851.621667	1608.876953	441.078522
30179.702128	-1851.621667	1607.838867	308.450531
30179.702128	-1851.621667	1606.800781	440.564026
30179.702128	-1851.621667	1605.761719	321.789795
30179.702128	-1851.621667	1604.723633	331.909180
30179.702128	-1851.621667	1603.684570	388.026276
30179.702128	-1851.621667	1602.644531	405.019867
30179.702128	-1851.621667	1601.605469	486.396332
30179.702128	-1851.621667	1600.566406	498.773560
30179.702128	-1851.621667	1599.526367	678.934021
30179.702128	-1851.621667	1598.486328	656.797119
30179.702128	-1851.621667	1597.446289	620.885620
30179.702128	-1851.621667	1596.405273	375.944366
30179.702128	-1851.621667	1595.365234	452.646301
30179.702128	-1851.621667	1594.324219	529.317200
30179.702128	-1851.621667	1593.283203	413.113312
30179.702128	-1851.621667	1592.242188	264.823486
30179.702128	-1851.621667	1591.200195	380.507568
30179.702128	-1851.621667	1590.159180	319.481476
30179.702128	-1851.621667	1589.117188	407.591125
30179.702128	-1851.621667	1588.075195	344.295868
30179.702128	-1851.621667	1587.032227	310.837219
30179.702128	-1851.621667	1585.990234	541.060303
30179.702128	-1851.621667	1584.947266	525.926392
30179.702128	-1851.621667	1583.904297	494.762909
30179.702128	-1851.621667	1582.861328	399.461334
30179.702128	-1851.621667	1581.818359	528.711426
30179.702128	-1851.621667	1580.775391	541.105835
30179.702128	-1851.621667	1579.731445	264.960846
30179.702128	-1851.621667	1578.687500	387.312378
30179.702128	-1851.621667	1577.643555	253.246689
30179.702128	-1851.621667	1576.598633	528.905334
30179.702128	-1851.621667	1575.554688	577.937866
30179.702128	-1851.621667	1574.509766	313.535736
30179.702128	-1851.621667	1573.464844	296.275848
30179.702128	-1851.621667	1572.419922	443.685822
30179.702128	-1851.621667	1571.374023	323.535706
30179.702128	-1851.621667	1570.329102	290.314301
30179.702128	-1851.621667	1569.283203	261.683807
30179.702128	-1851.621667	1568.237305	242.216736
30179.702128	-1851.621667	1567.191406	366.699493
30179.702128	-1851.621667	1566.144531	322.114075
30179.702128	-1851.621667	1565.098633	295.832458
30179.702128	-1851.621667	1564.051758	258.153717
30179.702128	-1851.621667	1563.004883	202.241058
30179.702128	-1851.621667	1561.957031	283.301086
30179.702128	-1851.621667	1560.910156	311.863953
30179.702128	-1851.621667	1559.862305	59.804928
30179.702128	-1851.621667	1558.814453	248.096771
30179.702128	-1851.621667	1557.766602	142.135788
30179.702128	-1851.621667	1556.718750	104.635162
30179.702128	-1851.621667	1555.669922	110.474953
30179.702128	-1851.621667	1554.621094	161.912964
30179.702128	-1851.621667	1553.573242	263.484253
30179.702128	-1851.621667	1552.523438	278.447632
30179.702128	-1851.621667	1551.474609	190.920883
30179.702128	-1851.621667	1550.424805	251.475449
30179.702128	-1851.621667	1549.375000	116.202522
30179.702128	-1851.621667	1548.325195	279.227905
30179.702128	-1851.621667	1547.275391	189.560654
30179.702128	-1851.621667	1546.225586	159.113708
30179.702128	-1851.621667	1545.174805	121.868309
30179.702128	-1851.621667	1544.124023	159.723709
30179.702128	-1851.621667	1543.073242	224.874512
30179.702128	-1851.621667	1542.022461	144.493362
30179.702128	-1851.621667	1540.970703	339.241333
30179.702128	-1851.621667	1539.919922	229.361160
30179.702128	-1851.621667	1538.868164	146.811386
30179.702128	-1851.621667	1537.815430	191.545975
30179.702128	-1851.621667	1536.763672	252.189362
30179.702128	-1851.621667	1535.710938	242.420441
30179.702128	-1851.621667	1534.659180	121.416290
30179.702128	-1851.621667	1533.606445	95.829048
30179.702128	-1851.621667	1532.552734	224.618027
30179.702128	-1851.621667	1531.500000	246.722382
30179.702128	-1851.621667	1530.446289	234.803635
30179.702128	-1851.621667	1529.393555	218.379456
30179.702128	-1851.621667	1528.338867	231.461945
30179.702128	-1851.621667	1527.285156	185.609848
30179.702128	-1851.621667	1526.231445	87.656303
30179.702128	-1851.621667	1525.176758	44.162086
30179.702128	-1851.621667	1524.122070	177.476151
30179.702128	-1851.621667	1523.067383	68.323380
30179.702128	-1851.621667	1522.012695	131.404678
30179.702128	-1851.621667	1520.957031	33.675472
30179.702128	-1851.621667	1519.901367	99.051010
30179.702128	-1851.621667	1518.845703	26.322550
30179.702128	-1851.621667	1517.790039	71.353615
30179.702128	-1851.621667	1516.734375	30.395420
30179.702128	-1851.621667	1515.677734	136.549484
30179.702128	-1851.621667	1514.621094	77.547813
30179.702128	-1851.621667	1513.564453	-19.853493
30179.702128	-1851.621667	1512.507813	-17.690830
30179.702128	-1851.621667	1511.450195	-96.895790
30179.702128	-1851.621667	1510.393555	113.294441
30179.702128	-1851.621667	1509.335938	-87.886360
30179.702128	-1851.621667	1508.278320	31.891800
30179.702128	-1851.621667	1507.219727	-6.486655
30179.702128	-1851.621667	1506.162109	-80.955437
30179.702128	-1851.621667	1505.103516	-17.620394
30179.702128	-1851.621667	1504.044922	-152.960251
30179.702128	-1851.621667	1502.986328	-130.207718
30179.702128	-1851.621667	1501.926758	14.431431
30179.702128	-1851.621667	1500.868164	-80.130135
30179.702128	-1851.621667	1499.808594	98.340889
30179.702128	-1851.621667	1498.749023	17.390997
30179.702128	-1851.621667	1497.688477	44.743237
30179.702128	-1851.621667	1496.628906	13.498991
30179.702128	-1851.621667	1495.568359	54.427921
30179.702128	-1851.621667	1494.507813	61.566628
30179.702128	-1851.621667	1493.447266	-77.726791
30179.702128	-1851.621667	1492.386719	55.655743
30179.702128	-1851.621667	1491.325195	-18.202198
30179.702128	-1851.621667	1490.263672	196.245621
30179.702128	-1851.621667	1489.202148	21.138538
30179.702128	-1851.621667	1488.140625	-68.327980
30179.702128	-1851.621667	1487.079102	53.826221
30179.702128	-1851.621667	1486.016602	144.461212
30179.702128	-1851.621667	1484.954102	113.610847
30179.702128	-1851.621667	1483.891602	-13.909765
30179.702128	-1851.621667	1482.829102	47.551373
30179.702128	-1851.621667	1481.765625	-91.077667
30179.702128	-1851.621667	1480.702148	8.651863
30179.702128	-1851.621667	1479.638672	-8.486934
30179.702128	-1851.621667	1478.575195	19.354221
30179.702128	-1851.621667	1477.511719	123.566093
30179.702128	-1851.621667	1476.447266	59.373276
30179.702128	-1851.621667	1475.382813	109.790764
30179.702128	-1851.621667	1474.318359	-10.458179
30179.702128	-1851.621667	1473.253906	-78.948616
30179.702128	-1851.621667	1472.189453	11.890369
30179.702128	-1851.621667	1471.124023	-13.926919
30179.702128	-1851.621667	1470.058594	20.899483
30179.702128	-1851.621667	1468.993164	-33.863228
30179.702128	-1851.621667	1467.927734	-77.467865
30179.702128	-1851.621667	1466.861328	69.393440
30179.702128	-1851.621667	1465.794922	86.328140
30179.702128	-1851.621667	1464.728516	-53.532337
30179.702128	-1851.621667	1463.662109	136.067474
30179.702128	-1851.621667	1462.594727	45.682186
30179.702128	-1851.621667	1461.528320	67.283966
30179.702128	-1851.621667	1460.460938	-49.673347
30179.702128	-1851.621667	1459.393555	-58.911644
30179.702128	-1851.621667	1458.326172	67.395821
30179.702128	-1851.621667	1457.257813	-24.294851
30179.702128	-1851.621667	1456.189453	68.155182
30179.702128	-1851.621667	1455.121094	-45.901962
30179.702128	-1851.621667	1454.052734	16.459076
30179.702128	-1851.621667	1452.984375	210.289139
30179.702128	-1851.621667	1451.915039	-115.700615
30179.702128	-1851.621667	1450.845703	-4.846638
30179.702128	-1851.621667	1449.776367	-7.776327
30179.702128	-1851.621667	1448.707031	137.508911
30179.702128	-1851.621667	1447.636719	67.250626
30179.702128	-1851.621667	1446.567383	182.928284
30179.702128	-1851.621667	1445.497070	122.247627
30179.702128	-1851.621667	1444.425781	156.100418
30179.702128	-1851.621667	1443.355469	173.494202
30179.702128	-1851.621667	1442.285156	248.106155
30179.702128	-1851.621667	1441.213867	121.294693
30179.702128	-1851.621667	1440.142578	6.977890
30179.702128	-1851.621667	1439.070313	131.158279
30179.702128	-1851.621667	1437.999023	273.372864
30179.702128	-1851.621667	1436.926758	99.903580
30179.702128	-1851.621667	1435.854492	59.370975
30179.702128	-1851.621667	1434.782227	120.618317
30179.702128	-1851.621667	1433.709961	26.880957
30179.702128	-1851.621667	1432.636719	65.273949
30179.702128	-1851.621667	1431.563477	53.034851
30179.702128	-1851.621667	1430.490234	219.668045
30179.702128	-1851.621667	1429.416992	51.955757
30179.702128	-1851.621667	1428.343750	24.217304
30179.702128	-1851.621667	1427.269531	53.827671
30179.702128	-1851.621667	1426.195313	87.649704
30179.702128	-1851.621667	1425.121094	54.428505
30179.702128	-1851.621667	1424.046875	-2.405298
30179.702128	-1851.621667	1422.971680	-117.073753
30179.702128	-1851.621667	1421.896484	22.661798
30179.702128	-1851.621667	1420.821289	0.105042
30179.702128	-1851.621667	1419.746094	64.672440
30179.702128	-1851.621667	1418.669922	-120.540070
30179.702128	-1851.621667	1417.594727	-13.746918
30179.702128	-1851.621667	1416.518555	-156.179977
30179.702128	-1851.621667	1415.442383	-56.203365
30179.702128	-1851.621667	1414.365234	31.826862
30179.702128	-1851.621667	1413.289063	94.924957
30179.702128	-1851.621667	1412.211914	-17.091845
30179.702128	-1851.621667	1411.134766	89.814049
30179.702128	-1851.621667	1410.057617	6.879884
30179.702128	-1851.621667	1408.979492	138.764877
30179.702128	-1851.621667	1407.902344	-91.676758
30179.702128	-1851.621667	1406.824219	95.758797
30179.702128	-1851.621667	1405.746094	121.357964
30179.702128	-1851.621667	1404.666992	178.430481
30179.702128	-1851.621667	1403.588867	178.919144
30179.702128	-1851.621667	1402.509766	190.617859
30179.702128	-1851.621667	1401.430664	154.030197
30179.702128	-1851.621667	1400.351563	135.483704
30179.702128	-1851.621667	1399.271484	147.765305
30179.702128	-1851.621667	1398.192383	189.189056
30179.702128	-1851.621667	1397.112305	203.462234
30179.702128	-1851.621667	1396.031250	210.770432
30179.702128	-1851.621667	1394.951172	118.585625
30179.702128	-1851.621667	1393.871094	174.432617
30179.702128	-1851.621667	1392.790039	176.972565
30179.702128	-1851.621667	1391.708984	217.779984
30179.702128	-1851.621667	1390.626953	244.556122
30179.702128	-1851.621667	1389.545898	232.166702
30179.702128	-1851.621667	1388.463867	174.170624
30179.702128	-1851.621667	1387.381836	305.344879
30179.702128	-1851.621667	1386.299805	367.312408
30179.702128	-1851.621667	1385.217773	335.991486
30179.702128	-1851.621667	1384.134766	372.855072
30179.702128	-1851.621667	1383.051758	295.335327
30179.702128	-1851.621667	1381.968750	288.929077
30179.702128	-1851.621667	1380.885742	328.350616
30179.702128	-1851.621667	1379.802734	261.477692
30179.702128	-1851.621667	1378.718750	313.545105
30179.702128	-1851.621667	1377.634766	318.380798
30179.702128	-1851.621667	1376.550781	374.424042
30179.702128	-1851.621667	1375.465820	301.117249
30179.702128	-1851.621667	1374.381836	355.931152
30179.702128	-1851.621667	1373.296875	320.605164
30179.702128	-1851.621667	1372.211914	338.986633
30179.702128	-1851.621667	1371.126953	317.547577
30179.702128	-1851.621667	1370.041016	399.733398
30179.702128	-1851.621667	1368.955078	427.843506
30179.702128	-1851.621667	1367.869141	394.614502
30179.702128	-1851.621667	1366.783203	505.406555
30179.702128	-1851.621667	1365.697266	476.452423
30179.702128	-1851.621667	1364.610352	629.147888
30179.702128	-1851.621667	1363.523438	595.098755
30179.702128	-1851.621667	1362.436523	779.445435
30179.702128	-1851.621667	1361.349609	614.447083
30179.702128	-1851.621667	1360.261719	483.944397
30179.702128	-1851.621667	1359.174805	669.093201
30179.702128	-1851.621667	1358.086914	661.448242
30179.702128	-1851.621667	1356.998047	643.523132
30179.702128	-1851.621667	1355.910156	448.806488
30179.702128	-1851.621667	1354.821289	437.452820
30179.702128	-1851.621667	1353.732422	477.713226
30179.702128	-1851.621667	1352.643555	482.332520
30179.702128	-1851.621667	1351.554688	557.549805
30179.702128	-1851.621667	1350.464844	418.381378
30179.702128	-1851.621667	1349.375000	446.000916
30179.702128	-1851.621667	1348.285156	300.043518
30179.702128	-1851.621667	1347.195313	302.392242
30179.702128	-1851.621667	1346.105469	373.456512
30179.702128	-1851.621667	1345.014648	433.548645
30179.702128	-1851.621667	1343.923828	527.064392
30179.702128	-1851.621667	1342.833008	574.290161
30179.702128	-1851.621667	1341.741211	703.198486
30179.702128	-1851.621667	1340.650391	643.396301
30179.702128	-1851.621667	1339.558594	611.384216
30179.702128	-1851.621667	1338.466797	548.713989
30179.702128	-1851.621667	1337.374023	574.195190
30179.702128	-1851.621667	1336.282227	328.682220
30179.702128	-1851.621667	1335.189453	320.814392
30179.702128	-1851.621667	1334.096680	221.723526
30179.702128	-1851.621667	1333.003906	196.608643
30179.702128	-1851.621667	1331.910156	190.401428
30179.702128	-1851.621667	1330.817383	385.401764
30179.702128	-1851.621667	1329.723633	262.802490
30179.702128	-1851.621667	1328.629883	246.671341
30179.702128	-1851.621667	1327.535156	275.909363
30179.702128	-1851.621667	1326.441406	285.728851
30179.702128	-1851.621667	1325.346680	329.821320
30179.702128	-1851.621667	1324.251953	262.410675
30179.702128	-1851.621667	1323.156250	145.778946
30179.702128	-1851.621667	1322.061523	159.282211
30179.702128	-1851.621667	1320.965820	236.187897
30179.702128	-1851.621667	1319.870117	154.282303
30179.702128	-1851.621667	1318.774414	129.638382
30179.702128	-1851.621667	1317.678711	139.341324
30179.702128	-1851.621667	1316.582031	127.106819
30179.702128	-1851.621667	1315.485352	177.807022
30179.702128	-1851.621667	1314.388672	207.947525
30179.702128	-1851.621667	1313.291016	188.821716
30179.702128	-1851.621667	1312.194336	144.024094
30179.702128	-1851.621667	1311.096680	107.321930
30179.702128	-1851.621667	1309.999023	175.018417
30179.702128	-1851.621667	1308.901367	220.618652
30179.702128	-1851.621667	1307.802734	121.933693
30179.702128	-1851.621667	1306.705078	230.659393
30179.702128	-1851.621667	1305.606445	75.776588
30179.702128	-1851.621667	1304.506836	151.901764
30179.702128	-1851.621667	1303.408203	115.288254
30179.702128	-1851.621667	1302.308594	102.974632
30179.702128	-1851.621667	1301.208984	-14.158914
30179.702128	-1851.621667	1300.109375	10.761332
30179.702128	-1851.621667	1299.009766	173.311737
30179.702128	-1851.621667	1297.909180	203.986130
30179.702128	-1851.621667	1296.808594	138.217850
30179.702128	-1851.621667	1295.708008	105.621323
30179.702128	-1851.621667	1294.607422	121.813934
30179.702128	-1851.621667	1293.506836	167.327118
30179.702128	-1851.621667	1292.405273	152.310547
30179.702128	-1851.621667	1291.303711	158.013382
30179.702128	-1851.621667	1290.202148	59.828384
30179.702128	-1851.621667	1289.099609	-30.624027
30179.702128	-1851.621667	1287.998047	34.549156
30179.702128	-1851.621667	1286.895508	123.389893
30179.702128	-1851.621667	1285.792969	142.736603
30179.702128	-1851.621667	1284.689453	93.148735
30179.702128	-1851.621667	1283.586914	76.721817
30179.702128	-1851.621667	1282.483398	16.156116
30179.702128	-1851.621667	1281.379883	25.754847
30179.702128	-1851.621667	1280.276367	-60.952518
30179.702128	-1851.621667	1279.171875	-11.736556
30179.702128	-1851.621667	1278.067383	26.091658
30179.702128	-1851.621667	1276.962891	19.290596
30179.702128	-1851.621667	1275.858398	17.782797
30179.702128	-1851.621667	1274.753906	-184.971115
30179.702128	-1851.621667	1273.648438	-31.318317
30179.702128	-1851.621667	1272.542969	24.926628
30179.702128	-1851.621667	1271.437500	5.959695
30179.702128	-1851.621667	1270.331055	-51.260597
30179.702128	-1851.621667	1269.225586	31.922489
30179.702128	-1851.621667	1268.119141	-35.989704
30179.702128	-1851.621667	1267.012695	7.195533
30179.702128	-1851.621667	1265.906250	59.561871
30179.702128	-1851.621667	1264.798828	-22.360842
30179.702128	-1851.621667	1263.691406	104.547325
30179.702128	-1851.621667	1262.583984	113.378342
30179.702128	-1851.621667	1261.476563	25.058647
30179.702128	-1851.621667	1260.368164	-0.303259
30179.702128	-1851.621667	1259.260742	5.701161
30179.702128	-1851.621667	1258.152344	56.345371
30179.702128	-1851.621667	1257.043945	62.613022
30179.702128	-1851.621667	1255.934570	-81.878578
30179.702128	-1851.621667	1254.825195	-19.803989
30179.702128	-1851.621667	1253.716797	-15.752847
30179.702128	-1851.621667	1252.606445	-83.601555
30179.702128	-1851.621667	1251.497070	19.181915
30179.702128	-1851.621667	1250.387695	48.357471
30179.702128	-1851.621667	1249.277344	-8.431666
30179.702128	-1851.621667	1248.166992	63.283947
30179.702128	-1851.621667	1247.055664	57.015713
30179.702128	-1851.621667	1245.945313	21.589512
30179.702128	-1851.621667	1244.833984	3.765277
30179.702128	-1851.621667	1243.722656	-103.421646
30179.702128	-1851.621667	1242.611328	5.332624
30179.702128	-1851.621667	1241.499023	-148.218292
30179.702128	-1851.621667	1240.387695	-187.361343
30179.702128	-1851.621667	1239.275391	20.549171
30179.702128	-1851.621667	1238.162109	-23.017307
30179.702128	-1851.621667	1237.049805	-94.850182
30179.702128	-1851.621667	1235.936523	29.506338
30179.702128	-1851.621667	1234.823242	30.476732
30179.702128	-1851.621667	1233.709961	7.984037
30179.702128	-1851.621667	1232.596680	23.291138
30179.702128	-1851.621667	1231.482422	-21.920116
30179.702128	-1851.621667	1230.369141	36.360676
30179.702128	-1851.621667	1229.253906	-19.917015
30179.702128	-1851.621667	1228.139648	-5.204719
30179.702128	-1851.621667	1227.025391	-8.565701
30179.702128	-1851.621667	1225.910156	-48.540276
30179.702128	-1851.621667	1224.794922	-97.849953
30179.702128	-1851.621667	1223.679688	-98.284081
30179.702128	-1851.621667	1222.563477	-26.416670
30179.702128	-1851.621667	1221.447266	-97.763168
30179.702128	-1851.621667	1220.331055	-59.535778
30179.702128	-1851.621667	1219.214844	18.137770
30179.702128	-1851.621667	1218.098633	-55.974255
30179.702128	-1851.621667	1216.981445	5.516536
30179.702128	-1851.621667	1215.864258	27.518541
30179.702128	-1851.621667	1214.747070	-10.280046
30179.702128	-1851.621667	1213.629883	-27.424431
30179.702128	-1851.621667	1212.511719	-0.001326
30179.702128	-1851.621667	1211.393555	-22.657982
30179.702128	-1851.621667	1210.275391	32.783546
30179.702128	-1851.621667	1209.157227	27.982162
30179.702128	-1851.621667	1208.038086	46.947330
30179.702128	-1851.621667	1206.918945	27.029379
30179.702128	-1851.621667	1205.799805	-15.835435
30179.702128	-1851.621667	1204.680664	-84.480881
30179.702128	-1851.621667	1203.560547	142.101028
30179.702128	-1851.621667	1202.441406	70.671837
30179.702128	-1851.621667	1201.321289	21.865938
30179.702128	-1851.621667	1200.200195	115.020943
30179.702128	-1851.621667	1199.080078	30.891603
30179.702128	-1851.621667	1197.958984	22.728981
30179.702128	-1851.621667	1196.837891	80.763351
30179.702128	-1851.621667	1195.716797	58.944664
30179.702128	-1851.621667	1194.594727	27.419037
30179.702128	-1851.621667	1193.473633	137.110245
30179.702128	-1851.621667	1192.351563	71.608650
30179.702128	-1851.621667	1191.229492	160.286179
30179.702128	-1851.621667	1190.106445	-63.742336
30179.702128	-1851.621667	1188.984375	121.558784
30179.702128	-1851.621667	1187.861328	113.106995
30179.702128	-1851.621667	1186.738281	106.213203
30179.702128	-1851.621667	1185.614258	59.235905
30179.702128	-1851.621667	1184.491211	153.356339
30179.702128	-1851.621667	1183.367188	123.190132
30179.702128	-1851.621667	1182.243164	289.399323
30179.702128	-1851.621667	1181.119141	382.103821
30179.702128	-1851.621667	1179.994141	261.830017
30179.702128	-1851.621667	1178.869141	264.340576
30179.702128	-1851.621667	1177.744141	340.475128
30179.702128	-1851.621667	1176.619141	247.292542
30179.702128	-1851.621667	1175.493164	263.626770
30179.702128	-1851.621667	1174.368164	267.685699
30179.702128	-1851.621667	1173.242188	171.698959
30179.702128	-1851.621667	1172.115234	199.056000
30179.702128	-1851.621667	1170.989258	196.315781
30179.702128	-1851.621667	1169.862305	163.582474
30179.702128	-1851.621667	1168.735352	153.763870
30179.702128	-1851.621667	1167.608398	40.464767
30179.702128	-1851.621667	1166.481445	53.565315
30179.702128	-1851.621667	1165.353516	99.679695
30179.702128	-1851.621667	1164.225586	79.219193
30179.702128	-1851.621667	1163.097656	34.234875
30179.702128	-1851.621667	1161.968750	20.395582
30179.702128	-1851.621667	1160.840820	-39.668674
30179.702128	-1851.621667	1159.711914	7.465886
30179.702128	-1851.621667	1158.583008	23.235525
30179.702128	-1851.621667	1157.453125	-53.362846
30179.702128	-1851.621667	1156.324219	-26.480345
30179.702128	-1851.621667	1155.194336	-2.874443
30179.702128	-1851.621667	1154.064453	-115.565353
30179.702128	-1851.621667	1152.933594	-126.833076
30179.702128	-1851.621667	1151.803711	-112.229477
30179.702128	-1851.621667	1150.672852	-61.196697
30179.702128	-1851.621667	1149.541992	10.096666
30179.702128	-1851.621667	1148.411133	-21.999933
30179.702128	-1851.621667	1147.279297	42.731983
30179.702128	-1851.621667	1146.147461	75.633644
30179.702128	-1851.621667	1145.015625	46.878242
30179.702128	-1851.621667	1143.883789	58.927536
30179.702128	-1851.621667	1142.750977	34.375443
30179.702128	-1851.621667	1141.619141	-15.984883
30179.702128	-1851.621667	1140.486328	-24.422506
30179.702128	-1851.621667	1139.352539	-112.675407
30179.702128	-1851.621667	1138.219727	21.765009
30179.702128	-1851.621667	1137.085938	-35.663383
30179.702128	-1851.621667	1135.952148	63.172321
30179.702128	-1851.621667	1134.818359	102.664566
30179.702128	-1851.621667	1133.683594	61.900818
30179.702128	-1851.621667	1132.549805	24.099800
30179.702128	-1851.621667	1131.415039	145.242218
30179.702128	-1851.621667	1130.279297	101.198486
30179.702128	-1851.621667	1129.144531	28.877405
30179.702128	-1851.621667	1128.008789	-27.851755
30179.702128	-1851.621667	1126.873047	21.806171
30179.702128	-1851.621667	1125.737305	72.404297
30179.702128	-1851.621667	1124.601563	28.337049
30179.702128	-1851.621667	1123.464844	-63.133438
30179.702128	-1851.621667	1122.328125	-27.194344
30179.702128	-1851.621667	1121.191406	43.924744
30179.702128	-1851.621667	1120.054688	107.404884
30179.702128	-1851.621667	1118.916992	63.957371
30179.702128	-1851.621667	1117.779297	58.008873
30179.702128	-1851.621667	1116.641602	139.547104
30179.702128	-1851.621667	1115.503906	104.175972
30179.702128	-1851.621667	1114.365234	-3.833704
30179.702128	-1851.621667	1113.226563	103.921387
30179.702128	-1851.621667	1112.087891	145.593506
30179.702128	-1851.621667	1110.949219	-12.015644
30179.702128	-1851.621667	1109.809570	90.342690
30179.702128	-1851.621667	1108.669922	62.218399
30179.702128	-1851.621667	1107.530273	62.009861
30179.702128	-1851.621667	1106.390625	29.207731
30179.702128	-1851.621667	1105.250000	28.695482
30179.702128	-1851.621667	1104.109375	16.037735
30179.702128	-1851.621667	1102.968750	52.521545
30179.702128	-1851.621667	1101.828125	54.331436
30179.702128	-1851.621667	1100.686523	34.332256
30179.702128	-1851.621667	1099.544922	73.829926
30179.702128	-1851.621667	1098.403320	10.281914
30179.702128	-1851.621667	1097.261719	12.440634
30179.702128	-1851.621667	1096.120117	-35.260361
30179.702128	-1851.621667	1094.977539	118.357666
30179.702128	-1851.621667	1093.834961	169.684235
30179.702128	-1851.621667	1092.691406	72.991783
30179.702128	-1851.621667	1091.548828	0.535137
30179.702128	-1851.621667	1090.405273	12.650215
30179.702128	-1851.621667	1089.261719	21.708565
30179.702128	-1851.621667	1088.118164	87.188194
30179.702128	-1851.621667	1086.973633	41.019680
30179.702128	-1851.621667	1085.829102	-68.177818
30179.702128	-1851.621667	1084.684570	20.867184
30179.702128	-1851.621667	1083.540039	-26.592884
30179.702128	-1851.621667	1082.395508	-7.525796
30179.702128	-1851.621667	1081.250000	37.136139
30179.702128	-1851.621667	1080.104492	-20.547371
30179.702128	-1851.621667	1078.958984	38.607765
30179.702128	-1851.621667	1077.812500	70.316650
30179.702128	-1851.621667	1076.666016	122.496964
30179.702128	-1851.621667	1075.519531	116.271286
30179.702128	-1851.621667	1074.373047	122.028786
30179.702128	-1851.621667	1073.226563	74.366653
30179.702128	-1851.621667	1072.079102	178.800690
30179.702128	-1851.621667	1070.931641	32.347794
30179.702128	-1851.621667	1069.784180	-27.633587
30179.702128	-1851.621667	1068.635742	53.295139
30179.702128	-1851.621667	1067.487305	-78.118576
30179.702128	-1851.621667	1066.338867	134.023254
30179.702128	-1851.621667	1065.190430	71.215775
30179.702128	-1851.621667	1064.041992	107.587440
30179.702128	-1851.621667	1062.892578	111.847771
30179.702128	-1851.621667	1061.743164	70.711609
30179.702128	-1851.621667	1060.593750	-21.907423
30179.702128	-1851.621667	1059.443359	198.756775
30179.702128	-1851.621667	1058.292969	5.787768
30179.702128	-1851.621667	1057.142578	107.423889
30179.702128	-1851.621667	1055.992188	63.024563
30179.702128	-1851.621667	1054.841797	25.178720
30179.702128	-1851.621667	1053.690430	-163.245087
30179.702128	-1851.621667	1052.539063	-90.449310
30179.702128	-1851.621667	1051.387695	-73.648247
30179.702128	-1851.621667	1050.235352	-81.000252
30179.702128	-1851.621667	1049.083984	-4.814906
30179.702128	-1851.621667	1047.931641	-22.395315
30179.702128	-1851.621667	1046.778320	-62.865971
30179.702128	-1851.621667	1045.625977	-25.522680
30179.702128	-1851.621667	1044.472656	15.834772
30179.702128	-1851.621667	1043.319336	-23.202452
30179.702128	-1851.621667	1042.166016	-99.222649
30179.702128	-1851.621667	1041.012695	-68.416664
30179.702128	-1851.621667	1039.858398	-6.034280
30179.702128	-1851.621667	1038.704102	-14.593152
30179.702128	-1851.621667	1037.549805	-130.066330
30179.702128	-1851.621667	1036.394531	-88.153381
30179.702128	-1851.621667	1035.239258	34.815140
30179.702128	-1851.621667	1034.083984	-66.511757
30179.702128	-1851.621667	1032.928711	24.123348
30179.702128	-1851.621667	1031.773438	-115.064598
30179.702128	-1851.621667	1030.617188	-34.906578
30179.702128	-1851.621667	1029.460938	10.963223
30179.702128	-1851.621667	1028.304688	84.746078
30179.702128	-1851.621667	1027.147461	0.200812
30179.702128	-1851.621667	1025.991211	-32.808571
30179.702128	-1851.621667	1024.833984	-51.373432
30179.702128	-1851.621667	1023.675781	102.933037
30179.702128	-1851.621667	1022.518555	2.678083
30179.702128	-1851.621667	1021.360352	-35.182880
30179.702128	-1851.621667	1020.202148	94.281532
30179.702128	-1851.621667	1019.043945	33.255531
30179.702128	-1851.621667	1017.884766	-4.644282
30179.702128	-1851.621667	1016.726563	85.756447
30179.702128	-1851.621667	1015.567383	7.753294
30179.702128	-1851.621667	1014.407227	70.472801
30179.702128	-1851.621667	1013.248047	-72.158615
30179.702128	-1851.621667	1012.087891	-120.702896
30179.702128	-1851.621667	1010.927734	60.979504
30179.702128	-1851.621667	1009.767578	-33.477982
30179.702128	-1851.621667	1008.606445	-83.013550
30179.702128	-1851.621667	1007.446289	158.313522
30179.702128	-1851.621667	1006.285156	70.504166
30179.702128	-1851.621667	1005.123047	32.722496
30179.702128	-1851.621667	1003.961914	-36.714169
30179.702128	-1851.621667	1002.799805	36.260895
30179.702128	-1851.621667	1001.637695	-102.538315
30179.702128	-1851.621667	1000.475586	146.498703
30179.702128	-1851.621667	999.312500	53.379913
30179.702128	-1851.621667	998.149414	2.956477
30179.702128	-1851.621667	996.986328	38.500507
30179.702128	-1851.621667	995.823242	5.591252
30179.702128	-1851.621667	994.659180	-47.729679
30179.702128	-1851.621667	993.496094	24.936346
30179.702128	-1851.621667	992.332031	-94.786095
30179.702128	-1851.621667	991.166992	132.959549
30179.702128	-1851.621667	990.002930	57.962120
30179.702128	-1851.621667	988.837891	24.857849
30179.702128	-1851.621667	987.672852	27.398413
30179.702128	-1851.621667	986.506836	83.259613
30179.702128	-1851.621667	985.341797	64.998482
30179.702128	-1851.621667	984.175781	121.836578
30179.702128	-1851.621667	983.009766	77.711197
30179.702128	-1851.621667	981.843750	147.866623
30179.702128	-1851.621667	980.676758	-10.538503
30179.702128	-1851.621667	979.509766	23.100155
30179.702128	-1851.621667	978.342773	68.652367
30179.702128	-1851.621667	977.175781	16.332161
30179.702128	-1851.621667	976.007813	31.424107
30179.702128	-1851.621667	974.839844	25.967150
30179.702128	-1851.621667	973.671875	110.992691
30179.702128	-1851.621667	972.503906	79.335854
30179.702128	-1851.621667	971.334961	119.768456
30179.702128	-1851.621667	970.166016	46.328529
30179.702128	-1851.621667	968.997070	48.386822
30179.702128	-1851.621667	967.828125	217.085098
30179.702128	-1851.621667	966.658203	85.686836
30179.702128	-1851.621667	965.488281	-43.440304
30179.702128	-1851.621667	964.318359	-56.195587
30179.702128	-1851.621667	963.148438	47.232670
30179.702128	-1851.621667	961.977539	23.819328
30179.702128	-1851.621667	960.806641	144.665985
30179.702128	-1851.621667	959.635742	-3.177426
30179.702128	-1851.621667	958.463867	-77.768272
30179.702128	-1851.621667	957.292969	-55.568485
30179.702128	-1851.621667	956.121094	-132.181778
30179.702128	-1851.621667	954.948242	-59.926876
30179.702128	-1851.621667	953.776367	-49.488297
30179.702128	-1851.621667	952.603516	-5.272557
30179.702128	-1851.621667	951.430664	7.967037
30179.702128	-1851.621667	950.257813	33.715008
30179.702128	-1851.621667	949.084961	-46.987968
30179.702128	-1851.621667	947.911133	111.167320
30179.702128	-1851.621667	946.737305	-153.682266
30179.702128	-1851.621667	945.563477	68.313042
30179.702128	-1851.621667	944.388672	30.424332
30179.702128	-1851.621667	943.213867	-43.312584
30179.702128	-1851.621667	942.039063	-14.924899
30179.702128	-1851.621667	940.864258	81.452759
30179.702128	-1851.621667	939.688477	50.920071
30179.702128	-1851.621667	938.513672	-54.934303
30179.702128	-1851.621667	937.337891	-8.535673
30179.702128	-1851.621667	936.161133	-66.331680
30179.702128	-1851.621667	934.985352	-8.650609
30179.702128	-1851.621667	933.808594	8.370265
30179.702128	-1851.621667	932.631836	140.976791
30179.702128	-1851.621667	931.454102	107.952644
30179.702128	-1851.621667	930.277344	49.940323
30179.702128	-1851.621667	929.099609	7.710675
30179.702128	-1851.621667	927.921875	-14.015327
30179.702128	-1851.621667	926.743164	30.070873
30179.702128	-1851.621667	925.565430	-3.003905
30179.702128	-1851.621667	924.386719	100.052124
30179.702128	-1851.621667	923.208008	198.536118
30179.702128	-1851.621667	922.028320	108.705338
30179.702128	-1851.621667	920.849609	243.415756
30179.702128	-1851.621667	919.669922	243.171005
30179.702128	-1851.621667	919.474609	153.560516
30179.702128	-1851.621667	918.309570	86.445793
30179.702128	-1851.621667	917.143555	236.921234
30179.702128	-1851.621667	915.977539	176.597534
30179.702128	-1851.621667	914.810547	100.432076
30179.702128	-1851.621667	913.644531	173.779434
30179.702128	-1851.621667	912.477539	47.809669
30179.702128	-1851.621667	911.310547	26.030916
30179.702128	-1851.621667	910.143555	-56.864334
30179.702128	-1851.621667	908.975586	61.686749
30179.702128	-1851.621667	907.807617	107.775818
30179.702128	-1851.621667	906.639648	49.776520
30179.702128	-1851.621667	905.471680	77.740700
30179.702128	-1851.621667	904.303711	-20.946779
30179.702128	-1851.621667	903.134766	77.091812
30179.702128	-1851.621667	901.965820	19.117107
30179.702128	-1851.621667	900.796875	-32.061241
30179.702128	-1851.621667	899.626953	63.639553
30179.702128	-1851.621667	898.457031	-7.872407
30179.702128	-1851.621667	897.287109	-86.137085
30179.702128	-1851.621667	896.117188	-69.537201
30179.702128	-1851.621667	894.947266	-183.892517
30179.702128	-1851.621667	893.776367	-54.434223
30179.702128	-1851.621667	892.605469	56.910812
30179.702128	-1851.621667	891.434570	-30.345125
30179.702128	-1851.621667	890.262695	-45.386879
30179.702128	-1851.621667	889.091797	-31.109695
30179.702128	-1851.621667	887.919922	-48.412640
30179.702128	-1851.621667	886.748047	35.733509
30179.702128	-1851.621667	885.575195	63.490555
30179.702128	-1851.621667	884.403320	-39.471291
30179.702128	-1851.621667	883.230469	24.325817
30179.702128	-1851.621667	882.057617	-11.021513
30179.702128	-1851.621667	880.883789	86.513245
30179.702128	-1851.621667	879.710938	100.692123
30179.702128	-1851.621667	878.537109	-153.031006
30179.702128	-1851.621667	877.362305	-35.288429
30179.702128	-1851.621667	876.188477	44.146744
30179.702128	-1851.621667	875.013672	-51.941074
30179.702128	-1851.621667	873.839844	-13.034455
30179.702128	-1851.621667	872.664063	-79.847466
30179.702128	-1851.621667	871.489258	33.235394
30179.702128	-1851.621667	870.313477	20.379835
30179.702128	-1851.621667	869.138672	-12.702344
30179.702128	-1851.621667	867.962891	37.363037
30179.702128	-1851.621667	866.786133	35.730774
30179.702128	-1851.621667	865.610352	-123.133415
30179.702128	-1851.621667	864.433594	72.874596
30179.702128	-1851.621667	863.256836	8.354378
30179.702128	-1851.621667	862.079102	-35.943047
30179.702128	-1851.621667	860.902344	63.407051
30179.702128	-1851.621667	859.724609	-30.258331
30179.702128	-1851.621667	858.546875	-47.615997
30179.702128	-1851.621667	857.368164	-69.458397
30179.702128	-1851.621667	856.190430	-53.175728
30179.702128	-1851.621667	855.011719	55.015251
30179.702128	-1851.621667	853.833008	4.009524
30179.702128	-1851.621667	852.654297	24.732374
30179.702128	-1851.621667	851.474609	119.380569
30179.702128	-1851.621667	850.294922	-101.874542
30179.702128	-1851.621667	849.115234	8.426986
30179.702128	-1851.621667	847.935547	103.003387
30179.702128	-1851.621667	846.754883	179.625137
30179.702128	-1851.621667	845.575195	39.095440
30179.702128	-1851.621667	844.393555	160.443024
30179.702128	-1851.621667	843.212891	-47.157768
30179.702128	-1851.621667	842.032227	-55.593731
30179.702128	-1851.621667	840.850586	65.681465
30179.702128	-1851.621667	839.668945	151.124817
30179.702128	-1851.621667	838.486328	-54.092365
30179.702128	-1851.621667	837.304688	62.619781
30179.702128	-1851.621667	836.122070	4.977428
30179.702128	-1851.621667	834.939453	99.275482
30179.702128	-1851.621667	833.756836	146.620819
30179.702128	-1851.621667	832.573242	-2.584834
30179.702128	-1851.621667	831.389648	33.584782
30179.702128	-1851.621667	830.206055	136.702850
30179.702128	-1851.621667	829.022461	34.441151
30179.702128	-1851.621667	827.838867	-11.999683
30179.702128	-1851.621667	826.654297	44.194141
30179.702128	-1851.621667	825.469727	75.822914
30179.702128	-1851.621667	824.284180	47.220928
30179.702128	-1851.621667	823.099609	20.854109
30179.702128	-1851.621667	821.914063	52.447266
30179.702128	-1851.621667	820.728516	-69.755951
30179.702128	-1851.621667	819.542969	73.237053
30179.702128	-1851.621667	818.356445	95.866974
30179.702128	-1851.621667	817.169922	-50.791969
30179.702128	-1851.621667	815.983398	-5.892703
30179.702128	-1851.621667	814.796875	134.712616
30179.702128	-1851.621667	813.609375	159.505661
30179.702128	-1851.621667	812.422852	148.675095
30179.702128	-1851.621667	811.235352	213.488571
30179.702128	-1851.621667	810.046875	213.756485
30179.702128	-1851.621667	808.859375	216.240280
30179.702128	-1851.621667	807.670898	143.112839
30179.702128	-1851.621667	806.482422	201.171082
30179.702128	-1851.621667	805.293945	130.282547
30179.702128	-1851.621667	804.104492	212.745728
30179.702128	-1851.621667	802.915039	321.826324
30179.702128	-1851.621667	801.725586	170.963638
30179.702128	-1851.621667	800.536133	226.690231
30179.702128	-1851.621667	799.345703	104.754791
30179.702128	-1851.621667	798.155273	120.494286
30179.702128	-1851.621667	796.964844	169.509140
30179.702128	-1851.621667	795.774414	65.384193
30179.702128	-1851.621667	794.583008	25.629269
30179.702128	-1851.621667	793.392578	61.295506
30179.702128	-1851.621667	792.200195	108.023079
30179.702128	-1851.621667	791.008789	17.258406
30179.702128	-1851.621667	789.816406	70.604790
30179.702128	-1851.621667	788.625000	-124.298218
30179.702128	-1851.621667	787.432617	-33.298031
30179.702128	-1851.621667	786.239258	-19.883615
30179.702128	-1851.621667	785.046875	11.233548
30179.702128	-1851.621667	783.853516	51.183525
30179.702128	-1851.621667	782.660156	68.965469
30179.702128	-1851.621667	781.465820	-26.158928
30179.702128	-1851.621667	780.272461	2.673131
30179.702128	-1851.621667	779.078125	60.242996
30179.702128	-1851.621667	777.883789	4.960499
30179.702128	-1851.621667	776.688477	-83.487427
30179.702128	-1851.621667	775.494141	117.753288
30179.702128	-1851.621667	774.298828	69.085991
30179.702128	-1851.621667	773.103516	-83.456413
30179.702128	-1851.621667	771.907227	106.568329
30179.702128	-1851.621667	770.711914	26.962610
30179.702128	-1851.621667	769.515625	-114.473351
30179.702128	-1851.621667	768.318359	22.395479
30179.702128	-1851.621667	767.122070	-61.602089
30179.702128	-1851.621667	765.924805	106.074821
30179.702128	-1851.621667	764.727539	-19.868954
30179.702128	-1851.621667	763.530273	48.403790
30179.702128	-1851.621667	762.333008	103.396263
30179.702128	-1851.621667	761.134766	56.888977
30179.702128	-1851.621667	759.936523	1.564850
30179.702128	-1851.621667	758.738281	160.108231
30179.702128	-1851.621667	757.540039	-56.158806
30179.702128	-1851.621667	756.340820	-98.250740
30179.702128	-1851.621667	755.141602	-3.733142
30179.702128	-1851.621667	753.942383	-109.736115
30179.702128	-1851.621667	752.742188	44.176041
30179.702128	-1851.621667	751.541992	63.685818
30179.702128	-1851.621667	750.341797	17.124056
30179.702128	-1851.621667	749.141602	-7.425479
30179.702128	-1851.621667	747.941406	-69.392693
30179.702128	-1851.621667	746.740234	143.665848
30179.702128	-1851.621667	745.539063	103.652428
30179.702128	-1851.621667	744.337891	-13.336487
30179.702128	-1851.621667	743.135742	-81.922935
30179.702128	-1851.621667	741.933594	29.761709
30179.702128	-1851.621667	740.731445	156.766052
30179.702128	-1851.621667	739.529297	101.313522
30179.702128	-1851.621667	738.326172	113.968040
30179.702128	-1851.621667	737.124023	190.296844
30179.702128	-1851.621667	735.919922	169.946259
30179.702128	-1851.621667	734.716797	261.558075
30179.702128	-1851.621667	733.513672	245.551239
30179.702128	-1851.621667	732.309570	284.394836
30179.702128	-1851.621667	731.105469	231.045074
30179.702128	-1851.621667	729.900391	39.490063
30179.702128	-1851.621667	728.696289	223.043869
30179.702128	-1851.621667	727.491211	16.177122
30179.702128	-1851.621667	726.286133	76.842148
30179.702128	-1851.621667	725.080078	150.609055
30179.702128	-1851.621667	723.874023	46.816448
30179.702128	-1851.621667	722.668945	-37.235596
30179.702128	-1851.621667	721.461914	25.486349
30179.702128	-1851.621667	720.255859	-12.582335
30179.702128	-1851.621667	719.048828	218.661072
30179.702128	-1851.621667	717.841797	132.357498
30179.702128	-1851.621667	716.634766	109.537987
30179.702128	-1851.621667	715.427734	86.703789
30179.702128	-1851.621667	714.219727	-10.530721
30179.702128	-1851.621667	713.011719	-155.870224
30179.702128	-1851.621667	711.803711	166.812515
30179.702128	-1851.621667	710.594727	117.645981
30179.702128	-1851.621667	709.385742	33.500252
30179.702128	-1851.621667	708.176758	-85.603882
30179.702128	-1851.621667	706.967773	131.808975
30179.702128	-1851.621667	705.758789	45.451000
30179.702128	-1851.621667	704.548828	258.323181
30179.702128	-1851.621667	703.338867	171.919708
30179.702128	-1851.621667	702.127930	26.578417
30179.702128	-1851.621667	700.917969	-29.235357
30179.702128	-1851.621667	699.707031	82.980408
30179.702128	-1851.621667	698.496094	-64.514366
30179.702128	-1851.621667	697.285156	-52.735493
30179.702128	-1851.621667	696.073242	-56.257816
30179.702128	-1851.621667	694.861328	-53.265194
30179.702128	-1851.621667	693.649414	-45.942379
30179.702128	-1851.621667	692.436523	59.425766
30179.702128	-1851.621667	691.224609	81.918686
30179.702128	-1851.621667	690.011719	-4.559070
30179.702128	-1851.621667	688.798828	128.963547
30179.702128	-1851.621667	687.584961	86.006271
30179.702128	-1851.621667	686.372070	149.723953
30179.702128	-1851.621667	685.158203	65.362259
30179.702128	-1851.621667	683.943359	224.752045
30179.702128	-1851.621667	682.729492	131.647385
30179.702128	-1851.621667	681.514648	90.759201
30179.702128	-1851.621667	680.299805	102.056763
30179.702128	-1851.621667	679.084961	24.165415
30179.702128	-1851.621667	677.869141	118.022232
30179.702128	-1851.621667	676.653320	153.122452
30179.702128	-1851.621667	675.437500	49.097794
30179.702128	-1851.621667	674.221680	64.581917
30179.702128	-1851.621667	673.004883	17.032812
30179.702128	-1851.621667	671.789063	10.737751
30179.702128	-1851.621667	670.571289	67.376045
30179.702128	-1851.621667	669.354492	-47.533100
30179.702128	-1851.621667	668.136719	-79.954544
30179.702128	-1851.621667	666.919922	78.560318
30179.702128	-1851.621667	665.701172	0.502051
30179.702128	-1851.621667	664.483398	217.429733
30179.702128	-1851.621667	663.264648	-16.823837
30179.702128	-1851.621667	662.045898	271.495728
30179.702128	-1851.621667	660.827148	74.114891
30179.702128	-1851.621667	659.608398	110.838318
30179.702128	-1851.621667	658.388672	147.511429
30179.702128	-1851.621667	657.168945	43.330631
30179.702128	-1851.621667	655.949219	-19.688999
30179.702128	-1851.621667	654.728516	42.871670
30179.702128	-1851.621667	653.507813	72.900513
30179.702128	-1851.621667	652.287109	72.581596
30179.702128	-1851.621667	651.066406	76.558441
30179.702128	-1851.621667	649.844727	84.824814
30179.702128	-1851.621667	648.623047	38.978180
30179.702128	-1851.621667	647.401367	-91.222176
30179.702128	-1851.621667	646.179688	120.215935
30179.702128	-1851.621667	644.957031	52.672905
30179.702128	-1851.621667	643.734375	49.961678
30179.702128	-1851.621667	642.511719	133.649170
30179.702128	-1851.621667	641.289063	148.138718
30179.702128	-1851.621667	640.065430	26.516237
30179.702128	-1851.621667	638.841797	-56.219193
30179.702128	-1851.621667	637.618164	-15.893204
30179.702128	-1851.621667	636.393555	54.598114
30179.702128	-1851.621667	635.168945	23.600143
30179.702128	-1851.621667	633.944336	-9.575037
30179.702128	-1851.621667	632.719727	-81.596786
30179.702128	-1851.621667	631.494141	90.077217
30179.702128	-1851.621667	630.269531	43.873810
30179.702128	-1851.621667	629.042969	-41.152073
30179.702128	-1851.621667	627.817383	-52.892082
30179.702128	-1851.621667	626.590820	187.451141
30179.702128	-1851.621667	625.365234	132.515564
30179.702128	-1851.621667	624.137695	38.794868
30179.702128	-1851.621667	622.911133	-16.153078
30179.702128	-1851.621667	621.683594	131.267746
30179.702128	-1851.621667	620.456055	-5.539789
30179.702128	-1851.621667	619.228516	-47.629704
30179.702128	-1851.621667	618.000977	-72.520882
30179.702128	-1851.621667	616.772461	-131.854294
30179.702128	-1851.621667	615.543945	43.233006
30179.702128	-1851.621667	614.314453	22.538504
30179.702128	-1851.621667	613.085938	-56.218700
30179.702128	-1851.621667	611.856445	13.327122
30179.702128	-1851.621667	610.626953	1.155275
30179.702128	-1851.621667	609.397461	-99.126595
30179.702128	-1851.621667	608.166992	120.647064
30179.702128	-1851.621667	606.936523	-82.762108
30179.702128	-1851.621667	605.706055	-152.996948
30179.702128	-1851.621667	604.474609	111.633942
30179.702128	-1851.621667	603.244141	56.351559
30179.702128	-1851.621667	602.012695	-26.833647
30179.702128	-1851.621667	600.780273	-167.937073
30179.702128	-1851.621667	599.548828	-146.002731
30179.702128	-1851.621667	598.316406	-61.924561
30179.702128	-1851.621667	597.083984	34.953354
30179.702128	-1851.621667	595.851563	-50.427269
30179.702128	-1851.621667	594.618164	-65.085106
30179.702128	-1851.621667	593.384766	-15.489640
30179.702128	-1851.621667	592.151367	-105.173752
30179.702128	-1851.621667	590.917969	-27.803108
30179.702128	-1851.621667	589.683594	-96.091248
30179.702128	-1851.621667	588.449219	15.439227
30179.702128	-1851.621667	587.214844	-18.637106
30179.702128	-1851.621667	585.979492	97.055061
30179.702128	-1851.621667	584.745117	131.383423
30179.702128	-1851.621667	583.509766	67.282280
30179.702128	-1851.621667	582.273438	-5.373007
30179.702128	-1851.621667	581.038086	105.844948
30179.702128	-1851.621667	579.801758	43.853287
30179.702128	-1851.621667	578.565430	82.304893
30179.702128	-1851.621667	577.329102	77.986336
30179.702128	-1851.621667	576.091797	191.129776
30179.702128	-1851.621667	574.854492	-101.570320
30179.702128	-1851.621667	573.617188	160.984146
30179.702128	-1851.621667	572.378906	34.879314
30179.702128	-1851.621667	571.141602	182.000412
30179.702128	-1851.621667	569.903320	58.038818
30179.702128	-1851.621667	568.664063	27.974939
30179.702128	-1851.621667	567.425781	104.555420
30179.702128	-1851.621667	566.186523	193.874893
30179.702128	-1851.621667	564.947266	-34.530205
30179.702128	-1851.621667	563.708008	39.824989
30179.702128	-1851.621667	562.467773	60.849823
30179.702128	-1851.621667	561.227539	52.020718
30179.702128	-1851.621667	559.987305	77.262505
30179.702128	-1851.621667	558.747070	-25.306118
30179.702128	-1851.621667	557.505859	155.343796
30179.702128	-1851.621667	556.264648	65.542244
30179.702128	-1851.621667	555.023438	305.661835
30179.702128	-1851.621667	553.781250	120.078712
30179.702128	-1851.621667	552.539063	121.778641
30179.702128	-1851.621667	551.296875	95.814919
30179.702128	-1851.621667	550.054688	59.217411
30179.702128	-1851.621667	548.811523	88.529205
30179.702128	-1851.621667	547.569336	181.591568
30179.702128	-1851.621667	546.325195	127.957947
30179.702128	-1851.621667	545.082031	89.215202
30179.702128	-1851.621667	543.837891	35.605679
30179.702128	-1851.621667	542.593750	-32.855434
30179.702128	-1851.621667	541.349609	60.080482
30179.702128	-1851.621667	540.105469	148.723587
30179.702128	-1851.621667	538.860352	-15.253653
30179.702128	-1851.621667	537.615234	162.474518
30179.702128	-1851.621667	536.369141	9.156273
30179.702128	-1851.621667	535.124023	97.707672
30179.702128	-1851.621667	533.877930	264.675720
30179.702128	-1851.621667	532.631836	177.146942
30179.702128	-1851.621667	531.384766	240.149261
30179.702128	-1851.621667	530.138672	307.364410
30179.702128	-1851.621667	528.891602	179.613754
30179.702128	-1851.621667	527.643555	236.209946
30179.702128	-1851.621667	526.396484	127.588562
30179.702128	-1851.621667	525.148438	78.297577
30179.702128	-1851.621667	523.900391	117.942543
30179.702128	-1851.621667	522.652344	-3.286029
30179.702128	-1851.621667	521.403320	65.983055
30179.702128	-1851.621667	520.154297	69.639511
30179.702128	-1851.621667	518.905273	-81.110550
30179.702128	-1851.621667	517.656250	-153.548309
30179.702128	-1851.621667	516.406250	-44.127743
30179.702128	-1851.621667	515.156250	-40.440651
30179.702128	-1851.621667	513.906250	-64.224281
30179.702128	-1851.621667	512.655273	66.246567
30179.702128	-1851.621667	511.404297	27.670126
30179.702128	-1851.621667	510.153320	-8.770485
30179.702128	-1851.621667	508.902344	-142.319870
30179.702128	-1851.621667	507.650391	-77.366119
30179.702128	-1851.621667	506.398438	29.780630
30179.702128	-1851.621667	505.146484	-23.484127
30179.702128	-1851.621667	503.893555	-11.319469
30179.702128	-1851.621667	502.641602	-24.458101
30179.702128	-1851.621667	501.388672	6.700288
30179.702128	-1851.621667	500.134766	63.151760
30179.702128	-1851.621667	498.881836	-25.852600
30179.702128	-1851.621667	497.627930	79.075134
30179.702128	-1851.621667	496.374023	70.191048
30179.702128	-1851.621667	495.119141	19.186625
30179.702128	-1851.621667	493.865234	-113.916695
30179.702128	-1851.621667	492.610352	20.462891
30179.702128	-1851.621667	491.355469	32.696098
30179.702128	-1851.621667	490.099609	-79.246803
30179.702128	-1851.621667	488.843750	-155.354538
30179.702128	-1851.621667	487.587891	25.252052
30179.702128	-1851.621667	486.332031	-63.438034
30179.702128	-1851.621667	485.075195	-25.903772
30179.702128	-1851.621667	483.818359	34.755615
30179.702128	-1851.621667	482.561523	26.036875
30179.702128	-1851.621667	481.304688	25.742870
30179.702128	-1851.621667	480.046875	33.864792
30179.702128	-1851.621667	478.789063	56.702194
30179.702128	-1851.621667	477.531250	115.248779
30179.702128	-1851.621667	476.272461	-109.685951
30179.702128	-1851.621667	475.013672	-38.506672
30179.702128	-1851.621667	473.754883	-40.802780
30179.702128	-1851.621667	472.496094	-76.657356
30179.702128	-1851.621667	471.236328	11.293234
30179.702128	-1851.621667	469.976563	-30.823654
30179.702128	-1851.621667	468.716797	-5.802628
30179.702128	-1851.621667	467.456055	59.053368
30179.702128	-1851.621667	466.196289	52.630806
30179.702128	-1851.621667	464.935547	42.029999
30179.702128	-1851.621667	463.673828	142.490402
30179.702128	-1851.621667	462.413086	35.541836
30179.702128	-1851.621667	461.151367	-10.616309
30179.702128	-1851.621667	459.889648	144.269363
30179.702128	-1851.621667	458.626953	158.837616
30179.702128	-1851.621667	457.364258	244.571671
30179.702128	-1851.621667	456.101563	77.084740
30179.702128	-1851.621667	454.838867	118.886871
30179.702128	-1851.621667	453.575195	196.233871
30179.702128	-1851.621667	452.312500	269.377625
30179.702128	-1851.621667	451.047852	235.864151
30179.702128	-1851.621667	449.784180	204.466080
30179.702128	-1851.621667	448.519531	321.459625
30179.702128	-1851.621667	447.254883	379.906189
30179.702128	-1851.621667	445.990234	440.420410
30179.702128	-1851.621667	444.725586	548.946045
30179.702128	-1851.621667	443.459961	644.894165
30179.702128	-1851.621667	442.194336	605.111023
30179.702128	-1851.621667	440.927734	646.737671
30179.702128	-1851.621667	439.662109	404.563751
30179.702128	-1851.621667	438.395508	479.588745
30179.702128	-1851.621667	437.127930	483.657318
30179.702128	-1851.621667	435.861328	331.324646
30179.702128	-1851.621667	434.593750	308.305695
30179.702128	-1851.621667	433.326172	172.729431
30179.702128	-1851.621667	432.058594	283.104279
30179.702128	-1851.621667	430.790039	410.081757
30179.702128	-1851.621667	429.521484	424.504517
30179.702128	-1851.621667	428.252930	497.215637
30179.702128	-1851.621667	426.984375	532.396545
30179.702128	-1851.621667	425.714844	415.573425
30179.702128	-1851.621667	424.445313	515.223816
30179.702128	-1851.621667	423.174805	437.934113
30179.702128	-1851.621667	421.905273	350.250549
30179.702128	-1851.621667	420.634766	370.721802
30179.702128	-1851.621667	419.364258	482.643463
30179.702128	-1851.621667	418.092773	392.814362
30179.702128	-1851.621667	416.822266	463.033417
30179.702128	-1851.621667	415.550781	468.753479
30179.702128	-1851.621667	414.278320	414.169037
30179.702128	-1851.621667	413.006836	295.168671
30179.702128	-1851.621667	411.734375	236.387329
30179.702128	-1851.621667	410.461914	279.310455
30179.702128	-1851.621667	409.188477	257.799774
30179.702128	-1851.621667	407.916016	134.544022
30179.702128	-1851.621667	406.642578	239.509369
30179.702128	-1851.621667	405.368164	217.808838
30179.702128	-1851.621667	404.094727	187.749207
30179.702128	-1851.621667	402.820313	242.632843
30179.702128	-1851.621667	401.545898	131.556885
30179.702128	-1851.621667	400.270508	5.925214
30179.702128	-1851.621667	398.996094	79.190117
30179.702128	-1851.621667	397.720703	67.375496
30179.702128	-1851.621667	396.444336	74.097229
30179.702128	-1851.621667	395.168945	35.151344
30179.702128	-1851.621667	393.892578	12.664817
30179.702128	-1851.621667	392.616211	-43.053364
30179.702128	-1851.621667	391.339844	45.991688
30179.702128	-1851.621667	390.062500	74.856750
30179.702128	-1851.621667	388.785156	51.854481
30179.702128	-1851.621667	387.507813	32.852806
30179.702128	-1851.621667	386.229492	13.702082
30179.702128	-1851.621667	384.951172	-46.944908
30179.702128	-1851.621667	383.672852	-95.329178
30179.702128	-1851.621667	382.394531	-61.209999
30179.702128	-1851.621667	381.115234	127.652382
30179.702128	-1851.621667	379.835938	0.229325
30179.702128	-1851.621667	378.556641	139.054932
30179.702128	-1851.621667	377.277344	44.321331
30179.702128	-1851.621667	375.997070	29.913353
30179.702128	-1851.621667	374.716797	-131.227661
30179.702128	-1851.621667	373.435547	-9.870472
30179.702128	-1851.621667	372.155273	100.891457
30179.702128	-1851.621667	370.874023	60.804573
30179.702128	-1851.621667	369.591797	1.917084
30179.702128	-1851.621667	368.310547	-13.909479
30179.702128	-1851.621667	367.028320	15.332228
30179.702128	-1851.621667	365.746094	54.582214
30179.702128	-1851.621667	364.463867	-30.081907
30179.702128	-1851.621667	363.180664	-40.872772
30179.702128	-1851.621667	361.897461	32.454697
30179.702128	-1851.621667	360.614258	130.131180
30179.702128	-1851.621667	359.330078	130.682281
30179.702128	-1851.621667	358.045898	176.158661
30179.702128	-1851.621667	356.761719	303.553894
30179.702128	-1851.621667	355.477539	288.594635
30179.702128	-1851.621667	354.192383	324.662262
30179.702128	-1851.621667	352.907227	376.768341
30179.702128	-1851.621667	351.622070	284.553223
30179.702128	-1851.621667	350.336914	255.667816
30179.702128	-1851.621667	349.050781	246.896805
30179.702128	-1851.621667	347.764648	301.365051
30179.702128	-1851.621667	346.477539	182.815903
30179.702128	-1851.621667	345.191406	297.938385
30179.702128	-1851.621667	343.904297	143.576630
30179.702128	-1851.621667	342.616211	42.127529
30179.702128	-1851.621667	341.329102	143.365326
30179.702128	-1851.621667	340.041016	98.347672
30179.702128	-1851.621667	338.752930	147.148819
30179.702128	-1851.621667	337.463867	12.835229
30179.702128	-1851.621667	336.175781	35.877853
30179.702128	-1851.621667	334.886719	-19.599091
30179.702128	-1851.621667	333.596680	-38.800468
30179.702128	-1851.621667	332.307617	-191.791794
30179.702128	-1851.621667	331.017578	-148.739853
30179.702128	-1851.621667	329.727539	84.081490
30179.702128	-1851.621667	328.436523	17.148252
30179.702128	-1851.621667	327.146484	90.799225
30179.702128	-1851.621667	325.855469	1.980655
30179.702128	-1851.621667	324.563477	-36.417160
30179.702128	-1851.621667	323.272461	-46.912262
30179.702128	-1851.621667	321.980469	-123.667992
30179.702128	-1851.621667	320.688477	97.341942
30179.702128	-1851.621667	319.395508	-5.622886
30179.702128	-1851.621667	318.103516	-62.370865
30179.702128	-1851.621667	316.810547	139.526154
30179.702128	-1851.621667	315.516602	70.716835
30179.702128	-1851.621667	314.223633	60.266445
30179.702128	-1851.621667	312.929688	85.598206
30179.702128	-1851.621667	311.635742	132.396881
30179.702128	-1851.621667	310.340820	71.994499
30179.702128	-1851.621667	309.045898	-24.109276
30179.702128	-1851.621667	307.750977	-86.543518
30179.702128	-1851.621667	306.456055	-147.995895
30179.702128	-1851.621667	305.160156	-10.693778
30179.702128	-1851.621667	303.865234	192.727325
30179.702128	-1851.621667	302.568359	52.338833
30179.702128	-1851.621667	301.272461	2.562424
30179.702128	-1851.621667	299.975586	61.582497
30179.702128	-1851.621667	298.678711	107.092888
