#X		#Y		#Wave		#Intensity
29986.893617	-1636.168333	1999.980469	57.907917
29986.893617	-1636.168333	1999.016602	25.458529
29986.893617	-1636.168333	1998.052734	41.952213
29986.893617	-1636.168333	1997.087891	-10.964047
29986.893617	-1636.168333	1996.123047	10.454374
29986.893617	-1636.168333	1995.158203	-114.305222
29986.893617	-1636.168333	1994.193359	-85.473572
29986.893617	-1636.168333	1993.228516	-2.187192
29986.893617	-1636.168333	1992.262695	1.828671
29986.893617	-1636.168333	1991.297852	47.913219
29986.893617	-1636.168333	1990.332031	17.246838
29986.893617	-1636.168333	1989.366211	36.070225
29986.893617	-1636.168333	1988.399414	-2.025312
29986.893617	-1636.168333	1987.433594	58.825565
29986.893617	-1636.168333	1986.466797	-80.674202
29986.893617	-1636.168333	1985.500977	54.330250
29986.893617	-1636.168333	1984.534180	53.308147
29986.893617	-1636.168333	1983.567383	5.316812
29986.893617	-1636.168333	1982.599609	-52.548687
29986.893617	-1636.168333	1981.632813	-95.573883
29986.893617	-1636.168333	1980.665039	9.630516
29986.893617	-1636.168333	1979.697266	8.586399
29986.893617	-1636.168333	1978.729492	89.028358
29986.893617	-1636.168333	1977.761719	-112.024132
29986.893617	-1636.168333	1976.792969	54.799053
29986.893617	-1636.168333	1975.825195	-12.905828
29986.893617	-1636.168333	1974.856445	-28.770117
29986.893617	-1636.168333	1973.887695	9.645500
29986.893617	-1636.168333	1972.918945	-8.688385
29986.893617	-1636.168333	1971.949219	-88.672981
29986.893617	-1636.168333	1970.980469	-13.287259
29986.893617	-1636.168333	1970.010742	-61.195354
29986.893617	-1636.168333	1969.041016	31.408449
29986.893617	-1636.168333	1968.071289	27.866995
29986.893617	-1636.168333	1967.101563	-2.776196
29986.893617	-1636.168333	1966.130859	99.617630
29986.893617	-1636.168333	1965.161133	-14.769182
29986.893617	-1636.168333	1964.190430	58.039539
29986.893617	-1636.168333	1963.219727	-26.751148
29986.893617	-1636.168333	1962.249023	58.342899
29986.893617	-1636.168333	1961.277344	104.027275
29986.893617	-1636.168333	1960.306641	36.504528
29986.893617	-1636.168333	1959.334961	-13.770453
29986.893617	-1636.168333	1958.363281	4.849718
29986.893617	-1636.168333	1957.391602	1.331061
29986.893617	-1636.168333	1956.419922	-21.854801
29986.893617	-1636.168333	1955.447266	1.680061
29986.893617	-1636.168333	1954.474609	66.994118
29986.893617	-1636.168333	1953.501953	97.881721
29986.893617	-1636.168333	1952.529297	8.365730
29986.893617	-1636.168333	1951.556641	17.149897
29986.893617	-1636.168333	1950.583984	13.653299
29986.893617	-1636.168333	1949.610352	71.552895
29986.893617	-1636.168333	1948.636719	109.793076
29986.893617	-1636.168333	1947.663086	76.834389
29986.893617	-1636.168333	1946.689453	90.523628
29986.893617	-1636.168333	1945.715820	141.019318
29986.893617	-1636.168333	1944.741211	73.736931
29986.893617	-1636.168333	1943.767578	-0.874669
29986.893617	-1636.168333	1942.792969	7.929652
29986.893617	-1636.168333	1941.818359	16.734821
29986.893617	-1636.168333	1940.842773	1.024894
29986.893617	-1636.168333	1939.868164	-110.267929
29986.893617	-1636.168333	1938.892578	62.760670
29986.893617	-1636.168333	1937.916992	86.267113
29986.893617	-1636.168333	1936.941406	-5.368454
29986.893617	-1636.168333	1935.965820	37.745106
29986.893617	-1636.168333	1934.990234	85.744774
29986.893617	-1636.168333	1934.013672	23.553787
29986.893617	-1636.168333	1933.037109	34.828026
29986.893617	-1636.168333	1932.060547	77.919533
29986.893617	-1636.168333	1931.083984	-13.586007
29986.893617	-1636.168333	1930.107422	-100.159561
29986.893617	-1636.168333	1929.129883	62.804485
29986.893617	-1636.168333	1928.153320	-28.633680
29986.893617	-1636.168333	1927.175781	41.348274
29986.893617	-1636.168333	1926.198242	-1.149030
29986.893617	-1636.168333	1925.219727	98.141396
29986.893617	-1636.168333	1924.242188	55.657856
29986.893617	-1636.168333	1923.263672	-55.219692
29986.893617	-1636.168333	1922.285156	0.065644
29986.893617	-1636.168333	1921.306641	-37.478638
29986.893617	-1636.168333	1920.328125	56.862488
29986.893617	-1636.168333	1919.349609	9.563308
29986.893617	-1636.168333	1918.370117	-13.303521
29986.893617	-1636.168333	1917.391602	59.026379
29986.893617	-1636.168333	1916.412109	-5.316754
29986.893617	-1636.168333	1915.431641	-1.320300
29986.893617	-1636.168333	1914.452148	46.584770
29986.893617	-1636.168333	1913.472656	-27.464451
29986.893617	-1636.168333	1912.492188	20.434278
29986.893617	-1636.168333	1911.511719	36.626080
29986.893617	-1636.168333	1910.531250	33.315189
29986.893617	-1636.168333	1909.550781	39.756630
29986.893617	-1636.168333	1908.569336	48.634617
29986.893617	-1636.168333	1907.588867	33.151897
29986.893617	-1636.168333	1906.607422	32.291046
29986.893617	-1636.168333	1905.625977	-46.492016
29986.893617	-1636.168333	1904.644531	1.361417
29986.893617	-1636.168333	1903.662109	-94.421707
29986.893617	-1636.168333	1902.680664	-22.234621
29986.893617	-1636.168333	1901.698242	20.727022
29986.893617	-1636.168333	1900.715820	-87.164375
29986.893617	-1636.168333	1899.733398	6.878407
29986.893617	-1636.168333	1898.750000	-3.687713
29986.893617	-1636.168333	1897.767578	-40.994778
29986.893617	-1636.168333	1896.784180	-102.597549
29986.893617	-1636.168333	1895.800781	-15.908570
29986.893617	-1636.168333	1894.817383	-58.049564
29986.893617	-1636.168333	1893.833984	-61.298512
29986.893617	-1636.168333	1892.850586	-32.965145
29986.893617	-1636.168333	1891.866211	-21.643560
29986.893617	-1636.168333	1890.881836	-10.325659
29986.893617	-1636.168333	1889.897461	-40.286015
29986.893617	-1636.168333	1888.913086	-19.258667
29986.893617	-1636.168333	1887.927734	137.671295
29986.893617	-1636.168333	1886.943359	-62.156757
29986.893617	-1636.168333	1885.958008	-45.989986
29986.893617	-1636.168333	1884.972656	81.748306
29986.893617	-1636.168333	1883.987305	-20.952299
29986.893617	-1636.168333	1883.001953	101.882645
29986.893617	-1636.168333	1882.015625	54.972740
29986.893617	-1636.168333	1881.029297	141.388092
29986.893617	-1636.168333	1880.042969	-14.565090
29986.893617	-1636.168333	1879.056641	3.987067
29986.893617	-1636.168333	1878.070313	0.728712
29986.893617	-1636.168333	1877.083984	58.019295
29986.893617	-1636.168333	1876.096680	52.326210
29986.893617	-1636.168333	1875.109375	0.632643
29986.893617	-1636.168333	1874.122070	45.780952
29986.893617	-1636.168333	1873.134766	18.304907
29986.893617	-1636.168333	1872.146484	70.686531
29986.893617	-1636.168333	1871.159180	-10.013363
29986.893617	-1636.168333	1870.170898	47.185814
29986.893617	-1636.168333	1869.182617	82.594894
29986.893617	-1636.168333	1868.194336	14.017669
29986.893617	-1636.168333	1867.205078	105.013786
29986.893617	-1636.168333	1866.216797	63.037392
29986.893617	-1636.168333	1865.227539	40.405231
29986.893617	-1636.168333	1864.238281	-105.443428
29986.893617	-1636.168333	1863.249023	-62.821991
29986.893617	-1636.168333	1862.259766	-104.752357
29986.893617	-1636.168333	1861.269531	12.700110
29986.893617	-1636.168333	1860.279297	43.189781
29986.893617	-1636.168333	1859.290039	32.628372
29986.893617	-1636.168333	1858.298828	70.332542
29986.893617	-1636.168333	1857.308594	-2.976614
29986.893617	-1636.168333	1856.318359	5.760033
29986.893617	-1636.168333	1855.327148	-36.165001
29986.893617	-1636.168333	1854.335938	107.609726
29986.893617	-1636.168333	1853.344727	-11.485534
29986.893617	-1636.168333	1852.353516	-24.473896
29986.893617	-1636.168333	1851.362305	116.788765
29986.893617	-1636.168333	1850.370117	-38.406773
29986.893617	-1636.168333	1849.377930	90.745300
29986.893617	-1636.168333	1848.385742	-13.814998
29986.893617	-1636.168333	1847.393555	-9.965750
29986.893617	-1636.168333	1846.401367	-22.980797
29986.893617	-1636.168333	1845.408203	130.117371
29986.893617	-1636.168333	1844.415039	-32.169823
29986.893617	-1636.168333	1843.421875	-76.481720
29986.893617	-1636.168333	1842.428711	-7.696874
29986.893617	-1636.168333	1841.435547	-37.578629
29986.893617	-1636.168333	1840.441406	45.587563
29986.893617	-1636.168333	1839.448242	-29.999678
29986.893617	-1636.168333	1838.454102	-76.715797
29986.893617	-1636.168333	1837.459961	-96.980476
29986.893617	-1636.168333	1836.464844	58.201817
29986.893617	-1636.168333	1835.470703	102.781471
29986.893617	-1636.168333	1834.475586	60.844902
29986.893617	-1636.168333	1833.480469	9.306447
29986.893617	-1636.168333	1832.485352	-99.860153
29986.893617	-1636.168333	1831.490234	16.712397
29986.893617	-1636.168333	1830.495117	85.217316
29986.893617	-1636.168333	1829.499023	0.071231
29986.893617	-1636.168333	1828.502930	3.739067
29986.893617	-1636.168333	1827.506836	64.979729
29986.893617	-1636.168333	1826.510742	18.237177
29986.893617	-1636.168333	1825.513672	-28.498510
29986.893617	-1636.168333	1824.517578	39.876354
29986.893617	-1636.168333	1823.520508	-47.624756
29986.893617	-1636.168333	1822.523438	-89.559303
29986.893617	-1636.168333	1821.526367	-14.054598
29986.893617	-1636.168333	1820.529297	49.429760
29986.893617	-1636.168333	1819.531250	50.590099
29986.893617	-1636.168333	1818.533203	25.390732
29986.893617	-1636.168333	1817.535156	124.719490
29986.893617	-1636.168333	1816.537109	116.253258
29986.893617	-1636.168333	1815.539063	88.627434
29986.893617	-1636.168333	1814.540039	39.458458
29986.893617	-1636.168333	1813.541992	69.266052
29986.893617	-1636.168333	1812.542969	87.087143
29986.893617	-1636.168333	1811.543945	49.871017
29986.893617	-1636.168333	1810.543945	-11.260312
29986.893617	-1636.168333	1809.544922	104.568436
29986.893617	-1636.168333	1808.544922	14.736170
29986.893617	-1636.168333	1807.544922	142.442200
29986.893617	-1636.168333	1806.544922	16.764091
29986.893617	-1636.168333	1805.544922	96.608482
29986.893617	-1636.168333	1804.544922	66.518745
29986.893617	-1636.168333	1803.543945	-42.393162
29986.893617	-1636.168333	1802.542969	-22.323124
29986.893617	-1636.168333	1801.541992	83.679230
29986.893617	-1636.168333	1800.541016	3.432419
29986.893617	-1636.168333	1799.539063	42.535660
29986.893617	-1636.168333	1798.538086	-18.609600
29986.893617	-1636.168333	1797.536133	154.059875
29986.893617	-1636.168333	1796.534180	-31.147806
29986.893617	-1636.168333	1795.532227	91.349579
29986.893617	-1636.168333	1794.529297	96.949280
29986.893617	-1636.168333	1793.527344	7.175689
29986.893617	-1636.168333	1792.524414	62.815796
29986.893617	-1636.168333	1791.521484	58.844547
29986.893617	-1636.168333	1790.518555	-23.765211
29986.893617	-1636.168333	1789.514648	-49.186832
29986.893617	-1636.168333	1788.511719	37.328819
29986.893617	-1636.168333	1787.507813	102.365257
29986.893617	-1636.168333	1786.503906	-1.674288
29986.893617	-1636.168333	1785.500000	70.457710
29986.893617	-1636.168333	1784.496094	94.950424
29986.893617	-1636.168333	1783.491211	62.311340
29986.893617	-1636.168333	1782.486328	86.766762
29986.893617	-1636.168333	1781.481445	80.277344
29986.893617	-1636.168333	1780.476563	121.337944
29986.893617	-1636.168333	1779.471680	67.262733
29986.893617	-1636.168333	1778.465820	-15.333911
29986.893617	-1636.168333	1777.460938	11.417819
29986.893617	-1636.168333	1776.455078	31.014986
29986.893617	-1636.168333	1775.449219	-53.947102
29986.893617	-1636.168333	1774.442383	-36.750359
29986.893617	-1636.168333	1773.436523	208.421188
29986.893617	-1636.168333	1772.429688	14.202204
29986.893617	-1636.168333	1771.422852	9.966129
29986.893617	-1636.168333	1770.416016	19.958567
29986.893617	-1636.168333	1769.409180	58.410229
29986.893617	-1636.168333	1768.402344	1.924874
29986.893617	-1636.168333	1767.394531	-21.343214
29986.893617	-1636.168333	1766.386719	-20.899414
29986.893617	-1636.168333	1765.378906	55.412529
29986.893617	-1636.168333	1764.371094	-20.055807
29986.893617	-1636.168333	1763.362305	1.676227
29986.893617	-1636.168333	1762.354492	42.346565
29986.893617	-1636.168333	1761.345703	42.703609
29986.893617	-1636.168333	1760.336914	40.676640
29986.893617	-1636.168333	1759.328125	-34.791687
29986.893617	-1636.168333	1758.318359	-34.465408
29986.893617	-1636.168333	1757.308594	-27.050928
29986.893617	-1636.168333	1756.299805	48.999062
29986.893617	-1636.168333	1755.290039	-69.076218
29986.893617	-1636.168333	1754.279297	-80.635170
29986.893617	-1636.168333	1753.269531	-11.761385
29986.893617	-1636.168333	1752.258789	7.395370
29986.893617	-1636.168333	1751.249023	47.817001
29986.893617	-1636.168333	1750.238281	-63.125565
29986.893617	-1636.168333	1749.226563	48.186092
29986.893617	-1636.168333	1748.215820	36.531319
29986.893617	-1636.168333	1747.204102	-62.574249
29986.893617	-1636.168333	1746.193359	53.358032
29986.893617	-1636.168333	1745.181641	-29.205078
29986.893617	-1636.168333	1744.168945	58.302349
29986.893617	-1636.168333	1743.157227	110.342674
29986.893617	-1636.168333	1742.144531	65.547379
29986.893617	-1636.168333	1741.132813	-61.861607
29986.893617	-1636.168333	1740.120117	-45.272861
29986.893617	-1636.168333	1739.106445	101.073166
29986.893617	-1636.168333	1738.093750	9.074505
29986.893617	-1636.168333	1737.080078	68.053696
29986.893617	-1636.168333	1736.067383	30.309221
29986.893617	-1636.168333	1735.053711	-26.298838
29986.893617	-1636.168333	1734.040039	-28.679420
29986.893617	-1636.168333	1733.025391	53.775002
29986.893617	-1636.168333	1732.011719	1.867172
29986.893617	-1636.168333	1730.997070	166.717819
29986.893617	-1636.168333	1729.982422	65.312851
29986.893617	-1636.168333	1728.967773	-50.197514
29986.893617	-1636.168333	1727.952148	3.857683
29986.893617	-1636.168333	1726.937500	74.360168
29986.893617	-1636.168333	1725.921875	88.330727
29986.893617	-1636.168333	1724.906250	-43.623116
29986.893617	-1636.168333	1723.890625	-27.308624
29986.893617	-1636.168333	1722.875000	-3.955687
29986.893617	-1636.168333	1721.858398	0.558011
29986.893617	-1636.168333	1720.841797	23.869610
29986.893617	-1636.168333	1719.825195	-68.042763
29986.893617	-1636.168333	1718.808594	4.611037
29986.893617	-1636.168333	1717.791992	-26.182800
29986.893617	-1636.168333	1716.774414	-26.432621
29986.893617	-1636.168333	1715.756836	46.132813
29986.893617	-1636.168333	1714.739258	-50.456360
29986.893617	-1636.168333	1713.721680	195.841476
29986.893617	-1636.168333	1712.704102	68.713692
29986.893617	-1636.168333	1711.685547	148.198532
29986.893617	-1636.168333	1710.667969	28.146362
29986.893617	-1636.168333	1709.649414	-66.060791
29986.893617	-1636.168333	1708.630859	-85.167473
29986.893617	-1636.168333	1707.611328	-38.601055
29986.893617	-1636.168333	1706.592773	-76.489838
29986.893617	-1636.168333	1705.573242	-67.481659
29986.893617	-1636.168333	1704.553711	9.497593
29986.893617	-1636.168333	1703.534180	93.468300
29986.893617	-1636.168333	1702.513672	-7.736686
29986.893617	-1636.168333	1701.494141	94.927528
29986.893617	-1636.168333	1700.473633	56.988564
29986.893617	-1636.168333	1699.453125	-9.051204
29986.893617	-1636.168333	1698.432617	126.303970
29986.893617	-1636.168333	1697.412109	-49.779034
29986.893617	-1636.168333	1696.390625	-43.229858
29986.893617	-1636.168333	1695.369141	-1.588813
29986.893617	-1636.168333	1694.347656	42.366417
29986.893617	-1636.168333	1693.326172	-86.818375
29986.893617	-1636.168333	1692.304688	76.402611
29986.893617	-1636.168333	1691.282227	134.318207
29986.893617	-1636.168333	1690.260742	23.866560
29986.893617	-1636.168333	1689.238281	-116.942207
29986.893617	-1636.168333	1688.214844	29.759222
29986.893617	-1636.168333	1687.192383	-59.607056
29986.893617	-1636.168333	1686.168945	-22.793175
29986.893617	-1636.168333	1685.146484	42.029732
29986.893617	-1636.168333	1684.123047	4.062634
29986.893617	-1636.168333	1683.099609	-187.999802
29986.893617	-1636.168333	1682.075195	-53.178139
29986.893617	-1636.168333	1681.051758	-88.794563
29986.893617	-1636.168333	1680.027344	48.274200
29986.893617	-1636.168333	1679.002930	3.302199
29986.893617	-1636.168333	1677.978516	123.957314
29986.893617	-1636.168333	1676.953125	11.338355
29986.893617	-1636.168333	1675.928711	36.329971
29986.893617	-1636.168333	1674.903320	14.677467
29986.893617	-1636.168333	1673.877930	55.959114
29986.893617	-1636.168333	1672.852539	78.575470
29986.893617	-1636.168333	1671.826172	14.966631
29986.893617	-1636.168333	1670.800781	65.523163
29986.893617	-1636.168333	1669.774414	-5.057775
29986.893617	-1636.168333	1668.748047	168.884155
29986.893617	-1636.168333	1667.721680	210.049561
29986.893617	-1636.168333	1666.694336	195.326508
29986.893617	-1636.168333	1665.667969	164.315598
29986.893617	-1636.168333	1664.640625	133.308884
29986.893617	-1636.168333	1663.613281	155.815155
29986.893617	-1636.168333	1662.585938	20.147066
29986.893617	-1636.168333	1661.557617	49.630909
29986.893617	-1636.168333	1660.530273	11.676386
29986.893617	-1636.168333	1659.501953	82.983513
29986.893617	-1636.168333	1658.473633	24.109402
29986.893617	-1636.168333	1657.444336	14.048549
29986.893617	-1636.168333	1656.416016	64.392815
29986.893617	-1636.168333	1655.386719	49.674950
29986.893617	-1636.168333	1654.358398	27.994640
29986.893617	-1636.168333	1653.328125	96.866982
29986.893617	-1636.168333	1652.298828	51.963264
29986.893617	-1636.168333	1651.269531	169.540436
29986.893617	-1636.168333	1650.239258	101.426964
29986.893617	-1636.168333	1649.208984	102.938774
29986.893617	-1636.168333	1648.178711	34.859257
29986.893617	-1636.168333	1647.148438	198.719589
29986.893617	-1636.168333	1646.117188	123.685394
29986.893617	-1636.168333	1645.086914	-62.595760
29986.893617	-1636.168333	1644.055664	59.459637
29986.893617	-1636.168333	1643.024414	130.484421
29986.893617	-1636.168333	1641.992188	182.942535
29986.893617	-1636.168333	1640.960938	272.445190
29986.893617	-1636.168333	1639.928711	77.040016
29986.893617	-1636.168333	1638.896484	185.048798
29986.893617	-1636.168333	1637.864258	15.201198
29986.893617	-1636.168333	1636.832031	44.480080
29986.893617	-1636.168333	1635.798828	96.887489
29986.893617	-1636.168333	1634.766602	149.276566
29986.893617	-1636.168333	1633.733398	245.596298
29986.893617	-1636.168333	1632.699219	277.116394
29986.893617	-1636.168333	1631.666016	271.627991
29986.893617	-1636.168333	1630.632813	270.766418
29986.893617	-1636.168333	1629.598633	165.885315
29986.893617	-1636.168333	1628.564453	190.465897
29986.893617	-1636.168333	1627.530273	210.417023
29986.893617	-1636.168333	1626.495117	147.192932
29986.893617	-1636.168333	1625.460938	261.846405
29986.893617	-1636.168333	1624.425781	272.537201
29986.893617	-1636.168333	1623.390625	260.137604
29986.893617	-1636.168333	1622.355469	190.035263
29986.893617	-1636.168333	1621.319336	138.423416
29986.893617	-1636.168333	1620.284180	271.435394
29986.893617	-1636.168333	1619.248047	349.027130
29986.893617	-1636.168333	1618.211914	193.626297
29986.893617	-1636.168333	1617.174805	298.880035
29986.893617	-1636.168333	1616.138672	212.726364
29986.893617	-1636.168333	1615.101563	403.236176
29986.893617	-1636.168333	1614.065430	439.256104
29986.893617	-1636.168333	1613.027344	237.914520
29986.893617	-1636.168333	1611.990234	483.612488
29986.893617	-1636.168333	1610.953125	328.419769
29986.893617	-1636.168333	1609.915039	343.711243
29986.893617	-1636.168333	1608.876953	280.714478
29986.893617	-1636.168333	1607.838867	279.903717
29986.893617	-1636.168333	1606.800781	338.940765
29986.893617	-1636.168333	1605.761719	354.235260
29986.893617	-1636.168333	1604.723633	305.109589
29986.893617	-1636.168333	1603.684570	394.024414
29986.893617	-1636.168333	1602.644531	466.809296
29986.893617	-1636.168333	1601.605469	486.687256
29986.893617	-1636.168333	1600.566406	529.552734
29986.893617	-1636.168333	1599.526367	478.166504
29986.893617	-1636.168333	1598.486328	396.932220
29986.893617	-1636.168333	1597.446289	396.151825
29986.893617	-1636.168333	1596.405273	379.296539
29986.893617	-1636.168333	1595.365234	534.710083
29986.893617	-1636.168333	1594.324219	407.627228
29986.893617	-1636.168333	1593.283203	448.195740
29986.893617	-1636.168333	1592.242188	504.823486
29986.893617	-1636.168333	1591.200195	414.558868
29986.893617	-1636.168333	1590.159180	328.928650
29986.893617	-1636.168333	1589.117188	422.271667
29986.893617	-1636.168333	1588.075195	421.549591
29986.893617	-1636.168333	1587.032227	326.815247
29986.893617	-1636.168333	1585.990234	390.323395
29986.893617	-1636.168333	1584.947266	387.338684
29986.893617	-1636.168333	1583.904297	276.649628
29986.893617	-1636.168333	1582.861328	347.028198
29986.893617	-1636.168333	1581.818359	389.897583
29986.893617	-1636.168333	1580.775391	432.759705
29986.893617	-1636.168333	1579.731445	315.312927
29986.893617	-1636.168333	1578.687500	319.266876
29986.893617	-1636.168333	1577.643555	307.205750
29986.893617	-1636.168333	1576.598633	311.177521
29986.893617	-1636.168333	1575.554688	347.194550
29986.893617	-1636.168333	1574.509766	342.026093
29986.893617	-1636.168333	1573.464844	391.765533
29986.893617	-1636.168333	1572.419922	233.392029
29986.893617	-1636.168333	1571.374023	280.865723
29986.893617	-1636.168333	1570.329102	168.316833
29986.893617	-1636.168333	1569.283203	284.371338
29986.893617	-1636.168333	1568.237305	192.451416
29986.893617	-1636.168333	1567.191406	306.193756
29986.893617	-1636.168333	1566.144531	223.462814
29986.893617	-1636.168333	1565.098633	273.233154
29986.893617	-1636.168333	1564.051758	286.461700
29986.893617	-1636.168333	1563.004883	434.382843
29986.893617	-1636.168333	1561.957031	290.113586
29986.893617	-1636.168333	1560.910156	472.228973
29986.893617	-1636.168333	1559.862305	375.943787
29986.893617	-1636.168333	1558.814453	313.924530
29986.893617	-1636.168333	1557.766602	336.323212
29986.893617	-1636.168333	1556.718750	383.807434
29986.893617	-1636.168333	1555.669922	472.317963
29986.893617	-1636.168333	1554.621094	481.033478
29986.893617	-1636.168333	1553.573242	451.021698
29986.893617	-1636.168333	1552.523438	518.999817
29986.893617	-1636.168333	1551.474609	425.236267
29986.893617	-1636.168333	1550.424805	249.533966
29986.893617	-1636.168333	1549.375000	328.937195
29986.893617	-1636.168333	1548.325195	278.559814
29986.893617	-1636.168333	1547.275391	212.284073
29986.893617	-1636.168333	1546.225586	143.772903
29986.893617	-1636.168333	1545.174805	175.409637
29986.893617	-1636.168333	1544.124023	154.729172
29986.893617	-1636.168333	1543.073242	111.328323
29986.893617	-1636.168333	1542.022461	136.174728
29986.893617	-1636.168333	1540.970703	213.312866
29986.893617	-1636.168333	1539.919922	190.427078
29986.893617	-1636.168333	1538.868164	247.101105
29986.893617	-1636.168333	1537.815430	85.649323
29986.893617	-1636.168333	1536.763672	137.808914
29986.893617	-1636.168333	1535.710938	196.775558
29986.893617	-1636.168333	1534.659180	164.907227
29986.893617	-1636.168333	1533.606445	198.903046
29986.893617	-1636.168333	1532.552734	96.710953
29986.893617	-1636.168333	1531.500000	185.203445
29986.893617	-1636.168333	1530.446289	146.615662
29986.893617	-1636.168333	1529.393555	246.437744
29986.893617	-1636.168333	1528.338867	239.636200
29986.893617	-1636.168333	1527.285156	201.109222
29986.893617	-1636.168333	1526.231445	160.346497
29986.893617	-1636.168333	1525.176758	135.481842
29986.893617	-1636.168333	1524.122070	112.909752
29986.893617	-1636.168333	1523.067383	115.286797
29986.893617	-1636.168333	1522.012695	56.515648
29986.893617	-1636.168333	1520.957031	45.345905
29986.893617	-1636.168333	1519.901367	111.188812
29986.893617	-1636.168333	1518.845703	79.670677
29986.893617	-1636.168333	1517.790039	159.096024
29986.893617	-1636.168333	1516.734375	170.614334
29986.893617	-1636.168333	1515.677734	1.132024
29986.893617	-1636.168333	1514.621094	94.149849
29986.893617	-1636.168333	1513.564453	26.563887
29986.893617	-1636.168333	1512.507813	40.429131
29986.893617	-1636.168333	1511.450195	-13.520307
29986.893617	-1636.168333	1510.393555	2.643089
29986.893617	-1636.168333	1509.335938	66.276154
29986.893617	-1636.168333	1508.278320	3.369271
29986.893617	-1636.168333	1507.219727	37.643925
29986.893617	-1636.168333	1506.162109	96.768936
29986.893617	-1636.168333	1505.103516	-135.416306
29986.893617	-1636.168333	1504.044922	-1.740324
29986.893617	-1636.168333	1502.986328	-21.593702
29986.893617	-1636.168333	1501.926758	87.217537
29986.893617	-1636.168333	1500.868164	-49.940704
29986.893617	-1636.168333	1499.808594	36.310680
29986.893617	-1636.168333	1498.749023	23.304689
29986.893617	-1636.168333	1497.688477	-68.604256
29986.893617	-1636.168333	1496.628906	-45.473476
29986.893617	-1636.168333	1495.568359	6.970058
29986.893617	-1636.168333	1494.507813	-93.839661
29986.893617	-1636.168333	1493.447266	-131.499527
29986.893617	-1636.168333	1492.386719	-22.693800
29986.893617	-1636.168333	1491.325195	-13.016459
29986.893617	-1636.168333	1490.263672	10.187605
29986.893617	-1636.168333	1489.202148	-49.902374
29986.893617	-1636.168333	1488.140625	-35.666245
29986.893617	-1636.168333	1487.079102	14.592316
29986.893617	-1636.168333	1486.016602	-128.660019
29986.893617	-1636.168333	1484.954102	-69.366409
29986.893617	-1636.168333	1483.891602	16.913628
29986.893617	-1636.168333	1482.829102	89.685722
29986.893617	-1636.168333	1481.765625	110.734474
29986.893617	-1636.168333	1480.702148	-36.793476
29986.893617	-1636.168333	1479.638672	-105.575363
29986.893617	-1636.168333	1478.575195	-10.290131
29986.893617	-1636.168333	1477.511719	40.047356
29986.893617	-1636.168333	1476.447266	20.762554
29986.893617	-1636.168333	1475.382813	3.742468
29986.893617	-1636.168333	1474.318359	49.594044
29986.893617	-1636.168333	1473.253906	-135.673676
29986.893617	-1636.168333	1472.189453	-67.297745
29986.893617	-1636.168333	1471.124023	95.159683
29986.893617	-1636.168333	1470.058594	4.362378
29986.893617	-1636.168333	1468.993164	50.237335
29986.893617	-1636.168333	1467.927734	160.972305
29986.893617	-1636.168333	1466.861328	56.893143
29986.893617	-1636.168333	1465.794922	143.105179
29986.893617	-1636.168333	1464.728516	32.348148
29986.893617	-1636.168333	1463.662109	64.760239
29986.893617	-1636.168333	1462.594727	81.504044
29986.893617	-1636.168333	1461.528320	158.951874
29986.893617	-1636.168333	1460.460938	175.559555
29986.893617	-1636.168333	1459.393555	181.248947
29986.893617	-1636.168333	1458.326172	129.057388
29986.893617	-1636.168333	1457.257813	45.513779
29986.893617	-1636.168333	1456.189453	95.725456
29986.893617	-1636.168333	1455.121094	134.743912
29986.893617	-1636.168333	1454.052734	62.344757
29986.893617	-1636.168333	1452.984375	79.561180
29986.893617	-1636.168333	1451.915039	101.163857
29986.893617	-1636.168333	1450.845703	116.123795
29986.893617	-1636.168333	1449.776367	50.484180
29986.893617	-1636.168333	1448.707031	169.981308
29986.893617	-1636.168333	1447.636719	149.272659
29986.893617	-1636.168333	1446.567383	171.265625
29986.893617	-1636.168333	1445.497070	116.564972
29986.893617	-1636.168333	1444.425781	-5.790452
29986.893617	-1636.168333	1443.355469	148.393509
29986.893617	-1636.168333	1442.285156	130.261917
29986.893617	-1636.168333	1441.213867	124.795792
29986.893617	-1636.168333	1440.142578	117.255264
29986.893617	-1636.168333	1439.070313	173.409241
29986.893617	-1636.168333	1437.999023	164.653152
29986.893617	-1636.168333	1436.926758	107.687462
29986.893617	-1636.168333	1435.854492	-21.566158
29986.893617	-1636.168333	1434.782227	159.673981
29986.893617	-1636.168333	1433.709961	104.018433
29986.893617	-1636.168333	1432.636719	18.074347
29986.893617	-1636.168333	1431.563477	32.490597
29986.893617	-1636.168333	1430.490234	-5.610311
29986.893617	-1636.168333	1429.416992	31.911951
29986.893617	-1636.168333	1428.343750	3.937448
29986.893617	-1636.168333	1427.269531	71.505302
29986.893617	-1636.168333	1426.195313	8.356577
29986.893617	-1636.168333	1425.121094	-13.452632
29986.893617	-1636.168333	1424.046875	-42.777615
29986.893617	-1636.168333	1422.971680	99.188141
29986.893617	-1636.168333	1421.896484	-68.880280
29986.893617	-1636.168333	1420.821289	-81.167282
29986.893617	-1636.168333	1419.746094	59.040936
29986.893617	-1636.168333	1418.669922	93.136894
29986.893617	-1636.168333	1417.594727	-7.324801
29986.893617	-1636.168333	1416.518555	-24.436956
29986.893617	-1636.168333	1415.442383	-13.305126
29986.893617	-1636.168333	1414.365234	-7.240101
29986.893617	-1636.168333	1413.289063	102.835052
29986.893617	-1636.168333	1412.211914	-53.045883
29986.893617	-1636.168333	1411.134766	9.354969
29986.893617	-1636.168333	1410.057617	74.173759
29986.893617	-1636.168333	1408.979492	106.346359
29986.893617	-1636.168333	1407.902344	18.441956
29986.893617	-1636.168333	1406.824219	100.998398
29986.893617	-1636.168333	1405.746094	13.873594
29986.893617	-1636.168333	1404.666992	31.088432
29986.893617	-1636.168333	1403.588867	126.680473
29986.893617	-1636.168333	1402.509766	199.072220
29986.893617	-1636.168333	1401.430664	212.214996
29986.893617	-1636.168333	1400.351563	279.727386
29986.893617	-1636.168333	1399.271484	199.526566
29986.893617	-1636.168333	1398.192383	207.420944
29986.893617	-1636.168333	1397.112305	146.422516
29986.893617	-1636.168333	1396.031250	272.734619
29986.893617	-1636.168333	1394.951172	200.907944
29986.893617	-1636.168333	1393.871094	314.367798
29986.893617	-1636.168333	1392.790039	189.398163
29986.893617	-1636.168333	1391.708984	215.876511
29986.893617	-1636.168333	1390.626953	158.739182
29986.893617	-1636.168333	1389.545898	202.074600
29986.893617	-1636.168333	1388.463867	152.213364
29986.893617	-1636.168333	1387.381836	158.969620
29986.893617	-1636.168333	1386.299805	57.259045
29986.893617	-1636.168333	1385.217773	128.085434
29986.893617	-1636.168333	1384.134766	133.670853
29986.893617	-1636.168333	1383.051758	111.256927
29986.893617	-1636.168333	1381.968750	100.087166
29986.893617	-1636.168333	1380.885742	17.012302
29986.893617	-1636.168333	1379.802734	38.355457
29986.893617	-1636.168333	1378.718750	104.044838
29986.893617	-1636.168333	1377.634766	83.658134
29986.893617	-1636.168333	1376.550781	160.353928
29986.893617	-1636.168333	1375.465820	84.017731
29986.893617	-1636.168333	1374.381836	112.743881
29986.893617	-1636.168333	1373.296875	164.916595
29986.893617	-1636.168333	1372.211914	21.859833
29986.893617	-1636.168333	1371.126953	95.892311
29986.893617	-1636.168333	1370.041016	136.316116
29986.893617	-1636.168333	1368.955078	150.027176
29986.893617	-1636.168333	1367.869141	168.494385
29986.893617	-1636.168333	1366.783203	99.711250
29986.893617	-1636.168333	1365.697266	105.513092
29986.893617	-1636.168333	1364.610352	162.321701
29986.893617	-1636.168333	1363.523438	182.445770
29986.893617	-1636.168333	1362.436523	150.439377
29986.893617	-1636.168333	1361.349609	234.274567
29986.893617	-1636.168333	1360.261719	109.757904
29986.893617	-1636.168333	1359.174805	74.116920
29986.893617	-1636.168333	1358.086914	97.182457
29986.893617	-1636.168333	1356.998047	181.834305
29986.893617	-1636.168333	1355.910156	148.826981
29986.893617	-1636.168333	1354.821289	155.478714
29986.893617	-1636.168333	1353.732422	140.480927
29986.893617	-1636.168333	1352.643555	225.324905
29986.893617	-1636.168333	1351.554688	216.847443
29986.893617	-1636.168333	1350.464844	215.489761
29986.893617	-1636.168333	1349.375000	244.867264
29986.893617	-1636.168333	1348.285156	232.329193
29986.893617	-1636.168333	1347.195313	238.795319
29986.893617	-1636.168333	1346.105469	236.948135
29986.893617	-1636.168333	1345.014648	256.324585
29986.893617	-1636.168333	1343.923828	404.270294
29986.893617	-1636.168333	1342.833008	483.256287
29986.893617	-1636.168333	1341.741211	419.653046
29986.893617	-1636.168333	1340.650391	345.492615
29986.893617	-1636.168333	1339.558594	363.098206
29986.893617	-1636.168333	1338.466797	315.355835
29986.893617	-1636.168333	1337.374023	273.614532
29986.893617	-1636.168333	1336.282227	228.690720
29986.893617	-1636.168333	1335.189453	219.362473
29986.893617	-1636.168333	1334.096680	143.746735
29986.893617	-1636.168333	1333.003906	139.681778
29986.893617	-1636.168333	1331.910156	229.545700
29986.893617	-1636.168333	1330.817383	166.282776
29986.893617	-1636.168333	1329.723633	66.485580
29986.893617	-1636.168333	1328.629883	102.644104
29986.893617	-1636.168333	1327.535156	57.209030
29986.893617	-1636.168333	1326.441406	64.409912
29986.893617	-1636.168333	1325.346680	144.173904
29986.893617	-1636.168333	1324.251953	59.867901
29986.893617	-1636.168333	1323.156250	44.811264
29986.893617	-1636.168333	1322.061523	99.322113
29986.893617	-1636.168333	1320.965820	115.302269
29986.893617	-1636.168333	1319.870117	99.150574
29986.893617	-1636.168333	1318.774414	129.383972
29986.893617	-1636.168333	1317.678711	67.129768
29986.893617	-1636.168333	1316.582031	76.731773
29986.893617	-1636.168333	1315.485352	50.867123
29986.893617	-1636.168333	1314.388672	40.707058
29986.893617	-1636.168333	1313.291016	7.301964
29986.893617	-1636.168333	1312.194336	-33.180809
29986.893617	-1636.168333	1311.096680	-51.048546
29986.893617	-1636.168333	1309.999023	-14.875850
29986.893617	-1636.168333	1308.901367	46.344944
29986.893617	-1636.168333	1307.802734	93.603210
29986.893617	-1636.168333	1306.705078	102.004227
29986.893617	-1636.168333	1305.606445	32.887753
29986.893617	-1636.168333	1304.506836	9.780500
29986.893617	-1636.168333	1303.408203	10.966184
29986.893617	-1636.168333	1302.308594	63.859783
29986.893617	-1636.168333	1301.208984	148.694748
29986.893617	-1636.168333	1300.109375	54.980217
29986.893617	-1636.168333	1299.009766	26.498743
29986.893617	-1636.168333	1297.909180	99.949966
29986.893617	-1636.168333	1296.808594	68.382507
29986.893617	-1636.168333	1295.708008	73.026680
29986.893617	-1636.168333	1294.607422	39.669441
29986.893617	-1636.168333	1293.506836	122.228867
29986.893617	-1636.168333	1292.405273	97.617996
29986.893617	-1636.168333	1291.303711	93.554596
29986.893617	-1636.168333	1290.202148	77.465782
29986.893617	-1636.168333	1289.099609	42.601749
29986.893617	-1636.168333	1287.998047	72.109116
29986.893617	-1636.168333	1286.895508	77.439125
29986.893617	-1636.168333	1285.792969	159.578583
29986.893617	-1636.168333	1284.689453	129.785782
29986.893617	-1636.168333	1283.586914	105.394539
29986.893617	-1636.168333	1282.483398	191.811951
29986.893617	-1636.168333	1281.379883	275.265778
29986.893617	-1636.168333	1280.276367	242.646286
29986.893617	-1636.168333	1279.171875	277.079895
29986.893617	-1636.168333	1278.067383	137.688385
29986.893617	-1636.168333	1276.962891	233.690414
29986.893617	-1636.168333	1275.858398	256.532104
29986.893617	-1636.168333	1274.753906	197.991623
29986.893617	-1636.168333	1273.648438	200.251846
29986.893617	-1636.168333	1272.542969	231.920898
29986.893617	-1636.168333	1271.437500	181.929794
29986.893617	-1636.168333	1270.331055	327.947723
29986.893617	-1636.168333	1269.225586	273.764496
29986.893617	-1636.168333	1268.119141	200.455292
29986.893617	-1636.168333	1267.012695	275.135010
29986.893617	-1636.168333	1265.906250	272.374084
29986.893617	-1636.168333	1264.798828	157.449158
29986.893617	-1636.168333	1263.691406	164.471237
29986.893617	-1636.168333	1262.583984	200.556671
29986.893617	-1636.168333	1261.476563	110.369354
29986.893617	-1636.168333	1260.368164	117.082932
29986.893617	-1636.168333	1259.260742	117.566299
29986.893617	-1636.168333	1258.152344	147.452972
29986.893617	-1636.168333	1257.043945	115.990929
29986.893617	-1636.168333	1255.934570	-2.229209
29986.893617	-1636.168333	1254.825195	45.595963
29986.893617	-1636.168333	1253.716797	60.899014
29986.893617	-1636.168333	1252.606445	-7.819693
29986.893617	-1636.168333	1251.497070	58.613045
29986.893617	-1636.168333	1250.387695	-0.700932
29986.893617	-1636.168333	1249.277344	46.932995
29986.893617	-1636.168333	1248.166992	33.558968
29986.893617	-1636.168333	1247.055664	42.717548
29986.893617	-1636.168333	1245.945313	22.988115
29986.893617	-1636.168333	1244.833984	-47.145485
29986.893617	-1636.168333	1243.722656	7.229052
29986.893617	-1636.168333	1242.611328	-15.696257
29986.893617	-1636.168333	1241.499023	-29.550037
29986.893617	-1636.168333	1240.387695	-58.573212
29986.893617	-1636.168333	1239.275391	-84.925003
29986.893617	-1636.168333	1238.162109	-28.153393
29986.893617	-1636.168333	1237.049805	-60.542992
29986.893617	-1636.168333	1235.936523	13.018451
29986.893617	-1636.168333	1234.823242	-72.130226
29986.893617	-1636.168333	1233.709961	-26.801399
29986.893617	-1636.168333	1232.596680	-61.962223
29986.893617	-1636.168333	1231.482422	-70.680542
29986.893617	-1636.168333	1230.369141	-45.679165
29986.893617	-1636.168333	1229.253906	-94.064232
29986.893617	-1636.168333	1228.139648	-83.973984
29986.893617	-1636.168333	1227.025391	-22.731377
29986.893617	-1636.168333	1225.910156	-118.716766
29986.893617	-1636.168333	1224.794922	-12.587132
29986.893617	-1636.168333	1223.679688	30.963808
29986.893617	-1636.168333	1222.563477	-5.127650
29986.893617	-1636.168333	1221.447266	1.683424
29986.893617	-1636.168333	1220.331055	-130.963913
29986.893617	-1636.168333	1219.214844	-55.086372
29986.893617	-1636.168333	1218.098633	-39.958469
29986.893617	-1636.168333	1216.981445	-12.683715
29986.893617	-1636.168333	1215.864258	-89.157829
29986.893617	-1636.168333	1214.747070	19.199888
29986.893617	-1636.168333	1213.629883	15.329288
29986.893617	-1636.168333	1212.511719	-78.707870
29986.893617	-1636.168333	1211.393555	-99.517738
29986.893617	-1636.168333	1210.275391	23.155191
29986.893617	-1636.168333	1209.157227	-63.087357
29986.893617	-1636.168333	1208.038086	-64.695358
29986.893617	-1636.168333	1206.918945	-76.841110
29986.893617	-1636.168333	1205.799805	-25.723185
29986.893617	-1636.168333	1204.680664	-7.394902
29986.893617	-1636.168333	1203.560547	-57.626553
29986.893617	-1636.168333	1202.441406	-89.728409
29986.893617	-1636.168333	1201.321289	-8.821295
29986.893617	-1636.168333	1200.200195	46.933071
29986.893617	-1636.168333	1199.080078	29.958336
29986.893617	-1636.168333	1197.958984	-43.394669
29986.893617	-1636.168333	1196.837891	22.593901
29986.893617	-1636.168333	1195.716797	-46.750843
29986.893617	-1636.168333	1194.594727	-4.557623
29986.893617	-1636.168333	1193.473633	-34.928856
29986.893617	-1636.168333	1192.351563	31.845371
29986.893617	-1636.168333	1191.229492	-14.724537
29986.893617	-1636.168333	1190.106445	32.334732
29986.893617	-1636.168333	1188.984375	-37.987400
29986.893617	-1636.168333	1187.861328	8.253813
29986.893617	-1636.168333	1186.738281	84.738716
29986.893617	-1636.168333	1185.614258	30.157652
29986.893617	-1636.168333	1184.491211	135.364349
29986.893617	-1636.168333	1183.367188	73.741982
29986.893617	-1636.168333	1182.243164	85.925514
29986.893617	-1636.168333	1181.119141	71.676857
29986.893617	-1636.168333	1179.994141	11.090366
29986.893617	-1636.168333	1178.869141	8.193120
29986.893617	-1636.168333	1177.744141	20.512644
29986.893617	-1636.168333	1176.619141	-64.751175
29986.893617	-1636.168333	1175.493164	-26.752272
29986.893617	-1636.168333	1174.368164	33.807529
29986.893617	-1636.168333	1173.242188	71.135040
29986.893617	-1636.168333	1172.115234	-2.162867
29986.893617	-1636.168333	1170.989258	-7.673965
29986.893617	-1636.168333	1169.862305	67.851501
29986.893617	-1636.168333	1168.735352	0.495113
29986.893617	-1636.168333	1167.608398	-36.559093
29986.893617	-1636.168333	1166.481445	-9.300428
29986.893617	-1636.168333	1165.353516	-102.142159
29986.893617	-1636.168333	1164.225586	-97.441635
29986.893617	-1636.168333	1163.097656	-118.244789
29986.893617	-1636.168333	1161.968750	-84.278648
29986.893617	-1636.168333	1160.840820	-34.791225
29986.893617	-1636.168333	1159.711914	-81.239433
29986.893617	-1636.168333	1158.583008	-31.992535
29986.893617	-1636.168333	1157.453125	8.230009
29986.893617	-1636.168333	1156.324219	4.629684
29986.893617	-1636.168333	1155.194336	-2.995572
29986.893617	-1636.168333	1154.064453	-15.846542
29986.893617	-1636.168333	1152.933594	-54.149300
29986.893617	-1636.168333	1151.803711	-51.809231
29986.893617	-1636.168333	1150.672852	-92.266487
29986.893617	-1636.168333	1149.541992	-63.469131
29986.893617	-1636.168333	1148.411133	-51.510944
29986.893617	-1636.168333	1147.279297	-55.329208
29986.893617	-1636.168333	1146.147461	-70.507706
29986.893617	-1636.168333	1145.015625	-10.224926
29986.893617	-1636.168333	1143.883789	97.720520
29986.893617	-1636.168333	1142.750977	105.757538
29986.893617	-1636.168333	1141.619141	113.876625
29986.893617	-1636.168333	1140.486328	56.753494
29986.893617	-1636.168333	1139.352539	-10.890957
29986.893617	-1636.168333	1138.219727	60.520741
29986.893617	-1636.168333	1137.085938	19.912535
29986.893617	-1636.168333	1135.952148	41.227089
29986.893617	-1636.168333	1134.818359	18.087431
29986.893617	-1636.168333	1133.683594	22.835512
29986.893617	-1636.168333	1132.549805	-68.487755
29986.893617	-1636.168333	1131.415039	81.385033
29986.893617	-1636.168333	1130.279297	75.585670
29986.893617	-1636.168333	1129.144531	114.513283
29986.893617	-1636.168333	1128.008789	17.388597
29986.893617	-1636.168333	1126.873047	73.333534
29986.893617	-1636.168333	1125.737305	51.232857
29986.893617	-1636.168333	1124.601563	66.657120
29986.893617	-1636.168333	1123.464844	0.200896
29986.893617	-1636.168333	1122.328125	14.108706
29986.893617	-1636.168333	1121.191406	48.725765
29986.893617	-1636.168333	1120.054688	-13.638352
29986.893617	-1636.168333	1118.916992	22.190491
29986.893617	-1636.168333	1117.779297	-3.894957
29986.893617	-1636.168333	1116.641602	-24.921547
29986.893617	-1636.168333	1115.503906	29.092907
29986.893617	-1636.168333	1114.365234	5.031503
29986.893617	-1636.168333	1113.226563	6.394201
29986.893617	-1636.168333	1112.087891	29.983990
29986.893617	-1636.168333	1110.949219	-24.559719
29986.893617	-1636.168333	1109.809570	136.963776
29986.893617	-1636.168333	1108.669922	43.568157
29986.893617	-1636.168333	1107.530273	86.181152
29986.893617	-1636.168333	1106.390625	7.112351
29986.893617	-1636.168333	1105.250000	62.326107
29986.893617	-1636.168333	1104.109375	76.967224
29986.893617	-1636.168333	1102.968750	154.862381
29986.893617	-1636.168333	1101.828125	118.231316
29986.893617	-1636.168333	1100.686523	32.331081
29986.893617	-1636.168333	1099.544922	73.457397
29986.893617	-1636.168333	1098.403320	78.411064
29986.893617	-1636.168333	1097.261719	54.507786
29986.893617	-1636.168333	1096.120117	69.655289
29986.893617	-1636.168333	1094.977539	59.912853
29986.893617	-1636.168333	1093.834961	56.294975
29986.893617	-1636.168333	1092.691406	45.969795
29986.893617	-1636.168333	1091.548828	67.064003
29986.893617	-1636.168333	1090.405273	143.547150
29986.893617	-1636.168333	1089.261719	43.240902
29986.893617	-1636.168333	1088.118164	11.273217
29986.893617	-1636.168333	1086.973633	90.943794
29986.893617	-1636.168333	1085.829102	113.306267
29986.893617	-1636.168333	1084.684570	69.737129
29986.893617	-1636.168333	1083.540039	17.699791
29986.893617	-1636.168333	1082.395508	51.645470
29986.893617	-1636.168333	1081.250000	14.502982
29986.893617	-1636.168333	1080.104492	42.120182
29986.893617	-1636.168333	1078.958984	61.356487
29986.893617	-1636.168333	1077.812500	86.525223
29986.893617	-1636.168333	1076.666016	-40.938095
29986.893617	-1636.168333	1075.519531	-2.045135
29986.893617	-1636.168333	1074.373047	131.800568
29986.893617	-1636.168333	1073.226563	114.484825
29986.893617	-1636.168333	1072.079102	63.080677
29986.893617	-1636.168333	1070.931641	48.397224
29986.893617	-1636.168333	1069.784180	12.290473
29986.893617	-1636.168333	1068.635742	141.446991
29986.893617	-1636.168333	1067.487305	115.975220
29986.893617	-1636.168333	1066.338867	86.193550
29986.893617	-1636.168333	1065.190430	67.904785
29986.893617	-1636.168333	1064.041992	-8.004569
29986.893617	-1636.168333	1062.892578	90.195992
29986.893617	-1636.168333	1061.743164	163.562439
29986.893617	-1636.168333	1060.593750	37.216652
29986.893617	-1636.168333	1059.443359	-25.155575
29986.893617	-1636.168333	1058.292969	9.505177
29986.893617	-1636.168333	1057.142578	38.816635
29986.893617	-1636.168333	1055.992188	27.164351
29986.893617	-1636.168333	1054.841797	97.621620
29986.893617	-1636.168333	1053.690430	39.586868
29986.893617	-1636.168333	1052.539063	26.108065
29986.893617	-1636.168333	1051.387695	84.520226
29986.893617	-1636.168333	1050.235352	-43.857841
29986.893617	-1636.168333	1049.083984	-67.495132
29986.893617	-1636.168333	1047.931641	83.966385
29986.893617	-1636.168333	1046.778320	62.864140
29986.893617	-1636.168333	1045.625977	-87.210281
29986.893617	-1636.168333	1044.472656	16.393597
29986.893617	-1636.168333	1043.319336	91.505775
29986.893617	-1636.168333	1042.166016	31.465670
29986.893617	-1636.168333	1041.012695	19.318754
29986.893617	-1636.168333	1039.858398	53.959236
29986.893617	-1636.168333	1038.704102	51.918312
29986.893617	-1636.168333	1037.549805	18.944096
29986.893617	-1636.168333	1036.394531	-8.306527
29986.893617	-1636.168333	1035.239258	-46.880222
29986.893617	-1636.168333	1034.083984	72.233093
29986.893617	-1636.168333	1032.928711	-2.691874
29986.893617	-1636.168333	1031.773438	5.297346
29986.893617	-1636.168333	1030.617188	16.109568
29986.893617	-1636.168333	1029.460938	21.346834
29986.893617	-1636.168333	1028.304688	23.889339
29986.893617	-1636.168333	1027.147461	51.939590
29986.893617	-1636.168333	1025.991211	48.523426
29986.893617	-1636.168333	1024.833984	105.632713
29986.893617	-1636.168333	1023.675781	63.922523
29986.893617	-1636.168333	1022.518555	91.839142
29986.893617	-1636.168333	1021.360352	0.874646
29986.893617	-1636.168333	1020.202148	15.603529
29986.893617	-1636.168333	1019.043945	-48.663105
29986.893617	-1636.168333	1017.884766	-28.827524
29986.893617	-1636.168333	1016.726563	-19.323526
29986.893617	-1636.168333	1015.567383	35.298195
29986.893617	-1636.168333	1014.407227	-3.485006
29986.893617	-1636.168333	1013.248047	20.141378
29986.893617	-1636.168333	1012.087891	2.591970
29986.893617	-1636.168333	1010.927734	98.050179
29986.893617	-1636.168333	1009.767578	1.292693
29986.893617	-1636.168333	1008.606445	51.524632
29986.893617	-1636.168333	1007.446289	-73.481201
29986.893617	-1636.168333	1006.285156	-34.828041
29986.893617	-1636.168333	1005.123047	-71.412567
29986.893617	-1636.168333	1003.961914	-47.025921
29986.893617	-1636.168333	1002.799805	93.964478
29986.893617	-1636.168333	1001.637695	20.984509
29986.893617	-1636.168333	1000.475586	33.137501
29986.893617	-1636.168333	999.312500	56.942280
29986.893617	-1636.168333	998.149414	-78.823952
29986.893617	-1636.168333	996.986328	-90.072990
29986.893617	-1636.168333	995.823242	-5.700035
29986.893617	-1636.168333	994.659180	53.484375
29986.893617	-1636.168333	993.496094	-1.462456
29986.893617	-1636.168333	992.332031	53.031933
29986.893617	-1636.168333	991.166992	99.538879
29986.893617	-1636.168333	990.002930	124.237053
29986.893617	-1636.168333	988.837891	129.277512
29986.893617	-1636.168333	987.672852	66.476036
29986.893617	-1636.168333	986.506836	65.053337
29986.893617	-1636.168333	985.341797	26.753269
29986.893617	-1636.168333	984.175781	-11.239927
29986.893617	-1636.168333	983.009766	124.966217
29986.893617	-1636.168333	981.843750	65.216492
29986.893617	-1636.168333	980.676758	86.989388
29986.893617	-1636.168333	979.509766	-6.539174
29986.893617	-1636.168333	978.342773	-34.267811
29986.893617	-1636.168333	977.175781	-55.783623
29986.893617	-1636.168333	976.007813	51.944359
29986.893617	-1636.168333	974.839844	8.807397
29986.893617	-1636.168333	973.671875	113.172501
29986.893617	-1636.168333	972.503906	6.352949
29986.893617	-1636.168333	971.334961	-21.753838
29986.893617	-1636.168333	970.166016	175.777588
29986.893617	-1636.168333	968.997070	36.167263
29986.893617	-1636.168333	967.828125	128.253616
29986.893617	-1636.168333	966.658203	101.734573
29986.893617	-1636.168333	965.488281	67.958458
29986.893617	-1636.168333	964.318359	24.112579
29986.893617	-1636.168333	963.148438	103.217491
29986.893617	-1636.168333	961.977539	73.674988
29986.893617	-1636.168333	960.806641	-166.511841
29986.893617	-1636.168333	959.635742	12.571866
29986.893617	-1636.168333	958.463867	64.669182
29986.893617	-1636.168333	957.292969	-12.702992
29986.893617	-1636.168333	956.121094	51.090645
29986.893617	-1636.168333	954.948242	-89.186691
29986.893617	-1636.168333	953.776367	-38.976818
29986.893617	-1636.168333	952.603516	8.538887
29986.893617	-1636.168333	951.430664	-28.380367
29986.893617	-1636.168333	950.257813	52.983971
29986.893617	-1636.168333	949.084961	-66.945206
29986.893617	-1636.168333	947.911133	1.063698
29986.893617	-1636.168333	946.737305	-30.875128
29986.893617	-1636.168333	945.563477	-60.041672
29986.893617	-1636.168333	944.388672	-46.570801
29986.893617	-1636.168333	943.213867	114.347237
29986.893617	-1636.168333	942.039063	-48.629326
29986.893617	-1636.168333	940.864258	-3.230916
29986.893617	-1636.168333	939.688477	12.473263
29986.893617	-1636.168333	938.513672	57.866108
29986.893617	-1636.168333	937.337891	-64.444733
29986.893617	-1636.168333	936.161133	-100.645027
29986.893617	-1636.168333	934.985352	1.343450
29986.893617	-1636.168333	933.808594	73.907867
29986.893617	-1636.168333	932.631836	-32.549732
29986.893617	-1636.168333	931.454102	-55.190613
29986.893617	-1636.168333	930.277344	69.308807
29986.893617	-1636.168333	929.099609	105.621819
29986.893617	-1636.168333	927.921875	-14.358317
29986.893617	-1636.168333	926.743164	39.991058
29986.893617	-1636.168333	925.565430	-5.282598
29986.893617	-1636.168333	924.386719	15.108263
29986.893617	-1636.168333	923.208008	-131.934326
29986.893617	-1636.168333	922.028320	-36.881939
29986.893617	-1636.168333	920.849609	58.133434
29986.893617	-1636.168333	919.669922	58.825356
29986.893617	-1636.168333	919.474609	69.562645
29986.893617	-1636.168333	918.309570	98.948959
29986.893617	-1636.168333	917.143555	55.994778
29986.893617	-1636.168333	915.977539	65.033043
29986.893617	-1636.168333	914.810547	80.845345
29986.893617	-1636.168333	913.644531	92.132210
29986.893617	-1636.168333	912.477539	53.729004
29986.893617	-1636.168333	911.310547	-90.783524
29986.893617	-1636.168333	910.143555	51.465237
29986.893617	-1636.168333	908.975586	51.462181
29986.893617	-1636.168333	907.807617	-9.469276
29986.893617	-1636.168333	906.639648	-63.608433
29986.893617	-1636.168333	905.471680	-36.521938
29986.893617	-1636.168333	904.303711	-171.822342
29986.893617	-1636.168333	903.134766	-79.337929
29986.893617	-1636.168333	901.965820	-119.894966
29986.893617	-1636.168333	900.796875	-97.328896
29986.893617	-1636.168333	899.626953	10.855953
29986.893617	-1636.168333	898.457031	6.350660
29986.893617	-1636.168333	897.287109	-18.425837
29986.893617	-1636.168333	896.117188	53.642910
29986.893617	-1636.168333	894.947266	-20.668213
29986.893617	-1636.168333	893.776367	-47.676281
29986.893617	-1636.168333	892.605469	4.097137
29986.893617	-1636.168333	891.434570	-63.409500
29986.893617	-1636.168333	890.262695	4.092927
29986.893617	-1636.168333	889.091797	26.581797
29986.893617	-1636.168333	887.919922	13.080912
29986.893617	-1636.168333	886.748047	-74.609772
29986.893617	-1636.168333	885.575195	58.025181
29986.893617	-1636.168333	884.403320	-7.166736
29986.893617	-1636.168333	883.230469	-43.122185
29986.893617	-1636.168333	882.057617	-11.669133
29986.893617	-1636.168333	880.883789	-27.395927
29986.893617	-1636.168333	879.710938	-34.135731
29986.893617	-1636.168333	878.537109	-20.667009
29986.893617	-1636.168333	877.362305	-2.715140
29986.893617	-1636.168333	876.188477	-7.214115
29986.893617	-1636.168333	875.013672	-40.880157
29986.893617	-1636.168333	873.839844	-74.533974
29986.893617	-1636.168333	872.664063	48.822365
29986.893617	-1636.168333	871.489258	-27.442688
29986.893617	-1636.168333	870.313477	-40.904507
29986.893617	-1636.168333	869.138672	44.260738
29986.893617	-1636.168333	867.962891	-49.887814
29986.893617	-1636.168333	866.786133	15.078022
29986.893617	-1636.168333	865.610352	-0.626821
29986.893617	-1636.168333	864.433594	-45.440762
29986.893617	-1636.168333	863.256836	-52.172497
29986.893617	-1636.168333	862.079102	-72.334717
29986.893617	-1636.168333	860.902344	70.899086
29986.893617	-1636.168333	859.724609	-148.443954
29986.893617	-1636.168333	858.546875	39.490086
29986.893617	-1636.168333	857.368164	-14.233393
29986.893617	-1636.168333	856.190430	-90.301048
29986.893617	-1636.168333	855.011719	86.320824
29986.893617	-1636.168333	853.833008	72.853577
29986.893617	-1636.168333	852.654297	95.149918
29986.893617	-1636.168333	851.474609	-0.995736
29986.893617	-1636.168333	850.294922	-14.442379
29986.893617	-1636.168333	849.115234	-5.549691
29986.893617	-1636.168333	847.935547	101.596565
29986.893617	-1636.168333	846.754883	25.614765
29986.893617	-1636.168333	845.575195	155.028458
29986.893617	-1636.168333	844.393555	7.644785
29986.893617	-1636.168333	843.212891	-45.965115
29986.893617	-1636.168333	842.032227	-75.016129
29986.893617	-1636.168333	840.850586	16.385479
29986.893617	-1636.168333	839.668945	-43.890755
29986.893617	-1636.168333	838.486328	-14.964520
29986.893617	-1636.168333	837.304688	-26.176500
29986.893617	-1636.168333	836.122070	38.385601
29986.893617	-1636.168333	834.939453	134.111588
29986.893617	-1636.168333	833.756836	87.224525
29986.893617	-1636.168333	832.573242	124.987747
29986.893617	-1636.168333	831.389648	80.342339
29986.893617	-1636.168333	830.206055	46.843140
29986.893617	-1636.168333	829.022461	60.096764
29986.893617	-1636.168333	827.838867	128.975677
29986.893617	-1636.168333	826.654297	104.376495
29986.893617	-1636.168333	825.469727	77.559166
29986.893617	-1636.168333	824.284180	30.733519
29986.893617	-1636.168333	823.099609	126.229111
29986.893617	-1636.168333	821.914063	8.266005
29986.893617	-1636.168333	820.728516	17.036762
29986.893617	-1636.168333	819.542969	63.576443
29986.893617	-1636.168333	818.356445	54.550190
29986.893617	-1636.168333	817.169922	87.726990
29986.893617	-1636.168333	815.983398	72.027885
29986.893617	-1636.168333	814.796875	62.991837
29986.893617	-1636.168333	813.609375	113.891640
29986.893617	-1636.168333	812.422852	49.355473
29986.893617	-1636.168333	811.235352	62.504704
29986.893617	-1636.168333	810.046875	24.618511
29986.893617	-1636.168333	808.859375	6.704741
29986.893617	-1636.168333	807.670898	141.806351
29986.893617	-1636.168333	806.482422	4.140605
29986.893617	-1636.168333	805.293945	-0.473769
29986.893617	-1636.168333	804.104492	37.016258
29986.893617	-1636.168333	802.915039	-5.281921
29986.893617	-1636.168333	801.725586	41.042965
29986.893617	-1636.168333	800.536133	-45.547035
29986.893617	-1636.168333	799.345703	-5.887594
29986.893617	-1636.168333	798.155273	40.390663
29986.893617	-1636.168333	796.964844	110.991486
29986.893617	-1636.168333	795.774414	90.823692
29986.893617	-1636.168333	794.583008	99.420975
29986.893617	-1636.168333	793.392578	-29.141081
29986.893617	-1636.168333	792.200195	8.215364
29986.893617	-1636.168333	791.008789	58.816048
29986.893617	-1636.168333	789.816406	1.064373
29986.893617	-1636.168333	788.625000	-43.409348
29986.893617	-1636.168333	787.432617	84.491867
29986.893617	-1636.168333	786.239258	53.261288
29986.893617	-1636.168333	785.046875	17.617887
29986.893617	-1636.168333	783.853516	-9.184407
29986.893617	-1636.168333	782.660156	-2.864050
29986.893617	-1636.168333	781.465820	10.068387
29986.893617	-1636.168333	780.272461	159.823624
29986.893617	-1636.168333	779.078125	110.916527
29986.893617	-1636.168333	777.883789	-21.811287
29986.893617	-1636.168333	776.688477	46.223095
29986.893617	-1636.168333	775.494141	37.038311
29986.893617	-1636.168333	774.298828	21.234852
29986.893617	-1636.168333	773.103516	-58.495525
29986.893617	-1636.168333	771.907227	22.678343
29986.893617	-1636.168333	770.711914	79.572021
29986.893617	-1636.168333	769.515625	-2.350760
29986.893617	-1636.168333	768.318359	-7.162666
29986.893617	-1636.168333	767.122070	-45.011951
29986.893617	-1636.168333	765.924805	-16.808969
29986.893617	-1636.168333	764.727539	-26.045748
29986.893617	-1636.168333	763.530273	65.940430
29986.893617	-1636.168333	762.333008	58.870636
29986.893617	-1636.168333	761.134766	-42.793903
29986.893617	-1636.168333	759.936523	24.916233
29986.893617	-1636.168333	758.738281	81.593941
29986.893617	-1636.168333	757.540039	-46.423004
29986.893617	-1636.168333	756.340820	-93.075516
29986.893617	-1636.168333	755.141602	-43.032803
29986.893617	-1636.168333	753.942383	13.569023
29986.893617	-1636.168333	752.742188	-19.920439
29986.893617	-1636.168333	751.541992	49.807404
29986.893617	-1636.168333	750.341797	-34.196781
29986.893617	-1636.168333	749.141602	134.263168
29986.893617	-1636.168333	747.941406	184.128799
29986.893617	-1636.168333	746.740234	111.085823
29986.893617	-1636.168333	745.539063	110.455597
29986.893617	-1636.168333	744.337891	24.274860
29986.893617	-1636.168333	743.135742	45.567455
29986.893617	-1636.168333	741.933594	95.340057
29986.893617	-1636.168333	740.731445	-23.698954
29986.893617	-1636.168333	739.529297	-37.510143
29986.893617	-1636.168333	738.326172	75.750847
29986.893617	-1636.168333	737.124023	-12.579405
29986.893617	-1636.168333	735.919922	78.702530
29986.893617	-1636.168333	734.716797	185.260925
29986.893617	-1636.168333	733.513672	177.924240
29986.893617	-1636.168333	732.309570	139.935242
29986.893617	-1636.168333	731.105469	132.584641
29986.893617	-1636.168333	729.900391	186.482346
29986.893617	-1636.168333	728.696289	52.231667
29986.893617	-1636.168333	727.491211	71.106026
29986.893617	-1636.168333	726.286133	221.145432
29986.893617	-1636.168333	725.080078	95.674118
29986.893617	-1636.168333	723.874023	64.218956
29986.893617	-1636.168333	722.668945	-28.418999
29986.893617	-1636.168333	721.461914	-48.940472
29986.893617	-1636.168333	720.255859	9.162206
29986.893617	-1636.168333	719.048828	-35.407780
29986.893617	-1636.168333	717.841797	-25.392546
29986.893617	-1636.168333	716.634766	-21.944532
29986.893617	-1636.168333	715.427734	86.238907
29986.893617	-1636.168333	714.219727	24.176249
29986.893617	-1636.168333	713.011719	-35.693665
29986.893617	-1636.168333	711.803711	37.484547
29986.893617	-1636.168333	710.594727	-146.681793
29986.893617	-1636.168333	709.385742	-84.441803
29986.893617	-1636.168333	708.176758	-24.422760
29986.893617	-1636.168333	706.967773	52.988789
29986.893617	-1636.168333	705.758789	1.811069
29986.893617	-1636.168333	704.548828	9.450668
29986.893617	-1636.168333	703.338867	95.470558
29986.893617	-1636.168333	702.127930	-29.759573
29986.893617	-1636.168333	700.917969	38.786045
29986.893617	-1636.168333	699.707031	11.525822
29986.893617	-1636.168333	698.496094	64.770584
29986.893617	-1636.168333	697.285156	33.133312
29986.893617	-1636.168333	696.073242	-9.382077
29986.893617	-1636.168333	694.861328	-147.576279
29986.893617	-1636.168333	693.649414	53.430767
29986.893617	-1636.168333	692.436523	67.403458
29986.893617	-1636.168333	691.224609	16.158546
29986.893617	-1636.168333	690.011719	-52.463379
29986.893617	-1636.168333	688.798828	-23.320807
29986.893617	-1636.168333	687.584961	68.774925
29986.893617	-1636.168333	686.372070	-2.035823
29986.893617	-1636.168333	685.158203	50.907261
29986.893617	-1636.168333	683.943359	90.788185
29986.893617	-1636.168333	682.729492	91.575989
29986.893617	-1636.168333	681.514648	103.194122
29986.893617	-1636.168333	680.299805	56.225365
29986.893617	-1636.168333	679.084961	119.858894
29986.893617	-1636.168333	677.869141	79.376305
29986.893617	-1636.168333	676.653320	84.415611
29986.893617	-1636.168333	675.437500	98.104721
29986.893617	-1636.168333	674.221680	98.770271
29986.893617	-1636.168333	673.004883	34.427711
29986.893617	-1636.168333	671.789063	-25.572550
29986.893617	-1636.168333	670.571289	5.381965
29986.893617	-1636.168333	669.354492	25.481989
29986.893617	-1636.168333	668.136719	49.884583
29986.893617	-1636.168333	666.919922	126.197845
29986.893617	-1636.168333	665.701172	51.008472
29986.893617	-1636.168333	664.483398	55.870403
29986.893617	-1636.168333	663.264648	4.482595
29986.893617	-1636.168333	662.045898	48.237404
29986.893617	-1636.168333	660.827148	50.882645
29986.893617	-1636.168333	659.608398	-91.298218
29986.893617	-1636.168333	658.388672	49.635185
29986.893617	-1636.168333	657.168945	-60.114674
29986.893617	-1636.168333	655.949219	46.159027
29986.893617	-1636.168333	654.728516	29.278938
29986.893617	-1636.168333	653.507813	-35.109779
29986.893617	-1636.168333	652.287109	25.709217
29986.893617	-1636.168333	651.066406	2.318489
29986.893617	-1636.168333	649.844727	-59.918087
29986.893617	-1636.168333	648.623047	-29.385559
29986.893617	-1636.168333	647.401367	42.095318
29986.893617	-1636.168333	646.179688	111.372742
29986.893617	-1636.168333	644.957031	156.888687
29986.893617	-1636.168333	643.734375	154.950287
29986.893617	-1636.168333	642.511719	45.249264
29986.893617	-1636.168333	641.289063	19.602587
29986.893617	-1636.168333	640.065430	32.720978
29986.893617	-1636.168333	638.841797	-5.867890
29986.893617	-1636.168333	637.618164	-50.916622
29986.893617	-1636.168333	636.393555	91.316727
29986.893617	-1636.168333	635.168945	63.450211
29986.893617	-1636.168333	633.944336	46.337685
29986.893617	-1636.168333	632.719727	27.064924
29986.893617	-1636.168333	631.494141	20.688059
29986.893617	-1636.168333	630.269531	25.050682
29986.893617	-1636.168333	629.042969	-24.354593
29986.893617	-1636.168333	627.817383	-9.270175
29986.893617	-1636.168333	626.590820	-7.103000
29986.893617	-1636.168333	625.365234	-0.654382
29986.893617	-1636.168333	624.137695	-32.891800
29986.893617	-1636.168333	622.911133	16.479855
29986.893617	-1636.168333	621.683594	55.078461
29986.893617	-1636.168333	620.456055	91.498329
29986.893617	-1636.168333	619.228516	35.598000
29986.893617	-1636.168333	618.000977	39.789211
29986.893617	-1636.168333	616.772461	-22.543634
29986.893617	-1636.168333	615.543945	-63.416027
29986.893617	-1636.168333	614.314453	-5.642080
29986.893617	-1636.168333	613.085938	-80.833878
29986.893617	-1636.168333	611.856445	-12.392242
29986.893617	-1636.168333	610.626953	19.573641
29986.893617	-1636.168333	609.397461	17.229942
29986.893617	-1636.168333	608.166992	-10.834405
29986.893617	-1636.168333	606.936523	-13.199979
29986.893617	-1636.168333	605.706055	-62.685951
29986.893617	-1636.168333	604.474609	12.000937
29986.893617	-1636.168333	603.244141	93.065193
29986.893617	-1636.168333	602.012695	-74.147568
29986.893617	-1636.168333	600.780273	-40.196278
29986.893617	-1636.168333	599.548828	-40.494766
29986.893617	-1636.168333	598.316406	6.240523
29986.893617	-1636.168333	597.083984	-75.341148
29986.893617	-1636.168333	595.851563	-35.055996
29986.893617	-1636.168333	594.618164	-18.310526
29986.893617	-1636.168333	593.384766	62.517216
29986.893617	-1636.168333	592.151367	-68.190735
29986.893617	-1636.168333	590.917969	61.713280
29986.893617	-1636.168333	589.683594	37.804173
29986.893617	-1636.168333	588.449219	41.647308
29986.893617	-1636.168333	587.214844	41.209198
29986.893617	-1636.168333	585.979492	-21.126663
29986.893617	-1636.168333	584.745117	-36.507755
29986.893617	-1636.168333	583.509766	-9.232481
29986.893617	-1636.168333	582.273438	-56.622185
29986.893617	-1636.168333	581.038086	45.251144
29986.893617	-1636.168333	579.801758	-38.388966
29986.893617	-1636.168333	578.565430	8.003393
29986.893617	-1636.168333	577.329102	58.628147
29986.893617	-1636.168333	576.091797	-27.121483
29986.893617	-1636.168333	574.854492	25.599506
29986.893617	-1636.168333	573.617188	20.794512
29986.893617	-1636.168333	572.378906	-26.598339
29986.893617	-1636.168333	571.141602	98.433067
29986.893617	-1636.168333	569.903320	-27.711325
29986.893617	-1636.168333	568.664063	-58.068161
29986.893617	-1636.168333	567.425781	-43.747856
29986.893617	-1636.168333	566.186523	0.331151
29986.893617	-1636.168333	564.947266	14.616704
29986.893617	-1636.168333	563.708008	58.650291
29986.893617	-1636.168333	562.467773	-22.738638
29986.893617	-1636.168333	561.227539	80.766182
29986.893617	-1636.168333	559.987305	-28.223202
29986.893617	-1636.168333	558.747070	64.606186
29986.893617	-1636.168333	557.505859	123.412140
29986.893617	-1636.168333	556.264648	-36.489536
29986.893617	-1636.168333	555.023438	71.122078
29986.893617	-1636.168333	553.781250	15.273678
29986.893617	-1636.168333	552.539063	-12.973335
29986.893617	-1636.168333	551.296875	41.516273
29986.893617	-1636.168333	550.054688	49.320122
29986.893617	-1636.168333	548.811523	-72.226768
29986.893617	-1636.168333	547.569336	-28.371912
29986.893617	-1636.168333	546.325195	13.337552
29986.893617	-1636.168333	545.082031	-108.135269
29986.893617	-1636.168333	543.837891	37.374538
29986.893617	-1636.168333	542.593750	47.261642
29986.893617	-1636.168333	541.349609	61.376591
29986.893617	-1636.168333	540.105469	20.435898
29986.893617	-1636.168333	538.860352	62.060928
29986.893617	-1636.168333	537.615234	126.944435
29986.893617	-1636.168333	536.369141	155.827637
29986.893617	-1636.168333	535.124023	95.852455
29986.893617	-1636.168333	533.877930	25.325102
29986.893617	-1636.168333	532.631836	-64.204010
29986.893617	-1636.168333	531.384766	91.526588
29986.893617	-1636.168333	530.138672	67.538910
29986.893617	-1636.168333	528.891602	-81.114014
29986.893617	-1636.168333	527.643555	61.838978
29986.893617	-1636.168333	526.396484	-31.833780
29986.893617	-1636.168333	525.148438	28.688057
29986.893617	-1636.168333	523.900391	17.399443
29986.893617	-1636.168333	522.652344	84.216286
29986.893617	-1636.168333	521.403320	-0.944722
29986.893617	-1636.168333	520.154297	-86.069603
29986.893617	-1636.168333	518.905273	71.431358
29986.893617	-1636.168333	517.656250	39.053139
29986.893617	-1636.168333	516.406250	42.532719
29986.893617	-1636.168333	515.156250	-17.232168
29986.893617	-1636.168333	513.906250	60.026859
29986.893617	-1636.168333	512.655273	-27.110941
29986.893617	-1636.168333	511.404297	-2.552817
29986.893617	-1636.168333	510.153320	-62.256966
29986.893617	-1636.168333	508.902344	-33.488972
29986.893617	-1636.168333	507.650391	-21.577826
29986.893617	-1636.168333	506.398438	-79.134186
29986.893617	-1636.168333	505.146484	4.335615
29986.893617	-1636.168333	503.893555	-53.202042
29986.893617	-1636.168333	502.641602	4.984345
29986.893617	-1636.168333	501.388672	-52.527683
29986.893617	-1636.168333	500.134766	-80.578506
29986.893617	-1636.168333	498.881836	-100.206436
29986.893617	-1636.168333	497.627930	8.381599
29986.893617	-1636.168333	496.374023	-19.663206
29986.893617	-1636.168333	495.119141	-77.109657
29986.893617	-1636.168333	493.865234	-52.613091
29986.893617	-1636.168333	492.610352	51.669815
29986.893617	-1636.168333	491.355469	40.434372
29986.893617	-1636.168333	490.099609	-2.284086
29986.893617	-1636.168333	488.843750	-55.478027
29986.893617	-1636.168333	487.587891	-33.115913
29986.893617	-1636.168333	486.332031	43.776157
29986.893617	-1636.168333	485.075195	139.507370
29986.893617	-1636.168333	483.818359	-1.742946
29986.893617	-1636.168333	482.561523	-29.731171
29986.893617	-1636.168333	481.304688	65.948647
29986.893617	-1636.168333	480.046875	19.092911
29986.893617	-1636.168333	478.789063	-65.455307
29986.893617	-1636.168333	477.531250	-72.472260
29986.893617	-1636.168333	476.272461	-77.396950
29986.893617	-1636.168333	475.013672	-0.671303
29986.893617	-1636.168333	473.754883	13.221099
29986.893617	-1636.168333	472.496094	110.812263
29986.893617	-1636.168333	471.236328	97.463364
29986.893617	-1636.168333	469.976563	12.991663
29986.893617	-1636.168333	468.716797	5.931542
29986.893617	-1636.168333	467.456055	65.775665
29986.893617	-1636.168333	466.196289	0.159285
29986.893617	-1636.168333	464.935547	-13.187865
29986.893617	-1636.168333	463.673828	-22.360453
29986.893617	-1636.168333	462.413086	54.117302
29986.893617	-1636.168333	461.151367	174.412262
29986.893617	-1636.168333	459.889648	69.115898
29986.893617	-1636.168333	458.626953	59.889339
29986.893617	-1636.168333	457.364258	48.566933
29986.893617	-1636.168333	456.101563	18.453991
29986.893617	-1636.168333	454.838867	80.142403
29986.893617	-1636.168333	453.575195	-77.239861
29986.893617	-1636.168333	452.312500	94.943741
29986.893617	-1636.168333	451.047852	-6.111852
29986.893617	-1636.168333	449.784180	101.321449
29986.893617	-1636.168333	448.519531	198.266388
29986.893617	-1636.168333	447.254883	232.637695
29986.893617	-1636.168333	445.990234	312.804077
29986.893617	-1636.168333	444.725586	230.453323
29986.893617	-1636.168333	443.459961	206.418533
29986.893617	-1636.168333	442.194336	171.959290
29986.893617	-1636.168333	440.927734	231.152206
29986.893617	-1636.168333	439.662109	32.247719
29986.893617	-1636.168333	438.395508	226.624191
29986.893617	-1636.168333	437.127930	175.430222
29986.893617	-1636.168333	435.861328	138.785629
29986.893617	-1636.168333	434.593750	118.754265
29986.893617	-1636.168333	433.326172	90.380920
29986.893617	-1636.168333	432.058594	105.627068
29986.893617	-1636.168333	430.790039	14.854136
29986.893617	-1636.168333	429.521484	90.272858
29986.893617	-1636.168333	428.252930	70.075500
29986.893617	-1636.168333	426.984375	93.449165
29986.893617	-1636.168333	425.714844	176.969528
29986.893617	-1636.168333	424.445313	125.490295
29986.893617	-1636.168333	423.174805	177.738297
29986.893617	-1636.168333	421.905273	225.763367
29986.893617	-1636.168333	420.634766	284.081635
29986.893617	-1636.168333	419.364258	255.217133
29986.893617	-1636.168333	418.092773	172.395279
29986.893617	-1636.168333	416.822266	242.945297
29986.893617	-1636.168333	415.550781	224.281662
29986.893617	-1636.168333	414.278320	180.692001
29986.893617	-1636.168333	413.006836	209.559067
29986.893617	-1636.168333	411.734375	236.267044
29986.893617	-1636.168333	410.461914	134.507004
29986.893617	-1636.168333	409.188477	115.518692
29986.893617	-1636.168333	407.916016	170.972122
29986.893617	-1636.168333	406.642578	137.333984
29986.893617	-1636.168333	405.368164	155.342041
29986.893617	-1636.168333	404.094727	94.655220
29986.893617	-1636.168333	402.820313	106.276932
29986.893617	-1636.168333	401.545898	24.758478
29986.893617	-1636.168333	400.270508	58.927933
29986.893617	-1636.168333	398.996094	49.583157
29986.893617	-1636.168333	397.720703	-23.919632
29986.893617	-1636.168333	396.444336	36.767315
29986.893617	-1636.168333	395.168945	43.619564
29986.893617	-1636.168333	393.892578	-15.728131
29986.893617	-1636.168333	392.616211	3.274254
29986.893617	-1636.168333	391.339844	65.484352
29986.893617	-1636.168333	390.062500	-49.926960
29986.893617	-1636.168333	388.785156	133.717285
29986.893617	-1636.168333	387.507813	65.506584
29986.893617	-1636.168333	386.229492	56.979637
29986.893617	-1636.168333	384.951172	108.097076
29986.893617	-1636.168333	383.672852	29.181030
29986.893617	-1636.168333	382.394531	-16.885693
29986.893617	-1636.168333	381.115234	91.426392
29986.893617	-1636.168333	379.835938	59.450504
29986.893617	-1636.168333	378.556641	-55.061966
29986.893617	-1636.168333	377.277344	42.374619
29986.893617	-1636.168333	375.997070	-113.621880
29986.893617	-1636.168333	374.716797	78.080643
29986.893617	-1636.168333	373.435547	14.350256
29986.893617	-1636.168333	372.155273	-74.233452
29986.893617	-1636.168333	370.874023	-43.697880
29986.893617	-1636.168333	369.591797	-9.280978
29986.893617	-1636.168333	368.310547	20.797104
29986.893617	-1636.168333	367.028320	38.299141
29986.893617	-1636.168333	365.746094	22.683573
29986.893617	-1636.168333	364.463867	31.491936
29986.893617	-1636.168333	363.180664	-62.658112
29986.893617	-1636.168333	361.897461	-19.424728
29986.893617	-1636.168333	360.614258	7.106993
29986.893617	-1636.168333	359.330078	-38.490490
29986.893617	-1636.168333	358.045898	36.744675
29986.893617	-1636.168333	356.761719	-85.308937
29986.893617	-1636.168333	355.477539	106.267403
29986.893617	-1636.168333	354.192383	98.515404
29986.893617	-1636.168333	352.907227	74.060471
29986.893617	-1636.168333	351.622070	65.706123
29986.893617	-1636.168333	350.336914	46.789154
29986.893617	-1636.168333	349.050781	33.691761
29986.893617	-1636.168333	347.764648	-0.222602
29986.893617	-1636.168333	346.477539	-13.993497
29986.893617	-1636.168333	345.191406	-50.627506
29986.893617	-1636.168333	343.904297	43.414394
29986.893617	-1636.168333	342.616211	92.000641
29986.893617	-1636.168333	341.329102	-105.381828
29986.893617	-1636.168333	340.041016	-14.588991
29986.893617	-1636.168333	338.752930	-73.563667
29986.893617	-1636.168333	337.463867	175.881805
29986.893617	-1636.168333	336.175781	73.122246
29986.893617	-1636.168333	334.886719	155.991623
29986.893617	-1636.168333	333.596680	48.297100
29986.893617	-1636.168333	332.307617	-0.532169
29986.893617	-1636.168333	331.017578	52.328873
29986.893617	-1636.168333	329.727539	-62.789543
29986.893617	-1636.168333	328.436523	-39.500145
29986.893617	-1636.168333	327.146484	-28.953350
29986.893617	-1636.168333	325.855469	-2.605600
29986.893617	-1636.168333	324.563477	59.926315
29986.893617	-1636.168333	323.272461	48.463825
29986.893617	-1636.168333	321.980469	40.524555
29986.893617	-1636.168333	320.688477	-55.661762
29986.893617	-1636.168333	319.395508	-42.294685
29986.893617	-1636.168333	318.103516	21.459858
29986.893617	-1636.168333	316.810547	-5.101079
29986.893617	-1636.168333	315.516602	-32.281605
29986.893617	-1636.168333	314.223633	-53.946377
29986.893617	-1636.168333	312.929688	-94.591339
29986.893617	-1636.168333	311.635742	-135.873566
29986.893617	-1636.168333	310.340820	-33.286671
29986.893617	-1636.168333	309.045898	-100.363266
29986.893617	-1636.168333	307.750977	8.924911
29986.893617	-1636.168333	306.456055	-106.339447
29986.893617	-1636.168333	305.160156	66.521736
29986.893617	-1636.168333	303.865234	-31.880947
29986.893617	-1636.168333	302.568359	72.260513
29986.893617	-1636.168333	301.272461	53.638542
29986.893617	-1636.168333	299.975586	188.652283
29986.893617	-1636.168333	298.678711	261.838562
