#X		#Y		#Wave		#Intensity
29583.842553	-1505.516667	1999.980469	-51.018726
29583.842553	-1505.516667	1999.016602	64.089470
29583.842553	-1505.516667	1998.052734	124.183014
29583.842553	-1505.516667	1997.087891	60.439182
29583.842553	-1505.516667	1996.123047	185.115341
29583.842553	-1505.516667	1995.158203	141.386658
29583.842553	-1505.516667	1994.193359	35.845497
29583.842553	-1505.516667	1993.228516	39.388271
29583.842553	-1505.516667	1992.262695	134.618835
29583.842553	-1505.516667	1991.297852	4.643053
29583.842553	-1505.516667	1990.332031	-6.408777
29583.842553	-1505.516667	1989.366211	-61.915272
29583.842553	-1505.516667	1988.399414	-20.838558
29583.842553	-1505.516667	1987.433594	27.724491
29583.842553	-1505.516667	1986.466797	63.977917
29583.842553	-1505.516667	1985.500977	127.494484
29583.842553	-1505.516667	1984.534180	-28.964270
29583.842553	-1505.516667	1983.567383	47.046883
29583.842553	-1505.516667	1982.599609	-49.889172
29583.842553	-1505.516667	1981.632813	18.824232
29583.842553	-1505.516667	1980.665039	-6.295095
29583.842553	-1505.516667	1979.697266	87.214218
29583.842553	-1505.516667	1978.729492	0.486412
29583.842553	-1505.516667	1977.761719	-24.422377
29583.842553	-1505.516667	1976.792969	91.441376
29583.842553	-1505.516667	1975.825195	81.454643
29583.842553	-1505.516667	1974.856445	-32.109703
29583.842553	-1505.516667	1973.887695	111.005814
29583.842553	-1505.516667	1972.918945	32.124748
29583.842553	-1505.516667	1971.949219	0.183681
29583.842553	-1505.516667	1970.980469	2.830093
29583.842553	-1505.516667	1970.010742	-120.203262
29583.842553	-1505.516667	1969.041016	20.596020
29583.842553	-1505.516667	1968.071289	3.672931
29583.842553	-1505.516667	1967.101563	53.330395
29583.842553	-1505.516667	1966.130859	36.501480
29583.842553	-1505.516667	1965.161133	-34.459553
29583.842553	-1505.516667	1964.190430	49.788902
29583.842553	-1505.516667	1963.219727	-92.461655
29583.842553	-1505.516667	1962.249023	21.391600
29583.842553	-1505.516667	1961.277344	17.106737
29583.842553	-1505.516667	1960.306641	10.403867
29583.842553	-1505.516667	1959.334961	6.201775
29583.842553	-1505.516667	1958.363281	-69.294846
29583.842553	-1505.516667	1957.391602	-51.271912
29583.842553	-1505.516667	1956.419922	87.264832
29583.842553	-1505.516667	1955.447266	-93.810722
29583.842553	-1505.516667	1954.474609	-36.362820
29583.842553	-1505.516667	1953.501953	-23.138851
29583.842553	-1505.516667	1952.529297	44.166794
29583.842553	-1505.516667	1951.556641	-8.894903
29583.842553	-1505.516667	1950.583984	58.443367
29583.842553	-1505.516667	1949.610352	66.848000
29583.842553	-1505.516667	1948.636719	35.993958
29583.842553	-1505.516667	1947.663086	19.906645
29583.842553	-1505.516667	1946.689453	-10.874845
29583.842553	-1505.516667	1945.715820	-2.358278
29583.842553	-1505.516667	1944.741211	-37.982521
29583.842553	-1505.516667	1943.767578	-2.434560
29583.842553	-1505.516667	1942.792969	-64.977394
29583.842553	-1505.516667	1941.818359	-100.503540
29583.842553	-1505.516667	1940.842773	35.613472
29583.842553	-1505.516667	1939.868164	24.633541
29583.842553	-1505.516667	1938.892578	65.139603
29583.842553	-1505.516667	1937.916992	-36.462791
29583.842553	-1505.516667	1936.941406	-35.120747
29583.842553	-1505.516667	1935.965820	105.846588
29583.842553	-1505.516667	1934.990234	-42.184616
29583.842553	-1505.516667	1934.013672	-57.934120
29583.842553	-1505.516667	1933.037109	117.273865
29583.842553	-1505.516667	1932.060547	47.684189
29583.842553	-1505.516667	1931.083984	2.603262
29583.842553	-1505.516667	1930.107422	35.840904
29583.842553	-1505.516667	1929.129883	37.277828
29583.842553	-1505.516667	1928.153320	38.725471
29583.842553	-1505.516667	1927.175781	5.949406
29583.842553	-1505.516667	1926.198242	2.531904
29583.842553	-1505.516667	1925.219727	8.900879
29583.842553	-1505.516667	1924.242188	-77.588806
29583.842553	-1505.516667	1923.263672	26.542646
29583.842553	-1505.516667	1922.285156	91.555748
29583.842553	-1505.516667	1921.306641	-9.535721
29583.842553	-1505.516667	1920.328125	16.399723
29583.842553	-1505.516667	1919.349609	-67.538414
29583.842553	-1505.516667	1918.370117	-53.798084
29583.842553	-1505.516667	1917.391602	-30.295908
29583.842553	-1505.516667	1916.412109	-14.120285
29583.842553	-1505.516667	1915.431641	-83.338158
29583.842553	-1505.516667	1914.452148	-50.078808
29583.842553	-1505.516667	1913.472656	12.435726
29583.842553	-1505.516667	1912.492188	11.530522
29583.842553	-1505.516667	1911.511719	-18.628340
29583.842553	-1505.516667	1910.531250	12.160304
29583.842553	-1505.516667	1909.550781	-39.920444
29583.842553	-1505.516667	1908.569336	46.899368
29583.842553	-1505.516667	1907.588867	43.551315
29583.842553	-1505.516667	1906.607422	-76.707413
29583.842553	-1505.516667	1905.625977	39.287613
29583.842553	-1505.516667	1904.644531	33.501034
29583.842553	-1505.516667	1903.662109	100.741173
29583.842553	-1505.516667	1902.680664	94.938934
29583.842553	-1505.516667	1901.698242	21.000948
29583.842553	-1505.516667	1900.715820	-55.346294
29583.842553	-1505.516667	1899.733398	33.735683
29583.842553	-1505.516667	1898.750000	25.499798
29583.842553	-1505.516667	1897.767578	92.639008
29583.842553	-1505.516667	1896.784180	52.780151
29583.842553	-1505.516667	1895.800781	73.695198
29583.842553	-1505.516667	1894.817383	4.679942
29583.842553	-1505.516667	1893.833984	45.020412
29583.842553	-1505.516667	1892.850586	78.050743
29583.842553	-1505.516667	1891.866211	-24.951706
29583.842553	-1505.516667	1890.881836	29.918638
29583.842553	-1505.516667	1889.897461	53.197845
29583.842553	-1505.516667	1888.913086	-54.621716
29583.842553	-1505.516667	1887.927734	63.298828
29583.842553	-1505.516667	1886.943359	23.442465
29583.842553	-1505.516667	1885.958008	143.711853
29583.842553	-1505.516667	1884.972656	11.662560
29583.842553	-1505.516667	1883.987305	10.611470
29583.842553	-1505.516667	1883.001953	19.249237
29583.842553	-1505.516667	1882.015625	136.964279
29583.842553	-1505.516667	1881.029297	-33.807625
29583.842553	-1505.516667	1880.042969	28.114431
29583.842553	-1505.516667	1879.056641	-50.525394
29583.842553	-1505.516667	1878.070313	-15.292757
29583.842553	-1505.516667	1877.083984	56.244743
29583.842553	-1505.516667	1876.096680	38.146648
29583.842553	-1505.516667	1875.109375	-11.431201
29583.842553	-1505.516667	1874.122070	-46.478745
29583.842553	-1505.516667	1873.134766	-25.861897
29583.842553	-1505.516667	1872.146484	21.350927
29583.842553	-1505.516667	1871.159180	17.729105
29583.842553	-1505.516667	1870.170898	45.539555
29583.842553	-1505.516667	1869.182617	41.887699
29583.842553	-1505.516667	1868.194336	79.328056
29583.842553	-1505.516667	1867.205078	24.877151
29583.842553	-1505.516667	1866.216797	81.615250
29583.842553	-1505.516667	1865.227539	73.070900
29583.842553	-1505.516667	1864.238281	50.019287
29583.842553	-1505.516667	1863.249023	39.040112
29583.842553	-1505.516667	1862.259766	42.541943
29583.842553	-1505.516667	1861.269531	-91.612068
29583.842553	-1505.516667	1860.279297	-59.145687
29583.842553	-1505.516667	1859.290039	-24.291397
29583.842553	-1505.516667	1858.298828	-23.253778
29583.842553	-1505.516667	1857.308594	18.788980
29583.842553	-1505.516667	1856.318359	-76.709404
29583.842553	-1505.516667	1855.327148	-17.819420
29583.842553	-1505.516667	1854.335938	-36.136307
29583.842553	-1505.516667	1853.344727	-8.650855
29583.842553	-1505.516667	1852.353516	-12.529647
29583.842553	-1505.516667	1851.362305	48.653034
29583.842553	-1505.516667	1850.370117	155.581284
29583.842553	-1505.516667	1849.377930	-86.893272
29583.842553	-1505.516667	1848.385742	-52.276031
29583.842553	-1505.516667	1847.393555	49.747154
29583.842553	-1505.516667	1846.401367	113.189178
29583.842553	-1505.516667	1845.408203	-42.489792
29583.842553	-1505.516667	1844.415039	61.832489
29583.842553	-1505.516667	1843.421875	14.485587
29583.842553	-1505.516667	1842.428711	3.232409
29583.842553	-1505.516667	1841.435547	13.618345
29583.842553	-1505.516667	1840.441406	-28.931412
29583.842553	-1505.516667	1839.448242	82.424576
29583.842553	-1505.516667	1838.454102	42.250095
29583.842553	-1505.516667	1837.459961	69.382614
29583.842553	-1505.516667	1836.464844	46.016079
29583.842553	-1505.516667	1835.470703	-30.221550
29583.842553	-1505.516667	1834.475586	-17.555180
29583.842553	-1505.516667	1833.480469	43.131065
29583.842553	-1505.516667	1832.485352	7.714640
29583.842553	-1505.516667	1831.490234	53.934082
29583.842553	-1505.516667	1830.495117	-48.722549
29583.842553	-1505.516667	1829.499023	107.867561
29583.842553	-1505.516667	1828.502930	36.403156
29583.842553	-1505.516667	1827.506836	-1.459739
29583.842553	-1505.516667	1826.510742	126.198105
29583.842553	-1505.516667	1825.513672	54.721134
29583.842553	-1505.516667	1824.517578	52.797745
29583.842553	-1505.516667	1823.520508	38.869965
29583.842553	-1505.516667	1822.523438	24.931808
29583.842553	-1505.516667	1821.526367	-60.915848
29583.842553	-1505.516667	1820.529297	54.531147
29583.842553	-1505.516667	1819.531250	28.570061
29583.842553	-1505.516667	1818.533203	62.484764
29583.842553	-1505.516667	1817.535156	86.791435
29583.842553	-1505.516667	1816.537109	51.214500
29583.842553	-1505.516667	1815.539063	92.240349
29583.842553	-1505.516667	1814.540039	-46.275452
29583.842553	-1505.516667	1813.541992	83.263298
29583.842553	-1505.516667	1812.542969	21.332047
29583.842553	-1505.516667	1811.543945	107.719177
29583.842553	-1505.516667	1810.543945	107.957443
29583.842553	-1505.516667	1809.544922	41.228394
29583.842553	-1505.516667	1808.544922	31.885530
29583.842553	-1505.516667	1807.544922	5.799343
29583.842553	-1505.516667	1806.544922	8.385935
29583.842553	-1505.516667	1805.544922	-36.831165
29583.842553	-1505.516667	1804.544922	54.123482
29583.842553	-1505.516667	1803.543945	-5.447434
29583.842553	-1505.516667	1802.542969	23.346918
29583.842553	-1505.516667	1801.541992	-64.875679
29583.842553	-1505.516667	1800.541016	-45.658592
29583.842553	-1505.516667	1799.539063	30.815243
29583.842553	-1505.516667	1798.538086	11.798734
29583.842553	-1505.516667	1797.536133	-9.612454
29583.842553	-1505.516667	1796.534180	38.144722
29583.842553	-1505.516667	1795.532227	93.024475
29583.842553	-1505.516667	1794.529297	2.418268
29583.842553	-1505.516667	1793.527344	64.408257
29583.842553	-1505.516667	1792.524414	33.401989
29583.842553	-1505.516667	1791.521484	-114.376282
29583.842553	-1505.516667	1790.518555	-45.294106
29583.842553	-1505.516667	1789.514648	16.600224
29583.842553	-1505.516667	1788.511719	-31.099045
29583.842553	-1505.516667	1787.507813	-40.695164
29583.842553	-1505.516667	1786.503906	52.074272
29583.842553	-1505.516667	1785.500000	-48.013260
29583.842553	-1505.516667	1784.496094	39.936893
29583.842553	-1505.516667	1783.491211	8.866379
29583.842553	-1505.516667	1782.486328	13.480032
29583.842553	-1505.516667	1781.481445	-10.462976
29583.842553	-1505.516667	1780.476563	-39.165394
29583.842553	-1505.516667	1779.471680	110.454704
29583.842553	-1505.516667	1778.465820	84.091354
29583.842553	-1505.516667	1777.460938	19.699903
29583.842553	-1505.516667	1776.455078	-37.551693
29583.842553	-1505.516667	1775.449219	-99.545181
29583.842553	-1505.516667	1774.442383	9.500111
29583.842553	-1505.516667	1773.436523	-52.501396
29583.842553	-1505.516667	1772.429688	-102.620354
29583.842553	-1505.516667	1771.422852	-34.028980
29583.842553	-1505.516667	1770.416016	25.030918
29583.842553	-1505.516667	1769.409180	-41.718826
29583.842553	-1505.516667	1768.402344	48.143562
29583.842553	-1505.516667	1767.394531	76.281265
29583.842553	-1505.516667	1766.386719	-92.461052
29583.842553	-1505.516667	1765.378906	104.036880
29583.842553	-1505.516667	1764.371094	-3.023610
29583.842553	-1505.516667	1763.362305	-43.683243
29583.842553	-1505.516667	1762.354492	72.083961
29583.842553	-1505.516667	1761.345703	26.666861
29583.842553	-1505.516667	1760.336914	9.686807
29583.842553	-1505.516667	1759.328125	-19.139740
29583.842553	-1505.516667	1758.318359	-33.757339
29583.842553	-1505.516667	1757.308594	29.756891
29583.842553	-1505.516667	1756.299805	-34.593319
29583.842553	-1505.516667	1755.290039	-39.759033
29583.842553	-1505.516667	1754.279297	68.652451
29583.842553	-1505.516667	1753.269531	37.426785
29583.842553	-1505.516667	1752.258789	-22.183287
29583.842553	-1505.516667	1751.249023	31.744625
29583.842553	-1505.516667	1750.238281	28.891951
29583.842553	-1505.516667	1749.226563	14.209759
29583.842553	-1505.516667	1748.215820	-31.200319
29583.842553	-1505.516667	1747.204102	36.832119
29583.842553	-1505.516667	1746.193359	-62.923782
29583.842553	-1505.516667	1745.181641	64.132523
29583.842553	-1505.516667	1744.168945	-85.208771
29583.842553	-1505.516667	1743.157227	-55.029076
29583.842553	-1505.516667	1742.144531	1.100491
29583.842553	-1505.516667	1741.132813	-34.856041
29583.842553	-1505.516667	1740.120117	44.836102
29583.842553	-1505.516667	1739.106445	-71.359550
29583.842553	-1505.516667	1738.093750	-31.809271
29583.842553	-1505.516667	1737.080078	-55.967762
29583.842553	-1505.516667	1736.067383	-42.388527
29583.842553	-1505.516667	1735.053711	48.986160
29583.842553	-1505.516667	1734.040039	-19.981207
29583.842553	-1505.516667	1733.025391	-79.501938
29583.842553	-1505.516667	1732.011719	-2.327492
29583.842553	-1505.516667	1730.997070	-17.074743
29583.842553	-1505.516667	1729.982422	-29.465652
29583.842553	-1505.516667	1728.967773	21.731632
29583.842553	-1505.516667	1727.952148	68.193481
29583.842553	-1505.516667	1726.937500	-80.765121
29583.842553	-1505.516667	1725.921875	38.656639
29583.842553	-1505.516667	1724.906250	-4.350587
29583.842553	-1505.516667	1723.890625	-63.815197
29583.842553	-1505.516667	1722.875000	10.827175
29583.842553	-1505.516667	1721.858398	-79.202919
29583.842553	-1505.516667	1720.841797	56.543964
29583.842553	-1505.516667	1719.825195	34.713989
29583.842553	-1505.516667	1718.808594	22.291689
29583.842553	-1505.516667	1717.791992	-23.031368
29583.842553	-1505.516667	1716.774414	-162.330795
29583.842553	-1505.516667	1715.756836	-54.906139
29583.842553	-1505.516667	1714.739258	5.498357
29583.842553	-1505.516667	1713.721680	-82.069778
29583.842553	-1505.516667	1712.704102	8.835180
29583.842553	-1505.516667	1711.685547	-8.282314
29583.842553	-1505.516667	1710.667969	113.081253
29583.842553	-1505.516667	1709.649414	-14.342207
29583.842553	-1505.516667	1708.630859	29.548386
29583.842553	-1505.516667	1707.611328	-1.642901
29583.842553	-1505.516667	1706.592773	51.606735
29583.842553	-1505.516667	1705.573242	-38.198586
29583.842553	-1505.516667	1704.553711	129.905258
29583.842553	-1505.516667	1703.534180	26.054649
29583.842553	-1505.516667	1702.513672	32.381733
29583.842553	-1505.516667	1701.494141	-57.353634
29583.842553	-1505.516667	1700.473633	42.687145
29583.842553	-1505.516667	1699.453125	-84.491531
29583.842553	-1505.516667	1698.432617	74.056534
29583.842553	-1505.516667	1697.412109	115.485298
29583.842553	-1505.516667	1696.390625	58.585602
29583.842553	-1505.516667	1695.369141	32.131855
29583.842553	-1505.516667	1694.347656	64.184761
29583.842553	-1505.516667	1693.326172	-27.761158
29583.842553	-1505.516667	1692.304688	37.037422
29583.842553	-1505.516667	1691.282227	83.102058
29583.842553	-1505.516667	1690.260742	171.236755
29583.842553	-1505.516667	1689.238281	163.496216
29583.842553	-1505.516667	1688.214844	125.375206
29583.842553	-1505.516667	1687.192383	52.222656
29583.842553	-1505.516667	1686.168945	51.520752
29583.842553	-1505.516667	1685.146484	200.313217
29583.842553	-1505.516667	1684.123047	248.629135
29583.842553	-1505.516667	1683.099609	243.226288
29583.842553	-1505.516667	1682.075195	354.547363
29583.842553	-1505.516667	1681.051758	318.789429
29583.842553	-1505.516667	1680.027344	250.376343
29583.842553	-1505.516667	1679.002930	202.989914
29583.842553	-1505.516667	1677.978516	234.934509
29583.842553	-1505.516667	1676.953125	215.559341
29583.842553	-1505.516667	1675.928711	184.538696
29583.842553	-1505.516667	1674.903320	88.254974
29583.842553	-1505.516667	1673.877930	12.989594
29583.842553	-1505.516667	1672.852539	-50.591293
29583.842553	-1505.516667	1671.826172	48.949703
29583.842553	-1505.516667	1670.800781	38.972347
29583.842553	-1505.516667	1669.774414	101.200890
29583.842553	-1505.516667	1668.748047	158.752655
29583.842553	-1505.516667	1667.721680	-2.558744
29583.842553	-1505.516667	1666.694336	145.777344
29583.842553	-1505.516667	1665.667969	133.483414
29583.842553	-1505.516667	1664.640625	86.294762
29583.842553	-1505.516667	1663.613281	76.350655
29583.842553	-1505.516667	1662.585938	159.451263
29583.842553	-1505.516667	1661.557617	121.599701
29583.842553	-1505.516667	1660.530273	81.445168
29583.842553	-1505.516667	1659.501953	129.642181
29583.842553	-1505.516667	1658.473633	108.103195
29583.842553	-1505.516667	1657.444336	-83.050278
29583.842553	-1505.516667	1656.416016	18.601191
29583.842553	-1505.516667	1655.386719	108.603279
29583.842553	-1505.516667	1654.358398	3.505499
29583.842553	-1505.516667	1653.328125	-45.825039
29583.842553	-1505.516667	1652.298828	-164.770340
29583.842553	-1505.516667	1651.269531	-9.790639
29583.842553	-1505.516667	1650.239258	59.274948
29583.842553	-1505.516667	1649.208984	-10.882897
29583.842553	-1505.516667	1648.178711	60.489113
29583.842553	-1505.516667	1647.148438	-0.351334
29583.842553	-1505.516667	1646.117188	57.090652
29583.842553	-1505.516667	1645.086914	17.152781
29583.842553	-1505.516667	1644.055664	-6.539770
29583.842553	-1505.516667	1643.024414	55.526630
29583.842553	-1505.516667	1641.992188	-23.757099
29583.842553	-1505.516667	1640.960938	77.683495
29583.842553	-1505.516667	1639.928711	91.082054
29583.842553	-1505.516667	1638.896484	-11.294892
29583.842553	-1505.516667	1637.864258	53.063980
29583.842553	-1505.516667	1636.832031	-26.103422
29583.842553	-1505.516667	1635.798828	61.390003
29583.842553	-1505.516667	1634.766602	79.446487
29583.842553	-1505.516667	1633.733398	-15.850136
29583.842553	-1505.516667	1632.699219	55.423355
29583.842553	-1505.516667	1631.666016	31.870306
29583.842553	-1505.516667	1630.632813	-91.079491
29583.842553	-1505.516667	1629.598633	118.884659
29583.842553	-1505.516667	1628.564453	194.733780
29583.842553	-1505.516667	1627.530273	64.916916
29583.842553	-1505.516667	1626.495117	-16.328672
29583.842553	-1505.516667	1625.460938	-44.407589
29583.842553	-1505.516667	1624.425781	70.706787
29583.842553	-1505.516667	1623.390625	12.623854
29583.842553	-1505.516667	1622.355469	157.710403
29583.842553	-1505.516667	1621.319336	125.037674
29583.842553	-1505.516667	1620.284180	145.461258
29583.842553	-1505.516667	1619.248047	80.524445
29583.842553	-1505.516667	1618.211914	216.296066
29583.842553	-1505.516667	1617.174805	183.674805
29583.842553	-1505.516667	1616.138672	86.518806
29583.842553	-1505.516667	1615.101563	249.901276
29583.842553	-1505.516667	1614.065430	208.105835
29583.842553	-1505.516667	1613.027344	184.767975
29583.842553	-1505.516667	1611.990234	281.254059
29583.842553	-1505.516667	1610.953125	151.975571
29583.842553	-1505.516667	1609.915039	223.116867
29583.842553	-1505.516667	1608.876953	84.709305
29583.842553	-1505.516667	1607.838867	277.868683
29583.842553	-1505.516667	1606.800781	270.720337
29583.842553	-1505.516667	1605.761719	286.595917
29583.842553	-1505.516667	1604.723633	274.868683
29583.842553	-1505.516667	1603.684570	83.732224
29583.842553	-1505.516667	1602.644531	150.263504
29583.842553	-1505.516667	1601.605469	177.691727
29583.842553	-1505.516667	1600.566406	156.842438
29583.842553	-1505.516667	1599.526367	138.309830
29583.842553	-1505.516667	1598.486328	216.314590
29583.842553	-1505.516667	1597.446289	103.598473
29583.842553	-1505.516667	1596.405273	202.275452
29583.842553	-1505.516667	1595.365234	98.816528
29583.842553	-1505.516667	1594.324219	211.257202
29583.842553	-1505.516667	1593.283203	208.874985
29583.842553	-1505.516667	1592.242188	71.078636
29583.842553	-1505.516667	1591.200195	220.211914
29583.842553	-1505.516667	1590.159180	201.804031
29583.842553	-1505.516667	1589.117188	272.881104
29583.842553	-1505.516667	1588.075195	206.327728
29583.842553	-1505.516667	1587.032227	204.018997
29583.842553	-1505.516667	1585.990234	307.188110
29583.842553	-1505.516667	1584.947266	231.534119
29583.842553	-1505.516667	1583.904297	206.340988
29583.842553	-1505.516667	1582.861328	68.895180
29583.842553	-1505.516667	1581.818359	213.294617
29583.842553	-1505.516667	1580.775391	190.448303
29583.842553	-1505.516667	1579.731445	119.532646
29583.842553	-1505.516667	1578.687500	163.134293
29583.842553	-1505.516667	1577.643555	76.253777
29583.842553	-1505.516667	1576.598633	124.448418
29583.842553	-1505.516667	1575.554688	87.975555
29583.842553	-1505.516667	1574.509766	124.736412
29583.842553	-1505.516667	1573.464844	220.965744
29583.842553	-1505.516667	1572.419922	70.190948
29583.842553	-1505.516667	1571.374023	150.413239
29583.842553	-1505.516667	1570.329102	294.625671
29583.842553	-1505.516667	1569.283203	269.665894
29583.842553	-1505.516667	1568.237305	258.439667
29583.842553	-1505.516667	1567.191406	270.077240
29583.842553	-1505.516667	1566.144531	220.050323
29583.842553	-1505.516667	1565.098633	170.057388
29583.842553	-1505.516667	1564.051758	113.246727
29583.842553	-1505.516667	1563.004883	150.067337
29583.842553	-1505.516667	1561.957031	59.073524
29583.842553	-1505.516667	1560.910156	283.034698
29583.842553	-1505.516667	1559.862305	166.981598
29583.842553	-1505.516667	1558.814453	178.724945
29583.842553	-1505.516667	1557.766602	14.873411
29583.842553	-1505.516667	1556.718750	95.073273
29583.842553	-1505.516667	1555.669922	43.033215
29583.842553	-1505.516667	1554.621094	132.339539
29583.842553	-1505.516667	1553.573242	98.571701
29583.842553	-1505.516667	1552.523438	-44.530972
29583.842553	-1505.516667	1551.474609	17.447254
29583.842553	-1505.516667	1550.424805	29.310526
29583.842553	-1505.516667	1549.375000	86.722725
29583.842553	-1505.516667	1548.325195	2.981236
29583.842553	-1505.516667	1547.275391	46.747696
29583.842553	-1505.516667	1546.225586	117.819000
29583.842553	-1505.516667	1545.174805	-88.698334
29583.842553	-1505.516667	1544.124023	0.596804
29583.842553	-1505.516667	1543.073242	60.305260
29583.842553	-1505.516667	1542.022461	-77.820755
29583.842553	-1505.516667	1540.970703	-84.021347
29583.842553	-1505.516667	1539.919922	71.175209
29583.842553	-1505.516667	1538.868164	19.526241
29583.842553	-1505.516667	1537.815430	20.168276
29583.842553	-1505.516667	1536.763672	7.195516
29583.842553	-1505.516667	1535.710938	78.274544
29583.842553	-1505.516667	1534.659180	42.617191
29583.842553	-1505.516667	1533.606445	4.717238
29583.842553	-1505.516667	1532.552734	91.685814
29583.842553	-1505.516667	1531.500000	24.318407
29583.842553	-1505.516667	1530.446289	-2.168226
29583.842553	-1505.516667	1529.393555	-60.387840
29583.842553	-1505.516667	1528.338867	-0.634324
29583.842553	-1505.516667	1527.285156	70.448959
29583.842553	-1505.516667	1526.231445	125.648895
29583.842553	-1505.516667	1525.176758	160.440659
29583.842553	-1505.516667	1524.122070	104.583717
29583.842553	-1505.516667	1523.067383	148.457962
29583.842553	-1505.516667	1522.012695	110.777489
29583.842553	-1505.516667	1520.957031	57.271439
29583.842553	-1505.516667	1519.901367	155.518814
29583.842553	-1505.516667	1518.845703	289.965881
29583.842553	-1505.516667	1517.790039	243.290619
29583.842553	-1505.516667	1516.734375	235.121216
29583.842553	-1505.516667	1515.677734	152.301346
29583.842553	-1505.516667	1514.621094	137.395279
29583.842553	-1505.516667	1513.564453	154.174026
29583.842553	-1505.516667	1512.507813	225.232040
29583.842553	-1505.516667	1511.450195	203.581055
29583.842553	-1505.516667	1510.393555	-53.129047
29583.842553	-1505.516667	1509.335938	72.210396
29583.842553	-1505.516667	1508.278320	59.684311
29583.842553	-1505.516667	1507.219727	146.576462
29583.842553	-1505.516667	1506.162109	55.018291
29583.842553	-1505.516667	1505.103516	-56.813057
29583.842553	-1505.516667	1504.044922	43.640682
29583.842553	-1505.516667	1502.986328	28.948095
29583.842553	-1505.516667	1501.926758	-26.347240
29583.842553	-1505.516667	1500.868164	-4.888914
29583.842553	-1505.516667	1499.808594	-35.311176
29583.842553	-1505.516667	1498.749023	24.512522
29583.842553	-1505.516667	1497.688477	-57.740643
29583.842553	-1505.516667	1496.628906	56.203110
29583.842553	-1505.516667	1495.568359	-91.364586
29583.842553	-1505.516667	1494.507813	-31.519386
29583.842553	-1505.516667	1493.447266	-30.267658
29583.842553	-1505.516667	1492.386719	-76.310600
29583.842553	-1505.516667	1491.325195	-7.451179
29583.842553	-1505.516667	1490.263672	11.853297
29583.842553	-1505.516667	1489.202148	-56.641827
29583.842553	-1505.516667	1488.140625	72.993111
29583.842553	-1505.516667	1487.079102	-35.968231
29583.842553	-1505.516667	1486.016602	-23.365877
29583.842553	-1505.516667	1484.954102	56.735870
29583.842553	-1505.516667	1483.891602	-79.104919
29583.842553	-1505.516667	1482.829102	7.751381
29583.842553	-1505.516667	1481.765625	-6.586714
29583.842553	-1505.516667	1480.702148	-14.161840
29583.842553	-1505.516667	1479.638672	106.381195
29583.842553	-1505.516667	1478.575195	44.888306
29583.842553	-1505.516667	1477.511719	93.518394
29583.842553	-1505.516667	1476.447266	169.085861
29583.842553	-1505.516667	1475.382813	168.282120
29583.842553	-1505.516667	1474.318359	79.976044
29583.842553	-1505.516667	1473.253906	-10.557755
29583.842553	-1505.516667	1472.189453	24.646267
29583.842553	-1505.516667	1471.124023	5.989481
29583.842553	-1505.516667	1470.058594	-73.138268
29583.842553	-1505.516667	1468.993164	-89.492157
29583.842553	-1505.516667	1467.927734	77.902153
29583.842553	-1505.516667	1466.861328	-45.846886
29583.842553	-1505.516667	1465.794922	-24.076548
29583.842553	-1505.516667	1464.728516	-154.570068
29583.842553	-1505.516667	1463.662109	53.082417
29583.842553	-1505.516667	1462.594727	-12.411219
29583.842553	-1505.516667	1461.528320	-1.931425
29583.842553	-1505.516667	1460.460938	2.142421
29583.842553	-1505.516667	1459.393555	23.804760
29583.842553	-1505.516667	1458.326172	105.947395
29583.842553	-1505.516667	1457.257813	92.171562
29583.842553	-1505.516667	1456.189453	-104.511009
29583.842553	-1505.516667	1455.121094	77.626945
29583.842553	-1505.516667	1454.052734	95.154701
29583.842553	-1505.516667	1452.984375	79.148148
29583.842553	-1505.516667	1451.915039	-25.772861
29583.842553	-1505.516667	1450.845703	-95.822983
29583.842553	-1505.516667	1449.776367	-33.635799
29583.842553	-1505.516667	1448.707031	-58.504581
29583.842553	-1505.516667	1447.636719	47.813622
29583.842553	-1505.516667	1446.567383	107.193130
29583.842553	-1505.516667	1445.497070	-26.143034
29583.842553	-1505.516667	1444.425781	9.054623
29583.842553	-1505.516667	1443.355469	86.493835
29583.842553	-1505.516667	1442.285156	43.744980
29583.842553	-1505.516667	1441.213867	72.192421
29583.842553	-1505.516667	1440.142578	35.093796
29583.842553	-1505.516667	1439.070313	159.139420
29583.842553	-1505.516667	1437.999023	164.618439
29583.842553	-1505.516667	1436.926758	105.435219
29583.842553	-1505.516667	1435.854492	127.407890
29583.842553	-1505.516667	1434.782227	223.731720
29583.842553	-1505.516667	1433.709961	129.081924
29583.842553	-1505.516667	1432.636719	31.326149
29583.842553	-1505.516667	1431.563477	161.553452
29583.842553	-1505.516667	1430.490234	164.788940
29583.842553	-1505.516667	1429.416992	164.063553
29583.842553	-1505.516667	1428.343750	206.549835
29583.842553	-1505.516667	1427.269531	89.042480
29583.842553	-1505.516667	1426.195313	259.262817
29583.842553	-1505.516667	1425.121094	186.064545
29583.842553	-1505.516667	1424.046875	182.496689
29583.842553	-1505.516667	1422.971680	238.731415
29583.842553	-1505.516667	1421.896484	212.621597
29583.842553	-1505.516667	1420.821289	282.074402
29583.842553	-1505.516667	1419.746094	251.603943
29583.842553	-1505.516667	1418.669922	305.694183
29583.842553	-1505.516667	1417.594727	326.967560
29583.842553	-1505.516667	1416.518555	309.480286
29583.842553	-1505.516667	1415.442383	609.086365
29583.842553	-1505.516667	1414.365234	435.513153
29583.842553	-1505.516667	1413.289063	500.012787
29583.842553	-1505.516667	1412.211914	506.746155
29583.842553	-1505.516667	1411.134766	462.129517
29583.842553	-1505.516667	1410.057617	352.576385
29583.842553	-1505.516667	1408.979492	463.403381
29583.842553	-1505.516667	1407.902344	368.323792
29583.842553	-1505.516667	1406.824219	287.121277
29583.842553	-1505.516667	1405.746094	315.989105
29583.842553	-1505.516667	1404.666992	422.769073
29583.842553	-1505.516667	1403.588867	296.738647
29583.842553	-1505.516667	1402.509766	455.815033
29583.842553	-1505.516667	1401.430664	298.783081
29583.842553	-1505.516667	1400.351563	256.628784
29583.842553	-1505.516667	1399.271484	297.753571
29583.842553	-1505.516667	1398.192383	251.967712
29583.842553	-1505.516667	1397.112305	381.657104
29583.842553	-1505.516667	1396.031250	330.437897
29583.842553	-1505.516667	1394.951172	185.260941
29583.842553	-1505.516667	1393.871094	228.622665
29583.842553	-1505.516667	1392.790039	226.213318
29583.842553	-1505.516667	1391.708984	230.190903
29583.842553	-1505.516667	1390.626953	86.372421
29583.842553	-1505.516667	1389.545898	140.986954
29583.842553	-1505.516667	1388.463867	165.519409
29583.842553	-1505.516667	1387.381836	150.087952
29583.842553	-1505.516667	1386.299805	68.375862
29583.842553	-1505.516667	1385.217773	142.562271
29583.842553	-1505.516667	1384.134766	144.654404
29583.842553	-1505.516667	1383.051758	142.901276
29583.842553	-1505.516667	1381.968750	56.362598
29583.842553	-1505.516667	1380.885742	2.025629
29583.842553	-1505.516667	1379.802734	51.011623
29583.842553	-1505.516667	1378.718750	132.570297
29583.842553	-1505.516667	1377.634766	196.544601
29583.842553	-1505.516667	1376.550781	238.730576
29583.842553	-1505.516667	1375.465820	209.775452
29583.842553	-1505.516667	1374.381836	197.510559
29583.842553	-1505.516667	1373.296875	174.746292
29583.842553	-1505.516667	1372.211914	181.648270
29583.842553	-1505.516667	1371.126953	122.524292
29583.842553	-1505.516667	1370.041016	109.338242
29583.842553	-1505.516667	1368.955078	137.249390
29583.842553	-1505.516667	1367.869141	63.095318
29583.842553	-1505.516667	1366.783203	209.540985
29583.842553	-1505.516667	1365.697266	159.716431
29583.842553	-1505.516667	1364.610352	191.600510
29583.842553	-1505.516667	1363.523438	189.861237
29583.842553	-1505.516667	1362.436523	204.259735
29583.842553	-1505.516667	1361.349609	223.784973
29583.842553	-1505.516667	1360.261719	202.276154
29583.842553	-1505.516667	1359.174805	325.783661
29583.842553	-1505.516667	1358.086914	258.108032
29583.842553	-1505.516667	1356.998047	184.829315
29583.842553	-1505.516667	1355.910156	359.803986
29583.842553	-1505.516667	1354.821289	355.309479
29583.842553	-1505.516667	1353.732422	341.359894
29583.842553	-1505.516667	1352.643555	447.447144
29583.842553	-1505.516667	1351.554688	360.900970
29583.842553	-1505.516667	1350.464844	443.583099
29583.842553	-1505.516667	1349.375000	406.621643
29583.842553	-1505.516667	1348.285156	297.299500
29583.842553	-1505.516667	1347.195313	376.083405
29583.842553	-1505.516667	1346.105469	383.428833
29583.842553	-1505.516667	1345.014648	247.658234
29583.842553	-1505.516667	1343.923828	255.900452
29583.842553	-1505.516667	1342.833008	113.643913
29583.842553	-1505.516667	1341.741211	192.279968
29583.842553	-1505.516667	1340.650391	133.186615
29583.842553	-1505.516667	1339.558594	177.730103
29583.842553	-1505.516667	1338.466797	164.800171
29583.842553	-1505.516667	1337.374023	121.040413
29583.842553	-1505.516667	1336.282227	259.378326
29583.842553	-1505.516667	1335.189453	117.739998
29583.842553	-1505.516667	1334.096680	11.176085
29583.842553	-1505.516667	1333.003906	61.905006
29583.842553	-1505.516667	1331.910156	45.490036
29583.842553	-1505.516667	1330.817383	86.589806
29583.842553	-1505.516667	1329.723633	125.578751
29583.842553	-1505.516667	1328.629883	103.398079
29583.842553	-1505.516667	1327.535156	128.012695
29583.842553	-1505.516667	1326.441406	108.185936
29583.842553	-1505.516667	1325.346680	139.255402
29583.842553	-1505.516667	1324.251953	34.864189
29583.842553	-1505.516667	1323.156250	112.579277
29583.842553	-1505.516667	1322.061523	65.409073
29583.842553	-1505.516667	1320.965820	63.804985
29583.842553	-1505.516667	1319.870117	57.942810
29583.842553	-1505.516667	1318.774414	164.362518
29583.842553	-1505.516667	1317.678711	137.854050
29583.842553	-1505.516667	1316.582031	52.583813
29583.842553	-1505.516667	1315.485352	100.800308
29583.842553	-1505.516667	1314.388672	35.750294
29583.842553	-1505.516667	1313.291016	-28.863224
29583.842553	-1505.516667	1312.194336	45.230274
29583.842553	-1505.516667	1311.096680	55.640259
29583.842553	-1505.516667	1309.999023	163.096680
29583.842553	-1505.516667	1308.901367	86.062820
29583.842553	-1505.516667	1307.802734	108.421181
29583.842553	-1505.516667	1306.705078	37.324055
29583.842553	-1505.516667	1305.606445	-32.205219
29583.842553	-1505.516667	1304.506836	-6.641071
29583.842553	-1505.516667	1303.408203	69.546951
29583.842553	-1505.516667	1302.308594	62.797993
29583.842553	-1505.516667	1301.208984	23.890774
29583.842553	-1505.516667	1300.109375	59.147736
29583.842553	-1505.516667	1299.009766	89.803429
29583.842553	-1505.516667	1297.909180	-8.050170
29583.842553	-1505.516667	1296.808594	-44.446831
29583.842553	-1505.516667	1295.708008	76.376793
29583.842553	-1505.516667	1294.607422	4.635968
29583.842553	-1505.516667	1293.506836	13.669724
29583.842553	-1505.516667	1292.405273	20.463139
29583.842553	-1505.516667	1291.303711	80.358147
29583.842553	-1505.516667	1290.202148	16.025076
29583.842553	-1505.516667	1289.099609	130.173386
29583.842553	-1505.516667	1287.998047	90.162033
29583.842553	-1505.516667	1286.895508	95.916588
29583.842553	-1505.516667	1285.792969	67.538734
29583.842553	-1505.516667	1284.689453	76.068008
29583.842553	-1505.516667	1283.586914	80.515198
29583.842553	-1505.516667	1282.483398	58.498528
29583.842553	-1505.516667	1281.379883	46.192425
29583.842553	-1505.516667	1280.276367	10.877087
29583.842553	-1505.516667	1279.171875	32.546177
29583.842553	-1505.516667	1278.067383	-1.936445
29583.842553	-1505.516667	1276.962891	99.050247
29583.842553	-1505.516667	1275.858398	-30.745771
29583.842553	-1505.516667	1274.753906	-94.084579
29583.842553	-1505.516667	1273.648438	-69.100441
29583.842553	-1505.516667	1272.542969	-151.377975
29583.842553	-1505.516667	1271.437500	-7.867715
29583.842553	-1505.516667	1270.331055	-33.242458
29583.842553	-1505.516667	1269.225586	-52.824024
29583.842553	-1505.516667	1268.119141	-128.357635
29583.842553	-1505.516667	1267.012695	-56.202591
29583.842553	-1505.516667	1265.906250	-41.932209
29583.842553	-1505.516667	1264.798828	-24.503477
29583.842553	-1505.516667	1263.691406	-88.263008
29583.842553	-1505.516667	1262.583984	42.504211
29583.842553	-1505.516667	1261.476563	10.554953
29583.842553	-1505.516667	1260.368164	-62.682510
29583.842553	-1505.516667	1259.260742	-120.059326
29583.842553	-1505.516667	1258.152344	-91.178093
29583.842553	-1505.516667	1257.043945	-70.882263
29583.842553	-1505.516667	1255.934570	-49.632233
29583.842553	-1505.516667	1254.825195	39.574493
29583.842553	-1505.516667	1253.716797	30.581707
29583.842553	-1505.516667	1252.606445	15.174896
29583.842553	-1505.516667	1251.497070	-9.227951
29583.842553	-1505.516667	1250.387695	-42.994202
29583.842553	-1505.516667	1249.277344	-13.649661
29583.842553	-1505.516667	1248.166992	12.365768
29583.842553	-1505.516667	1247.055664	42.250404
29583.842553	-1505.516667	1245.945313	84.199699
29583.842553	-1505.516667	1244.833984	92.779045
29583.842553	-1505.516667	1243.722656	4.493867
29583.842553	-1505.516667	1242.611328	5.454684
29583.842553	-1505.516667	1241.499023	-0.231490
29583.842553	-1505.516667	1240.387695	9.566093
29583.842553	-1505.516667	1239.275391	-28.332516
29583.842553	-1505.516667	1238.162109	24.535023
29583.842553	-1505.516667	1237.049805	10.505749
29583.842553	-1505.516667	1235.936523	-21.078796
29583.842553	-1505.516667	1234.823242	-36.991043
29583.842553	-1505.516667	1233.709961	-60.267918
29583.842553	-1505.516667	1232.596680	53.826107
29583.842553	-1505.516667	1231.482422	-25.940571
29583.842553	-1505.516667	1230.369141	-83.142776
29583.842553	-1505.516667	1229.253906	-25.931490
29583.842553	-1505.516667	1228.139648	-33.753273
29583.842553	-1505.516667	1227.025391	-101.465698
29583.842553	-1505.516667	1225.910156	1.898598
29583.842553	-1505.516667	1224.794922	4.023493
29583.842553	-1505.516667	1223.679688	-19.822037
29583.842553	-1505.516667	1222.563477	-15.213338
29583.842553	-1505.516667	1221.447266	-55.500237
29583.842553	-1505.516667	1220.331055	-15.746269
29583.842553	-1505.516667	1219.214844	15.774575
29583.842553	-1505.516667	1218.098633	-40.378925
29583.842553	-1505.516667	1216.981445	-56.211315
29583.842553	-1505.516667	1215.864258	-5.309973
29583.842553	-1505.516667	1214.747070	-57.230373
29583.842553	-1505.516667	1213.629883	-15.429606
29583.842553	-1505.516667	1212.511719	88.137093
29583.842553	-1505.516667	1211.393555	85.158478
29583.842553	-1505.516667	1210.275391	50.300510
29583.842553	-1505.516667	1209.157227	71.821426
29583.842553	-1505.516667	1208.038086	101.255745
29583.842553	-1505.516667	1206.918945	108.737282
29583.842553	-1505.516667	1205.799805	86.240112
29583.842553	-1505.516667	1204.680664	47.415295
29583.842553	-1505.516667	1203.560547	157.961655
29583.842553	-1505.516667	1202.441406	3.668378
29583.842553	-1505.516667	1201.321289	55.513741
29583.842553	-1505.516667	1200.200195	-12.290168
29583.842553	-1505.516667	1199.080078	-31.632111
29583.842553	-1505.516667	1197.958984	11.352638
29583.842553	-1505.516667	1196.837891	54.160709
29583.842553	-1505.516667	1195.716797	-28.231152
29583.842553	-1505.516667	1194.594727	56.815815
29583.842553	-1505.516667	1193.473633	-47.504143
29583.842553	-1505.516667	1192.351563	-11.255750
29583.842553	-1505.516667	1191.229492	20.341322
29583.842553	-1505.516667	1190.106445	-64.698936
29583.842553	-1505.516667	1188.984375	-19.126347
29583.842553	-1505.516667	1187.861328	28.656212
29583.842553	-1505.516667	1186.738281	-48.015987
29583.842553	-1505.516667	1185.614258	-43.144344
29583.842553	-1505.516667	1184.491211	-21.618805
29583.842553	-1505.516667	1183.367188	19.299593
29583.842553	-1505.516667	1182.243164	55.629230
29583.842553	-1505.516667	1181.119141	-23.399723
29583.842553	-1505.516667	1179.994141	-25.469332
29583.842553	-1505.516667	1178.869141	18.850412
29583.842553	-1505.516667	1177.744141	-38.941517
29583.842553	-1505.516667	1176.619141	-7.622518
29583.842553	-1505.516667	1175.493164	-4.729152
29583.842553	-1505.516667	1174.368164	-21.011438
29583.842553	-1505.516667	1173.242188	-77.482399
29583.842553	-1505.516667	1172.115234	-97.391365
29583.842553	-1505.516667	1170.989258	24.906685
29583.842553	-1505.516667	1169.862305	-22.746061
29583.842553	-1505.516667	1168.735352	27.930523
29583.842553	-1505.516667	1167.608398	-61.676163
29583.842553	-1505.516667	1166.481445	-60.862545
29583.842553	-1505.516667	1165.353516	-39.636650
29583.842553	-1505.516667	1164.225586	-32.202953
29583.842553	-1505.516667	1163.097656	36.950455
29583.842553	-1505.516667	1161.968750	-10.579226
29583.842553	-1505.516667	1160.840820	79.954391
29583.842553	-1505.516667	1159.711914	56.216930
29583.842553	-1505.516667	1158.583008	-24.921606
29583.842553	-1505.516667	1157.453125	-9.186056
29583.842553	-1505.516667	1156.324219	66.401192
29583.842553	-1505.516667	1155.194336	20.760378
29583.842553	-1505.516667	1154.064453	-30.314411
29583.842553	-1505.516667	1152.933594	1.182695
29583.842553	-1505.516667	1151.803711	17.363356
29583.842553	-1505.516667	1150.672852	-4.727442
29583.842553	-1505.516667	1149.541992	35.247116
29583.842553	-1505.516667	1148.411133	-40.238155
29583.842553	-1505.516667	1147.279297	25.125332
29583.842553	-1505.516667	1146.147461	-48.049957
29583.842553	-1505.516667	1145.015625	-5.936431
29583.842553	-1505.516667	1143.883789	-46.236034
29583.842553	-1505.516667	1142.750977	-41.214401
29583.842553	-1505.516667	1141.619141	10.457468
29583.842553	-1505.516667	1140.486328	6.356246
29583.842553	-1505.516667	1139.352539	19.146187
29583.842553	-1505.516667	1138.219727	21.710520
29583.842553	-1505.516667	1137.085938	80.819008
29583.842553	-1505.516667	1135.952148	20.971844
29583.842553	-1505.516667	1134.818359	16.019083
29583.842553	-1505.516667	1133.683594	89.719963
29583.842553	-1505.516667	1132.549805	58.990711
29583.842553	-1505.516667	1131.415039	39.674782
29583.842553	-1505.516667	1130.279297	-0.455162
29583.842553	-1505.516667	1129.144531	111.090851
29583.842553	-1505.516667	1128.008789	48.854752
29583.842553	-1505.516667	1126.873047	51.542080
29583.842553	-1505.516667	1125.737305	126.299042
29583.842553	-1505.516667	1124.601563	63.801872
29583.842553	-1505.516667	1123.464844	63.258018
29583.842553	-1505.516667	1122.328125	72.936760
29583.842553	-1505.516667	1121.191406	77.946953
29583.842553	-1505.516667	1120.054688	130.444077
29583.842553	-1505.516667	1118.916992	44.659256
29583.842553	-1505.516667	1117.779297	65.153038
29583.842553	-1505.516667	1116.641602	27.436623
29583.842553	-1505.516667	1115.503906	-8.459505
29583.842553	-1505.516667	1114.365234	188.875687
29583.842553	-1505.516667	1113.226563	89.404640
29583.842553	-1505.516667	1112.087891	58.929794
29583.842553	-1505.516667	1110.949219	109.551224
29583.842553	-1505.516667	1109.809570	125.202660
29583.842553	-1505.516667	1108.669922	70.680763
29583.842553	-1505.516667	1107.530273	159.127853
29583.842553	-1505.516667	1106.390625	147.620544
29583.842553	-1505.516667	1105.250000	101.817894
29583.842553	-1505.516667	1104.109375	44.534901
29583.842553	-1505.516667	1102.968750	107.042053
29583.842553	-1505.516667	1101.828125	164.019989
29583.842553	-1505.516667	1100.686523	121.834747
29583.842553	-1505.516667	1099.544922	99.597527
29583.842553	-1505.516667	1098.403320	62.205490
29583.842553	-1505.516667	1097.261719	172.508972
29583.842553	-1505.516667	1096.120117	102.013786
29583.842553	-1505.516667	1094.977539	196.793503
29583.842553	-1505.516667	1093.834961	89.384125
29583.842553	-1505.516667	1092.691406	39.733707
29583.842553	-1505.516667	1091.548828	169.057846
29583.842553	-1505.516667	1090.405273	152.998566
29583.842553	-1505.516667	1089.261719	207.555496
29583.842553	-1505.516667	1088.118164	68.080643
29583.842553	-1505.516667	1086.973633	82.326515
29583.842553	-1505.516667	1085.829102	88.910194
29583.842553	-1505.516667	1084.684570	69.370705
29583.842553	-1505.516667	1083.540039	40.587433
29583.842553	-1505.516667	1082.395508	108.569374
29583.842553	-1505.516667	1081.250000	44.149578
29583.842553	-1505.516667	1080.104492	40.519115
29583.842553	-1505.516667	1078.958984	43.372787
29583.842553	-1505.516667	1077.812500	133.996017
29583.842553	-1505.516667	1076.666016	145.048141
29583.842553	-1505.516667	1075.519531	104.226669
29583.842553	-1505.516667	1074.373047	58.945145
29583.842553	-1505.516667	1073.226563	-79.994698
29583.842553	-1505.516667	1072.079102	112.173988
29583.842553	-1505.516667	1070.931641	19.456278
29583.842553	-1505.516667	1069.784180	58.986435
29583.842553	-1505.516667	1068.635742	84.674828
29583.842553	-1505.516667	1067.487305	50.463829
29583.842553	-1505.516667	1066.338867	40.092175
29583.842553	-1505.516667	1065.190430	97.811562
29583.842553	-1505.516667	1064.041992	180.710587
29583.842553	-1505.516667	1062.892578	17.823639
29583.842553	-1505.516667	1061.743164	63.163651
29583.842553	-1505.516667	1060.593750	81.945206
29583.842553	-1505.516667	1059.443359	49.861118
29583.842553	-1505.516667	1058.292969	154.648453
29583.842553	-1505.516667	1057.142578	87.732994
29583.842553	-1505.516667	1055.992188	114.383987
29583.842553	-1505.516667	1054.841797	-10.198853
29583.842553	-1505.516667	1053.690430	56.039307
29583.842553	-1505.516667	1052.539063	6.589724
29583.842553	-1505.516667	1051.387695	19.663076
29583.842553	-1505.516667	1050.235352	86.769516
29583.842553	-1505.516667	1049.083984	205.006363
29583.842553	-1505.516667	1047.931641	53.866840
29583.842553	-1505.516667	1046.778320	94.372643
29583.842553	-1505.516667	1045.625977	117.409203
29583.842553	-1505.516667	1044.472656	23.894516
29583.842553	-1505.516667	1043.319336	60.617977
29583.842553	-1505.516667	1042.166016	-48.313980
29583.842553	-1505.516667	1041.012695	62.421135
29583.842553	-1505.516667	1039.858398	112.420845
29583.842553	-1505.516667	1038.704102	108.150581
29583.842553	-1505.516667	1037.549805	-2.521991
29583.842553	-1505.516667	1036.394531	25.347309
29583.842553	-1505.516667	1035.239258	6.471738
29583.842553	-1505.516667	1034.083984	50.180145
29583.842553	-1505.516667	1032.928711	-3.781631
29583.842553	-1505.516667	1031.773438	-84.583771
29583.842553	-1505.516667	1030.617188	-18.724743
29583.842553	-1505.516667	1029.460938	-48.691463
29583.842553	-1505.516667	1028.304688	75.893509
29583.842553	-1505.516667	1027.147461	-78.520332
29583.842553	-1505.516667	1025.991211	-6.447495
29583.842553	-1505.516667	1024.833984	-40.376915
29583.842553	-1505.516667	1023.675781	-37.963886
29583.842553	-1505.516667	1022.518555	-22.538328
29583.842553	-1505.516667	1021.360352	-57.148769
29583.842553	-1505.516667	1020.202148	-25.183189
29583.842553	-1505.516667	1019.043945	-50.502193
29583.842553	-1505.516667	1017.884766	-34.034004
29583.842553	-1505.516667	1016.726563	75.315346
29583.842553	-1505.516667	1015.567383	62.921345
29583.842553	-1505.516667	1014.407227	71.404091
29583.842553	-1505.516667	1013.248047	-14.984459
29583.842553	-1505.516667	1012.087891	17.711475
29583.842553	-1505.516667	1010.927734	47.696976
29583.842553	-1505.516667	1009.767578	120.302361
29583.842553	-1505.516667	1008.606445	60.461906
29583.842553	-1505.516667	1007.446289	-55.125095
29583.842553	-1505.516667	1006.285156	-43.659664
29583.842553	-1505.516667	1005.123047	79.362335
29583.842553	-1505.516667	1003.961914	-38.997967
29583.842553	-1505.516667	1002.799805	101.833038
29583.842553	-1505.516667	1001.637695	89.609550
29583.842553	-1505.516667	1000.475586	95.560333
29583.842553	-1505.516667	999.312500	172.099365
29583.842553	-1505.516667	998.149414	38.694477
29583.842553	-1505.516667	996.986328	16.030725
29583.842553	-1505.516667	995.823242	163.056107
29583.842553	-1505.516667	994.659180	25.341328
29583.842553	-1505.516667	993.496094	117.545013
29583.842553	-1505.516667	992.332031	131.066620
29583.842553	-1505.516667	991.166992	187.974976
29583.842553	-1505.516667	990.002930	232.650452
29583.842553	-1505.516667	988.837891	148.274414
29583.842553	-1505.516667	987.672852	183.832596
29583.842553	-1505.516667	986.506836	183.143936
29583.842553	-1505.516667	985.341797	170.130356
29583.842553	-1505.516667	984.175781	141.564255
29583.842553	-1505.516667	983.009766	117.470200
29583.842553	-1505.516667	981.843750	153.572311
29583.842553	-1505.516667	980.676758	25.905811
29583.842553	-1505.516667	979.509766	56.471352
29583.842553	-1505.516667	978.342773	-16.470079
29583.842553	-1505.516667	977.175781	28.933323
29583.842553	-1505.516667	976.007813	80.488251
29583.842553	-1505.516667	974.839844	26.017647
29583.842553	-1505.516667	973.671875	64.723160
29583.842553	-1505.516667	972.503906	107.621651
29583.842553	-1505.516667	971.334961	33.857918
29583.842553	-1505.516667	970.166016	24.622108
29583.842553	-1505.516667	968.997070	86.012611
29583.842553	-1505.516667	967.828125	42.337543
29583.842553	-1505.516667	966.658203	14.976784
29583.842553	-1505.516667	965.488281	6.301663
29583.842553	-1505.516667	964.318359	-24.761549
29583.842553	-1505.516667	963.148438	50.322308
29583.842553	-1505.516667	961.977539	-54.733894
29583.842553	-1505.516667	960.806641	-103.792686
29583.842553	-1505.516667	959.635742	46.816826
29583.842553	-1505.516667	958.463867	23.675180
29583.842553	-1505.516667	957.292969	35.294163
29583.842553	-1505.516667	956.121094	2.402952
29583.842553	-1505.516667	954.948242	-39.425713
29583.842553	-1505.516667	953.776367	-34.246170
29583.842553	-1505.516667	952.603516	-78.340019
29583.842553	-1505.516667	951.430664	14.772525
29583.842553	-1505.516667	950.257813	-74.381424
29583.842553	-1505.516667	949.084961	-10.745713
29583.842553	-1505.516667	947.911133	5.856094
29583.842553	-1505.516667	946.737305	-43.317867
29583.842553	-1505.516667	945.563477	-89.822281
29583.842553	-1505.516667	944.388672	-54.307877
29583.842553	-1505.516667	943.213867	72.328712
29583.842553	-1505.516667	942.039063	16.137789
29583.842553	-1505.516667	940.864258	-4.845735
29583.842553	-1505.516667	939.688477	-18.852684
29583.842553	-1505.516667	938.513672	-21.117188
29583.842553	-1505.516667	937.337891	-82.093109
29583.842553	-1505.516667	936.161133	-44.603443
29583.842553	-1505.516667	934.985352	-18.655247
29583.842553	-1505.516667	933.808594	14.255603
29583.842553	-1505.516667	932.631836	72.962013
29583.842553	-1505.516667	931.454102	47.187958
29583.842553	-1505.516667	930.277344	155.134201
29583.842553	-1505.516667	929.099609	0.397085
29583.842553	-1505.516667	927.921875	-53.486092
29583.842553	-1505.516667	926.743164	-79.203987
29583.842553	-1505.516667	925.565430	52.087025
29583.842553	-1505.516667	924.386719	21.636827
29583.842553	-1505.516667	923.208008	49.769592
29583.842553	-1505.516667	922.028320	16.972420
29583.842553	-1505.516667	920.849609	-8.786009
29583.842553	-1505.516667	919.669922	-8.160400
29583.842553	-1505.516667	919.474609	-11.021695
29583.842553	-1505.516667	918.309570	28.766294
29583.842553	-1505.516667	917.143555	-107.017326
29583.842553	-1505.516667	915.977539	115.295876
29583.842553	-1505.516667	914.810547	-64.916885
29583.842553	-1505.516667	913.644531	-43.889496
29583.842553	-1505.516667	912.477539	9.866329
29583.842553	-1505.516667	911.310547	-95.409653
29583.842553	-1505.516667	910.143555	-13.624416
29583.842553	-1505.516667	908.975586	-67.443748
29583.842553	-1505.516667	907.807617	-41.794376
29583.842553	-1505.516667	906.639648	-34.853054
29583.842553	-1505.516667	905.471680	58.507423
29583.842553	-1505.516667	904.303711	-6.985392
29583.842553	-1505.516667	903.134766	-95.807121
29583.842553	-1505.516667	901.965820	-72.544144
29583.842553	-1505.516667	900.796875	-158.995041
29583.842553	-1505.516667	899.626953	-42.399841
29583.842553	-1505.516667	898.457031	-37.845158
29583.842553	-1505.516667	897.287109	-19.303150
29583.842553	-1505.516667	896.117188	55.195435
29583.842553	-1505.516667	894.947266	-14.903344
29583.842553	-1505.516667	893.776367	-63.999229
29583.842553	-1505.516667	892.605469	-45.491787
29583.842553	-1505.516667	891.434570	5.624372
29583.842553	-1505.516667	890.262695	3.130152
29583.842553	-1505.516667	889.091797	77.495255
29583.842553	-1505.516667	887.919922	26.070801
29583.842553	-1505.516667	886.748047	0.271940
29583.842553	-1505.516667	885.575195	-2.243724
29583.842553	-1505.516667	884.403320	39.454243
29583.842553	-1505.516667	883.230469	-32.887333
29583.842553	-1505.516667	882.057617	55.315674
29583.842553	-1505.516667	880.883789	-84.463242
29583.842553	-1505.516667	879.710938	-33.505512
29583.842553	-1505.516667	878.537109	1.150972
29583.842553	-1505.516667	877.362305	68.329948
29583.842553	-1505.516667	876.188477	35.542480
29583.842553	-1505.516667	875.013672	16.703547
29583.842553	-1505.516667	873.839844	28.065693
29583.842553	-1505.516667	872.664063	-155.679703
29583.842553	-1505.516667	871.489258	29.859497
29583.842553	-1505.516667	870.313477	-2.917150
29583.842553	-1505.516667	869.138672	13.057643
29583.842553	-1505.516667	867.962891	26.699512
29583.842553	-1505.516667	866.786133	24.088049
29583.842553	-1505.516667	865.610352	58.587444
29583.842553	-1505.516667	864.433594	-62.323940
29583.842553	-1505.516667	863.256836	18.542339
29583.842553	-1505.516667	862.079102	53.003704
29583.842553	-1505.516667	860.902344	48.041332
29583.842553	-1505.516667	859.724609	38.440174
29583.842553	-1505.516667	858.546875	14.935829
29583.842553	-1505.516667	857.368164	-129.018082
29583.842553	-1505.516667	856.190430	-55.221584
29583.842553	-1505.516667	855.011719	-37.031860
29583.842553	-1505.516667	853.833008	29.758635
29583.842553	-1505.516667	852.654297	-56.241688
29583.842553	-1505.516667	851.474609	35.968136
29583.842553	-1505.516667	850.294922	-63.891399
29583.842553	-1505.516667	849.115234	-15.678432
29583.842553	-1505.516667	847.935547	34.821167
29583.842553	-1505.516667	846.754883	36.739441
29583.842553	-1505.516667	845.575195	-83.866859
29583.842553	-1505.516667	844.393555	10.510675
29583.842553	-1505.516667	843.212891	-59.217144
29583.842553	-1505.516667	842.032227	-186.677795
29583.842553	-1505.516667	840.850586	-2.274644
29583.842553	-1505.516667	839.668945	-65.046440
29583.842553	-1505.516667	838.486328	29.200851
29583.842553	-1505.516667	837.304688	-26.638311
29583.842553	-1505.516667	836.122070	44.472057
29583.842553	-1505.516667	834.939453	25.559151
29583.842553	-1505.516667	833.756836	38.945015
29583.842553	-1505.516667	832.573242	24.642496
29583.842553	-1505.516667	831.389648	-12.719381
29583.842553	-1505.516667	830.206055	46.758324
29583.842553	-1505.516667	829.022461	131.560989
29583.842553	-1505.516667	827.838867	-23.348497
29583.842553	-1505.516667	826.654297	98.287094
29583.842553	-1505.516667	825.469727	93.169571
29583.842553	-1505.516667	824.284180	101.867393
29583.842553	-1505.516667	823.099609	57.595226
29583.842553	-1505.516667	821.914063	87.004662
29583.842553	-1505.516667	820.728516	35.837543
29583.842553	-1505.516667	819.542969	49.119534
29583.842553	-1505.516667	818.356445	-29.639011
29583.842553	-1505.516667	817.169922	-30.161551
29583.842553	-1505.516667	815.983398	17.605640
29583.842553	-1505.516667	814.796875	60.749012
29583.842553	-1505.516667	813.609375	16.513277
29583.842553	-1505.516667	812.422852	38.942753
29583.842553	-1505.516667	811.235352	144.081039
29583.842553	-1505.516667	810.046875	-1.247136
29583.842553	-1505.516667	808.859375	51.015499
29583.842553	-1505.516667	807.670898	-112.616043
29583.842553	-1505.516667	806.482422	148.571594
29583.842553	-1505.516667	805.293945	120.411674
29583.842553	-1505.516667	804.104492	103.732872
29583.842553	-1505.516667	802.915039	82.466553
29583.842553	-1505.516667	801.725586	-3.030805
29583.842553	-1505.516667	800.536133	127.101166
29583.842553	-1505.516667	799.345703	101.240677
29583.842553	-1505.516667	798.155273	22.654081
29583.842553	-1505.516667	796.964844	237.494965
29583.842553	-1505.516667	795.774414	87.858818
29583.842553	-1505.516667	794.583008	27.637743
29583.842553	-1505.516667	793.392578	24.705297
29583.842553	-1505.516667	792.200195	24.059288
29583.842553	-1505.516667	791.008789	34.856983
29583.842553	-1505.516667	789.816406	2.147697
29583.842553	-1505.516667	788.625000	28.957365
29583.842553	-1505.516667	787.432617	99.230057
29583.842553	-1505.516667	786.239258	4.738011
29583.842553	-1505.516667	785.046875	24.652441
29583.842553	-1505.516667	783.853516	26.257730
29583.842553	-1505.516667	782.660156	-24.732441
29583.842553	-1505.516667	781.465820	68.312759
29583.842553	-1505.516667	780.272461	85.891502
29583.842553	-1505.516667	779.078125	-65.637901
29583.842553	-1505.516667	777.883789	77.603775
29583.842553	-1505.516667	776.688477	54.040085
29583.842553	-1505.516667	775.494141	87.572044
29583.842553	-1505.516667	774.298828	-29.604158
29583.842553	-1505.516667	773.103516	-48.580723
29583.842553	-1505.516667	771.907227	140.128143
29583.842553	-1505.516667	770.711914	169.031158
29583.842553	-1505.516667	769.515625	86.134293
29583.842553	-1505.516667	768.318359	115.026665
29583.842553	-1505.516667	767.122070	77.772453
29583.842553	-1505.516667	765.924805	51.927891
29583.842553	-1505.516667	764.727539	119.544121
29583.842553	-1505.516667	763.530273	38.998360
29583.842553	-1505.516667	762.333008	136.199097
29583.842553	-1505.516667	761.134766	53.395737
29583.842553	-1505.516667	759.936523	132.323532
29583.842553	-1505.516667	758.738281	142.903412
29583.842553	-1505.516667	757.540039	85.178131
29583.842553	-1505.516667	756.340820	-18.048958
29583.842553	-1505.516667	755.141602	8.470591
29583.842553	-1505.516667	753.942383	7.673084
29583.842553	-1505.516667	752.742188	111.504700
29583.842553	-1505.516667	751.541992	60.645046
29583.842553	-1505.516667	750.341797	37.086575
29583.842553	-1505.516667	749.141602	38.538548
29583.842553	-1505.516667	747.941406	96.804214
29583.842553	-1505.516667	746.740234	-88.091896
29583.842553	-1505.516667	745.539063	-29.833433
29583.842553	-1505.516667	744.337891	39.753204
29583.842553	-1505.516667	743.135742	59.347332
29583.842553	-1505.516667	741.933594	44.873447
29583.842553	-1505.516667	740.731445	73.529335
29583.842553	-1505.516667	739.529297	72.666595
29583.842553	-1505.516667	738.326172	158.019699
29583.842553	-1505.516667	737.124023	68.660301
29583.842553	-1505.516667	735.919922	158.505875
29583.842553	-1505.516667	734.716797	87.315292
29583.842553	-1505.516667	733.513672	129.503189
29583.842553	-1505.516667	732.309570	65.139725
29583.842553	-1505.516667	731.105469	0.798849
29583.842553	-1505.516667	729.900391	47.496746
29583.842553	-1505.516667	728.696289	19.421097
29583.842553	-1505.516667	727.491211	70.616943
29583.842553	-1505.516667	726.286133	-32.179394
29583.842553	-1505.516667	725.080078	50.689861
29583.842553	-1505.516667	723.874023	-61.120270
29583.842553	-1505.516667	722.668945	-95.952560
29583.842553	-1505.516667	721.461914	-58.380123
29583.842553	-1505.516667	720.255859	17.624077
29583.842553	-1505.516667	719.048828	-28.521418
29583.842553	-1505.516667	717.841797	2.219047
29583.842553	-1505.516667	716.634766	114.318161
29583.842553	-1505.516667	715.427734	-15.448415
29583.842553	-1505.516667	714.219727	-52.525944
29583.842553	-1505.516667	713.011719	-37.634380
29583.842553	-1505.516667	711.803711	-65.664803
29583.842553	-1505.516667	710.594727	-132.074448
29583.842553	-1505.516667	709.385742	49.874744
29583.842553	-1505.516667	708.176758	6.032662
29583.842553	-1505.516667	706.967773	-1.688062
29583.842553	-1505.516667	705.758789	-72.581825
29583.842553	-1505.516667	704.548828	-107.358574
29583.842553	-1505.516667	703.338867	13.486142
29583.842553	-1505.516667	702.127930	-68.650940
29583.842553	-1505.516667	700.917969	27.331320
29583.842553	-1505.516667	699.707031	-2.943296
29583.842553	-1505.516667	698.496094	7.351191
29583.842553	-1505.516667	697.285156	-54.452911
29583.842553	-1505.516667	696.073242	70.712769
29583.842553	-1505.516667	694.861328	-18.108255
29583.842553	-1505.516667	693.649414	37.196358
29583.842553	-1505.516667	692.436523	72.215958
29583.842553	-1505.516667	691.224609	26.200172
29583.842553	-1505.516667	690.011719	29.700958
29583.842553	-1505.516667	688.798828	62.441048
29583.842553	-1505.516667	687.584961	16.447039
29583.842553	-1505.516667	686.372070	-25.033384
29583.842553	-1505.516667	685.158203	0.944061
29583.842553	-1505.516667	683.943359	13.421639
29583.842553	-1505.516667	682.729492	21.396801
29583.842553	-1505.516667	681.514648	58.572849
29583.842553	-1505.516667	680.299805	131.670090
29583.842553	-1505.516667	679.084961	99.183174
29583.842553	-1505.516667	677.869141	6.084264
29583.842553	-1505.516667	676.653320	63.424225
29583.842553	-1505.516667	675.437500	19.742155
29583.842553	-1505.516667	674.221680	103.976082
29583.842553	-1505.516667	673.004883	13.187253
29583.842553	-1505.516667	671.789063	54.766460
29583.842553	-1505.516667	670.571289	8.869547
29583.842553	-1505.516667	669.354492	137.863937
29583.842553	-1505.516667	668.136719	13.511487
29583.842553	-1505.516667	666.919922	7.983768
29583.842553	-1505.516667	665.701172	-80.444992
29583.842553	-1505.516667	664.483398	23.808710
29583.842553	-1505.516667	663.264648	11.555801
29583.842553	-1505.516667	662.045898	66.480232
29583.842553	-1505.516667	660.827148	-33.089115
29583.842553	-1505.516667	659.608398	-47.566986
29583.842553	-1505.516667	658.388672	-17.286932
29583.842553	-1505.516667	657.168945	-0.445126
29583.842553	-1505.516667	655.949219	5.203344
29583.842553	-1505.516667	654.728516	84.645241
29583.842553	-1505.516667	653.507813	143.929016
29583.842553	-1505.516667	652.287109	51.181190
29583.842553	-1505.516667	651.066406	59.040695
29583.842553	-1505.516667	649.844727	-9.075529
29583.842553	-1505.516667	648.623047	65.807251
29583.842553	-1505.516667	647.401367	49.084339
29583.842553	-1505.516667	646.179688	123.919579
29583.842553	-1505.516667	644.957031	-26.763992
29583.842553	-1505.516667	643.734375	43.587708
29583.842553	-1505.516667	642.511719	40.265480
29583.842553	-1505.516667	641.289063	-25.528000
29583.842553	-1505.516667	640.065430	-2.070149
29583.842553	-1505.516667	638.841797	5.765143
29583.842553	-1505.516667	637.618164	47.040649
29583.842553	-1505.516667	636.393555	14.732620
29583.842553	-1505.516667	635.168945	0.266721
29583.842553	-1505.516667	633.944336	-34.249348
29583.842553	-1505.516667	632.719727	84.966423
29583.842553	-1505.516667	631.494141	32.625381
29583.842553	-1505.516667	630.269531	-37.509777
29583.842553	-1505.516667	629.042969	43.777451
29583.842553	-1505.516667	627.817383	-17.429581
29583.842553	-1505.516667	626.590820	72.717819
29583.842553	-1505.516667	625.365234	-15.171947
29583.842553	-1505.516667	624.137695	90.505302
29583.842553	-1505.516667	622.911133	0.422046
29583.842553	-1505.516667	621.683594	92.707481
29583.842553	-1505.516667	620.456055	64.905441
29583.842553	-1505.516667	619.228516	97.124847
29583.842553	-1505.516667	618.000977	131.551498
29583.842553	-1505.516667	616.772461	72.651619
29583.842553	-1505.516667	615.543945	104.845016
29583.842553	-1505.516667	614.314453	68.180679
29583.842553	-1505.516667	613.085938	-6.213464
29583.842553	-1505.516667	611.856445	21.532978
29583.842553	-1505.516667	610.626953	73.678688
29583.842553	-1505.516667	609.397461	-42.830517
29583.842553	-1505.516667	608.166992	24.832895
29583.842553	-1505.516667	606.936523	-62.786263
29583.842553	-1505.516667	605.706055	-68.324448
29583.842553	-1505.516667	604.474609	43.637169
29583.842553	-1505.516667	603.244141	26.994358
29583.842553	-1505.516667	602.012695	-33.962833
29583.842553	-1505.516667	600.780273	95.641098
29583.842553	-1505.516667	599.548828	63.489010
29583.842553	-1505.516667	598.316406	-32.873909
29583.842553	-1505.516667	597.083984	56.789761
29583.842553	-1505.516667	595.851563	29.090874
29583.842553	-1505.516667	594.618164	131.980240
29583.842553	-1505.516667	593.384766	119.763626
29583.842553	-1505.516667	592.151367	125.249168
29583.842553	-1505.516667	590.917969	77.649010
29583.842553	-1505.516667	589.683594	85.350471
29583.842553	-1505.516667	588.449219	79.782639
29583.842553	-1505.516667	587.214844	-87.140190
29583.842553	-1505.516667	585.979492	-61.732845
29583.842553	-1505.516667	584.745117	-9.823695
29583.842553	-1505.516667	583.509766	48.688557
29583.842553	-1505.516667	582.273438	-12.083066
29583.842553	-1505.516667	581.038086	28.738880
29583.842553	-1505.516667	579.801758	-40.834648
29583.842553	-1505.516667	578.565430	-13.268874
29583.842553	-1505.516667	577.329102	-93.838959
29583.842553	-1505.516667	576.091797	-81.718887
29583.842553	-1505.516667	574.854492	-76.222023
29583.842553	-1505.516667	573.617188	-55.292244
29583.842553	-1505.516667	572.378906	-27.758810
29583.842553	-1505.516667	571.141602	-4.646633
29583.842553	-1505.516667	569.903320	115.420212
29583.842553	-1505.516667	568.664063	34.933872
29583.842553	-1505.516667	567.425781	-104.995552
29583.842553	-1505.516667	566.186523	-33.440395
29583.842553	-1505.516667	564.947266	73.313065
29583.842553	-1505.516667	563.708008	17.114628
29583.842553	-1505.516667	562.467773	-12.650384
29583.842553	-1505.516667	561.227539	1.605515
29583.842553	-1505.516667	559.987305	11.453563
29583.842553	-1505.516667	558.747070	-22.694674
29583.842553	-1505.516667	557.505859	-37.039104
29583.842553	-1505.516667	556.264648	-35.988823
29583.842553	-1505.516667	555.023438	-34.940628
29583.842553	-1505.516667	553.781250	-86.639114
29583.842553	-1505.516667	552.539063	-32.852276
29583.842553	-1505.516667	551.296875	-40.598740
29583.842553	-1505.516667	550.054688	61.468586
29583.842553	-1505.516667	548.811523	36.134628
29583.842553	-1505.516667	547.569336	52.520206
29583.842553	-1505.516667	546.325195	38.167992
29583.842553	-1505.516667	545.082031	21.625711
29583.842553	-1505.516667	543.837891	29.220358
29583.842553	-1505.516667	542.593750	-9.252849
29583.842553	-1505.516667	541.349609	-117.887268
29583.842553	-1505.516667	540.105469	-0.651278
29583.842553	-1505.516667	538.860352	24.466087
29583.842553	-1505.516667	537.615234	-130.137421
29583.842553	-1505.516667	536.369141	35.219547
29583.842553	-1505.516667	535.124023	25.253757
29583.842553	-1505.516667	533.877930	-113.929787
29583.842553	-1505.516667	532.631836	-64.745598
29583.842553	-1505.516667	531.384766	-70.316551
29583.842553	-1505.516667	530.138672	-25.547949
29583.842553	-1505.516667	528.891602	95.786514
29583.842553	-1505.516667	527.643555	13.599266
29583.842553	-1505.516667	526.396484	-0.749361
29583.842553	-1505.516667	525.148438	-58.834126
29583.842553	-1505.516667	523.900391	79.876488
29583.842553	-1505.516667	522.652344	15.232162
29583.842553	-1505.516667	521.403320	18.359224
29583.842553	-1505.516667	520.154297	-72.474487
29583.842553	-1505.516667	518.905273	37.700325
29583.842553	-1505.516667	517.656250	1.491617
29583.842553	-1505.516667	516.406250	-17.239454
29583.842553	-1505.516667	515.156250	-38.151333
29583.842553	-1505.516667	513.906250	-15.407801
29583.842553	-1505.516667	512.655273	-117.064484
29583.842553	-1505.516667	511.404297	-94.327446
29583.842553	-1505.516667	510.153320	-95.600471
29583.842553	-1505.516667	508.902344	-55.445808
29583.842553	-1505.516667	507.650391	104.599899
29583.842553	-1505.516667	506.398438	29.148233
29583.842553	-1505.516667	505.146484	77.944290
29583.842553	-1505.516667	503.893555	85.311745
29583.842553	-1505.516667	502.641602	-81.605087
29583.842553	-1505.516667	501.388672	12.894142
29583.842553	-1505.516667	500.134766	13.711705
29583.842553	-1505.516667	498.881836	108.131577
29583.842553	-1505.516667	497.627930	32.730259
29583.842553	-1505.516667	496.374023	61.802895
29583.842553	-1505.516667	495.119141	34.286594
29583.842553	-1505.516667	493.865234	-38.905987
29583.842553	-1505.516667	492.610352	57.545700
29583.842553	-1505.516667	491.355469	169.163849
29583.842553	-1505.516667	490.099609	-64.901855
29583.842553	-1505.516667	488.843750	-79.378983
29583.842553	-1505.516667	487.587891	1.740403
29583.842553	-1505.516667	486.332031	113.224716
29583.842553	-1505.516667	485.075195	94.335632
29583.842553	-1505.516667	483.818359	45.041374
29583.842553	-1505.516667	482.561523	-75.886002
29583.842553	-1505.516667	481.304688	-3.605356
29583.842553	-1505.516667	480.046875	25.228876
29583.842553	-1505.516667	478.789063	23.661835
29583.842553	-1505.516667	477.531250	84.982376
29583.842553	-1505.516667	476.272461	70.358757
29583.842553	-1505.516667	475.013672	144.617371
29583.842553	-1505.516667	473.754883	28.073645
29583.842553	-1505.516667	472.496094	113.110146
29583.842553	-1505.516667	471.236328	124.422623
29583.842553	-1505.516667	469.976563	101.051338
29583.842553	-1505.516667	468.716797	112.323151
29583.842553	-1505.516667	467.456055	169.040894
29583.842553	-1505.516667	466.196289	69.845787
29583.842553	-1505.516667	464.935547	24.780773
29583.842553	-1505.516667	463.673828	1.351568
29583.842553	-1505.516667	462.413086	116.371544
29583.842553	-1505.516667	461.151367	179.406479
29583.842553	-1505.516667	459.889648	47.764706
29583.842553	-1505.516667	458.626953	37.229092
29583.842553	-1505.516667	457.364258	134.751541
29583.842553	-1505.516667	456.101563	52.834572
29583.842553	-1505.516667	454.838867	83.279991
29583.842553	-1505.516667	453.575195	146.086594
29583.842553	-1505.516667	452.312500	113.812302
29583.842553	-1505.516667	451.047852	100.954536
29583.842553	-1505.516667	449.784180	64.327667
29583.842553	-1505.516667	448.519531	42.793789
29583.842553	-1505.516667	447.254883	38.500904
29583.842553	-1505.516667	445.990234	49.279770
29583.842553	-1505.516667	444.725586	64.335396
29583.842553	-1505.516667	443.459961	111.696526
29583.842553	-1505.516667	442.194336	262.489685
29583.842553	-1505.516667	440.927734	148.054123
29583.842553	-1505.516667	439.662109	171.555939
29583.842553	-1505.516667	438.395508	199.318420
29583.842553	-1505.516667	437.127930	248.571014
29583.842553	-1505.516667	435.861328	207.311798
29583.842553	-1505.516667	434.593750	77.749290
29583.842553	-1505.516667	433.326172	133.334763
29583.842553	-1505.516667	432.058594	143.657349
29583.842553	-1505.516667	430.790039	37.735554
29583.842553	-1505.516667	429.521484	60.894230
29583.842553	-1505.516667	428.252930	56.036884
29583.842553	-1505.516667	426.984375	203.812607
29583.842553	-1505.516667	425.714844	183.782150
29583.842553	-1505.516667	424.445313	193.804611
29583.842553	-1505.516667	423.174805	124.259262
29583.842553	-1505.516667	421.905273	166.417587
29583.842553	-1505.516667	420.634766	180.579666
29583.842553	-1505.516667	419.364258	147.435471
29583.842553	-1505.516667	418.092773	172.221649
29583.842553	-1505.516667	416.822266	154.010239
29583.842553	-1505.516667	415.550781	185.110168
29583.842553	-1505.516667	414.278320	119.578865
29583.842553	-1505.516667	413.006836	247.091064
29583.842553	-1505.516667	411.734375	121.399956
29583.842553	-1505.516667	410.461914	171.535461
29583.842553	-1505.516667	409.188477	50.074326
29583.842553	-1505.516667	407.916016	89.357346
29583.842553	-1505.516667	406.642578	92.124275
29583.842553	-1505.516667	405.368164	30.545361
29583.842553	-1505.516667	404.094727	35.327583
29583.842553	-1505.516667	402.820313	168.525742
29583.842553	-1505.516667	401.545898	85.344948
29583.842553	-1505.516667	400.270508	139.121658
29583.842553	-1505.516667	398.996094	199.221603
29583.842553	-1505.516667	397.720703	137.252975
29583.842553	-1505.516667	396.444336	19.609440
29583.842553	-1505.516667	395.168945	192.807144
29583.842553	-1505.516667	393.892578	21.580297
29583.842553	-1505.516667	392.616211	179.566086
29583.842553	-1505.516667	391.339844	189.918732
29583.842553	-1505.516667	390.062500	76.235397
29583.842553	-1505.516667	388.785156	114.196594
29583.842553	-1505.516667	387.507813	47.386120
29583.842553	-1505.516667	386.229492	40.300495
29583.842553	-1505.516667	384.951172	48.065880
29583.842553	-1505.516667	383.672852	59.997902
29583.842553	-1505.516667	382.394531	56.884819
29583.842553	-1505.516667	381.115234	175.283493
29583.842553	-1505.516667	379.835938	120.737961
29583.842553	-1505.516667	378.556641	-21.332529
29583.842553	-1505.516667	377.277344	47.640888
29583.842553	-1505.516667	375.997070	-30.624746
29583.842553	-1505.516667	374.716797	3.988735
29583.842553	-1505.516667	373.435547	176.971069
29583.842553	-1505.516667	372.155273	70.681969
29583.842553	-1505.516667	370.874023	87.848633
29583.842553	-1505.516667	369.591797	100.619987
29583.842553	-1505.516667	368.310547	-67.701935
29583.842553	-1505.516667	367.028320	-70.058838
29583.842553	-1505.516667	365.746094	53.008842
29583.842553	-1505.516667	364.463867	-13.469237
29583.842553	-1505.516667	363.180664	34.804867
29583.842553	-1505.516667	361.897461	72.284050
29583.842553	-1505.516667	360.614258	105.350845
29583.842553	-1505.516667	359.330078	-57.317612
29583.842553	-1505.516667	358.045898	-77.669868
29583.842553	-1505.516667	356.761719	54.821987
29583.842553	-1505.516667	355.477539	4.405530
29583.842553	-1505.516667	354.192383	4.820722
29583.842553	-1505.516667	352.907227	-71.369743
29583.842553	-1505.516667	351.622070	7.285674
29583.842553	-1505.516667	350.336914	179.129578
29583.842553	-1505.516667	349.050781	15.437114
29583.842553	-1505.516667	347.764648	-55.008530
29583.842553	-1505.516667	346.477539	-51.368370
29583.842553	-1505.516667	345.191406	-164.541504
29583.842553	-1505.516667	343.904297	-2.230510
29583.842553	-1505.516667	342.616211	-100.913582
29583.842553	-1505.516667	341.329102	-102.252090
29583.842553	-1505.516667	340.041016	101.731766
29583.842553	-1505.516667	338.752930	40.633259
29583.842553	-1505.516667	337.463867	85.244812
29583.842553	-1505.516667	336.175781	-33.404812
29583.842553	-1505.516667	334.886719	-44.256207
29583.842553	-1505.516667	333.596680	8.169243
29583.842553	-1505.516667	332.307617	73.056091
29583.842553	-1505.516667	331.017578	27.673292
29583.842553	-1505.516667	329.727539	51.881401
29583.842553	-1505.516667	328.436523	-97.563164
29583.842553	-1505.516667	327.146484	78.415375
29583.842553	-1505.516667	325.855469	-67.219345
29583.842553	-1505.516667	324.563477	-39.756817
29583.842553	-1505.516667	323.272461	2.242902
29583.842553	-1505.516667	321.980469	-148.262985
29583.842553	-1505.516667	320.688477	117.079254
29583.842553	-1505.516667	319.395508	46.315533
29583.842553	-1505.516667	318.103516	-12.010443
29583.842553	-1505.516667	316.810547	-43.157890
29583.842553	-1505.516667	315.516602	-17.609478
29583.842553	-1505.516667	314.223633	5.544740
29583.842553	-1505.516667	312.929688	22.062149
29583.842553	-1505.516667	311.635742	-33.416019
29583.842553	-1505.516667	310.340820	100.557213
29583.842553	-1505.516667	309.045898	42.362846
29583.842553	-1505.516667	307.750977	99.783501
29583.842553	-1505.516667	306.456055	112.620529
29583.842553	-1505.516667	305.160156	45.076744
29583.842553	-1505.516667	303.865234	206.790131
29583.842553	-1505.516667	302.568359	245.959549
29583.842553	-1505.516667	301.272461	166.907440
29583.842553	-1505.516667	299.975586	211.698044
29583.842553	-1505.516667	298.678711	232.973297
