#X		#Y		#Wave		#Intensity
29933.871277	-1596.995000	1999.980469	-21.177328
29933.871277	-1596.995000	1999.016602	-36.570213
29933.871277	-1596.995000	1998.052734	55.959732
29933.871277	-1596.995000	1997.087891	41.889801
29933.871277	-1596.995000	1996.123047	102.149521
29933.871277	-1596.995000	1995.158203	23.658609
29933.871277	-1596.995000	1994.193359	61.598984
29933.871277	-1596.995000	1993.228516	20.279997
29933.871277	-1596.995000	1992.262695	85.431824
29933.871277	-1596.995000	1991.297852	-20.244455
29933.871277	-1596.995000	1990.332031	77.057419
29933.871277	-1596.995000	1989.366211	15.954471
29933.871277	-1596.995000	1988.399414	-67.395920
29933.871277	-1596.995000	1987.433594	81.795219
29933.871277	-1596.995000	1986.466797	112.219360
29933.871277	-1596.995000	1985.500977	-82.377487
29933.871277	-1596.995000	1984.534180	116.167793
29933.871277	-1596.995000	1983.567383	69.939499
29933.871277	-1596.995000	1982.599609	-82.537842
29933.871277	-1596.995000	1981.632813	-74.359062
29933.871277	-1596.995000	1980.665039	20.276640
29933.871277	-1596.995000	1979.697266	30.899817
29933.871277	-1596.995000	1978.729492	-128.870682
29933.871277	-1596.995000	1977.761719	5.221653
29933.871277	-1596.995000	1976.792969	-50.810383
29933.871277	-1596.995000	1975.825195	63.472050
29933.871277	-1596.995000	1974.856445	-39.434990
29933.871277	-1596.995000	1973.887695	18.058123
29933.871277	-1596.995000	1972.918945	-153.869263
29933.871277	-1596.995000	1971.949219	-123.505180
29933.871277	-1596.995000	1970.980469	-4.384433
29933.871277	-1596.995000	1970.010742	-18.433840
29933.871277	-1596.995000	1969.041016	105.552895
29933.871277	-1596.995000	1968.071289	71.774628
29933.871277	-1596.995000	1967.101563	74.967819
29933.871277	-1596.995000	1966.130859	-49.938793
29933.871277	-1596.995000	1965.161133	-59.037186
29933.871277	-1596.995000	1964.190430	128.871780
29933.871277	-1596.995000	1963.219727	-30.441650
29933.871277	-1596.995000	1962.249023	34.313622
29933.871277	-1596.995000	1961.277344	-4.323808
29933.871277	-1596.995000	1960.306641	107.158531
29933.871277	-1596.995000	1959.334961	63.604805
29933.871277	-1596.995000	1958.363281	111.081100
29933.871277	-1596.995000	1957.391602	121.651955
29933.871277	-1596.995000	1956.419922	58.454163
29933.871277	-1596.995000	1955.447266	41.990662
29933.871277	-1596.995000	1954.474609	-26.081181
29933.871277	-1596.995000	1953.501953	-13.028390
29933.871277	-1596.995000	1952.529297	135.159348
29933.871277	-1596.995000	1951.556641	-11.496906
29933.871277	-1596.995000	1950.583984	1.552696
29933.871277	-1596.995000	1949.610352	51.434135
29933.871277	-1596.995000	1948.636719	22.732468
29933.871277	-1596.995000	1947.663086	-18.230480
29933.871277	-1596.995000	1946.689453	21.816809
29933.871277	-1596.995000	1945.715820	115.836281
29933.871277	-1596.995000	1944.741211	62.618950
29933.871277	-1596.995000	1943.767578	21.689331
29933.871277	-1596.995000	1942.792969	56.803722
29933.871277	-1596.995000	1941.818359	-1.269267
29933.871277	-1596.995000	1940.842773	4.422016
29933.871277	-1596.995000	1939.868164	103.256538
29933.871277	-1596.995000	1938.892578	177.549698
29933.871277	-1596.995000	1937.916992	-0.552482
29933.871277	-1596.995000	1936.941406	-21.801956
29933.871277	-1596.995000	1935.965820	-3.852533
29933.871277	-1596.995000	1934.990234	63.069218
29933.871277	-1596.995000	1934.013672	66.310455
29933.871277	-1596.995000	1933.037109	37.730068
29933.871277	-1596.995000	1932.060547	-113.210052
29933.871277	-1596.995000	1931.083984	-36.520180
29933.871277	-1596.995000	1930.107422	-67.504036
29933.871277	-1596.995000	1929.129883	-100.920921
29933.871277	-1596.995000	1928.153320	-36.496464
29933.871277	-1596.995000	1927.175781	-6.326857
29933.871277	-1596.995000	1926.198242	-51.952187
29933.871277	-1596.995000	1925.219727	2.655857
29933.871277	-1596.995000	1924.242188	-72.275276
29933.871277	-1596.995000	1923.263672	4.311563
29933.871277	-1596.995000	1922.285156	56.442665
29933.871277	-1596.995000	1921.306641	15.743962
29933.871277	-1596.995000	1920.328125	243.681717
29933.871277	-1596.995000	1919.349609	151.695328
29933.871277	-1596.995000	1918.370117	-15.929094
29933.871277	-1596.995000	1917.391602	58.134010
29933.871277	-1596.995000	1916.412109	44.324608
29933.871277	-1596.995000	1915.431641	-176.853943
29933.871277	-1596.995000	1914.452148	124.053772
29933.871277	-1596.995000	1913.472656	-33.644173
29933.871277	-1596.995000	1912.492188	-83.994652
29933.871277	-1596.995000	1911.511719	131.405518
29933.871277	-1596.995000	1910.531250	81.046021
29933.871277	-1596.995000	1909.550781	38.018089
29933.871277	-1596.995000	1908.569336	-48.850166
29933.871277	-1596.995000	1907.588867	20.224249
29933.871277	-1596.995000	1906.607422	-86.091133
29933.871277	-1596.995000	1905.625977	14.623466
29933.871277	-1596.995000	1904.644531	59.303501
29933.871277	-1596.995000	1903.662109	65.018784
29933.871277	-1596.995000	1902.680664	104.807175
29933.871277	-1596.995000	1901.698242	-6.286844
29933.871277	-1596.995000	1900.715820	-200.056396
29933.871277	-1596.995000	1899.733398	-4.563610
29933.871277	-1596.995000	1898.750000	20.617790
29933.871277	-1596.995000	1897.767578	-104.964119
29933.871277	-1596.995000	1896.784180	-48.168648
29933.871277	-1596.995000	1895.800781	25.619745
29933.871277	-1596.995000	1894.817383	75.079178
29933.871277	-1596.995000	1893.833984	0.605551
29933.871277	-1596.995000	1892.850586	96.207054
29933.871277	-1596.995000	1891.866211	-72.966431
29933.871277	-1596.995000	1890.881836	76.035591
29933.871277	-1596.995000	1889.897461	-3.240119
29933.871277	-1596.995000	1888.913086	87.433876
29933.871277	-1596.995000	1887.927734	129.533615
29933.871277	-1596.995000	1886.943359	9.039795
29933.871277	-1596.995000	1885.958008	55.989071
29933.871277	-1596.995000	1884.972656	-3.807714
29933.871277	-1596.995000	1883.987305	98.902748
29933.871277	-1596.995000	1883.001953	138.531464
29933.871277	-1596.995000	1882.015625	153.901169
29933.871277	-1596.995000	1881.029297	-5.250566
29933.871277	-1596.995000	1880.042969	155.538071
29933.871277	-1596.995000	1879.056641	-22.940565
29933.871277	-1596.995000	1878.070313	28.777763
29933.871277	-1596.995000	1877.083984	63.521061
29933.871277	-1596.995000	1876.096680	-22.827913
29933.871277	-1596.995000	1875.109375	149.908875
29933.871277	-1596.995000	1874.122070	-25.991367
29933.871277	-1596.995000	1873.134766	32.928280
29933.871277	-1596.995000	1872.146484	14.392361
29933.871277	-1596.995000	1871.159180	61.180897
29933.871277	-1596.995000	1870.170898	40.222111
29933.871277	-1596.995000	1869.182617	111.166206
29933.871277	-1596.995000	1868.194336	143.393417
29933.871277	-1596.995000	1867.205078	-10.537718
29933.871277	-1596.995000	1866.216797	-58.066898
29933.871277	-1596.995000	1865.227539	-33.085258
29933.871277	-1596.995000	1864.238281	88.526649
29933.871277	-1596.995000	1863.249023	74.813629
29933.871277	-1596.995000	1862.259766	51.441063
29933.871277	-1596.995000	1861.269531	182.615906
29933.871277	-1596.995000	1860.279297	125.423920
29933.871277	-1596.995000	1859.290039	-6.578898
29933.871277	-1596.995000	1858.298828	-87.856949
29933.871277	-1596.995000	1857.308594	72.183311
29933.871277	-1596.995000	1856.318359	80.173615
29933.871277	-1596.995000	1855.327148	71.272049
29933.871277	-1596.995000	1854.335938	31.018513
29933.871277	-1596.995000	1853.344727	111.329865
29933.871277	-1596.995000	1852.353516	3.575603
29933.871277	-1596.995000	1851.362305	35.648186
29933.871277	-1596.995000	1850.370117	159.272568
29933.871277	-1596.995000	1849.377930	-71.320404
29933.871277	-1596.995000	1848.385742	73.946274
29933.871277	-1596.995000	1847.393555	31.298555
29933.871277	-1596.995000	1846.401367	118.689445
29933.871277	-1596.995000	1845.408203	169.928833
29933.871277	-1596.995000	1844.415039	14.138218
29933.871277	-1596.995000	1843.421875	-45.337326
29933.871277	-1596.995000	1842.428711	25.133923
29933.871277	-1596.995000	1841.435547	-31.928143
29933.871277	-1596.995000	1840.441406	31.284393
29933.871277	-1596.995000	1839.448242	-4.127873
29933.871277	-1596.995000	1838.454102	68.659012
29933.871277	-1596.995000	1837.459961	90.931129
29933.871277	-1596.995000	1836.464844	110.782990
29933.871277	-1596.995000	1835.470703	99.382629
29933.871277	-1596.995000	1834.475586	13.501215
29933.871277	-1596.995000	1833.480469	9.314017
29933.871277	-1596.995000	1832.485352	91.578239
29933.871277	-1596.995000	1831.490234	-23.090014
29933.871277	-1596.995000	1830.495117	181.568893
29933.871277	-1596.995000	1829.499023	52.508827
29933.871277	-1596.995000	1828.502930	156.268356
29933.871277	-1596.995000	1827.506836	123.218468
29933.871277	-1596.995000	1826.510742	92.571449
29933.871277	-1596.995000	1825.513672	114.692749
29933.871277	-1596.995000	1824.517578	7.306714
29933.871277	-1596.995000	1823.520508	-73.675507
29933.871277	-1596.995000	1822.523438	8.364818
29933.871277	-1596.995000	1821.526367	-22.276043
29933.871277	-1596.995000	1820.529297	165.137161
29933.871277	-1596.995000	1819.531250	48.213966
29933.871277	-1596.995000	1818.533203	108.574593
29933.871277	-1596.995000	1817.535156	37.188667
29933.871277	-1596.995000	1816.537109	-50.940010
29933.871277	-1596.995000	1815.539063	136.253891
29933.871277	-1596.995000	1814.540039	170.185547
29933.871277	-1596.995000	1813.541992	98.803108
29933.871277	-1596.995000	1812.542969	147.064453
29933.871277	-1596.995000	1811.543945	-106.106895
29933.871277	-1596.995000	1810.543945	88.044502
29933.871277	-1596.995000	1809.544922	148.206177
29933.871277	-1596.995000	1808.544922	-159.840363
29933.871277	-1596.995000	1807.544922	-4.064610
29933.871277	-1596.995000	1806.544922	89.505981
29933.871277	-1596.995000	1805.544922	61.172119
29933.871277	-1596.995000	1804.544922	216.785767
29933.871277	-1596.995000	1803.543945	28.387476
29933.871277	-1596.995000	1802.542969	-7.116223
29933.871277	-1596.995000	1801.541992	14.683764
29933.871277	-1596.995000	1800.541016	-56.633053
29933.871277	-1596.995000	1799.539063	-63.494892
29933.871277	-1596.995000	1798.538086	156.327484
29933.871277	-1596.995000	1797.536133	120.776062
29933.871277	-1596.995000	1796.534180	-14.956941
29933.871277	-1596.995000	1795.532227	-114.876968
29933.871277	-1596.995000	1794.529297	4.595530
29933.871277	-1596.995000	1793.527344	-76.241730
29933.871277	-1596.995000	1792.524414	-121.308685
29933.871277	-1596.995000	1791.521484	-85.345673
29933.871277	-1596.995000	1790.518555	-58.938694
29933.871277	-1596.995000	1789.514648	5.560120
29933.871277	-1596.995000	1788.511719	12.862174
29933.871277	-1596.995000	1787.507813	117.780334
29933.871277	-1596.995000	1786.503906	108.367302
29933.871277	-1596.995000	1785.500000	194.160126
29933.871277	-1596.995000	1784.496094	15.738850
29933.871277	-1596.995000	1783.491211	-43.655964
29933.871277	-1596.995000	1782.486328	-34.049194
29933.871277	-1596.995000	1781.481445	42.140652
29933.871277	-1596.995000	1780.476563	30.299767
29933.871277	-1596.995000	1779.471680	-26.725222
29933.871277	-1596.995000	1778.465820	77.907784
29933.871277	-1596.995000	1777.460938	-10.027049
29933.871277	-1596.995000	1776.455078	-50.416786
29933.871277	-1596.995000	1775.449219	-5.273032
29933.871277	-1596.995000	1774.442383	146.732101
29933.871277	-1596.995000	1773.436523	20.799654
29933.871277	-1596.995000	1772.429688	18.374004
29933.871277	-1596.995000	1771.422852	146.509033
29933.871277	-1596.995000	1770.416016	117.925423
29933.871277	-1596.995000	1769.409180	136.802338
29933.871277	-1596.995000	1768.402344	3.807233
29933.871277	-1596.995000	1767.394531	122.305534
29933.871277	-1596.995000	1766.386719	181.450806
29933.871277	-1596.995000	1765.378906	57.967613
29933.871277	-1596.995000	1764.371094	53.062019
29933.871277	-1596.995000	1763.362305	17.328888
29933.871277	-1596.995000	1762.354492	85.876274
29933.871277	-1596.995000	1761.345703	111.731812
29933.871277	-1596.995000	1760.336914	42.800613
29933.871277	-1596.995000	1759.328125	-49.804050
29933.871277	-1596.995000	1758.318359	132.321732
29933.871277	-1596.995000	1757.308594	84.694420
29933.871277	-1596.995000	1756.299805	145.968246
29933.871277	-1596.995000	1755.290039	197.736633
29933.871277	-1596.995000	1754.279297	-60.525360
29933.871277	-1596.995000	1753.269531	-79.741669
29933.871277	-1596.995000	1752.258789	47.694260
29933.871277	-1596.995000	1751.249023	-35.417839
29933.871277	-1596.995000	1750.238281	-85.408966
29933.871277	-1596.995000	1749.226563	-76.292801
29933.871277	-1596.995000	1748.215820	-36.463879
29933.871277	-1596.995000	1747.204102	-46.292805
29933.871277	-1596.995000	1746.193359	-15.962612
29933.871277	-1596.995000	1745.181641	97.022736
29933.871277	-1596.995000	1744.168945	-7.342635
29933.871277	-1596.995000	1743.157227	-121.125473
29933.871277	-1596.995000	1742.144531	57.881142
29933.871277	-1596.995000	1741.132813	-206.970551
29933.871277	-1596.995000	1740.120117	47.479935
29933.871277	-1596.995000	1739.106445	-12.011058
29933.871277	-1596.995000	1738.093750	67.699814
29933.871277	-1596.995000	1737.080078	102.550308
29933.871277	-1596.995000	1736.067383	80.777084
29933.871277	-1596.995000	1735.053711	73.145004
29933.871277	-1596.995000	1734.040039	-52.366737
29933.871277	-1596.995000	1733.025391	-142.490707
29933.871277	-1596.995000	1732.011719	-65.282150
29933.871277	-1596.995000	1730.997070	37.798618
29933.871277	-1596.995000	1729.982422	23.048237
29933.871277	-1596.995000	1728.967773	55.393024
29933.871277	-1596.995000	1727.952148	80.647232
29933.871277	-1596.995000	1726.937500	68.212784
29933.871277	-1596.995000	1725.921875	60.476418
29933.871277	-1596.995000	1724.906250	-1.396015
29933.871277	-1596.995000	1723.890625	37.916344
29933.871277	-1596.995000	1722.875000	-5.133810
29933.871277	-1596.995000	1721.858398	-31.718109
29933.871277	-1596.995000	1720.841797	-32.438244
29933.871277	-1596.995000	1719.825195	89.085739
29933.871277	-1596.995000	1718.808594	13.098542
29933.871277	-1596.995000	1717.791992	7.632949
29933.871277	-1596.995000	1716.774414	-18.991508
29933.871277	-1596.995000	1715.756836	29.558601
29933.871277	-1596.995000	1714.739258	118.007965
29933.871277	-1596.995000	1713.721680	107.779526
29933.871277	-1596.995000	1712.704102	-48.027523
29933.871277	-1596.995000	1711.685547	80.255424
29933.871277	-1596.995000	1710.667969	-77.857513
29933.871277	-1596.995000	1709.649414	-27.078548
29933.871277	-1596.995000	1708.630859	23.669506
29933.871277	-1596.995000	1707.611328	-21.788042
29933.871277	-1596.995000	1706.592773	-41.439930
29933.871277	-1596.995000	1705.573242	-47.029182
29933.871277	-1596.995000	1704.553711	-62.004951
29933.871277	-1596.995000	1703.534180	-11.357367
29933.871277	-1596.995000	1702.513672	-73.226974
29933.871277	-1596.995000	1701.494141	-20.275755
29933.871277	-1596.995000	1700.473633	-42.318592
29933.871277	-1596.995000	1699.453125	71.476677
29933.871277	-1596.995000	1698.432617	35.353313
29933.871277	-1596.995000	1697.412109	160.774811
29933.871277	-1596.995000	1696.390625	141.010254
29933.871277	-1596.995000	1695.369141	156.346909
29933.871277	-1596.995000	1694.347656	0.860594
29933.871277	-1596.995000	1693.326172	-23.571638
29933.871277	-1596.995000	1692.304688	-94.782677
29933.871277	-1596.995000	1691.282227	49.161572
29933.871277	-1596.995000	1690.260742	-45.436306
29933.871277	-1596.995000	1689.238281	121.799057
29933.871277	-1596.995000	1688.214844	-3.182039
29933.871277	-1596.995000	1687.192383	-135.133102
29933.871277	-1596.995000	1686.168945	-12.395602
29933.871277	-1596.995000	1685.146484	-78.910515
29933.871277	-1596.995000	1684.123047	-84.692673
29933.871277	-1596.995000	1683.099609	14.588292
29933.871277	-1596.995000	1682.075195	8.770210
29933.871277	-1596.995000	1681.051758	14.618236
29933.871277	-1596.995000	1680.027344	-14.550006
29933.871277	-1596.995000	1679.002930	-116.040833
29933.871277	-1596.995000	1677.978516	-21.560148
29933.871277	-1596.995000	1676.953125	12.237659
29933.871277	-1596.995000	1675.928711	92.650536
29933.871277	-1596.995000	1674.903320	51.795849
29933.871277	-1596.995000	1673.877930	132.152969
29933.871277	-1596.995000	1672.852539	74.977913
29933.871277	-1596.995000	1671.826172	157.611877
29933.871277	-1596.995000	1670.800781	7.260092
29933.871277	-1596.995000	1669.774414	22.318695
29933.871277	-1596.995000	1668.748047	-4.550781
29933.871277	-1596.995000	1667.721680	-59.354042
29933.871277	-1596.995000	1666.694336	88.363869
29933.871277	-1596.995000	1665.667969	-22.303089
29933.871277	-1596.995000	1664.640625	-44.518394
29933.871277	-1596.995000	1663.613281	172.881958
29933.871277	-1596.995000	1662.585938	185.513855
29933.871277	-1596.995000	1661.557617	-76.269821
29933.871277	-1596.995000	1660.530273	-65.931679
29933.871277	-1596.995000	1659.501953	51.323719
29933.871277	-1596.995000	1658.473633	-15.075413
29933.871277	-1596.995000	1657.444336	48.667645
29933.871277	-1596.995000	1656.416016	177.432587
29933.871277	-1596.995000	1655.386719	25.088108
29933.871277	-1596.995000	1654.358398	118.963608
29933.871277	-1596.995000	1653.328125	112.954292
29933.871277	-1596.995000	1652.298828	178.907974
29933.871277	-1596.995000	1651.269531	40.588188
29933.871277	-1596.995000	1650.239258	18.340462
29933.871277	-1596.995000	1649.208984	72.659447
29933.871277	-1596.995000	1648.178711	31.849510
29933.871277	-1596.995000	1647.148438	55.987984
29933.871277	-1596.995000	1646.117188	87.067863
29933.871277	-1596.995000	1645.086914	6.858079
29933.871277	-1596.995000	1644.055664	35.610558
29933.871277	-1596.995000	1643.024414	106.061668
29933.871277	-1596.995000	1641.992188	44.416801
29933.871277	-1596.995000	1640.960938	249.188080
29933.871277	-1596.995000	1639.928711	-16.274937
29933.871277	-1596.995000	1638.896484	49.488262
29933.871277	-1596.995000	1637.864258	180.046707
29933.871277	-1596.995000	1636.832031	160.099777
29933.871277	-1596.995000	1635.798828	121.642944
29933.871277	-1596.995000	1634.766602	36.926113
29933.871277	-1596.995000	1633.733398	172.003922
29933.871277	-1596.995000	1632.699219	200.633911
29933.871277	-1596.995000	1631.666016	150.631393
29933.871277	-1596.995000	1630.632813	82.152008
29933.871277	-1596.995000	1629.598633	284.144775
29933.871277	-1596.995000	1628.564453	421.348541
29933.871277	-1596.995000	1627.530273	239.632126
29933.871277	-1596.995000	1626.495117	219.697052
29933.871277	-1596.995000	1625.460938	347.594025
29933.871277	-1596.995000	1624.425781	341.501709
29933.871277	-1596.995000	1623.390625	245.367432
29933.871277	-1596.995000	1622.355469	384.726563
29933.871277	-1596.995000	1621.319336	399.401672
29933.871277	-1596.995000	1620.284180	619.440552
29933.871277	-1596.995000	1619.248047	491.030701
29933.871277	-1596.995000	1618.211914	450.322540
29933.871277	-1596.995000	1617.174805	617.181641
29933.871277	-1596.995000	1616.138672	534.966309
29933.871277	-1596.995000	1615.101563	330.604828
29933.871277	-1596.995000	1614.065430	294.576996
29933.871277	-1596.995000	1613.027344	371.473846
29933.871277	-1596.995000	1611.990234	374.621735
29933.871277	-1596.995000	1610.953125	209.619202
29933.871277	-1596.995000	1609.915039	249.648743
29933.871277	-1596.995000	1608.876953	259.732819
29933.871277	-1596.995000	1607.838867	306.649963
29933.871277	-1596.995000	1606.800781	213.152344
29933.871277	-1596.995000	1605.761719	280.776489
29933.871277	-1596.995000	1604.723633	187.328308
29933.871277	-1596.995000	1603.684570	312.447113
29933.871277	-1596.995000	1602.644531	304.128235
29933.871277	-1596.995000	1601.605469	123.363640
29933.871277	-1596.995000	1600.566406	34.633205
29933.871277	-1596.995000	1599.526367	141.313354
29933.871277	-1596.995000	1598.486328	224.976807
29933.871277	-1596.995000	1597.446289	120.208740
29933.871277	-1596.995000	1596.405273	196.960770
29933.871277	-1596.995000	1595.365234	319.625641
29933.871277	-1596.995000	1594.324219	368.766113
29933.871277	-1596.995000	1593.283203	252.594986
29933.871277	-1596.995000	1592.242188	232.881027
29933.871277	-1596.995000	1591.200195	162.691132
29933.871277	-1596.995000	1590.159180	255.445328
29933.871277	-1596.995000	1589.117188	304.581909
29933.871277	-1596.995000	1588.075195	245.908401
29933.871277	-1596.995000	1587.032227	361.541046
29933.871277	-1596.995000	1585.990234	447.333374
29933.871277	-1596.995000	1584.947266	214.478180
29933.871277	-1596.995000	1583.904297	199.441605
29933.871277	-1596.995000	1582.861328	278.364014
29933.871277	-1596.995000	1581.818359	233.556122
29933.871277	-1596.995000	1580.775391	120.061584
29933.871277	-1596.995000	1579.731445	235.616837
29933.871277	-1596.995000	1578.687500	280.160675
29933.871277	-1596.995000	1577.643555	102.654190
29933.871277	-1596.995000	1576.598633	243.346573
29933.871277	-1596.995000	1575.554688	148.311386
29933.871277	-1596.995000	1574.509766	151.694687
29933.871277	-1596.995000	1573.464844	159.661285
29933.871277	-1596.995000	1572.419922	236.240692
29933.871277	-1596.995000	1571.374023	177.901306
29933.871277	-1596.995000	1570.329102	80.735680
29933.871277	-1596.995000	1569.283203	161.887024
29933.871277	-1596.995000	1568.237305	268.153412
29933.871277	-1596.995000	1567.191406	184.766464
29933.871277	-1596.995000	1566.144531	174.515472
29933.871277	-1596.995000	1565.098633	130.026535
29933.871277	-1596.995000	1564.051758	313.891235
29933.871277	-1596.995000	1563.004883	157.556503
29933.871277	-1596.995000	1561.957031	44.658340
29933.871277	-1596.995000	1560.910156	39.069328
29933.871277	-1596.995000	1559.862305	195.477844
29933.871277	-1596.995000	1558.814453	230.943527
29933.871277	-1596.995000	1557.766602	-0.418204
29933.871277	-1596.995000	1556.718750	-28.744856
29933.871277	-1596.995000	1555.669922	193.715393
29933.871277	-1596.995000	1554.621094	101.568520
29933.871277	-1596.995000	1553.573242	148.479538
29933.871277	-1596.995000	1552.523438	133.867218
29933.871277	-1596.995000	1551.474609	126.110497
29933.871277	-1596.995000	1550.424805	136.588913
29933.871277	-1596.995000	1549.375000	1.350777
29933.871277	-1596.995000	1548.325195	134.812256
29933.871277	-1596.995000	1547.275391	236.370987
29933.871277	-1596.995000	1546.225586	137.648254
29933.871277	-1596.995000	1545.174805	48.079086
29933.871277	-1596.995000	1544.124023	99.594536
29933.871277	-1596.995000	1543.073242	130.637146
29933.871277	-1596.995000	1542.022461	202.612350
29933.871277	-1596.995000	1540.970703	215.465530
29933.871277	-1596.995000	1539.919922	53.313759
29933.871277	-1596.995000	1538.868164	245.751755
29933.871277	-1596.995000	1537.815430	135.945236
29933.871277	-1596.995000	1536.763672	26.200657
29933.871277	-1596.995000	1535.710938	214.036621
29933.871277	-1596.995000	1534.659180	43.044670
29933.871277	-1596.995000	1533.606445	60.567696
29933.871277	-1596.995000	1532.552734	271.034149
29933.871277	-1596.995000	1531.500000	29.832275
29933.871277	-1596.995000	1530.446289	-61.508839
29933.871277	-1596.995000	1529.393555	58.172928
29933.871277	-1596.995000	1528.338867	80.297920
29933.871277	-1596.995000	1527.285156	195.404587
29933.871277	-1596.995000	1526.231445	-15.982431
29933.871277	-1596.995000	1525.176758	87.799789
29933.871277	-1596.995000	1524.122070	44.254673
29933.871277	-1596.995000	1523.067383	41.530312
29933.871277	-1596.995000	1522.012695	50.152245
29933.871277	-1596.995000	1520.957031	20.285877
29933.871277	-1596.995000	1519.901367	110.465820
29933.871277	-1596.995000	1518.845703	10.454422
29933.871277	-1596.995000	1517.790039	-57.808247
29933.871277	-1596.995000	1516.734375	-67.183380
29933.871277	-1596.995000	1515.677734	181.406143
29933.871277	-1596.995000	1514.621094	13.672079
29933.871277	-1596.995000	1513.564453	119.697075
29933.871277	-1596.995000	1512.507813	99.067192
29933.871277	-1596.995000	1511.450195	-66.229729
29933.871277	-1596.995000	1510.393555	-79.992210
29933.871277	-1596.995000	1509.335938	130.007263
29933.871277	-1596.995000	1508.278320	104.954453
29933.871277	-1596.995000	1507.219727	-118.865875
29933.871277	-1596.995000	1506.162109	50.424362
29933.871277	-1596.995000	1505.103516	-71.636131
29933.871277	-1596.995000	1504.044922	86.331177
29933.871277	-1596.995000	1502.986328	-33.387959
29933.871277	-1596.995000	1501.926758	-44.710308
29933.871277	-1596.995000	1500.868164	-60.518776
29933.871277	-1596.995000	1499.808594	131.246063
29933.871277	-1596.995000	1498.749023	9.445057
29933.871277	-1596.995000	1497.688477	-197.977661
29933.871277	-1596.995000	1496.628906	-80.634171
29933.871277	-1596.995000	1495.568359	102.054161
29933.871277	-1596.995000	1494.507813	50.308918
29933.871277	-1596.995000	1493.447266	-213.198410
29933.871277	-1596.995000	1492.386719	21.290560
29933.871277	-1596.995000	1491.325195	16.959356
29933.871277	-1596.995000	1490.263672	84.713554
29933.871277	-1596.995000	1489.202148	-149.230942
29933.871277	-1596.995000	1488.140625	-38.654819
29933.871277	-1596.995000	1487.079102	-148.654160
29933.871277	-1596.995000	1486.016602	-38.076130
29933.871277	-1596.995000	1484.954102	-1.756956
29933.871277	-1596.995000	1483.891602	-3.665805
29933.871277	-1596.995000	1482.829102	86.650040
29933.871277	-1596.995000	1481.765625	-59.117912
29933.871277	-1596.995000	1480.702148	-110.390961
29933.871277	-1596.995000	1479.638672	-22.279385
29933.871277	-1596.995000	1478.575195	70.298912
29933.871277	-1596.995000	1477.511719	-59.531487
29933.871277	-1596.995000	1476.447266	15.113903
29933.871277	-1596.995000	1475.382813	98.711609
29933.871277	-1596.995000	1474.318359	-60.136261
29933.871277	-1596.995000	1473.253906	-50.561970
29933.871277	-1596.995000	1472.189453	57.727509
29933.871277	-1596.995000	1471.124023	177.248123
29933.871277	-1596.995000	1470.058594	50.066093
29933.871277	-1596.995000	1468.993164	37.292820
29933.871277	-1596.995000	1467.927734	91.839478
29933.871277	-1596.995000	1466.861328	186.567307
29933.871277	-1596.995000	1465.794922	111.161110
29933.871277	-1596.995000	1464.728516	109.575500
29933.871277	-1596.995000	1463.662109	157.342270
29933.871277	-1596.995000	1462.594727	187.350098
29933.871277	-1596.995000	1461.528320	167.914520
29933.871277	-1596.995000	1460.460938	126.225502
29933.871277	-1596.995000	1459.393555	223.386108
29933.871277	-1596.995000	1458.326172	228.865601
29933.871277	-1596.995000	1457.257813	149.365784
29933.871277	-1596.995000	1456.189453	272.850006
29933.871277	-1596.995000	1455.121094	235.933502
29933.871277	-1596.995000	1454.052734	312.107056
29933.871277	-1596.995000	1452.984375	204.644104
29933.871277	-1596.995000	1451.915039	109.650330
29933.871277	-1596.995000	1450.845703	250.840454
29933.871277	-1596.995000	1449.776367	261.776489
29933.871277	-1596.995000	1448.707031	193.253342
29933.871277	-1596.995000	1447.636719	96.397835
29933.871277	-1596.995000	1446.567383	154.050674
29933.871277	-1596.995000	1445.497070	92.187592
29933.871277	-1596.995000	1444.425781	164.115295
29933.871277	-1596.995000	1443.355469	255.671951
29933.871277	-1596.995000	1442.285156	265.545380
29933.871277	-1596.995000	1441.213867	84.041702
29933.871277	-1596.995000	1440.142578	128.518417
29933.871277	-1596.995000	1439.070313	29.580488
29933.871277	-1596.995000	1437.999023	-71.648041
29933.871277	-1596.995000	1436.926758	141.279129
29933.871277	-1596.995000	1435.854492	182.403015
29933.871277	-1596.995000	1434.782227	40.849537
29933.871277	-1596.995000	1433.709961	-3.746536
29933.871277	-1596.995000	1432.636719	37.598312
29933.871277	-1596.995000	1431.563477	17.725758
29933.871277	-1596.995000	1430.490234	74.524445
29933.871277	-1596.995000	1429.416992	36.120804
29933.871277	-1596.995000	1428.343750	-54.764000
29933.871277	-1596.995000	1427.269531	-86.560402
29933.871277	-1596.995000	1426.195313	-10.555767
29933.871277	-1596.995000	1425.121094	43.688835
29933.871277	-1596.995000	1424.046875	-157.899399
29933.871277	-1596.995000	1422.971680	72.554871
29933.871277	-1596.995000	1421.896484	-151.223648
29933.871277	-1596.995000	1420.821289	-58.773544
29933.871277	-1596.995000	1419.746094	-17.342449
29933.871277	-1596.995000	1418.669922	73.239479
29933.871277	-1596.995000	1417.594727	35.534298
29933.871277	-1596.995000	1416.518555	20.422270
29933.871277	-1596.995000	1415.442383	15.558159
29933.871277	-1596.995000	1414.365234	148.211975
29933.871277	-1596.995000	1413.289063	84.292274
29933.871277	-1596.995000	1412.211914	133.482712
29933.871277	-1596.995000	1411.134766	44.322216
29933.871277	-1596.995000	1410.057617	1.813665
29933.871277	-1596.995000	1408.979492	-35.612671
29933.871277	-1596.995000	1407.902344	83.490562
29933.871277	-1596.995000	1406.824219	139.818970
29933.871277	-1596.995000	1405.746094	34.926033
29933.871277	-1596.995000	1404.666992	43.845112
29933.871277	-1596.995000	1403.588867	176.242142
29933.871277	-1596.995000	1402.509766	135.469131
29933.871277	-1596.995000	1401.430664	83.666382
29933.871277	-1596.995000	1400.351563	137.794235
29933.871277	-1596.995000	1399.271484	160.994598
29933.871277	-1596.995000	1398.192383	160.392105
29933.871277	-1596.995000	1397.112305	262.141754
29933.871277	-1596.995000	1396.031250	125.844604
29933.871277	-1596.995000	1394.951172	43.639317
29933.871277	-1596.995000	1393.871094	197.326508
29933.871277	-1596.995000	1392.790039	242.186859
29933.871277	-1596.995000	1391.708984	177.297455
29933.871277	-1596.995000	1390.626953	266.711945
29933.871277	-1596.995000	1389.545898	151.424240
29933.871277	-1596.995000	1388.463867	189.391449
29933.871277	-1596.995000	1387.381836	189.773529
29933.871277	-1596.995000	1386.299805	176.801804
29933.871277	-1596.995000	1385.217773	172.431244
29933.871277	-1596.995000	1384.134766	190.785934
29933.871277	-1596.995000	1383.051758	165.622467
29933.871277	-1596.995000	1381.968750	200.120865
29933.871277	-1596.995000	1380.885742	260.767822
29933.871277	-1596.995000	1379.802734	-27.418194
29933.871277	-1596.995000	1378.718750	193.085892
29933.871277	-1596.995000	1377.634766	133.228928
29933.871277	-1596.995000	1376.550781	-4.657692
29933.871277	-1596.995000	1375.465820	57.182621
29933.871277	-1596.995000	1374.381836	165.178238
29933.871277	-1596.995000	1373.296875	219.654434
29933.871277	-1596.995000	1372.211914	237.859772
29933.871277	-1596.995000	1371.126953	228.912247
29933.871277	-1596.995000	1370.041016	165.528015
29933.871277	-1596.995000	1368.955078	291.133240
29933.871277	-1596.995000	1367.869141	244.064713
29933.871277	-1596.995000	1366.783203	295.657715
29933.871277	-1596.995000	1365.697266	207.632828
29933.871277	-1596.995000	1364.610352	146.516296
29933.871277	-1596.995000	1363.523438	100.120949
29933.871277	-1596.995000	1362.436523	137.190765
29933.871277	-1596.995000	1361.349609	105.363754
29933.871277	-1596.995000	1360.261719	10.295183
29933.871277	-1596.995000	1359.174805	81.826912
29933.871277	-1596.995000	1358.086914	9.358006
29933.871277	-1596.995000	1356.998047	30.498209
29933.871277	-1596.995000	1355.910156	171.933029
29933.871277	-1596.995000	1354.821289	102.482018
29933.871277	-1596.995000	1353.732422	160.472473
29933.871277	-1596.995000	1352.643555	25.605864
29933.871277	-1596.995000	1351.554688	9.868843
29933.871277	-1596.995000	1350.464844	33.003719
29933.871277	-1596.995000	1349.375000	-12.191124
29933.871277	-1596.995000	1348.285156	125.828087
29933.871277	-1596.995000	1347.195313	59.033329
29933.871277	-1596.995000	1346.105469	95.662224
29933.871277	-1596.995000	1345.014648	35.888306
29933.871277	-1596.995000	1343.923828	139.498154
29933.871277	-1596.995000	1342.833008	115.941284
29933.871277	-1596.995000	1341.741211	58.650063
29933.871277	-1596.995000	1340.650391	56.535576
29933.871277	-1596.995000	1339.558594	146.169312
29933.871277	-1596.995000	1338.466797	87.212250
29933.871277	-1596.995000	1337.374023	138.700348
29933.871277	-1596.995000	1336.282227	111.592415
29933.871277	-1596.995000	1335.189453	250.049393
29933.871277	-1596.995000	1334.096680	117.748802
29933.871277	-1596.995000	1333.003906	113.731003
29933.871277	-1596.995000	1331.910156	118.731682
29933.871277	-1596.995000	1330.817383	144.694366
29933.871277	-1596.995000	1329.723633	203.823120
29933.871277	-1596.995000	1328.629883	225.310028
29933.871277	-1596.995000	1327.535156	143.233170
29933.871277	-1596.995000	1326.441406	240.802994
29933.871277	-1596.995000	1325.346680	186.616760
29933.871277	-1596.995000	1324.251953	186.955856
29933.871277	-1596.995000	1323.156250	185.105896
29933.871277	-1596.995000	1322.061523	157.024826
29933.871277	-1596.995000	1320.965820	273.211823
29933.871277	-1596.995000	1319.870117	256.738251
29933.871277	-1596.995000	1318.774414	147.508728
29933.871277	-1596.995000	1317.678711	171.887741
29933.871277	-1596.995000	1316.582031	34.497906
29933.871277	-1596.995000	1315.485352	72.439842
29933.871277	-1596.995000	1314.388672	170.404739
29933.871277	-1596.995000	1313.291016	104.213455
29933.871277	-1596.995000	1312.194336	30.427719
29933.871277	-1596.995000	1311.096680	170.563995
29933.871277	-1596.995000	1309.999023	46.293663
29933.871277	-1596.995000	1308.901367	-81.172089
29933.871277	-1596.995000	1307.802734	89.773796
29933.871277	-1596.995000	1306.705078	-8.465285
29933.871277	-1596.995000	1305.606445	53.299118
29933.871277	-1596.995000	1304.506836	151.345612
29933.871277	-1596.995000	1303.408203	30.032145
29933.871277	-1596.995000	1302.308594	107.366051
29933.871277	-1596.995000	1301.208984	-4.317811
29933.871277	-1596.995000	1300.109375	74.563820
29933.871277	-1596.995000	1299.009766	-29.098658
29933.871277	-1596.995000	1297.909180	43.153439
29933.871277	-1596.995000	1296.808594	65.608047
29933.871277	-1596.995000	1295.708008	47.197060
29933.871277	-1596.995000	1294.607422	56.243488
29933.871277	-1596.995000	1293.506836	159.334991
29933.871277	-1596.995000	1292.405273	28.921976
29933.871277	-1596.995000	1291.303711	-25.156870
29933.871277	-1596.995000	1290.202148	-77.501396
29933.871277	-1596.995000	1289.099609	-14.376500
29933.871277	-1596.995000	1287.998047	-54.924969
29933.871277	-1596.995000	1286.895508	34.307049
29933.871277	-1596.995000	1285.792969	-59.868179
29933.871277	-1596.995000	1284.689453	-44.718452
29933.871277	-1596.995000	1283.586914	-127.660057
29933.871277	-1596.995000	1282.483398	-36.467110
29933.871277	-1596.995000	1281.379883	-43.492413
29933.871277	-1596.995000	1280.276367	-13.533571
29933.871277	-1596.995000	1279.171875	58.537148
29933.871277	-1596.995000	1278.067383	4.980698
29933.871277	-1596.995000	1276.962891	-148.048859
29933.871277	-1596.995000	1275.858398	24.394028
29933.871277	-1596.995000	1274.753906	-74.398399
29933.871277	-1596.995000	1273.648438	-57.269089
29933.871277	-1596.995000	1272.542969	-88.221275
29933.871277	-1596.995000	1271.437500	-98.640450
29933.871277	-1596.995000	1270.331055	76.984932
29933.871277	-1596.995000	1269.225586	-36.698540
29933.871277	-1596.995000	1268.119141	-149.861374
29933.871277	-1596.995000	1267.012695	-83.976532
29933.871277	-1596.995000	1265.906250	-68.137527
29933.871277	-1596.995000	1264.798828	-90.410927
29933.871277	-1596.995000	1263.691406	-64.181328
29933.871277	-1596.995000	1262.583984	-56.657955
29933.871277	-1596.995000	1261.476563	-37.918205
29933.871277	-1596.995000	1260.368164	-73.321114
29933.871277	-1596.995000	1259.260742	-63.048260
29933.871277	-1596.995000	1258.152344	2.920321
29933.871277	-1596.995000	1257.043945	33.920227
29933.871277	-1596.995000	1255.934570	-85.287460
29933.871277	-1596.995000	1254.825195	52.294491
29933.871277	-1596.995000	1253.716797	-38.095001
29933.871277	-1596.995000	1252.606445	-72.930031
29933.871277	-1596.995000	1251.497070	-115.877609
29933.871277	-1596.995000	1250.387695	-120.664452
29933.871277	-1596.995000	1249.277344	-84.368835
29933.871277	-1596.995000	1248.166992	-34.592159
29933.871277	-1596.995000	1247.055664	-12.598265
29933.871277	-1596.995000	1245.945313	-6.368996
29933.871277	-1596.995000	1244.833984	-7.982067
29933.871277	-1596.995000	1243.722656	-52.196590
29933.871277	-1596.995000	1242.611328	-123.673447
29933.871277	-1596.995000	1241.499023	-136.880081
29933.871277	-1596.995000	1240.387695	-71.054695
29933.871277	-1596.995000	1239.275391	58.173248
29933.871277	-1596.995000	1238.162109	-43.233620
29933.871277	-1596.995000	1237.049805	2.609107
29933.871277	-1596.995000	1235.936523	-24.893415
29933.871277	-1596.995000	1234.823242	-18.477325
29933.871277	-1596.995000	1233.709961	-35.967560
29933.871277	-1596.995000	1232.596680	-76.614357
29933.871277	-1596.995000	1231.482422	3.834044
29933.871277	-1596.995000	1230.369141	-32.733021
29933.871277	-1596.995000	1229.253906	64.460197
29933.871277	-1596.995000	1228.139648	67.021759
29933.871277	-1596.995000	1227.025391	39.156551
29933.871277	-1596.995000	1225.910156	45.142681
29933.871277	-1596.995000	1224.794922	27.734285
29933.871277	-1596.995000	1223.679688	37.020985
29933.871277	-1596.995000	1222.563477	14.341411
29933.871277	-1596.995000	1221.447266	47.017109
29933.871277	-1596.995000	1220.331055	-36.606441
29933.871277	-1596.995000	1219.214844	-18.972334
29933.871277	-1596.995000	1218.098633	-34.326405
29933.871277	-1596.995000	1216.981445	-32.226521
29933.871277	-1596.995000	1215.864258	-72.166534
29933.871277	-1596.995000	1214.747070	9.565241
29933.871277	-1596.995000	1213.629883	19.489101
29933.871277	-1596.995000	1212.511719	42.121849
29933.871277	-1596.995000	1211.393555	78.512634
29933.871277	-1596.995000	1210.275391	0.126090
29933.871277	-1596.995000	1209.157227	32.259357
29933.871277	-1596.995000	1208.038086	-36.384258
29933.871277	-1596.995000	1206.918945	-54.575394
29933.871277	-1596.995000	1205.799805	87.669136
29933.871277	-1596.995000	1204.680664	3.571771
29933.871277	-1596.995000	1203.560547	16.376316
29933.871277	-1596.995000	1202.441406	14.785950
29933.871277	-1596.995000	1201.321289	21.025280
29933.871277	-1596.995000	1200.200195	40.115070
29933.871277	-1596.995000	1199.080078	35.005634
29933.871277	-1596.995000	1197.958984	69.916641
29933.871277	-1596.995000	1196.837891	158.763580
29933.871277	-1596.995000	1195.716797	63.625851
29933.871277	-1596.995000	1194.594727	83.541115
29933.871277	-1596.995000	1193.473633	165.147781
29933.871277	-1596.995000	1192.351563	218.270905
29933.871277	-1596.995000	1191.229492	106.526711
29933.871277	-1596.995000	1190.106445	136.770706
29933.871277	-1596.995000	1188.984375	114.079865
29933.871277	-1596.995000	1187.861328	154.532089
29933.871277	-1596.995000	1186.738281	64.589348
29933.871277	-1596.995000	1185.614258	99.362984
29933.871277	-1596.995000	1184.491211	66.639534
29933.871277	-1596.995000	1183.367188	212.190170
29933.871277	-1596.995000	1182.243164	151.364624
29933.871277	-1596.995000	1181.119141	124.050888
29933.871277	-1596.995000	1179.994141	172.013565
29933.871277	-1596.995000	1178.869141	114.463272
29933.871277	-1596.995000	1177.744141	-9.003977
29933.871277	-1596.995000	1176.619141	162.260574
29933.871277	-1596.995000	1175.493164	167.804169
29933.871277	-1596.995000	1174.368164	179.616730
29933.871277	-1596.995000	1173.242188	212.341782
29933.871277	-1596.995000	1172.115234	235.916595
29933.871277	-1596.995000	1170.989258	189.445450
29933.871277	-1596.995000	1169.862305	205.230942
29933.871277	-1596.995000	1168.735352	180.824646
29933.871277	-1596.995000	1167.608398	190.254730
29933.871277	-1596.995000	1166.481445	95.689484
29933.871277	-1596.995000	1165.353516	-24.833706
29933.871277	-1596.995000	1164.225586	141.028793
29933.871277	-1596.995000	1163.097656	67.823700
29933.871277	-1596.995000	1161.968750	72.354469
29933.871277	-1596.995000	1160.840820	133.975647
29933.871277	-1596.995000	1159.711914	142.203461
29933.871277	-1596.995000	1158.583008	6.138450
29933.871277	-1596.995000	1157.453125	33.238319
29933.871277	-1596.995000	1156.324219	43.058434
29933.871277	-1596.995000	1155.194336	-51.514011
29933.871277	-1596.995000	1154.064453	-67.665993
29933.871277	-1596.995000	1152.933594	-26.724054
29933.871277	-1596.995000	1151.803711	25.865356
29933.871277	-1596.995000	1150.672852	74.502983
29933.871277	-1596.995000	1149.541992	-43.817406
29933.871277	-1596.995000	1148.411133	-31.702385
29933.871277	-1596.995000	1147.279297	-8.752494
29933.871277	-1596.995000	1146.147461	25.354696
29933.871277	-1596.995000	1145.015625	-18.292555
29933.871277	-1596.995000	1143.883789	77.464325
29933.871277	-1596.995000	1142.750977	54.782070
29933.871277	-1596.995000	1141.619141	-117.652649
29933.871277	-1596.995000	1140.486328	7.736416
29933.871277	-1596.995000	1139.352539	-62.891224
29933.871277	-1596.995000	1138.219727	-45.611477
29933.871277	-1596.995000	1137.085938	78.248482
29933.871277	-1596.995000	1135.952148	62.847202
29933.871277	-1596.995000	1134.818359	-25.213371
29933.871277	-1596.995000	1133.683594	24.312233
29933.871277	-1596.995000	1132.549805	113.649567
29933.871277	-1596.995000	1131.415039	165.818451
29933.871277	-1596.995000	1130.279297	37.792389
29933.871277	-1596.995000	1129.144531	51.318035
29933.871277	-1596.995000	1128.008789	204.238358
29933.871277	-1596.995000	1126.873047	136.631500
29933.871277	-1596.995000	1125.737305	-9.837097
29933.871277	-1596.995000	1124.601563	31.748989
29933.871277	-1596.995000	1123.464844	92.078934
29933.871277	-1596.995000	1122.328125	29.187984
29933.871277	-1596.995000	1121.191406	82.188858
29933.871277	-1596.995000	1120.054688	125.248489
29933.871277	-1596.995000	1118.916992	253.470032
29933.871277	-1596.995000	1117.779297	157.695969
29933.871277	-1596.995000	1116.641602	132.970154
29933.871277	-1596.995000	1115.503906	76.590881
29933.871277	-1596.995000	1114.365234	-93.658081
29933.871277	-1596.995000	1113.226563	40.267475
29933.871277	-1596.995000	1112.087891	10.700009
29933.871277	-1596.995000	1110.949219	117.204414
29933.871277	-1596.995000	1109.809570	60.292908
29933.871277	-1596.995000	1108.669922	53.076187
29933.871277	-1596.995000	1107.530273	119.691902
29933.871277	-1596.995000	1106.390625	114.434929
29933.871277	-1596.995000	1105.250000	134.036179
29933.871277	-1596.995000	1104.109375	111.516083
29933.871277	-1596.995000	1102.968750	64.303329
29933.871277	-1596.995000	1101.828125	244.284607
29933.871277	-1596.995000	1100.686523	168.373367
29933.871277	-1596.995000	1099.544922	173.487122
29933.871277	-1596.995000	1098.403320	98.338715
29933.871277	-1596.995000	1097.261719	273.271423
29933.871277	-1596.995000	1096.120117	148.759293
29933.871277	-1596.995000	1094.977539	242.985260
29933.871277	-1596.995000	1093.834961	225.506592
29933.871277	-1596.995000	1092.691406	107.351837
29933.871277	-1596.995000	1091.548828	161.396927
29933.871277	-1596.995000	1090.405273	184.731216
29933.871277	-1596.995000	1089.261719	61.198662
29933.871277	-1596.995000	1088.118164	86.545860
29933.871277	-1596.995000	1086.973633	216.596695
29933.871277	-1596.995000	1085.829102	72.821175
29933.871277	-1596.995000	1084.684570	144.137283
29933.871277	-1596.995000	1083.540039	71.409294
29933.871277	-1596.995000	1082.395508	117.139153
29933.871277	-1596.995000	1081.250000	155.751251
29933.871277	-1596.995000	1080.104492	3.674695
29933.871277	-1596.995000	1078.958984	116.732262
29933.871277	-1596.995000	1077.812500	5.313134
29933.871277	-1596.995000	1076.666016	101.751266
29933.871277	-1596.995000	1075.519531	72.429016
29933.871277	-1596.995000	1074.373047	-57.409458
29933.871277	-1596.995000	1073.226563	-6.336880
29933.871277	-1596.995000	1072.079102	112.845413
29933.871277	-1596.995000	1070.931641	53.127251
29933.871277	-1596.995000	1069.784180	86.212776
29933.871277	-1596.995000	1068.635742	-40.660828
29933.871277	-1596.995000	1067.487305	75.389900
29933.871277	-1596.995000	1066.338867	107.713142
29933.871277	-1596.995000	1065.190430	154.123383
29933.871277	-1596.995000	1064.041992	49.215424
29933.871277	-1596.995000	1062.892578	95.708275
29933.871277	-1596.995000	1061.743164	28.195951
29933.871277	-1596.995000	1060.593750	139.727829
29933.871277	-1596.995000	1059.443359	221.215271
29933.871277	-1596.995000	1058.292969	39.886147
29933.871277	-1596.995000	1057.142578	-15.578820
29933.871277	-1596.995000	1055.992188	45.194454
29933.871277	-1596.995000	1054.841797	179.861313
29933.871277	-1596.995000	1053.690430	105.848640
29933.871277	-1596.995000	1052.539063	57.016273
29933.871277	-1596.995000	1051.387695	108.674812
29933.871277	-1596.995000	1050.235352	89.555321
29933.871277	-1596.995000	1049.083984	87.638275
29933.871277	-1596.995000	1047.931641	111.347603
29933.871277	-1596.995000	1046.778320	98.395241
29933.871277	-1596.995000	1045.625977	85.931221
29933.871277	-1596.995000	1044.472656	24.003397
29933.871277	-1596.995000	1043.319336	9.193913
29933.871277	-1596.995000	1042.166016	-12.659251
29933.871277	-1596.995000	1041.012695	-17.883156
29933.871277	-1596.995000	1039.858398	110.856621
29933.871277	-1596.995000	1038.704102	35.116428
29933.871277	-1596.995000	1037.549805	-110.333130
29933.871277	-1596.995000	1036.394531	-61.848595
29933.871277	-1596.995000	1035.239258	9.438943
29933.871277	-1596.995000	1034.083984	47.034466
29933.871277	-1596.995000	1032.928711	41.083588
29933.871277	-1596.995000	1031.773438	71.455063
29933.871277	-1596.995000	1030.617188	38.467560
29933.871277	-1596.995000	1029.460938	-35.432758
29933.871277	-1596.995000	1028.304688	1.189276
29933.871277	-1596.995000	1027.147461	-46.406799
29933.871277	-1596.995000	1025.991211	-21.467766
29933.871277	-1596.995000	1024.833984	-49.918034
29933.871277	-1596.995000	1023.675781	-95.321503
29933.871277	-1596.995000	1022.518555	-31.561558
29933.871277	-1596.995000	1021.360352	-83.584198
29933.871277	-1596.995000	1020.202148	1.630628
29933.871277	-1596.995000	1019.043945	-38.940395
29933.871277	-1596.995000	1017.884766	18.278067
29933.871277	-1596.995000	1016.726563	61.715298
29933.871277	-1596.995000	1015.567383	157.267441
29933.871277	-1596.995000	1014.407227	-12.336433
29933.871277	-1596.995000	1013.248047	-24.387627
29933.871277	-1596.995000	1012.087891	-56.388046
29933.871277	-1596.995000	1010.927734	-5.245242
29933.871277	-1596.995000	1009.767578	15.869054
29933.871277	-1596.995000	1008.606445	25.420687
29933.871277	-1596.995000	1007.446289	11.061862
29933.871277	-1596.995000	1006.285156	10.310058
29933.871277	-1596.995000	1005.123047	139.231293
29933.871277	-1596.995000	1003.961914	-58.244793
29933.871277	-1596.995000	1002.799805	-65.864960
29933.871277	-1596.995000	1001.637695	-18.072754
29933.871277	-1596.995000	1000.475586	23.401997
29933.871277	-1596.995000	999.312500	-83.801636
29933.871277	-1596.995000	998.149414	-111.237488
29933.871277	-1596.995000	996.986328	10.350934
29933.871277	-1596.995000	995.823242	42.139568
29933.871277	-1596.995000	994.659180	-3.972791
29933.871277	-1596.995000	993.496094	-155.978104
29933.871277	-1596.995000	992.332031	38.023594
29933.871277	-1596.995000	991.166992	-56.835754
29933.871277	-1596.995000	990.002930	-86.655922
29933.871277	-1596.995000	988.837891	4.962480
29933.871277	-1596.995000	987.672852	-80.536697
29933.871277	-1596.995000	986.506836	-69.175652
29933.871277	-1596.995000	985.341797	-47.093098
29933.871277	-1596.995000	984.175781	-53.006950
29933.871277	-1596.995000	983.009766	76.106293
29933.871277	-1596.995000	981.843750	56.301487
29933.871277	-1596.995000	980.676758	123.424057
29933.871277	-1596.995000	979.509766	65.158669
29933.871277	-1596.995000	978.342773	78.998184
29933.871277	-1596.995000	977.175781	-80.984489
29933.871277	-1596.995000	976.007813	-28.986933
29933.871277	-1596.995000	974.839844	-25.861044
29933.871277	-1596.995000	973.671875	14.100870
29933.871277	-1596.995000	972.503906	-116.184509
29933.871277	-1596.995000	971.334961	-45.478794
29933.871277	-1596.995000	970.166016	0.335909
29933.871277	-1596.995000	968.997070	46.828621
29933.871277	-1596.995000	967.828125	-70.897942
29933.871277	-1596.995000	966.658203	43.811569
29933.871277	-1596.995000	965.488281	62.454475
29933.871277	-1596.995000	964.318359	-47.003708
29933.871277	-1596.995000	963.148438	-62.514954
29933.871277	-1596.995000	961.977539	140.365112
29933.871277	-1596.995000	960.806641	38.586979
29933.871277	-1596.995000	959.635742	34.188431
29933.871277	-1596.995000	958.463867	94.173378
29933.871277	-1596.995000	957.292969	-76.187645
29933.871277	-1596.995000	956.121094	-69.858192
29933.871277	-1596.995000	954.948242	128.333267
29933.871277	-1596.995000	953.776367	-71.787483
29933.871277	-1596.995000	952.603516	5.454610
29933.871277	-1596.995000	951.430664	49.126335
29933.871277	-1596.995000	950.257813	8.316254
29933.871277	-1596.995000	949.084961	78.357063
29933.871277	-1596.995000	947.911133	17.106602
29933.871277	-1596.995000	946.737305	27.909527
29933.871277	-1596.995000	945.563477	10.344630
29933.871277	-1596.995000	944.388672	147.284378
29933.871277	-1596.995000	943.213867	-81.101860
29933.871277	-1596.995000	942.039063	34.068447
29933.871277	-1596.995000	940.864258	3.977593
29933.871277	-1596.995000	939.688477	68.000450
29933.871277	-1596.995000	938.513672	-45.032597
29933.871277	-1596.995000	937.337891	91.328682
29933.871277	-1596.995000	936.161133	52.792461
29933.871277	-1596.995000	934.985352	44.312695
29933.871277	-1596.995000	933.808594	-24.079369
29933.871277	-1596.995000	932.631836	105.934158
29933.871277	-1596.995000	931.454102	186.891190
29933.871277	-1596.995000	930.277344	129.146622
29933.871277	-1596.995000	929.099609	-11.655587
29933.871277	-1596.995000	927.921875	50.002213
29933.871277	-1596.995000	926.743164	43.462578
29933.871277	-1596.995000	925.565430	83.794319
29933.871277	-1596.995000	924.386719	64.450935
29933.871277	-1596.995000	923.208008	28.078007
29933.871277	-1596.995000	922.028320	-12.552239
29933.871277	-1596.995000	920.849609	80.942032
29933.871277	-1596.995000	919.669922	79.853638
29933.871277	-1596.995000	919.474609	65.663177
29933.871277	-1596.995000	918.309570	218.682114
29933.871277	-1596.995000	917.143555	97.187233
29933.871277	-1596.995000	915.977539	79.959862
29933.871277	-1596.995000	914.810547	181.823471
29933.871277	-1596.995000	913.644531	0.858192
29933.871277	-1596.995000	912.477539	26.157049
29933.871277	-1596.995000	911.310547	79.069275
29933.871277	-1596.995000	910.143555	-12.537790
29933.871277	-1596.995000	908.975586	-48.877815
29933.871277	-1596.995000	907.807617	-51.224617
29933.871277	-1596.995000	906.639648	-72.687416
29933.871277	-1596.995000	905.471680	-30.451597
29933.871277	-1596.995000	904.303711	7.516187
29933.871277	-1596.995000	903.134766	81.542282
29933.871277	-1596.995000	901.965820	-58.774559
29933.871277	-1596.995000	900.796875	4.619040
29933.871277	-1596.995000	899.626953	-61.399323
29933.871277	-1596.995000	898.457031	-70.140060
29933.871277	-1596.995000	897.287109	65.288078
29933.871277	-1596.995000	896.117188	-121.536636
29933.871277	-1596.995000	894.947266	-47.619915
29933.871277	-1596.995000	893.776367	-37.302444
29933.871277	-1596.995000	892.605469	38.678123
29933.871277	-1596.995000	891.434570	19.315573
29933.871277	-1596.995000	890.262695	-76.274239
29933.871277	-1596.995000	889.091797	-95.611679
29933.871277	-1596.995000	887.919922	3.588534
29933.871277	-1596.995000	886.748047	-68.669563
29933.871277	-1596.995000	885.575195	-94.354103
29933.871277	-1596.995000	884.403320	-35.414654
29933.871277	-1596.995000	883.230469	-116.088409
29933.871277	-1596.995000	882.057617	-4.311275
29933.871277	-1596.995000	880.883789	-25.770153
29933.871277	-1596.995000	879.710938	-100.062057
29933.871277	-1596.995000	878.537109	-39.080944
29933.871277	-1596.995000	877.362305	-71.089394
29933.871277	-1596.995000	876.188477	44.778469
29933.871277	-1596.995000	875.013672	14.874282
29933.871277	-1596.995000	873.839844	-19.240767
29933.871277	-1596.995000	872.664063	62.762470
29933.871277	-1596.995000	871.489258	-13.564562
29933.871277	-1596.995000	870.313477	-41.327759
29933.871277	-1596.995000	869.138672	-62.750610
29933.871277	-1596.995000	867.962891	21.299761
29933.871277	-1596.995000	866.786133	-116.119904
29933.871277	-1596.995000	865.610352	-61.612984
29933.871277	-1596.995000	864.433594	-53.506569
29933.871277	-1596.995000	863.256836	13.608633
29933.871277	-1596.995000	862.079102	-45.734589
29933.871277	-1596.995000	860.902344	-75.559059
29933.871277	-1596.995000	859.724609	-73.777321
29933.871277	-1596.995000	858.546875	-74.103142
29933.871277	-1596.995000	857.368164	64.529472
29933.871277	-1596.995000	856.190430	-55.809067
29933.871277	-1596.995000	855.011719	-47.720753
29933.871277	-1596.995000	853.833008	-43.843678
29933.871277	-1596.995000	852.654297	21.039515
29933.871277	-1596.995000	851.474609	-50.817207
29933.871277	-1596.995000	850.294922	-74.278999
29933.871277	-1596.995000	849.115234	-87.218346
29933.871277	-1596.995000	847.935547	-133.783142
29933.871277	-1596.995000	846.754883	21.418772
29933.871277	-1596.995000	845.575195	-60.867428
29933.871277	-1596.995000	844.393555	104.760162
29933.871277	-1596.995000	843.212891	60.295757
29933.871277	-1596.995000	842.032227	217.433243
29933.871277	-1596.995000	840.850586	0.814761
29933.871277	-1596.995000	839.668945	157.900818
29933.871277	-1596.995000	838.486328	-41.827595
29933.871277	-1596.995000	837.304688	54.360039
29933.871277	-1596.995000	836.122070	125.335838
29933.871277	-1596.995000	834.939453	89.324921
29933.871277	-1596.995000	833.756836	118.330757
29933.871277	-1596.995000	832.573242	-5.710100
29933.871277	-1596.995000	831.389648	-45.861099
29933.871277	-1596.995000	830.206055	-46.179836
29933.871277	-1596.995000	829.022461	328.520721
29933.871277	-1596.995000	827.838867	-19.583124
29933.871277	-1596.995000	826.654297	24.074087
29933.871277	-1596.995000	825.469727	65.621262
29933.871277	-1596.995000	824.284180	61.097500
29933.871277	-1596.995000	823.099609	90.064774
29933.871277	-1596.995000	821.914063	162.962601
29933.871277	-1596.995000	820.728516	83.111755
29933.871277	-1596.995000	819.542969	57.677280
29933.871277	-1596.995000	818.356445	216.278351
29933.871277	-1596.995000	817.169922	31.931536
29933.871277	-1596.995000	815.983398	140.307236
29933.871277	-1596.995000	814.796875	185.943039
29933.871277	-1596.995000	813.609375	279.617798
29933.871277	-1596.995000	812.422852	133.017426
29933.871277	-1596.995000	811.235352	222.489655
29933.871277	-1596.995000	810.046875	316.101868
29933.871277	-1596.995000	808.859375	61.025818
29933.871277	-1596.995000	807.670898	200.555511
29933.871277	-1596.995000	806.482422	208.556122
29933.871277	-1596.995000	805.293945	68.417252
29933.871277	-1596.995000	804.104492	157.797134
29933.871277	-1596.995000	802.915039	163.718628
29933.871277	-1596.995000	801.725586	148.786667
29933.871277	-1596.995000	800.536133	158.879150
29933.871277	-1596.995000	799.345703	216.905762
29933.871277	-1596.995000	798.155273	126.955246
29933.871277	-1596.995000	796.964844	126.630592
29933.871277	-1596.995000	795.774414	122.140732
29933.871277	-1596.995000	794.583008	219.698074
29933.871277	-1596.995000	793.392578	106.921570
29933.871277	-1596.995000	792.200195	137.827469
29933.871277	-1596.995000	791.008789	81.309074
29933.871277	-1596.995000	789.816406	162.149155
29933.871277	-1596.995000	788.625000	55.720543
29933.871277	-1596.995000	787.432617	1.334848
29933.871277	-1596.995000	786.239258	61.345509
29933.871277	-1596.995000	785.046875	131.728363
29933.871277	-1596.995000	783.853516	4.606543
29933.871277	-1596.995000	782.660156	-18.549908
29933.871277	-1596.995000	781.465820	62.193089
29933.871277	-1596.995000	780.272461	82.659508
29933.871277	-1596.995000	779.078125	40.807415
29933.871277	-1596.995000	777.883789	67.497482
29933.871277	-1596.995000	776.688477	108.707733
29933.871277	-1596.995000	775.494141	-84.647568
29933.871277	-1596.995000	774.298828	-20.596176
29933.871277	-1596.995000	773.103516	43.427635
29933.871277	-1596.995000	771.907227	144.762222
29933.871277	-1596.995000	770.711914	156.875076
29933.871277	-1596.995000	769.515625	-17.634125
29933.871277	-1596.995000	768.318359	-32.446178
29933.871277	-1596.995000	767.122070	-86.632645
29933.871277	-1596.995000	765.924805	82.999870
29933.871277	-1596.995000	764.727539	115.822746
29933.871277	-1596.995000	763.530273	165.201096
29933.871277	-1596.995000	762.333008	133.791534
29933.871277	-1596.995000	761.134766	44.418709
29933.871277	-1596.995000	759.936523	147.596085
29933.871277	-1596.995000	758.738281	126.551048
29933.871277	-1596.995000	757.540039	206.902634
29933.871277	-1596.995000	756.340820	90.684929
29933.871277	-1596.995000	755.141602	11.743433
29933.871277	-1596.995000	753.942383	75.516960
29933.871277	-1596.995000	752.742188	168.204666
29933.871277	-1596.995000	751.541992	45.878574
29933.871277	-1596.995000	750.341797	115.794891
29933.871277	-1596.995000	749.141602	55.510113
29933.871277	-1596.995000	747.941406	55.152977
29933.871277	-1596.995000	746.740234	81.640877
29933.871277	-1596.995000	745.539063	58.556595
29933.871277	-1596.995000	744.337891	177.924866
29933.871277	-1596.995000	743.135742	12.403312
29933.871277	-1596.995000	741.933594	71.878410
29933.871277	-1596.995000	740.731445	9.597561
29933.871277	-1596.995000	739.529297	54.600143
29933.871277	-1596.995000	738.326172	35.646286
29933.871277	-1596.995000	737.124023	113.604866
29933.871277	-1596.995000	735.919922	127.618896
29933.871277	-1596.995000	734.716797	265.283295
29933.871277	-1596.995000	733.513672	287.491974
29933.871277	-1596.995000	732.309570	223.158844
29933.871277	-1596.995000	731.105469	311.265594
29933.871277	-1596.995000	729.900391	234.585556
29933.871277	-1596.995000	728.696289	124.990517
29933.871277	-1596.995000	727.491211	110.120979
29933.871277	-1596.995000	726.286133	43.801929
29933.871277	-1596.995000	725.080078	107.128876
29933.871277	-1596.995000	723.874023	-66.147888
29933.871277	-1596.995000	722.668945	38.296173
29933.871277	-1596.995000	721.461914	37.817265
29933.871277	-1596.995000	720.255859	-75.739059
29933.871277	-1596.995000	719.048828	-14.546869
29933.871277	-1596.995000	717.841797	9.622180
29933.871277	-1596.995000	716.634766	-68.955254
29933.871277	-1596.995000	715.427734	53.796310
29933.871277	-1596.995000	714.219727	-32.990070
29933.871277	-1596.995000	713.011719	-66.364365
29933.871277	-1596.995000	711.803711	-70.993767
29933.871277	-1596.995000	710.594727	6.464713
29933.871277	-1596.995000	709.385742	34.633492
29933.871277	-1596.995000	708.176758	107.914711
29933.871277	-1596.995000	706.967773	76.548889
29933.871277	-1596.995000	705.758789	-14.284004
29933.871277	-1596.995000	704.548828	46.628609
29933.871277	-1596.995000	703.338867	-9.334472
29933.871277	-1596.995000	702.127930	-3.804441
29933.871277	-1596.995000	700.917969	-63.853039
29933.871277	-1596.995000	699.707031	-35.802505
29933.871277	-1596.995000	698.496094	-104.035248
29933.871277	-1596.995000	697.285156	-47.343468
29933.871277	-1596.995000	696.073242	-103.286621
29933.871277	-1596.995000	694.861328	-38.456554
29933.871277	-1596.995000	693.649414	67.261749
29933.871277	-1596.995000	692.436523	-15.305440
29933.871277	-1596.995000	691.224609	184.432373
29933.871277	-1596.995000	690.011719	148.886688
29933.871277	-1596.995000	688.798828	49.958389
29933.871277	-1596.995000	687.584961	65.533745
29933.871277	-1596.995000	686.372070	11.601279
29933.871277	-1596.995000	685.158203	92.538734
29933.871277	-1596.995000	683.943359	75.365898
29933.871277	-1596.995000	682.729492	94.952713
29933.871277	-1596.995000	681.514648	130.851639
29933.871277	-1596.995000	680.299805	119.763451
29933.871277	-1596.995000	679.084961	241.344162
29933.871277	-1596.995000	677.869141	81.228043
29933.871277	-1596.995000	676.653320	106.837051
29933.871277	-1596.995000	675.437500	230.336517
29933.871277	-1596.995000	674.221680	41.724281
29933.871277	-1596.995000	673.004883	-140.708221
29933.871277	-1596.995000	671.789063	-3.012233
29933.871277	-1596.995000	670.571289	4.161506
29933.871277	-1596.995000	669.354492	29.656706
29933.871277	-1596.995000	668.136719	130.505096
29933.871277	-1596.995000	666.919922	107.043228
29933.871277	-1596.995000	665.701172	136.520126
29933.871277	-1596.995000	664.483398	25.480341
29933.871277	-1596.995000	663.264648	10.142996
29933.871277	-1596.995000	662.045898	51.779835
29933.871277	-1596.995000	660.827148	68.963905
29933.871277	-1596.995000	659.608398	51.538784
29933.871277	-1596.995000	658.388672	62.576027
29933.871277	-1596.995000	657.168945	124.427025
29933.871277	-1596.995000	655.949219	94.745888
29933.871277	-1596.995000	654.728516	107.741356
29933.871277	-1596.995000	653.507813	118.680389
29933.871277	-1596.995000	652.287109	115.372871
29933.871277	-1596.995000	651.066406	134.392365
29933.871277	-1596.995000	649.844727	-39.554409
29933.871277	-1596.995000	648.623047	42.393337
29933.871277	-1596.995000	647.401367	132.406326
29933.871277	-1596.995000	646.179688	7.221227
29933.871277	-1596.995000	644.957031	-121.991425
29933.871277	-1596.995000	643.734375	-9.747250
29933.871277	-1596.995000	642.511719	118.655266
29933.871277	-1596.995000	641.289063	21.885391
29933.871277	-1596.995000	640.065430	-54.591934
29933.871277	-1596.995000	638.841797	75.700897
29933.871277	-1596.995000	637.618164	114.718826
29933.871277	-1596.995000	636.393555	-14.476095
29933.871277	-1596.995000	635.168945	144.019104
29933.871277	-1596.995000	633.944336	22.929855
29933.871277	-1596.995000	632.719727	61.837589
29933.871277	-1596.995000	631.494141	-36.959858
29933.871277	-1596.995000	630.269531	84.884781
29933.871277	-1596.995000	629.042969	50.833618
29933.871277	-1596.995000	627.817383	87.587387
29933.871277	-1596.995000	626.590820	21.140265
29933.871277	-1596.995000	625.365234	223.669754
29933.871277	-1596.995000	624.137695	96.517654
29933.871277	-1596.995000	622.911133	74.513817
29933.871277	-1596.995000	621.683594	64.621063
29933.871277	-1596.995000	620.456055	161.801178
29933.871277	-1596.995000	619.228516	54.878277
29933.871277	-1596.995000	618.000977	180.248764
29933.871277	-1596.995000	616.772461	83.414421
29933.871277	-1596.995000	615.543945	133.976761
29933.871277	-1596.995000	614.314453	59.346714
29933.871277	-1596.995000	613.085938	10.960473
29933.871277	-1596.995000	611.856445	-67.695000
29933.871277	-1596.995000	610.626953	91.686005
29933.871277	-1596.995000	609.397461	-29.354094
29933.871277	-1596.995000	608.166992	-63.666645
29933.871277	-1596.995000	606.936523	-116.132889
29933.871277	-1596.995000	605.706055	-160.539001
29933.871277	-1596.995000	604.474609	-75.990288
29933.871277	-1596.995000	603.244141	-5.602987
29933.871277	-1596.995000	602.012695	60.699947
29933.871277	-1596.995000	600.780273	6.121547
29933.871277	-1596.995000	599.548828	-165.229202
29933.871277	-1596.995000	598.316406	-92.973122
29933.871277	-1596.995000	597.083984	-187.807663
29933.871277	-1596.995000	595.851563	-29.109797
29933.871277	-1596.995000	594.618164	-67.645111
29933.871277	-1596.995000	593.384766	-15.685695
29933.871277	-1596.995000	592.151367	-144.741821
29933.871277	-1596.995000	590.917969	-153.148453
29933.871277	-1596.995000	589.683594	67.549957
29933.871277	-1596.995000	588.449219	-5.254036
29933.871277	-1596.995000	587.214844	-152.386612
29933.871277	-1596.995000	585.979492	132.368011
29933.871277	-1596.995000	584.745117	55.504566
29933.871277	-1596.995000	583.509766	-79.578636
29933.871277	-1596.995000	582.273438	28.255091
29933.871277	-1596.995000	581.038086	-86.746468
29933.871277	-1596.995000	579.801758	141.380829
29933.871277	-1596.995000	578.565430	-138.144608
29933.871277	-1596.995000	577.329102	101.879883
29933.871277	-1596.995000	576.091797	-21.166468
29933.871277	-1596.995000	574.854492	-17.884527
29933.871277	-1596.995000	573.617188	107.634933
29933.871277	-1596.995000	572.378906	132.878021
29933.871277	-1596.995000	571.141602	-54.281654
29933.871277	-1596.995000	569.903320	73.090485
29933.871277	-1596.995000	568.664063	136.296677
29933.871277	-1596.995000	567.425781	193.446976
29933.871277	-1596.995000	566.186523	104.415321
29933.871277	-1596.995000	564.947266	-28.632383
29933.871277	-1596.995000	563.708008	88.466530
29933.871277	-1596.995000	562.467773	65.453430
29933.871277	-1596.995000	561.227539	202.430328
29933.871277	-1596.995000	559.987305	27.381186
29933.871277	-1596.995000	558.747070	88.288521
29933.871277	-1596.995000	557.505859	31.214432
29933.871277	-1596.995000	556.264648	70.061310
29933.871277	-1596.995000	555.023438	94.881493
29933.871277	-1596.995000	553.781250	-72.095963
29933.871277	-1596.995000	552.539063	-17.351427
29933.871277	-1596.995000	551.296875	-32.536655
29933.871277	-1596.995000	550.054688	-35.762390
29933.871277	-1596.995000	548.811523	68.758965
29933.871277	-1596.995000	547.569336	81.427612
29933.871277	-1596.995000	546.325195	-41.594128
29933.871277	-1596.995000	545.082031	104.674706
29933.871277	-1596.995000	543.837891	-116.057587
29933.871277	-1596.995000	542.593750	-31.689192
29933.871277	-1596.995000	541.349609	2.789275
29933.871277	-1596.995000	540.105469	35.236324
29933.871277	-1596.995000	538.860352	155.307587
29933.871277	-1596.995000	537.615234	-15.520057
29933.871277	-1596.995000	536.369141	110.435364
29933.871277	-1596.995000	535.124023	84.994316
29933.871277	-1596.995000	533.877930	236.707611
29933.871277	-1596.995000	532.631836	38.050251
29933.871277	-1596.995000	531.384766	163.791534
29933.871277	-1596.995000	530.138672	182.033310
29933.871277	-1596.995000	528.891602	162.450760
29933.871277	-1596.995000	527.643555	246.254410
29933.871277	-1596.995000	526.396484	240.538376
29933.871277	-1596.995000	525.148438	272.565155
29933.871277	-1596.995000	523.900391	292.632629
29933.871277	-1596.995000	522.652344	205.380478
29933.871277	-1596.995000	521.403320	193.623337
29933.871277	-1596.995000	520.154297	150.073624
29933.871277	-1596.995000	518.905273	5.258276
29933.871277	-1596.995000	517.656250	-42.246437
29933.871277	-1596.995000	516.406250	207.949173
29933.871277	-1596.995000	515.156250	69.098122
29933.871277	-1596.995000	513.906250	27.493944
29933.871277	-1596.995000	512.655273	27.533590
29933.871277	-1596.995000	511.404297	120.752823
29933.871277	-1596.995000	510.153320	-33.910309
29933.871277	-1596.995000	508.902344	-57.707222
29933.871277	-1596.995000	507.650391	-75.573555
29933.871277	-1596.995000	506.398438	-2.314834
29933.871277	-1596.995000	505.146484	-57.865101
29933.871277	-1596.995000	503.893555	-10.433502
29933.871277	-1596.995000	502.641602	-0.660297
29933.871277	-1596.995000	501.388672	-6.752892
29933.871277	-1596.995000	500.134766	-26.722565
29933.871277	-1596.995000	498.881836	-34.828648
29933.871277	-1596.995000	497.627930	-131.980331
29933.871277	-1596.995000	496.374023	-21.434254
29933.871277	-1596.995000	495.119141	-41.472969
29933.871277	-1596.995000	493.865234	177.699432
29933.871277	-1596.995000	492.610352	23.173618
29933.871277	-1596.995000	491.355469	54.453201
29933.871277	-1596.995000	490.099609	-9.141944
29933.871277	-1596.995000	488.843750	51.713104
29933.871277	-1596.995000	487.587891	35.498695
29933.871277	-1596.995000	486.332031	143.660995
29933.871277	-1596.995000	485.075195	16.838581
29933.871277	-1596.995000	483.818359	91.357368
29933.871277	-1596.995000	482.561523	90.839737
29933.871277	-1596.995000	481.304688	66.625809
29933.871277	-1596.995000	480.046875	229.768127
29933.871277	-1596.995000	478.789063	108.859673
29933.871277	-1596.995000	477.531250	127.955849
29933.871277	-1596.995000	476.272461	12.982133
29933.871277	-1596.995000	475.013672	136.482666
29933.871277	-1596.995000	473.754883	96.376083
29933.871277	-1596.995000	472.496094	138.993088
29933.871277	-1596.995000	471.236328	89.001701
29933.871277	-1596.995000	469.976563	196.521698
29933.871277	-1596.995000	468.716797	235.070267
29933.871277	-1596.995000	467.456055	247.986664
29933.871277	-1596.995000	466.196289	284.485565
29933.871277	-1596.995000	464.935547	187.164291
29933.871277	-1596.995000	463.673828	184.260071
29933.871277	-1596.995000	462.413086	342.576508
29933.871277	-1596.995000	461.151367	262.908447
29933.871277	-1596.995000	459.889648	332.626129
29933.871277	-1596.995000	458.626953	325.639252
29933.871277	-1596.995000	457.364258	460.081726
29933.871277	-1596.995000	456.101563	343.006531
29933.871277	-1596.995000	454.838867	167.033569
29933.871277	-1596.995000	453.575195	187.441452
29933.871277	-1596.995000	452.312500	451.222351
29933.871277	-1596.995000	451.047852	349.805786
29933.871277	-1596.995000	449.784180	440.691650
29933.871277	-1596.995000	448.519531	431.448486
29933.871277	-1596.995000	447.254883	443.745636
29933.871277	-1596.995000	445.990234	471.684723
29933.871277	-1596.995000	444.725586	564.266602
29933.871277	-1596.995000	443.459961	739.084290
29933.871277	-1596.995000	442.194336	564.972290
29933.871277	-1596.995000	440.927734	604.438904
29933.871277	-1596.995000	439.662109	704.569702
29933.871277	-1596.995000	438.395508	624.438721
29933.871277	-1596.995000	437.127930	614.774536
29933.871277	-1596.995000	435.861328	791.032349
29933.871277	-1596.995000	434.593750	460.277557
29933.871277	-1596.995000	433.326172	693.127075
29933.871277	-1596.995000	432.058594	616.739624
29933.871277	-1596.995000	430.790039	685.054016
29933.871277	-1596.995000	429.521484	749.370728
29933.871277	-1596.995000	428.252930	721.718384
29933.871277	-1596.995000	426.984375	578.700256
29933.871277	-1596.995000	425.714844	552.922668
29933.871277	-1596.995000	424.445313	638.451721
29933.871277	-1596.995000	423.174805	716.059143
29933.871277	-1596.995000	421.905273	604.144836
29933.871277	-1596.995000	420.634766	665.967712
29933.871277	-1596.995000	419.364258	503.212494
29933.871277	-1596.995000	418.092773	590.247559
29933.871277	-1596.995000	416.822266	472.303528
29933.871277	-1596.995000	415.550781	313.359802
29933.871277	-1596.995000	414.278320	462.543732
29933.871277	-1596.995000	413.006836	239.158218
29933.871277	-1596.995000	411.734375	337.435120
29933.871277	-1596.995000	410.461914	151.021835
29933.871277	-1596.995000	409.188477	147.758423
29933.871277	-1596.995000	407.916016	195.058868
29933.871277	-1596.995000	406.642578	142.898758
29933.871277	-1596.995000	405.368164	-30.082081
29933.871277	-1596.995000	404.094727	-41.493912
29933.871277	-1596.995000	402.820313	133.847610
29933.871277	-1596.995000	401.545898	114.393967
29933.871277	-1596.995000	400.270508	194.054794
29933.871277	-1596.995000	398.996094	57.648838
29933.871277	-1596.995000	397.720703	88.425285
29933.871277	-1596.995000	396.444336	-50.105679
29933.871277	-1596.995000	395.168945	190.370026
29933.871277	-1596.995000	393.892578	59.385857
29933.871277	-1596.995000	392.616211	42.963005
29933.871277	-1596.995000	391.339844	-2.736164
29933.871277	-1596.995000	390.062500	-104.895432
29933.871277	-1596.995000	388.785156	64.695305
29933.871277	-1596.995000	387.507813	88.449036
29933.871277	-1596.995000	386.229492	-12.199588
29933.871277	-1596.995000	384.951172	119.897980
29933.871277	-1596.995000	383.672852	-15.974071
29933.871277	-1596.995000	382.394531	109.900482
29933.871277	-1596.995000	381.115234	86.203781
29933.871277	-1596.995000	379.835938	168.969101
29933.871277	-1596.995000	378.556641	131.320969
29933.871277	-1596.995000	377.277344	23.721588
29933.871277	-1596.995000	375.997070	51.590282
29933.871277	-1596.995000	374.716797	71.487671
29933.871277	-1596.995000	373.435547	58.225971
29933.871277	-1596.995000	372.155273	73.802177
29933.871277	-1596.995000	370.874023	67.837944
29933.871277	-1596.995000	369.591797	-4.176119
29933.871277	-1596.995000	368.310547	138.403519
29933.871277	-1596.995000	367.028320	-7.603785
29933.871277	-1596.995000	365.746094	91.845528
29933.871277	-1596.995000	364.463867	-23.666754
29933.871277	-1596.995000	363.180664	-178.078720
29933.871277	-1596.995000	361.897461	-31.156311
29933.871277	-1596.995000	360.614258	-91.369545
29933.871277	-1596.995000	359.330078	0.777845
29933.871277	-1596.995000	358.045898	115.762169
29933.871277	-1596.995000	356.761719	23.735422
29933.871277	-1596.995000	355.477539	201.752731
29933.871277	-1596.995000	354.192383	103.295471
29933.871277	-1596.995000	352.907227	-55.287853
29933.871277	-1596.995000	351.622070	-5.750817
29933.871277	-1596.995000	350.336914	35.691868
29933.871277	-1596.995000	349.050781	153.888840
29933.871277	-1596.995000	347.764648	13.258122
29933.871277	-1596.995000	346.477539	24.595583
29933.871277	-1596.995000	345.191406	-1.077335
29933.871277	-1596.995000	343.904297	200.237122
29933.871277	-1596.995000	342.616211	-72.930916
29933.871277	-1596.995000	341.329102	-117.170219
29933.871277	-1596.995000	340.041016	-3.926510
29933.871277	-1596.995000	338.752930	78.008698
29933.871277	-1596.995000	337.463867	147.879059
29933.871277	-1596.995000	336.175781	-13.690129
29933.871277	-1596.995000	334.886719	-66.015953
29933.871277	-1596.995000	333.596680	42.756947
29933.871277	-1596.995000	332.307617	31.739672
29933.871277	-1596.995000	331.017578	31.720972
29933.871277	-1596.995000	329.727539	-91.876648
29933.871277	-1596.995000	328.436523	131.899780
29933.871277	-1596.995000	327.146484	5.290878
29933.871277	-1596.995000	325.855469	49.124485
29933.871277	-1596.995000	324.563477	-97.836502
29933.871277	-1596.995000	323.272461	-22.561661
29933.871277	-1596.995000	321.980469	-274.360474
29933.871277	-1596.995000	320.688477	-44.887203
29933.871277	-1596.995000	319.395508	-11.944642
29933.871277	-1596.995000	318.103516	37.599285
29933.871277	-1596.995000	316.810547	-86.237488
29933.871277	-1596.995000	315.516602	46.242027
29933.871277	-1596.995000	314.223633	-75.140968
29933.871277	-1596.995000	312.929688	-9.369282
29933.871277	-1596.995000	311.635742	32.613010
29933.871277	-1596.995000	310.340820	50.778214
29933.871277	-1596.995000	309.045898	-50.640606
29933.871277	-1596.995000	307.750977	-26.419636
29933.871277	-1596.995000	306.456055	180.788620
29933.871277	-1596.995000	305.160156	80.699615
29933.871277	-1596.995000	303.865234	-8.708051
29933.871277	-1596.995000	302.568359	-11.003549
29933.871277	-1596.995000	301.272461	129.308014
29933.871277	-1596.995000	299.975586	241.809448
29933.871277	-1596.995000	298.678711	292.101959
