#X		#Y		#Wave		#Intensity
29742.744681	-995.643333	1999.980469	109.395821
29742.744681	-995.643333	1999.016602	-32.204681
29742.744681	-995.643333	1998.052734	-11.120411
29742.744681	-995.643333	1997.087891	-7.354063
29742.744681	-995.643333	1996.123047	18.745480
29742.744681	-995.643333	1995.158203	-44.308624
29742.744681	-995.643333	1994.193359	-52.817165
29742.744681	-995.643333	1993.228516	22.904449
29742.744681	-995.643333	1992.262695	46.637459
29742.744681	-995.643333	1991.297852	-13.769359
29742.744681	-995.643333	1990.332031	14.973577
29742.744681	-995.643333	1989.366211	88.275063
29742.744681	-995.643333	1988.399414	114.572304
29742.744681	-995.643333	1987.433594	19.684580
29742.744681	-995.643333	1986.466797	-77.614334
29742.744681	-995.643333	1985.500977	3.177399
29742.744681	-995.643333	1984.534180	14.744322
29742.744681	-995.643333	1983.567383	63.407265
29742.744681	-995.643333	1982.599609	25.582668
29742.744681	-995.643333	1981.632813	49.564213
29742.744681	-995.643333	1980.665039	189.664627
29742.744681	-995.643333	1979.697266	-67.913940
29742.744681	-995.643333	1978.729492	-103.129280
29742.744681	-995.643333	1977.761719	34.514969
29742.744681	-995.643333	1976.792969	68.451569
29742.744681	-995.643333	1975.825195	-82.709091
29742.744681	-995.643333	1974.856445	136.341675
29742.744681	-995.643333	1973.887695	-113.424057
29742.744681	-995.643333	1972.918945	-7.881429
29742.744681	-995.643333	1971.949219	65.577751
29742.744681	-995.643333	1970.980469	-97.686226
29742.744681	-995.643333	1970.010742	32.494415
29742.744681	-995.643333	1969.041016	12.286588
29742.744681	-995.643333	1968.071289	-44.865490
29742.744681	-995.643333	1967.101563	53.243160
29742.744681	-995.643333	1966.130859	94.669144
29742.744681	-995.643333	1965.161133	-6.762510
29742.744681	-995.643333	1964.190430	14.981934
29742.744681	-995.643333	1963.219727	-17.436010
29742.744681	-995.643333	1962.249023	-64.601837
29742.744681	-995.643333	1961.277344	-37.904144
29742.744681	-995.643333	1960.306641	116.748634
29742.744681	-995.643333	1959.334961	79.454361
29742.744681	-995.643333	1958.363281	17.584019
29742.744681	-995.643333	1957.391602	41.821693
29742.744681	-995.643333	1956.419922	157.035568
29742.744681	-995.643333	1955.447266	144.377182
29742.744681	-995.643333	1954.474609	-10.832279
29742.744681	-995.643333	1953.501953	160.870117
29742.744681	-995.643333	1952.529297	-11.472128
29742.744681	-995.643333	1951.556641	74.196716
29742.744681	-995.643333	1950.583984	12.470957
29742.744681	-995.643333	1949.610352	-24.670630
29742.744681	-995.643333	1948.636719	70.787979
29742.744681	-995.643333	1947.663086	-12.983199
29742.744681	-995.643333	1946.689453	114.350410
29742.744681	-995.643333	1945.715820	-69.999664
29742.744681	-995.643333	1944.741211	-60.459854
29742.744681	-995.643333	1943.767578	66.818687
29742.744681	-995.643333	1942.792969	-56.100513
29742.744681	-995.643333	1941.818359	-44.111073
29742.744681	-995.643333	1940.842773	31.615974
29742.744681	-995.643333	1939.868164	41.135551
29742.744681	-995.643333	1938.892578	80.060051
29742.744681	-995.643333	1937.916992	101.818634
29742.744681	-995.643333	1936.941406	-43.013332
29742.744681	-995.643333	1935.965820	-21.240347
29742.744681	-995.643333	1934.990234	2.972251
29742.744681	-995.643333	1934.013672	54.107773
29742.744681	-995.643333	1933.037109	66.055862
29742.744681	-995.643333	1932.060547	33.943684
29742.744681	-995.643333	1931.083984	-51.992222
29742.744681	-995.643333	1930.107422	-37.590008
29742.744681	-995.643333	1929.129883	-37.871719
29742.744681	-995.643333	1928.153320	169.722061
29742.744681	-995.643333	1927.175781	-13.992126
29742.744681	-995.643333	1926.198242	66.388603
29742.744681	-995.643333	1925.219727	80.741631
29742.744681	-995.643333	1924.242188	117.079056
29742.744681	-995.643333	1923.263672	-5.418323
29742.744681	-995.643333	1922.285156	28.471254
29742.744681	-995.643333	1921.306641	1.282729
29742.744681	-995.643333	1920.328125	54.685326
29742.744681	-995.643333	1919.349609	32.376099
29742.744681	-995.643333	1918.370117	-48.515606
29742.744681	-995.643333	1917.391602	112.238716
29742.744681	-995.643333	1916.412109	41.112801
29742.744681	-995.643333	1915.431641	70.036125
29742.744681	-995.643333	1914.452148	55.035591
29742.744681	-995.643333	1913.472656	-62.394714
29742.744681	-995.643333	1912.492188	132.321823
29742.744681	-995.643333	1911.511719	27.097980
29742.744681	-995.643333	1910.531250	46.216805
29742.744681	-995.643333	1909.550781	-10.224697
29742.744681	-995.643333	1908.569336	25.936489
29742.744681	-995.643333	1907.588867	-57.291183
29742.744681	-995.643333	1906.607422	142.037628
29742.744681	-995.643333	1905.625977	-11.814147
29742.744681	-995.643333	1904.644531	-2.490185
29742.744681	-995.643333	1903.662109	-61.335793
29742.744681	-995.643333	1902.680664	-117.734032
29742.744681	-995.643333	1901.698242	8.381970
29742.744681	-995.643333	1900.715820	10.366028
29742.744681	-995.643333	1899.733398	19.637943
29742.744681	-995.643333	1898.750000	150.497910
29742.744681	-995.643333	1897.767578	-66.407761
29742.744681	-995.643333	1896.784180	-20.685097
29742.744681	-995.643333	1895.800781	-6.585694
29742.744681	-995.643333	1894.817383	-24.092571
29742.744681	-995.643333	1893.833984	123.617897
29742.744681	-995.643333	1892.850586	-59.113560
29742.744681	-995.643333	1891.866211	56.956554
29742.744681	-995.643333	1890.881836	100.123589
29742.744681	-995.643333	1889.897461	55.861576
29742.744681	-995.643333	1888.913086	-61.216293
29742.744681	-995.643333	1887.927734	98.416176
29742.744681	-995.643333	1886.943359	46.871365
29742.744681	-995.643333	1885.958008	-70.166901
29742.744681	-995.643333	1884.972656	-70.742081
29742.744681	-995.643333	1883.987305	-64.051018
29742.744681	-995.643333	1883.001953	92.959435
29742.744681	-995.643333	1882.015625	48.688969
29742.744681	-995.643333	1881.029297	-5.271059
29742.744681	-995.643333	1880.042969	25.596869
29742.744681	-995.643333	1879.056641	-42.895794
29742.744681	-995.643333	1878.070313	-19.320389
29742.744681	-995.643333	1877.083984	-85.377663
29742.744681	-995.643333	1876.096680	-66.666512
29742.744681	-995.643333	1875.109375	58.554893
29742.744681	-995.643333	1874.122070	9.433477
29742.744681	-995.643333	1873.134766	-3.377007
29742.744681	-995.643333	1872.146484	143.507919
29742.744681	-995.643333	1871.159180	7.272757
29742.744681	-995.643333	1870.170898	1.694319
29742.744681	-995.643333	1869.182617	-28.076319
29742.744681	-995.643333	1868.194336	48.541367
29742.744681	-995.643333	1867.205078	23.586109
29742.744681	-995.643333	1866.216797	-25.540186
29742.744681	-995.643333	1865.227539	-31.161396
29742.744681	-995.643333	1864.238281	105.757896
29742.744681	-995.643333	1863.249023	83.182503
29742.744681	-995.643333	1862.259766	84.756439
29742.744681	-995.643333	1861.269531	93.563293
29742.744681	-995.643333	1860.279297	25.098989
29742.744681	-995.643333	1859.290039	-86.800179
29742.744681	-995.643333	1858.298828	160.923691
29742.744681	-995.643333	1857.308594	-37.845940
29742.744681	-995.643333	1856.318359	57.767960
29742.744681	-995.643333	1855.327148	146.098938
29742.744681	-995.643333	1854.335938	-16.416607
29742.744681	-995.643333	1853.344727	40.527969
29742.744681	-995.643333	1852.353516	92.618683
29742.744681	-995.643333	1851.362305	98.884323
29742.744681	-995.643333	1850.370117	-27.399227
29742.744681	-995.643333	1849.377930	48.733315
29742.744681	-995.643333	1848.385742	74.240440
29742.744681	-995.643333	1847.393555	169.569397
29742.744681	-995.643333	1846.401367	115.559059
29742.744681	-995.643333	1845.408203	15.815806
29742.744681	-995.643333	1844.415039	-11.690609
29742.744681	-995.643333	1843.421875	213.491470
29742.744681	-995.643333	1842.428711	118.563690
29742.744681	-995.643333	1841.435547	33.282413
29742.744681	-995.643333	1840.441406	-30.331478
29742.744681	-995.643333	1839.448242	86.424362
29742.744681	-995.643333	1838.454102	15.588782
29742.744681	-995.643333	1837.459961	141.884048
29742.744681	-995.643333	1836.464844	47.007305
29742.744681	-995.643333	1835.470703	-103.113449
29742.744681	-995.643333	1834.475586	-24.952137
29742.744681	-995.643333	1833.480469	-122.180969
29742.744681	-995.643333	1832.485352	42.389027
29742.744681	-995.643333	1831.490234	19.596235
29742.744681	-995.643333	1830.495117	-5.600344
29742.744681	-995.643333	1829.499023	-88.404541
29742.744681	-995.643333	1828.502930	-29.602268
29742.744681	-995.643333	1827.506836	19.569174
29742.744681	-995.643333	1826.510742	80.705017
29742.744681	-995.643333	1825.513672	89.040359
29742.744681	-995.643333	1824.517578	236.443405
29742.744681	-995.643333	1823.520508	163.207596
29742.744681	-995.643333	1822.523438	140.325867
29742.744681	-995.643333	1821.526367	0.007228
29742.744681	-995.643333	1820.529297	51.423088
29742.744681	-995.643333	1819.531250	78.850479
29742.744681	-995.643333	1818.533203	187.694992
29742.744681	-995.643333	1817.535156	33.057743
29742.744681	-995.643333	1816.537109	-40.124252
29742.744681	-995.643333	1815.539063	32.737904
29742.744681	-995.643333	1814.540039	251.561325
29742.744681	-995.643333	1813.541992	140.057251
29742.744681	-995.643333	1812.542969	-26.445482
29742.744681	-995.643333	1811.543945	55.881165
29742.744681	-995.643333	1810.543945	37.715988
29742.744681	-995.643333	1809.544922	-21.103220
29742.744681	-995.643333	1808.544922	-39.270168
29742.744681	-995.643333	1807.544922	47.731709
29742.744681	-995.643333	1806.544922	70.163673
29742.744681	-995.643333	1805.544922	11.336786
29742.744681	-995.643333	1804.544922	-54.645889
29742.744681	-995.643333	1803.543945	-1.191559
29742.744681	-995.643333	1802.542969	-2.693272
29742.744681	-995.643333	1801.541992	26.833384
29742.744681	-995.643333	1800.541016	89.757095
29742.744681	-995.643333	1799.539063	-62.155563
29742.744681	-995.643333	1798.538086	36.532074
29742.744681	-995.643333	1797.536133	108.927338
29742.744681	-995.643333	1796.534180	59.632870
29742.744681	-995.643333	1795.532227	-65.969963
29742.744681	-995.643333	1794.529297	8.754529
29742.744681	-995.643333	1793.527344	26.225035
29742.744681	-995.643333	1792.524414	-8.760287
29742.744681	-995.643333	1791.521484	42.047245
29742.744681	-995.643333	1790.518555	68.998741
29742.744681	-995.643333	1789.514648	33.992043
29742.744681	-995.643333	1788.511719	49.004051
29742.744681	-995.643333	1787.507813	40.186829
29742.744681	-995.643333	1786.503906	31.361868
29742.744681	-995.643333	1785.500000	84.418861
29742.744681	-995.643333	1784.496094	73.187927
29742.744681	-995.643333	1783.491211	80.985298
29742.744681	-995.643333	1782.486328	69.737007
29742.744681	-995.643333	1781.481445	117.946503
29742.744681	-995.643333	1780.476563	61.490314
29742.744681	-995.643333	1779.471680	-59.151539
29742.744681	-995.643333	1778.465820	8.040258
29742.744681	-995.643333	1777.460938	65.689804
29742.744681	-995.643333	1776.455078	9.243888
29742.744681	-995.643333	1775.449219	45.466972
29742.744681	-995.643333	1774.442383	36.533127
29742.744681	-995.643333	1773.436523	18.092897
29742.744681	-995.643333	1772.429688	47.138889
29742.744681	-995.643333	1771.422852	23.934637
29742.744681	-995.643333	1770.416016	52.948460
29742.744681	-995.643333	1769.409180	8.373279
29742.744681	-995.643333	1768.402344	106.167160
29742.744681	-995.643333	1767.394531	9.388867
29742.744681	-995.643333	1766.386719	-37.554939
29742.744681	-995.643333	1765.378906	50.675152
29742.744681	-995.643333	1764.371094	-5.761628
29742.744681	-995.643333	1763.362305	-7.667864
29742.744681	-995.643333	1762.354492	-14.322493
29742.744681	-995.643333	1761.345703	-13.876165
29742.744681	-995.643333	1760.336914	-20.546686
29742.744681	-995.643333	1759.328125	-176.448746
29742.744681	-995.643333	1758.318359	-24.437693
29742.744681	-995.643333	1757.308594	73.047981
29742.744681	-995.643333	1756.299805	16.614763
29742.744681	-995.643333	1755.290039	-65.842209
29742.744681	-995.643333	1754.279297	-29.959114
29742.744681	-995.643333	1753.269531	-3.561615
29742.744681	-995.643333	1752.258789	-5.570039
29742.744681	-995.643333	1751.249023	-203.883240
29742.744681	-995.643333	1750.238281	-139.663284
29742.744681	-995.643333	1749.226563	-30.558580
29742.744681	-995.643333	1748.215820	-27.869282
29742.744681	-995.643333	1747.204102	-79.545105
29742.744681	-995.643333	1746.193359	-53.237263
29742.744681	-995.643333	1745.181641	-26.949692
29742.744681	-995.643333	1744.168945	221.334747
29742.744681	-995.643333	1743.157227	49.183620
29742.744681	-995.643333	1742.144531	39.995308
29742.744681	-995.643333	1741.132813	21.360859
29742.744681	-995.643333	1740.120117	61.725967
29742.744681	-995.643333	1739.106445	-63.107067
29742.744681	-995.643333	1738.093750	-6.243924
29742.744681	-995.643333	1737.080078	104.839180
29742.744681	-995.643333	1736.067383	83.809532
29742.744681	-995.643333	1735.053711	58.062973
29742.744681	-995.643333	1734.040039	-83.193275
29742.744681	-995.643333	1733.025391	-115.986145
29742.744681	-995.643333	1732.011719	-33.305988
29742.744681	-995.643333	1730.997070	37.554001
29742.744681	-995.643333	1729.982422	-18.822453
29742.744681	-995.643333	1728.967773	-63.408909
29742.744681	-995.643333	1727.952148	-63.248920
29742.744681	-995.643333	1726.937500	-107.824959
29742.744681	-995.643333	1725.921875	137.120987
29742.744681	-995.643333	1724.906250	-65.165230
29742.744681	-995.643333	1723.890625	125.548431
29742.744681	-995.643333	1722.875000	-67.262863
29742.744681	-995.643333	1721.858398	-55.387333
29742.744681	-995.643333	1720.841797	-15.305153
29742.744681	-995.643333	1719.825195	48.265499
29742.744681	-995.643333	1718.808594	15.429691
29742.744681	-995.643333	1717.791992	10.801277
29742.744681	-995.643333	1716.774414	-92.521271
29742.744681	-995.643333	1715.756836	104.895477
29742.744681	-995.643333	1714.739258	88.487152
29742.744681	-995.643333	1713.721680	104.956490
29742.744681	-995.643333	1712.704102	76.802109
29742.744681	-995.643333	1711.685547	69.778214
29742.744681	-995.643333	1710.667969	48.670113
29742.744681	-995.643333	1709.649414	177.742966
29742.744681	-995.643333	1708.630859	161.300858
29742.744681	-995.643333	1707.611328	25.228836
29742.744681	-995.643333	1706.592773	27.572010
29742.744681	-995.643333	1705.573242	58.044724
29742.744681	-995.643333	1704.553711	100.221588
29742.744681	-995.643333	1703.534180	137.689117
29742.744681	-995.643333	1702.513672	48.590168
29742.744681	-995.643333	1701.494141	74.327316
29742.744681	-995.643333	1700.473633	-14.735729
29742.744681	-995.643333	1699.453125	207.726166
29742.744681	-995.643333	1698.432617	-17.153120
29742.744681	-995.643333	1697.412109	46.013725
29742.744681	-995.643333	1696.390625	123.194229
29742.744681	-995.643333	1695.369141	155.874664
29742.744681	-995.643333	1694.347656	261.072723
29742.744681	-995.643333	1693.326172	-31.468348
29742.744681	-995.643333	1692.304688	62.021584
29742.744681	-995.643333	1691.282227	176.515900
29742.744681	-995.643333	1690.260742	113.272720
29742.744681	-995.643333	1689.238281	157.577087
29742.744681	-995.643333	1688.214844	54.620026
29742.744681	-995.643333	1687.192383	185.367691
29742.744681	-995.643333	1686.168945	255.317490
29742.744681	-995.643333	1685.146484	152.390213
29742.744681	-995.643333	1684.123047	332.072510
29742.744681	-995.643333	1683.099609	278.193970
29742.744681	-995.643333	1682.075195	219.662521
29742.744681	-995.643333	1681.051758	378.211456
29742.744681	-995.643333	1680.027344	389.682373
29742.744681	-995.643333	1679.002930	431.475250
29742.744681	-995.643333	1677.978516	531.565186
29742.744681	-995.643333	1676.953125	330.760132
29742.744681	-995.643333	1675.928711	624.358765
29742.744681	-995.643333	1674.903320	756.981445
29742.744681	-995.643333	1673.877930	766.015991
29742.744681	-995.643333	1672.852539	917.197876
29742.744681	-995.643333	1671.826172	1163.845093
29742.744681	-995.643333	1670.800781	1296.250977
29742.744681	-995.643333	1669.774414	1228.305176
29742.744681	-995.643333	1668.748047	1283.798584
29742.744681	-995.643333	1667.721680	1632.614136
29742.744681	-995.643333	1666.694336	1899.821899
29742.744681	-995.643333	1665.667969	1922.566406
29742.744681	-995.643333	1664.640625	1926.684204
29742.744681	-995.643333	1663.613281	1767.955200
29742.744681	-995.643333	1662.585938	1827.919678
29742.744681	-995.643333	1661.557617	1834.373047
29742.744681	-995.643333	1660.530273	1794.324097
29742.744681	-995.643333	1659.501953	1900.734131
29742.744681	-995.643333	1658.473633	1811.878174
29742.744681	-995.643333	1657.444336	1748.614502
29742.744681	-995.643333	1656.416016	1841.029785
29742.744681	-995.643333	1655.386719	1852.111084
29742.744681	-995.643333	1654.358398	2023.427490
29742.744681	-995.643333	1653.328125	1851.040649
29742.744681	-995.643333	1652.298828	1629.972412
29742.744681	-995.643333	1651.269531	1715.354614
29742.744681	-995.643333	1650.239258	1656.831177
29742.744681	-995.643333	1649.208984	1306.004150
29742.744681	-995.643333	1648.178711	1335.728149
29742.744681	-995.643333	1647.148438	1068.588623
29742.744681	-995.643333	1646.117188	1010.235474
29742.744681	-995.643333	1645.086914	919.451172
29742.744681	-995.643333	1644.055664	729.035400
29742.744681	-995.643333	1643.024414	835.316772
29742.744681	-995.643333	1641.992188	753.886414
29742.744681	-995.643333	1640.960938	609.945801
29742.744681	-995.643333	1639.928711	505.433289
29742.744681	-995.643333	1638.896484	607.047668
29742.744681	-995.643333	1637.864258	565.086914
29742.744681	-995.643333	1636.832031	682.856323
29742.744681	-995.643333	1635.798828	724.211121
29742.744681	-995.643333	1634.766602	548.058899
29742.744681	-995.643333	1633.733398	476.074860
29742.744681	-995.643333	1632.699219	559.082336
29742.744681	-995.643333	1631.666016	568.063232
29742.744681	-995.643333	1630.632813	422.141235
29742.744681	-995.643333	1629.598633	359.491974
29742.744681	-995.643333	1628.564453	509.488953
29742.744681	-995.643333	1627.530273	349.806122
29742.744681	-995.643333	1626.495117	384.242096
29742.744681	-995.643333	1625.460938	381.713287
29742.744681	-995.643333	1624.425781	393.043274
29742.744681	-995.643333	1623.390625	365.121765
29742.744681	-995.643333	1622.355469	438.783813
29742.744681	-995.643333	1621.319336	526.267029
29742.744681	-995.643333	1620.284180	475.271881
29742.744681	-995.643333	1619.248047	530.423401
29742.744681	-995.643333	1618.211914	396.416809
29742.744681	-995.643333	1617.174805	564.569824
29742.744681	-995.643333	1616.138672	502.093689
29742.744681	-995.643333	1615.101563	444.255920
29742.744681	-995.643333	1614.065430	471.723816
29742.744681	-995.643333	1613.027344	720.399902
29742.744681	-995.643333	1611.990234	584.234985
29742.744681	-995.643333	1610.953125	689.989563
29742.744681	-995.643333	1609.915039	540.074585
29742.744681	-995.643333	1608.876953	712.579956
29742.744681	-995.643333	1607.838867	620.282104
29742.744681	-995.643333	1606.800781	723.666016
29742.744681	-995.643333	1605.761719	755.676453
29742.744681	-995.643333	1604.723633	635.832031
29742.744681	-995.643333	1603.684570	773.673462
29742.744681	-995.643333	1602.644531	948.263428
29742.744681	-995.643333	1601.605469	1060.708496
29742.744681	-995.643333	1600.566406	1023.684204
29742.744681	-995.643333	1599.526367	1131.485596
29742.744681	-995.643333	1598.486328	1211.674438
29742.744681	-995.643333	1597.446289	1365.362671
29742.744681	-995.643333	1596.405273	1346.709351
29742.744681	-995.643333	1595.365234	1357.928589
29742.744681	-995.643333	1594.324219	1495.444336
29742.744681	-995.643333	1593.283203	1506.643555
29742.744681	-995.643333	1592.242188	1485.710571
29742.744681	-995.643333	1591.200195	1437.253296
29742.744681	-995.643333	1590.159180	1228.210571
29742.744681	-995.643333	1589.117188	1335.831299
29742.744681	-995.643333	1588.075195	1356.262817
29742.744681	-995.643333	1587.032227	1117.569336
29742.744681	-995.643333	1585.990234	1028.002930
29742.744681	-995.643333	1584.947266	816.990723
29742.744681	-995.643333	1583.904297	803.162781
29742.744681	-995.643333	1582.861328	881.002686
29742.744681	-995.643333	1581.818359	855.730713
29742.744681	-995.643333	1580.775391	704.503784
29742.744681	-995.643333	1579.731445	564.794189
29742.744681	-995.643333	1578.687500	695.313904
29742.744681	-995.643333	1577.643555	750.252136
29742.744681	-995.643333	1576.598633	670.147583
29742.744681	-995.643333	1575.554688	562.626343
29742.744681	-995.643333	1574.509766	448.292999
29742.744681	-995.643333	1573.464844	606.203430
29742.744681	-995.643333	1572.419922	551.384521
29742.744681	-995.643333	1571.374023	425.717865
29742.744681	-995.643333	1570.329102	519.563354
29742.744681	-995.643333	1569.283203	364.262054
29742.744681	-995.643333	1568.237305	517.514709
29742.744681	-995.643333	1567.191406	360.011383
29742.744681	-995.643333	1566.144531	328.208374
29742.744681	-995.643333	1565.098633	335.253082
29742.744681	-995.643333	1564.051758	387.970520
29742.744681	-995.643333	1563.004883	367.628784
29742.744681	-995.643333	1561.957031	244.598755
29742.744681	-995.643333	1560.910156	356.667419
29742.744681	-995.643333	1559.862305	352.347870
29742.744681	-995.643333	1558.814453	222.585388
29742.744681	-995.643333	1557.766602	259.368408
29742.744681	-995.643333	1556.718750	302.989014
29742.744681	-995.643333	1555.669922	419.553497
29742.744681	-995.643333	1554.621094	125.823997
29742.744681	-995.643333	1553.573242	272.027496
29742.744681	-995.643333	1552.523438	301.989441
29742.744681	-995.643333	1551.474609	227.170746
29742.744681	-995.643333	1550.424805	207.052475
29742.744681	-995.643333	1549.375000	132.306870
29742.744681	-995.643333	1548.325195	173.707474
29742.744681	-995.643333	1547.275391	228.762222
29742.744681	-995.643333	1546.225586	290.634796
29742.744681	-995.643333	1545.174805	241.011703
29742.744681	-995.643333	1544.124023	230.092941
29742.744681	-995.643333	1543.073242	382.941101
29742.744681	-995.643333	1542.022461	203.761383
29742.744681	-995.643333	1540.970703	349.761810
29742.744681	-995.643333	1539.919922	295.699554
29742.744681	-995.643333	1538.868164	278.032501
29742.744681	-995.643333	1537.815430	244.481567
29742.744681	-995.643333	1536.763672	408.589447
29742.744681	-995.643333	1535.710938	347.801453
29742.744681	-995.643333	1534.659180	327.925903
29742.744681	-995.643333	1533.606445	455.639069
29742.744681	-995.643333	1532.552734	440.318573
29742.744681	-995.643333	1531.500000	513.524597
29742.744681	-995.643333	1530.446289	507.304596
29742.744681	-995.643333	1529.393555	512.445251
29742.744681	-995.643333	1528.338867	678.627991
29742.744681	-995.643333	1527.285156	652.017273
29742.744681	-995.643333	1526.231445	795.466858
29742.744681	-995.643333	1525.176758	739.407959
29742.744681	-995.643333	1524.122070	631.263062
29742.744681	-995.643333	1523.067383	693.111389
29742.744681	-995.643333	1522.012695	616.765442
29742.744681	-995.643333	1520.957031	597.087891
29742.744681	-995.643333	1519.901367	658.954102
29742.744681	-995.643333	1518.845703	474.037567
29742.744681	-995.643333	1517.790039	368.434540
29742.744681	-995.643333	1516.734375	398.675354
29742.744681	-995.643333	1515.677734	327.102234
29742.744681	-995.643333	1514.621094	416.190063
29742.744681	-995.643333	1513.564453	260.990723
29742.744681	-995.643333	1512.507813	329.738708
29742.744681	-995.643333	1511.450195	152.043259
29742.744681	-995.643333	1510.393555	286.372131
29742.744681	-995.643333	1509.335938	199.188934
29742.744681	-995.643333	1508.278320	193.400192
29742.744681	-995.643333	1507.219727	101.786644
29742.744681	-995.643333	1506.162109	199.951126
29742.744681	-995.643333	1505.103516	162.603973
29742.744681	-995.643333	1504.044922	-37.266335
29742.744681	-995.643333	1502.986328	-33.884342
29742.744681	-995.643333	1501.926758	5.623063
29742.744681	-995.643333	1500.868164	67.696922
29742.744681	-995.643333	1499.808594	19.224020
29742.744681	-995.643333	1498.749023	58.752293
29742.744681	-995.643333	1497.688477	-55.058956
29742.744681	-995.643333	1496.628906	-24.512962
29742.744681	-995.643333	1495.568359	-41.297523
29742.744681	-995.643333	1494.507813	38.852512
29742.744681	-995.643333	1493.447266	46.885464
29742.744681	-995.643333	1492.386719	129.276001
29742.744681	-995.643333	1491.325195	-0.067951
29742.744681	-995.643333	1490.263672	-12.242135
29742.744681	-995.643333	1489.202148	-118.954018
29742.744681	-995.643333	1488.140625	-140.065338
29742.744681	-995.643333	1487.079102	39.150009
29742.744681	-995.643333	1486.016602	6.803679
29742.744681	-995.643333	1484.954102	-25.510735
29742.744681	-995.643333	1483.891602	-10.559293
29742.744681	-995.643333	1482.829102	98.853867
29742.744681	-995.643333	1481.765625	10.391703
29742.744681	-995.643333	1480.702148	126.532509
29742.744681	-995.643333	1479.638672	26.909639
29742.744681	-995.643333	1478.575195	237.402039
29742.744681	-995.643333	1477.511719	52.461433
29742.744681	-995.643333	1476.447266	128.149307
29742.744681	-995.643333	1475.382813	152.169907
29742.744681	-995.643333	1474.318359	185.186386
29742.744681	-995.643333	1473.253906	180.080612
29742.744681	-995.643333	1472.189453	239.973236
29742.744681	-995.643333	1471.124023	124.960007
29742.744681	-995.643333	1470.058594	169.346161
29742.744681	-995.643333	1468.993164	157.575607
29742.744681	-995.643333	1467.927734	172.695709
29742.744681	-995.643333	1466.861328	223.688065
29742.744681	-995.643333	1465.794922	205.254303
29742.744681	-995.643333	1464.728516	209.494064
29742.744681	-995.643333	1463.662109	99.076820
29742.744681	-995.643333	1462.594727	148.199539
29742.744681	-995.643333	1461.528320	89.593849
29742.744681	-995.643333	1460.460938	198.918350
29742.744681	-995.643333	1459.393555	53.042049
29742.744681	-995.643333	1458.326172	115.455185
29742.744681	-995.643333	1457.257813	101.641449
29742.744681	-995.643333	1456.189453	128.104050
29742.744681	-995.643333	1455.121094	147.838608
29742.744681	-995.643333	1454.052734	172.248947
29742.744681	-995.643333	1452.984375	30.183247
29742.744681	-995.643333	1451.915039	132.412369
29742.744681	-995.643333	1450.845703	234.800262
29742.744681	-995.643333	1449.776367	260.789337
29742.744681	-995.643333	1448.707031	210.106628
29742.744681	-995.643333	1447.636719	349.688141
29742.744681	-995.643333	1446.567383	334.105804
29742.744681	-995.643333	1445.497070	380.543579
29742.744681	-995.643333	1444.425781	270.455627
29742.744681	-995.643333	1443.355469	316.488953
29742.744681	-995.643333	1442.285156	287.062012
29742.744681	-995.643333	1441.213867	267.849670
29742.744681	-995.643333	1440.142578	264.868439
29742.744681	-995.643333	1439.070313	256.408051
29742.744681	-995.643333	1437.999023	276.388184
29742.744681	-995.643333	1436.926758	299.439911
29742.744681	-995.643333	1435.854492	65.598801
29742.744681	-995.643333	1434.782227	134.695862
29742.744681	-995.643333	1433.709961	262.743317
29742.744681	-995.643333	1432.636719	193.221817
29742.744681	-995.643333	1431.563477	112.669754
29742.744681	-995.643333	1430.490234	255.420105
29742.744681	-995.643333	1429.416992	189.717499
29742.744681	-995.643333	1428.343750	138.427124
29742.744681	-995.643333	1427.269531	122.162094
29742.744681	-995.643333	1426.195313	54.048553
29742.744681	-995.643333	1425.121094	214.272522
29742.744681	-995.643333	1424.046875	119.431129
29742.744681	-995.643333	1422.971680	238.842621
29742.744681	-995.643333	1421.896484	281.286407
29742.744681	-995.643333	1420.821289	293.287323
29742.744681	-995.643333	1419.746094	239.670090
29742.744681	-995.643333	1418.669922	280.975647
29742.744681	-995.643333	1417.594727	299.098511
29742.744681	-995.643333	1416.518555	331.252563
29742.744681	-995.643333	1415.442383	362.207245
29742.744681	-995.643333	1414.365234	322.350800
29742.744681	-995.643333	1413.289063	123.120110
29742.744681	-995.643333	1412.211914	231.763275
29742.744681	-995.643333	1411.134766	172.516037
29742.744681	-995.643333	1410.057617	197.167435
29742.744681	-995.643333	1408.979492	96.253670
29742.744681	-995.643333	1407.902344	198.056183
29742.744681	-995.643333	1406.824219	390.887238
29742.744681	-995.643333	1405.746094	196.659210
29742.744681	-995.643333	1404.666992	358.446014
29742.744681	-995.643333	1403.588867	346.021088
29742.744681	-995.643333	1402.509766	306.664642
29742.744681	-995.643333	1401.430664	209.254791
29742.744681	-995.643333	1400.351563	364.711884
29742.744681	-995.643333	1399.271484	246.803268
29742.744681	-995.643333	1398.192383	305.002380
29742.744681	-995.643333	1397.112305	417.315674
29742.744681	-995.643333	1396.031250	404.048767
29742.744681	-995.643333	1394.951172	475.147705
29742.744681	-995.643333	1393.871094	342.808533
29742.744681	-995.643333	1392.790039	489.820648
29742.744681	-995.643333	1391.708984	336.566895
29742.744681	-995.643333	1390.626953	178.015961
29742.744681	-995.643333	1389.545898	266.119965
29742.744681	-995.643333	1388.463867	381.136566
29742.744681	-995.643333	1387.381836	265.450562
29742.744681	-995.643333	1386.299805	455.606201
29742.744681	-995.643333	1385.217773	481.207489
29742.744681	-995.643333	1384.134766	478.988770
29742.744681	-995.643333	1383.051758	419.526062
29742.744681	-995.643333	1381.968750	565.667419
29742.744681	-995.643333	1380.885742	478.871765
29742.744681	-995.643333	1379.802734	586.586792
29742.744681	-995.643333	1378.718750	581.562988
29742.744681	-995.643333	1377.634766	585.069214
29742.744681	-995.643333	1376.550781	795.067749
29742.744681	-995.643333	1375.465820	684.552368
29742.744681	-995.643333	1374.381836	678.663757
29742.744681	-995.643333	1373.296875	726.223389
29742.744681	-995.643333	1372.211914	592.764832
29742.744681	-995.643333	1371.126953	578.250671
29742.744681	-995.643333	1370.041016	627.168091
29742.744681	-995.643333	1368.955078	443.762726
29742.744681	-995.643333	1367.869141	557.213196
29742.744681	-995.643333	1366.783203	527.872925
29742.744681	-995.643333	1365.697266	493.869232
29742.744681	-995.643333	1364.610352	364.888397
29742.744681	-995.643333	1363.523438	528.632629
29742.744681	-995.643333	1362.436523	423.013916
29742.744681	-995.643333	1361.349609	459.568756
29742.744681	-995.643333	1360.261719	629.395142
29742.744681	-995.643333	1359.174805	608.702026
29742.744681	-995.643333	1358.086914	555.270508
29742.744681	-995.643333	1356.998047	618.191284
29742.744681	-995.643333	1355.910156	614.047302
29742.744681	-995.643333	1354.821289	598.626465
29742.744681	-995.643333	1353.732422	667.712952
29742.744681	-995.643333	1352.643555	540.251343
29742.744681	-995.643333	1351.554688	527.917358
29742.744681	-995.643333	1350.464844	612.517517
29742.744681	-995.643333	1349.375000	744.057617
29742.744681	-995.643333	1348.285156	657.054504
29742.744681	-995.643333	1347.195313	577.432922
29742.744681	-995.643333	1346.105469	728.929993
29742.744681	-995.643333	1345.014648	598.651733
29742.744681	-995.643333	1343.923828	724.552002
29742.744681	-995.643333	1342.833008	542.759521
29742.744681	-995.643333	1341.741211	656.189392
29742.744681	-995.643333	1340.650391	660.716614
29742.744681	-995.643333	1339.558594	599.920044
29742.744681	-995.643333	1338.466797	555.809570
29742.744681	-995.643333	1337.374023	485.393646
29742.744681	-995.643333	1336.282227	513.972412
29742.744681	-995.643333	1335.189453	569.112183
29742.744681	-995.643333	1334.096680	498.066864
29742.744681	-995.643333	1333.003906	620.989258
29742.744681	-995.643333	1331.910156	583.041077
29742.744681	-995.643333	1330.817383	584.841187
29742.744681	-995.643333	1329.723633	575.471680
29742.744681	-995.643333	1328.629883	533.623901
29742.744681	-995.643333	1327.535156	568.371399
29742.744681	-995.643333	1326.441406	424.268402
29742.744681	-995.643333	1325.346680	556.242249
29742.744681	-995.643333	1324.251953	562.687988
29742.744681	-995.643333	1323.156250	567.268005
29742.744681	-995.643333	1322.061523	669.718018
29742.744681	-995.643333	1320.965820	611.675049
29742.744681	-995.643333	1319.870117	537.620911
29742.744681	-995.643333	1318.774414	628.994934
29742.744681	-995.643333	1317.678711	460.790070
29742.744681	-995.643333	1316.582031	602.661926
29742.744681	-995.643333	1315.485352	516.005859
29742.744681	-995.643333	1314.388672	451.154785
29742.744681	-995.643333	1313.291016	502.212494
29742.744681	-995.643333	1312.194336	384.893158
29742.744681	-995.643333	1311.096680	352.972076
29742.744681	-995.643333	1309.999023	330.936340
29742.744681	-995.643333	1308.901367	454.474304
29742.744681	-995.643333	1307.802734	296.262543
29742.744681	-995.643333	1306.705078	302.628998
29742.744681	-995.643333	1305.606445	408.283997
29742.744681	-995.643333	1304.506836	288.458893
29742.744681	-995.643333	1303.408203	312.947754
29742.744681	-995.643333	1302.308594	233.342880
29742.744681	-995.643333	1301.208984	212.382797
29742.744681	-995.643333	1300.109375	158.404724
29742.744681	-995.643333	1299.009766	200.198532
29742.744681	-995.643333	1297.909180	236.726593
29742.744681	-995.643333	1296.808594	220.947571
29742.744681	-995.643333	1295.708008	191.003418
29742.744681	-995.643333	1294.607422	181.261597
29742.744681	-995.643333	1293.506836	172.043259
29742.744681	-995.643333	1292.405273	188.529999
29742.744681	-995.643333	1291.303711	183.440262
29742.744681	-995.643333	1290.202148	125.152771
29742.744681	-995.643333	1289.099609	146.564499
29742.744681	-995.643333	1287.998047	98.270622
29742.744681	-995.643333	1286.895508	29.137045
29742.744681	-995.643333	1285.792969	104.379723
29742.744681	-995.643333	1284.689453	-7.873878
29742.744681	-995.643333	1283.586914	34.081699
29742.744681	-995.643333	1282.483398	-4.653678
29742.744681	-995.643333	1281.379883	43.344883
29742.744681	-995.643333	1280.276367	38.569874
29742.744681	-995.643333	1279.171875	-16.846308
29742.744681	-995.643333	1278.067383	-7.806920
29742.744681	-995.643333	1276.962891	28.019403
29742.744681	-995.643333	1275.858398	45.622715
29742.744681	-995.643333	1274.753906	-26.533304
29742.744681	-995.643333	1273.648438	-33.116535
29742.744681	-995.643333	1272.542969	53.219265
29742.744681	-995.643333	1271.437500	26.878201
29742.744681	-995.643333	1270.331055	44.732933
29742.744681	-995.643333	1269.225586	-6.197745
29742.744681	-995.643333	1268.119141	80.396606
29742.744681	-995.643333	1267.012695	-26.351673
29742.744681	-995.643333	1265.906250	121.552361
29742.744681	-995.643333	1264.798828	64.594170
29742.744681	-995.643333	1263.691406	-19.922525
29742.744681	-995.643333	1262.583984	1.801414
29742.744681	-995.643333	1261.476563	63.807304
29742.744681	-995.643333	1260.368164	46.884823
29742.744681	-995.643333	1259.260742	11.345671
29742.744681	-995.643333	1258.152344	21.541359
29742.744681	-995.643333	1257.043945	60.589069
29742.744681	-995.643333	1255.934570	-96.338699
29742.744681	-995.643333	1254.825195	-131.814224
29742.744681	-995.643333	1253.716797	4.319711
29742.744681	-995.643333	1252.606445	-82.494225
29742.744681	-995.643333	1251.497070	21.720362
29742.744681	-995.643333	1250.387695	27.623766
29742.744681	-995.643333	1249.277344	-30.846855
29742.744681	-995.643333	1248.166992	-36.178337
29742.744681	-995.643333	1247.055664	-16.920340
29742.744681	-995.643333	1245.945313	49.740265
29742.744681	-995.643333	1244.833984	64.945068
29742.744681	-995.643333	1243.722656	70.540718
29742.744681	-995.643333	1242.611328	67.907906
29742.744681	-995.643333	1241.499023	191.743057
29742.744681	-995.643333	1240.387695	104.909607
29742.744681	-995.643333	1239.275391	173.418762
29742.744681	-995.643333	1238.162109	181.336258
29742.744681	-995.643333	1237.049805	186.872208
29742.744681	-995.643333	1235.936523	104.487534
29742.744681	-995.643333	1234.823242	198.176346
29742.744681	-995.643333	1233.709961	71.483406
29742.744681	-995.643333	1232.596680	222.346024
29742.744681	-995.643333	1231.482422	62.782421
29742.744681	-995.643333	1230.369141	113.132591
29742.744681	-995.643333	1229.253906	29.957859
29742.744681	-995.643333	1228.139648	-5.897198
29742.744681	-995.643333	1227.025391	-48.307438
29742.744681	-995.643333	1225.910156	86.954330
29742.744681	-995.643333	1224.794922	40.100990
29742.744681	-995.643333	1223.679688	87.362839
29742.744681	-995.643333	1222.563477	6.722436
29742.744681	-995.643333	1221.447266	63.822849
29742.744681	-995.643333	1220.331055	-7.073881
29742.744681	-995.643333	1219.214844	-32.354156
29742.744681	-995.643333	1218.098633	-30.985434
29742.744681	-995.643333	1216.981445	-10.815737
29742.744681	-995.643333	1215.864258	-125.407051
29742.744681	-995.643333	1214.747070	-40.956810
29742.744681	-995.643333	1213.629883	-19.509123
29742.744681	-995.643333	1212.511719	-44.685471
29742.744681	-995.643333	1211.393555	22.175817
29742.744681	-995.643333	1210.275391	-4.739877
29742.744681	-995.643333	1209.157227	50.422752
29742.744681	-995.643333	1208.038086	-14.137479
29742.744681	-995.643333	1206.918945	-146.075775
29742.744681	-995.643333	1205.799805	-4.931350
29742.744681	-995.643333	1204.680664	-158.899689
29742.744681	-995.643333	1203.560547	-81.111572
29742.744681	-995.643333	1202.441406	-10.410393
29742.744681	-995.643333	1201.321289	-17.084921
29742.744681	-995.643333	1200.200195	-43.706615
29742.744681	-995.643333	1199.080078	-49.306335
29742.744681	-995.643333	1197.958984	-10.628932
29742.744681	-995.643333	1196.837891	-70.708458
29742.744681	-995.643333	1195.716797	57.114109
29742.744681	-995.643333	1194.594727	54.214783
29742.744681	-995.643333	1193.473633	-39.196510
29742.744681	-995.643333	1192.351563	-48.393482
29742.744681	-995.643333	1191.229492	-43.352535
29742.744681	-995.643333	1190.106445	-64.590752
29742.744681	-995.643333	1188.984375	11.099901
29742.744681	-995.643333	1187.861328	-62.271622
29742.744681	-995.643333	1186.738281	55.258736
29742.744681	-995.643333	1185.614258	-40.173302
29742.744681	-995.643333	1184.491211	-16.327894
29742.744681	-995.643333	1183.367188	7.220358
29742.744681	-995.643333	1182.243164	-50.211426
29742.744681	-995.643333	1181.119141	-16.119967
29742.744681	-995.643333	1179.994141	-16.482357
29742.744681	-995.643333	1178.869141	-52.724129
29742.744681	-995.643333	1177.744141	-112.270699
29742.744681	-995.643333	1176.619141	-35.125629
29742.744681	-995.643333	1175.493164	-6.917892
29742.744681	-995.643333	1174.368164	33.248753
29742.744681	-995.643333	1173.242188	-5.143786
29742.744681	-995.643333	1172.115234	-66.487259
29742.744681	-995.643333	1170.989258	-75.643196
29742.744681	-995.643333	1169.862305	-28.651201
29742.744681	-995.643333	1168.735352	126.260048
29742.744681	-995.643333	1167.608398	-21.987204
29742.744681	-995.643333	1166.481445	-48.238773
29742.744681	-995.643333	1165.353516	-106.530449
29742.744681	-995.643333	1164.225586	49.632301
29742.744681	-995.643333	1163.097656	-41.272625
29742.744681	-995.643333	1161.968750	-26.533955
29742.744681	-995.643333	1160.840820	31.277494
29742.744681	-995.643333	1159.711914	49.746460
29742.744681	-995.643333	1158.583008	-65.590981
29742.744681	-995.643333	1157.453125	-59.531406
29742.744681	-995.643333	1156.324219	31.131794
29742.744681	-995.643333	1155.194336	-62.142204
29742.744681	-995.643333	1154.064453	89.226181
29742.744681	-995.643333	1152.933594	74.691795
29742.744681	-995.643333	1151.803711	10.608317
29742.744681	-995.643333	1150.672852	-22.524139
29742.744681	-995.643333	1149.541992	4.552278
29742.744681	-995.643333	1148.411133	87.585037
29742.744681	-995.643333	1147.279297	-4.344112
29742.744681	-995.643333	1146.147461	11.564717
29742.744681	-995.643333	1145.015625	-14.209560
29742.744681	-995.643333	1143.883789	5.007776
29742.744681	-995.643333	1142.750977	9.790629
29742.744681	-995.643333	1141.619141	-34.982700
29742.744681	-995.643333	1140.486328	57.237526
29742.744681	-995.643333	1139.352539	-87.004364
29742.744681	-995.643333	1138.219727	-48.258236
29742.744681	-995.643333	1137.085938	4.753141
29742.744681	-995.643333	1135.952148	-55.544266
29742.744681	-995.643333	1134.818359	-81.215958
29742.744681	-995.643333	1133.683594	62.788456
29742.744681	-995.643333	1132.549805	41.723938
29742.744681	-995.643333	1131.415039	8.626383
29742.744681	-995.643333	1130.279297	73.605553
29742.744681	-995.643333	1129.144531	127.870598
29742.744681	-995.643333	1128.008789	87.982727
29742.744681	-995.643333	1126.873047	156.466660
29742.744681	-995.643333	1125.737305	74.894608
29742.744681	-995.643333	1124.601563	62.922768
29742.744681	-995.643333	1123.464844	160.005722
29742.744681	-995.643333	1122.328125	-36.685745
29742.744681	-995.643333	1121.191406	37.507969
29742.744681	-995.643333	1120.054688	179.530670
29742.744681	-995.643333	1118.916992	170.351563
29742.744681	-995.643333	1117.779297	109.179062
29742.744681	-995.643333	1116.641602	88.532173
29742.744681	-995.643333	1115.503906	94.375214
29742.744681	-995.643333	1114.365234	-43.413002
29742.744681	-995.643333	1113.226563	-12.512168
29742.744681	-995.643333	1112.087891	42.264198
29742.744681	-995.643333	1110.949219	13.434135
29742.744681	-995.643333	1109.809570	45.699177
29742.744681	-995.643333	1108.669922	118.249794
29742.744681	-995.643333	1107.530273	148.775406
29742.744681	-995.643333	1106.390625	23.569952
29742.744681	-995.643333	1105.250000	25.012154
29742.744681	-995.643333	1104.109375	60.568909
29742.744681	-995.643333	1102.968750	37.243134
29742.744681	-995.643333	1101.828125	-43.631702
29742.744681	-995.643333	1100.686523	25.842152
29742.744681	-995.643333	1099.544922	68.082329
29742.744681	-995.643333	1098.403320	61.720646
29742.744681	-995.643333	1097.261719	147.480728
29742.744681	-995.643333	1096.120117	21.384550
29742.744681	-995.643333	1094.977539	61.974808
29742.744681	-995.643333	1093.834961	58.633572
29742.744681	-995.643333	1092.691406	166.698441
29742.744681	-995.643333	1091.548828	118.031784
29742.744681	-995.643333	1090.405273	61.636456
29742.744681	-995.643333	1089.261719	34.024445
29742.744681	-995.643333	1088.118164	34.068813
29742.744681	-995.643333	1086.973633	159.706223
29742.744681	-995.643333	1085.829102	40.583508
29742.744681	-995.643333	1084.684570	42.290508
29742.744681	-995.643333	1083.540039	41.159267
29742.744681	-995.643333	1082.395508	17.028677
29742.744681	-995.643333	1081.250000	95.241112
29742.744681	-995.643333	1080.104492	107.252045
29742.744681	-995.643333	1078.958984	88.383293
29742.744681	-995.643333	1077.812500	-16.371937
29742.744681	-995.643333	1076.666016	-27.943359
29742.744681	-995.643333	1075.519531	12.330176
29742.744681	-995.643333	1074.373047	-3.231473
29742.744681	-995.643333	1073.226563	61.299942
29742.744681	-995.643333	1072.079102	78.826286
29742.744681	-995.643333	1070.931641	143.251404
29742.744681	-995.643333	1069.784180	187.800903
29742.744681	-995.643333	1068.635742	235.760422
29742.744681	-995.643333	1067.487305	-11.492544
29742.744681	-995.643333	1066.338867	176.126053
29742.744681	-995.643333	1065.190430	137.352554
29742.744681	-995.643333	1064.041992	203.498077
29742.744681	-995.643333	1062.892578	155.340347
29742.744681	-995.643333	1061.743164	60.216911
29742.744681	-995.643333	1060.593750	320.750885
29742.744681	-995.643333	1059.443359	188.172607
29742.744681	-995.643333	1058.292969	70.917343
29742.744681	-995.643333	1057.142578	2.016392
29742.744681	-995.643333	1055.992188	33.225662
29742.744681	-995.643333	1054.841797	151.465134
29742.744681	-995.643333	1053.690430	52.606728
29742.744681	-995.643333	1052.539063	135.239563
29742.744681	-995.643333	1051.387695	136.828033
29742.744681	-995.643333	1050.235352	-107.692955
29742.744681	-995.643333	1049.083984	69.374413
29742.744681	-995.643333	1047.931641	-4.697379
29742.744681	-995.643333	1046.778320	-45.344322
29742.744681	-995.643333	1045.625977	3.358051
29742.744681	-995.643333	1044.472656	75.035683
29742.744681	-995.643333	1043.319336	-98.801300
29742.744681	-995.643333	1042.166016	-51.782207
29742.744681	-995.643333	1041.012695	60.664322
29742.744681	-995.643333	1039.858398	-49.731529
29742.744681	-995.643333	1038.704102	-54.015728
29742.744681	-995.643333	1037.549805	23.946087
29742.744681	-995.643333	1036.394531	113.202919
29742.744681	-995.643333	1035.239258	57.735203
29742.744681	-995.643333	1034.083984	-22.006781
29742.744681	-995.643333	1032.928711	-42.510246
29742.744681	-995.643333	1031.773438	123.540810
29742.744681	-995.643333	1030.617188	47.422398
29742.744681	-995.643333	1029.460938	5.649193
29742.744681	-995.643333	1028.304688	64.702248
29742.744681	-995.643333	1027.147461	61.522091
29742.744681	-995.643333	1025.991211	166.056061
29742.744681	-995.643333	1024.833984	-22.088818
29742.744681	-995.643333	1023.675781	1.146614
29742.744681	-995.643333	1022.518555	177.384552
29742.744681	-995.643333	1021.360352	39.779354
29742.744681	-995.643333	1020.202148	10.339431
29742.744681	-995.643333	1019.043945	71.092720
29742.744681	-995.643333	1017.884766	-70.089661
29742.744681	-995.643333	1016.726563	-63.268982
29742.744681	-995.643333	1015.567383	52.211433
29742.744681	-995.643333	1014.407227	-1.979873
29742.744681	-995.643333	1013.248047	84.810234
29742.744681	-995.643333	1012.087891	33.021095
29742.744681	-995.643333	1010.927734	30.761818
29742.744681	-995.643333	1009.767578	93.777626
29742.744681	-995.643333	1008.606445	97.997192
29742.744681	-995.643333	1007.446289	6.959499
29742.744681	-995.643333	1006.285156	58.873333
29742.744681	-995.643333	1005.123047	-11.921378
29742.744681	-995.643333	1003.961914	65.924950
29742.744681	-995.643333	1002.799805	37.159145
29742.744681	-995.643333	1001.637695	-32.525139
29742.744681	-995.643333	1000.475586	38.428360
29742.744681	-995.643333	999.312500	69.190933
29742.744681	-995.643333	998.149414	11.782929
29742.744681	-995.643333	996.986328	10.008171
29742.744681	-995.643333	995.823242	-53.783607
29742.744681	-995.643333	994.659180	27.700430
29742.744681	-995.643333	993.496094	-40.457066
29742.744681	-995.643333	992.332031	25.507681
29742.744681	-995.643333	991.166992	-62.261681
29742.744681	-995.643333	990.002930	3.807788
29742.744681	-995.643333	988.837891	135.767899
29742.744681	-995.643333	987.672852	11.977932
29742.744681	-995.643333	986.506836	-31.967556
29742.744681	-995.643333	985.341797	99.124542
29742.744681	-995.643333	984.175781	-39.785320
29742.744681	-995.643333	983.009766	16.964905
29742.744681	-995.643333	981.843750	132.262558
29742.744681	-995.643333	980.676758	95.000488
29742.744681	-995.643333	979.509766	37.894970
29742.744681	-995.643333	978.342773	-11.865387
29742.744681	-995.643333	977.175781	3.863102
29742.744681	-995.643333	976.007813	105.668091
29742.744681	-995.643333	974.839844	-5.265371
29742.744681	-995.643333	973.671875	71.640488
29742.744681	-995.643333	972.503906	109.061089
29742.744681	-995.643333	971.334961	100.754959
29742.744681	-995.643333	970.166016	8.717238
29742.744681	-995.643333	968.997070	12.422668
29742.744681	-995.643333	967.828125	-48.577843
29742.744681	-995.643333	966.658203	160.184174
29742.744681	-995.643333	965.488281	106.165314
29742.744681	-995.643333	964.318359	-52.133327
29742.744681	-995.643333	963.148438	80.526176
29742.744681	-995.643333	961.977539	-14.292504
29742.744681	-995.643333	960.806641	127.168495
29742.744681	-995.643333	959.635742	10.852677
29742.744681	-995.643333	958.463867	-5.891652
29742.744681	-995.643333	957.292969	48.865242
29742.744681	-995.643333	956.121094	150.343292
29742.744681	-995.643333	954.948242	122.610001
29742.744681	-995.643333	953.776367	92.146881
29742.744681	-995.643333	952.603516	122.750496
29742.744681	-995.643333	951.430664	-47.121044
29742.744681	-995.643333	950.257813	-9.310382
29742.744681	-995.643333	949.084961	-54.903328
29742.744681	-995.643333	947.911133	15.636379
29742.744681	-995.643333	946.737305	-122.735573
29742.744681	-995.643333	945.563477	-38.695339
29742.744681	-995.643333	944.388672	31.932993
29742.744681	-995.643333	943.213867	-44.830437
29742.744681	-995.643333	942.039063	6.045746
29742.744681	-995.643333	940.864258	43.598778
29742.744681	-995.643333	939.688477	-101.094582
29742.744681	-995.643333	938.513672	176.057129
29742.744681	-995.643333	937.337891	152.074997
29742.744681	-995.643333	936.161133	-25.619473
29742.744681	-995.643333	934.985352	99.899170
29742.744681	-995.643333	933.808594	45.307262
29742.744681	-995.643333	932.631836	17.016085
29742.744681	-995.643333	931.454102	96.301598
29742.744681	-995.643333	930.277344	-13.237869
29742.744681	-995.643333	929.099609	50.689716
29742.744681	-995.643333	927.921875	94.818886
29742.744681	-995.643333	926.743164	62.122849
29742.744681	-995.643333	925.565430	128.191650
29742.744681	-995.643333	924.386719	36.269947
29742.744681	-995.643333	923.208008	154.958466
29742.744681	-995.643333	922.028320	113.501907
29742.744681	-995.643333	920.849609	170.732010
29742.744681	-995.643333	919.669922	171.844116
29742.744681	-995.643333	919.474609	43.965977
29742.744681	-995.643333	918.309570	105.554581
29742.744681	-995.643333	917.143555	-25.729456
29742.744681	-995.643333	915.977539	79.666763
29742.744681	-995.643333	914.810547	25.108986
29742.744681	-995.643333	913.644531	-7.527071
29742.744681	-995.643333	912.477539	18.970476
29742.744681	-995.643333	911.310547	-0.516868
29742.744681	-995.643333	910.143555	-127.247314
29742.744681	-995.643333	908.975586	-102.930794
29742.744681	-995.643333	907.807617	-15.176525
29742.744681	-995.643333	906.639648	24.417919
29742.744681	-995.643333	905.471680	44.313080
29742.744681	-995.643333	904.303711	33.587650
29742.744681	-995.643333	903.134766	-82.065475
29742.744681	-995.643333	901.965820	141.105316
29742.744681	-995.643333	900.796875	25.477057
29742.744681	-995.643333	899.626953	43.167435
29742.744681	-995.643333	898.457031	34.639000
29742.744681	-995.643333	897.287109	-43.769794
29742.744681	-995.643333	896.117188	30.693573
29742.744681	-995.643333	894.947266	4.709344
29742.744681	-995.643333	893.776367	31.118347
29742.744681	-995.643333	892.605469	101.158508
29742.744681	-995.643333	891.434570	70.814766
29742.744681	-995.643333	890.262695	16.491411
29742.744681	-995.643333	889.091797	64.686203
29742.744681	-995.643333	887.919922	6.026994
29742.744681	-995.643333	886.748047	167.559814
29742.744681	-995.643333	885.575195	43.522945
29742.744681	-995.643333	884.403320	115.645569
29742.744681	-995.643333	883.230469	170.311890
29742.744681	-995.643333	882.057617	-93.044388
29742.744681	-995.643333	880.883789	55.283772
29742.744681	-995.643333	879.710938	33.730125
29742.744681	-995.643333	878.537109	-68.352867
29742.744681	-995.643333	877.362305	-68.105286
29742.744681	-995.643333	876.188477	43.111698
29742.744681	-995.643333	875.013672	93.373199
29742.744681	-995.643333	873.839844	-21.683413
29742.744681	-995.643333	872.664063	-27.963064
29742.744681	-995.643333	871.489258	111.423615
29742.744681	-995.643333	870.313477	-144.846710
29742.744681	-995.643333	869.138672	-29.395466
29742.744681	-995.643333	867.962891	-68.254478
29742.744681	-995.643333	866.786133	-26.719618
29742.744681	-995.643333	865.610352	-24.294664
29742.744681	-995.643333	864.433594	80.188271
29742.744681	-995.643333	863.256836	-15.099844
29742.744681	-995.643333	862.079102	134.923477
29742.744681	-995.643333	860.902344	-16.755323
29742.744681	-995.643333	859.724609	-20.834087
29742.744681	-995.643333	858.546875	44.504139
29742.744681	-995.643333	857.368164	27.405806
29742.744681	-995.643333	856.190430	-13.536230
29742.744681	-995.643333	855.011719	-67.465599
29742.744681	-995.643333	853.833008	-69.353943
29742.744681	-995.643333	852.654297	-99.409760
29742.744681	-995.643333	851.474609	17.872284
29742.744681	-995.643333	850.294922	-12.185520
29742.744681	-995.643333	849.115234	-89.873222
29742.744681	-995.643333	847.935547	-37.616131
29742.744681	-995.643333	846.754883	-76.297096
29742.744681	-995.643333	845.575195	-17.568426
29742.744681	-995.643333	844.393555	-38.922901
29742.744681	-995.643333	843.212891	21.941790
29742.744681	-995.643333	842.032227	69.804886
29742.744681	-995.643333	840.850586	-109.413742
29742.744681	-995.643333	839.668945	37.915791
29742.744681	-995.643333	838.486328	-41.784222
29742.744681	-995.643333	837.304688	-121.450523
29742.744681	-995.643333	836.122070	40.920944
29742.744681	-995.643333	834.939453	17.441248
29742.744681	-995.643333	833.756836	26.370358
29742.744681	-995.643333	832.573242	-68.353317
29742.744681	-995.643333	831.389648	24.792171
29742.744681	-995.643333	830.206055	-28.878292
29742.744681	-995.643333	829.022461	44.800770
29742.744681	-995.643333	827.838867	-60.632618
29742.744681	-995.643333	826.654297	-60.319153
29742.744681	-995.643333	825.469727	-1.773037
29742.744681	-995.643333	824.284180	35.188263
29742.744681	-995.643333	823.099609	-11.944076
29742.744681	-995.643333	821.914063	-56.900135
29742.744681	-995.643333	820.728516	49.009972
29742.744681	-995.643333	819.542969	8.370150
29742.744681	-995.643333	818.356445	-30.097519
29742.744681	-995.643333	817.169922	-161.155060
29742.744681	-995.643333	815.983398	45.891518
29742.744681	-995.643333	814.796875	28.967684
29742.744681	-995.643333	813.609375	9.900236
29742.744681	-995.643333	812.422852	40.332176
29742.744681	-995.643333	811.235352	-56.180950
29742.744681	-995.643333	810.046875	-10.689534
29742.744681	-995.643333	808.859375	-98.550095
29742.744681	-995.643333	807.670898	112.485786
29742.744681	-995.643333	806.482422	-7.608359
29742.744681	-995.643333	805.293945	-15.896111
29742.744681	-995.643333	804.104492	20.943209
29742.744681	-995.643333	802.915039	-15.275067
29742.744681	-995.643333	801.725586	-62.218533
29742.744681	-995.643333	800.536133	-1.773537
29742.744681	-995.643333	799.345703	-25.085232
29742.744681	-995.643333	798.155273	20.299887
29742.744681	-995.643333	796.964844	112.878281
29742.744681	-995.643333	795.774414	35.912521
29742.744681	-995.643333	794.583008	19.043077
29742.744681	-995.643333	793.392578	94.401215
29742.744681	-995.643333	792.200195	-109.029388
29742.744681	-995.643333	791.008789	69.225815
29742.744681	-995.643333	789.816406	-61.244015
29742.744681	-995.643333	788.625000	-82.372055
29742.744681	-995.643333	787.432617	3.632982
29742.744681	-995.643333	786.239258	31.764605
29742.744681	-995.643333	785.046875	72.730255
29742.744681	-995.643333	783.853516	77.277267
29742.744681	-995.643333	782.660156	-23.076893
29742.744681	-995.643333	781.465820	-93.427887
29742.744681	-995.643333	780.272461	-41.782375
29742.744681	-995.643333	779.078125	1.281510
29742.744681	-995.643333	777.883789	40.045639
29742.744681	-995.643333	776.688477	33.881859
29742.744681	-995.643333	775.494141	-64.221352
29742.744681	-995.643333	774.298828	27.962040
29742.744681	-995.643333	773.103516	34.615269
29742.744681	-995.643333	771.907227	192.970276
29742.744681	-995.643333	770.711914	84.216957
29742.744681	-995.643333	769.515625	154.916534
29742.744681	-995.643333	768.318359	199.957962
29742.744681	-995.643333	767.122070	69.906670
29742.744681	-995.643333	765.924805	21.017176
29742.744681	-995.643333	764.727539	104.454918
29742.744681	-995.643333	763.530273	72.635735
29742.744681	-995.643333	762.333008	115.485695
29742.744681	-995.643333	761.134766	-54.962284
29742.744681	-995.643333	759.936523	-20.644815
29742.744681	-995.643333	758.738281	79.739670
29742.744681	-995.643333	757.540039	133.184143
29742.744681	-995.643333	756.340820	161.028610
29742.744681	-995.643333	755.141602	97.241753
29742.744681	-995.643333	753.942383	101.636360
29742.744681	-995.643333	752.742188	118.800453
29742.744681	-995.643333	751.541992	72.073837
29742.744681	-995.643333	750.341797	157.341064
29742.744681	-995.643333	749.141602	63.786510
29742.744681	-995.643333	747.941406	17.075989
29742.744681	-995.643333	746.740234	-97.700562
29742.744681	-995.643333	745.539063	-10.375202
29742.744681	-995.643333	744.337891	155.586044
29742.744681	-995.643333	743.135742	98.230125
29742.744681	-995.643333	741.933594	70.648331
29742.744681	-995.643333	740.731445	28.191532
29742.744681	-995.643333	739.529297	85.606110
29742.744681	-995.643333	738.326172	179.100571
29742.744681	-995.643333	737.124023	219.448166
29742.744681	-995.643333	735.919922	149.351517
29742.744681	-995.643333	734.716797	327.661774
29742.744681	-995.643333	733.513672	276.652374
29742.744681	-995.643333	732.309570	359.345306
29742.744681	-995.643333	731.105469	374.099976
29742.744681	-995.643333	729.900391	365.503784
29742.744681	-995.643333	728.696289	272.067841
29742.744681	-995.643333	727.491211	106.568626
29742.744681	-995.643333	726.286133	172.192810
29742.744681	-995.643333	725.080078	83.058937
29742.744681	-995.643333	723.874023	114.732071
29742.744681	-995.643333	722.668945	76.466286
29742.744681	-995.643333	721.461914	72.094215
29742.744681	-995.643333	720.255859	-2.172775
29742.744681	-995.643333	719.048828	27.321547
29742.744681	-995.643333	717.841797	-10.947068
29742.744681	-995.643333	716.634766	-42.865059
29742.744681	-995.643333	715.427734	26.778782
29742.744681	-995.643333	714.219727	106.956451
29742.744681	-995.643333	713.011719	-41.334282
29742.744681	-995.643333	711.803711	36.679813
29742.744681	-995.643333	710.594727	-31.227552
29742.744681	-995.643333	709.385742	-16.688694
29742.744681	-995.643333	708.176758	16.847204
29742.744681	-995.643333	706.967773	20.774221
29742.744681	-995.643333	705.758789	-30.237684
29742.744681	-995.643333	704.548828	18.015314
29742.744681	-995.643333	703.338867	15.556490
29742.744681	-995.643333	702.127930	48.969528
29742.744681	-995.643333	700.917969	71.798340
29742.744681	-995.643333	699.707031	71.389214
29742.744681	-995.643333	698.496094	66.743004
29742.744681	-995.643333	697.285156	-13.851180
29742.744681	-995.643333	696.073242	-52.253067
29742.744681	-995.643333	694.861328	-31.623125
29742.744681	-995.643333	693.649414	73.296021
29742.744681	-995.643333	692.436523	13.770570
29742.744681	-995.643333	691.224609	-41.534718
29742.744681	-995.643333	690.011719	-44.171246
29742.744681	-995.643333	688.798828	-63.674633
29742.744681	-995.643333	687.584961	-1.066821
29742.744681	-995.643333	686.372070	90.968201
29742.744681	-995.643333	685.158203	126.115730
29742.744681	-995.643333	683.943359	32.861389
29742.744681	-995.643333	682.729492	70.069862
29742.744681	-995.643333	681.514648	86.207626
29742.744681	-995.643333	680.299805	117.038979
29742.744681	-995.643333	679.084961	61.630638
29742.744681	-995.643333	677.869141	149.171021
29742.744681	-995.643333	676.653320	232.450348
29742.744681	-995.643333	675.437500	46.710648
29742.744681	-995.643333	674.221680	-10.821907
29742.744681	-995.643333	673.004883	36.667728
29742.744681	-995.643333	671.789063	126.114151
29742.744681	-995.643333	670.571289	41.242580
29742.744681	-995.643333	669.354492	59.238388
29742.744681	-995.643333	668.136719	133.866531
29742.744681	-995.643333	666.919922	210.539551
29742.744681	-995.643333	665.701172	232.616470
29742.744681	-995.643333	664.483398	105.754112
29742.744681	-995.643333	663.264648	90.054703
29742.744681	-995.643333	662.045898	112.074333
29742.744681	-995.643333	660.827148	108.910065
29742.744681	-995.643333	659.608398	116.201424
29742.744681	-995.643333	658.388672	24.997414
29742.744681	-995.643333	657.168945	53.202389
29742.744681	-995.643333	655.949219	-73.598076
29742.744681	-995.643333	654.728516	-1.463156
29742.744681	-995.643333	653.507813	89.457108
29742.744681	-995.643333	652.287109	10.792746
29742.744681	-995.643333	651.066406	-38.568142
29742.744681	-995.643333	649.844727	10.390144
29742.744681	-995.643333	648.623047	38.387539
29742.744681	-995.643333	647.401367	89.351212
29742.744681	-995.643333	646.179688	33.645351
29742.744681	-995.643333	644.957031	-47.144333
29742.744681	-995.643333	643.734375	18.359173
29742.744681	-995.643333	642.511719	35.755177
29742.744681	-995.643333	641.289063	28.052652
29742.744681	-995.643333	640.065430	-0.556047
29742.744681	-995.643333	638.841797	-20.825897
29742.744681	-995.643333	637.618164	2.726460
29742.744681	-995.643333	636.393555	59.637081
29742.744681	-995.643333	635.168945	1.731139
29742.744681	-995.643333	633.944336	-58.261406
29742.744681	-995.643333	632.719727	-16.050039
29742.744681	-995.643333	631.494141	-13.504288
29742.744681	-995.643333	630.269531	68.242531
29742.744681	-995.643333	629.042969	45.704388
29742.744681	-995.643333	627.817383	66.916145
29742.744681	-995.643333	626.590820	65.173363
29742.744681	-995.643333	625.365234	-9.503534
29742.744681	-995.643333	624.137695	159.500046
29742.744681	-995.643333	622.911133	41.056366
29742.744681	-995.643333	621.683594	57.954521
29742.744681	-995.643333	620.456055	151.831512
29742.744681	-995.643333	619.228516	-14.473760
29742.744681	-995.643333	618.000977	73.086617
29742.744681	-995.643333	616.772461	121.062630
29742.744681	-995.643333	615.543945	58.774006
29742.744681	-995.643333	614.314453	-5.593564
29742.744681	-995.643333	613.085938	-15.910796
29742.744681	-995.643333	611.856445	67.272736
29742.744681	-995.643333	610.626953	-15.831044
29742.744681	-995.643333	609.397461	-9.596076
29742.744681	-995.643333	608.166992	-82.314255
29742.744681	-995.643333	606.936523	-82.348061
29742.744681	-995.643333	605.706055	69.147102
29742.744681	-995.643333	604.474609	-43.053070
29742.744681	-995.643333	603.244141	110.395645
29742.744681	-995.643333	602.012695	45.904846
29742.744681	-995.643333	600.780273	-6.138169
29742.744681	-995.643333	599.548828	20.625355
29742.744681	-995.643333	598.316406	24.544430
29742.744681	-995.643333	597.083984	47.095406
29742.744681	-995.643333	595.851563	53.032352
29742.744681	-995.643333	594.618164	29.932373
29742.744681	-995.643333	593.384766	-30.470787
29742.744681	-995.643333	592.151367	8.547174
29742.744681	-995.643333	590.917969	-107.782845
29742.744681	-995.643333	589.683594	38.845459
29742.744681	-995.643333	588.449219	86.033852
29742.744681	-995.643333	587.214844	69.025948
29742.744681	-995.643333	585.979492	66.485191
29742.744681	-995.643333	584.745117	1.867527
29742.744681	-995.643333	583.509766	-21.383656
29742.744681	-995.643333	582.273438	-23.970814
29742.744681	-995.643333	581.038086	58.180756
29742.744681	-995.643333	579.801758	-80.874794
29742.744681	-995.643333	578.565430	-114.506714
29742.744681	-995.643333	577.329102	-160.540924
29742.744681	-995.643333	576.091797	-97.106293
29742.744681	-995.643333	574.854492	-68.824928
29742.744681	-995.643333	573.617188	4.845417
29742.744681	-995.643333	572.378906	18.602520
29742.744681	-995.643333	571.141602	50.909069
29742.744681	-995.643333	569.903320	79.054367
29742.744681	-995.643333	568.664063	43.219318
29742.744681	-995.643333	567.425781	67.191429
29742.744681	-995.643333	566.186523	35.460606
29742.744681	-995.643333	564.947266	55.263538
29742.744681	-995.643333	563.708008	-40.380909
29742.744681	-995.643333	562.467773	154.546967
29742.744681	-995.643333	561.227539	-29.702887
29742.744681	-995.643333	559.987305	14.742387
29742.744681	-995.643333	558.747070	-12.924014
29742.744681	-995.643333	557.505859	78.818573
29742.744681	-995.643333	556.264648	7.888587
29742.744681	-995.643333	555.023438	39.873772
29742.744681	-995.643333	553.781250	-55.740883
29742.744681	-995.643333	552.539063	48.211159
29742.744681	-995.643333	551.296875	-47.394272
29742.744681	-995.643333	550.054688	-66.892281
29742.744681	-995.643333	548.811523	-45.281300
29742.744681	-995.643333	547.569336	-1.082957
29742.744681	-995.643333	546.325195	-35.007637
29742.744681	-995.643333	545.082031	-103.854996
29742.744681	-995.643333	543.837891	-47.390850
29742.744681	-995.643333	542.593750	-3.284495
29742.744681	-995.643333	541.349609	22.312082
29742.744681	-995.643333	540.105469	56.096992
29742.744681	-995.643333	538.860352	171.945770
29742.744681	-995.643333	537.615234	16.889818
29742.744681	-995.643333	536.369141	106.005844
29742.744681	-995.643333	535.124023	-1.817947
29742.744681	-995.643333	533.877930	11.373708
29742.744681	-995.643333	532.631836	-20.551319
29742.744681	-995.643333	531.384766	-1.232680
29742.744681	-995.643333	530.138672	59.054321
29742.744681	-995.643333	528.891602	-30.254652
29742.744681	-995.643333	527.643555	-115.438568
29742.744681	-995.643333	526.396484	-63.383533
29742.744681	-995.643333	525.148438	-1.123172
29742.744681	-995.643333	523.900391	-51.481960
29742.744681	-995.643333	522.652344	51.666409
29742.744681	-995.643333	521.403320	-27.343168
29742.744681	-995.643333	520.154297	-18.360559
29742.744681	-995.643333	518.905273	13.110159
29742.744681	-995.643333	517.656250	-67.902863
29742.744681	-995.643333	516.406250	-175.465652
29742.744681	-995.643333	515.156250	-135.823578
29742.744681	-995.643333	513.906250	-116.637978
29742.744681	-995.643333	512.655273	-32.089161
29742.744681	-995.643333	511.404297	-14.986975
29742.744681	-995.643333	510.153320	-48.950775
29742.744681	-995.643333	508.902344	-99.237625
29742.744681	-995.643333	507.650391	-63.773479
29742.744681	-995.643333	506.398438	-9.959528
29742.744681	-995.643333	505.146484	0.979366
29742.744681	-995.643333	503.893555	-65.610329
29742.744681	-995.643333	502.641602	-7.759770
29742.744681	-995.643333	501.388672	-66.167862
29742.744681	-995.643333	500.134766	-91.935501
29742.744681	-995.643333	498.881836	-87.118790
29742.744681	-995.643333	497.627930	-49.702797
29742.744681	-995.643333	496.374023	63.077198
29742.744681	-995.643333	495.119141	-60.476864
29742.744681	-995.643333	493.865234	-112.700439
29742.744681	-995.643333	492.610352	28.518494
29742.744681	-995.643333	491.355469	33.290791
29742.744681	-995.643333	490.099609	-18.926895
29742.744681	-995.643333	488.843750	-67.053535
29742.744681	-995.643333	487.587891	71.993408
29742.744681	-995.643333	486.332031	-18.845160
29742.744681	-995.643333	485.075195	-52.712761
29742.744681	-995.643333	483.818359	4.917349
29742.744681	-995.643333	482.561523	5.610034
29742.744681	-995.643333	481.304688	-42.468788
29742.744681	-995.643333	480.046875	76.065086
29742.744681	-995.643333	478.789063	-22.793917
29742.744681	-995.643333	477.531250	36.788490
29742.744681	-995.643333	476.272461	37.461575
29742.744681	-995.643333	475.013672	76.699646
29742.744681	-995.643333	473.754883	168.685059
29742.744681	-995.643333	472.496094	75.985878
29742.744681	-995.643333	471.236328	13.750741
29742.744681	-995.643333	469.976563	164.494858
29742.744681	-995.643333	468.716797	17.095766
29742.744681	-995.643333	467.456055	33.963226
29742.744681	-995.643333	466.196289	121.760254
29742.744681	-995.643333	464.935547	27.135357
29742.744681	-995.643333	463.673828	29.790123
29742.744681	-995.643333	462.413086	64.847916
29742.744681	-995.643333	461.151367	87.730537
29742.744681	-995.643333	459.889648	68.077423
29742.744681	-995.643333	458.626953	99.028496
29742.744681	-995.643333	457.364258	28.767046
29742.744681	-995.643333	456.101563	65.763466
29742.744681	-995.643333	454.838867	27.885071
29742.744681	-995.643333	453.575195	-3.922773
29742.744681	-995.643333	452.312500	35.042618
29742.744681	-995.643333	451.047852	1.196187
29742.744681	-995.643333	449.784180	34.049641
29742.744681	-995.643333	448.519531	6.249251
29742.744681	-995.643333	447.254883	4.707458
29742.744681	-995.643333	445.990234	51.623718
29742.744681	-995.643333	444.725586	31.860029
29742.744681	-995.643333	443.459961	-76.753525
29742.744681	-995.643333	442.194336	210.290039
29742.744681	-995.643333	440.927734	150.070633
29742.744681	-995.643333	439.662109	47.482525
29742.744681	-995.643333	438.395508	104.270851
29742.744681	-995.643333	437.127930	110.583290
29742.744681	-995.643333	435.861328	181.387741
29742.744681	-995.643333	434.593750	104.965134
29742.744681	-995.643333	433.326172	74.896805
29742.744681	-995.643333	432.058594	75.030891
29742.744681	-995.643333	430.790039	155.708252
29742.744681	-995.643333	429.521484	121.502266
29742.744681	-995.643333	428.252930	44.980045
29742.744681	-995.643333	426.984375	91.256485
29742.744681	-995.643333	425.714844	111.296036
29742.744681	-995.643333	424.445313	165.487259
29742.744681	-995.643333	423.174805	108.940804
29742.744681	-995.643333	421.905273	231.393875
29742.744681	-995.643333	420.634766	214.966110
29742.744681	-995.643333	419.364258	126.100052
29742.744681	-995.643333	418.092773	101.533257
29742.744681	-995.643333	416.822266	139.216248
29742.744681	-995.643333	415.550781	210.969559
29742.744681	-995.643333	414.278320	230.383057
29742.744681	-995.643333	413.006836	50.871624
29742.744681	-995.643333	411.734375	190.636978
29742.744681	-995.643333	410.461914	181.693054
29742.744681	-995.643333	409.188477	186.712265
29742.744681	-995.643333	407.916016	173.579727
29742.744681	-995.643333	406.642578	218.536743
29742.744681	-995.643333	405.368164	153.047287
29742.744681	-995.643333	404.094727	71.441391
29742.744681	-995.643333	402.820313	200.285660
29742.744681	-995.643333	401.545898	208.685944
29742.744681	-995.643333	400.270508	116.753609
29742.744681	-995.643333	398.996094	126.931160
29742.744681	-995.643333	397.720703	217.104279
29742.744681	-995.643333	396.444336	212.967880
29742.744681	-995.643333	395.168945	158.639404
29742.744681	-995.643333	393.892578	222.302826
29742.744681	-995.643333	392.616211	97.645622
29742.744681	-995.643333	391.339844	36.922977
29742.744681	-995.643333	390.062500	244.150986
29742.744681	-995.643333	388.785156	121.084396
29742.744681	-995.643333	387.507813	201.877777
29742.744681	-995.643333	386.229492	198.478989
29742.744681	-995.643333	384.951172	76.959015
29742.744681	-995.643333	383.672852	111.181908
29742.744681	-995.643333	382.394531	151.184860
29742.744681	-995.643333	381.115234	105.060402
29742.744681	-995.643333	379.835938	92.694832
29742.744681	-995.643333	378.556641	24.204380
29742.744681	-995.643333	377.277344	65.312523
29742.744681	-995.643333	375.997070	30.316401
29742.744681	-995.643333	374.716797	44.976692
29742.744681	-995.643333	373.435547	95.281166
29742.744681	-995.643333	372.155273	67.520653
29742.744681	-995.643333	370.874023	63.424248
29742.744681	-995.643333	369.591797	63.030960
29742.744681	-995.643333	368.310547	116.174683
29742.744681	-995.643333	367.028320	69.348221
29742.744681	-995.643333	365.746094	137.794022
29742.744681	-995.643333	364.463867	-57.048290
29742.744681	-995.643333	363.180664	68.497398
29742.744681	-995.643333	361.897461	24.405939
29742.744681	-995.643333	360.614258	35.724140
29742.744681	-995.643333	359.330078	40.698364
29742.744681	-995.643333	358.045898	-26.333738
29742.744681	-995.643333	356.761719	131.081589
29742.744681	-995.643333	355.477539	114.995995
29742.744681	-995.643333	354.192383	-24.785328
29742.744681	-995.643333	352.907227	15.991338
29742.744681	-995.643333	351.622070	20.542355
29742.744681	-995.643333	350.336914	-70.737480
29742.744681	-995.643333	349.050781	56.100098
29742.744681	-995.643333	347.764648	100.972992
29742.744681	-995.643333	346.477539	18.232450
29742.744681	-995.643333	345.191406	-92.753754
29742.744681	-995.643333	343.904297	-126.799141
29742.744681	-995.643333	342.616211	-103.816086
29742.744681	-995.643333	341.329102	73.395134
29742.744681	-995.643333	340.041016	-126.953049
29742.744681	-995.643333	338.752930	-42.189388
29742.744681	-995.643333	337.463867	-164.285614
29742.744681	-995.643333	336.175781	-58.936462
29742.744681	-995.643333	334.886719	91.315727
29742.744681	-995.643333	333.596680	-38.555813
29742.744681	-995.643333	332.307617	19.199280
29742.744681	-995.643333	331.017578	-46.566845
29742.744681	-995.643333	329.727539	-83.291672
29742.744681	-995.643333	328.436523	19.839575
29742.744681	-995.643333	327.146484	84.605255
29742.744681	-995.643333	325.855469	41.709724
29742.744681	-995.643333	324.563477	-89.013405
29742.744681	-995.643333	323.272461	-38.460869
29742.744681	-995.643333	321.980469	-117.311371
29742.744681	-995.643333	320.688477	18.562584
29742.744681	-995.643333	319.395508	-30.343222
29742.744681	-995.643333	318.103516	-87.984795
29742.744681	-995.643333	316.810547	15.507648
29742.744681	-995.643333	315.516602	100.230049
29742.744681	-995.643333	314.223633	-9.562903
29742.744681	-995.643333	312.929688	112.709892
29742.744681	-995.643333	311.635742	0.978111
29742.744681	-995.643333	310.340820	0.757757
29742.744681	-995.643333	309.045898	-26.158724
29742.744681	-995.643333	307.750977	137.243759
29742.744681	-995.643333	306.456055	-47.680832
29742.744681	-995.643333	305.160156	68.052429
29742.744681	-995.643333	303.865234	174.732010
29742.744681	-995.643333	302.568359	171.707062
29742.744681	-995.643333	301.272461	98.533974
29742.744681	-995.643333	299.975586	142.346497
29742.744681	-995.643333	298.678711	373.988831
