#X		#Y		#Wave		#Intensity
29559.741489	-1544.690000	1999.980469	124.777916
29559.741489	-1544.690000	1999.016602	81.755295
29559.741489	-1544.690000	1998.052734	141.855743
29559.741489	-1544.690000	1997.087891	26.261007
29559.741489	-1544.690000	1996.123047	176.091171
29559.741489	-1544.690000	1995.158203	259.244904
29559.741489	-1544.690000	1994.193359	-41.272556
29559.741489	-1544.690000	1993.228516	86.968086
29559.741489	-1544.690000	1992.262695	47.041737
29559.741489	-1544.690000	1991.297852	165.791290
29559.741489	-1544.690000	1990.332031	138.699905
29559.741489	-1544.690000	1989.366211	-96.015938
29559.741489	-1544.690000	1988.399414	-43.451717
29559.741489	-1544.690000	1987.433594	-55.009438
29559.741489	-1544.690000	1986.466797	-120.774406
29559.741489	-1544.690000	1985.500977	90.614021
29559.741489	-1544.690000	1984.534180	22.754230
29559.741489	-1544.690000	1983.567383	36.665943
29559.741489	-1544.690000	1982.599609	77.928993
29559.741489	-1544.690000	1981.632813	-88.198997
29559.741489	-1544.690000	1980.665039	-73.770500
29559.741489	-1544.690000	1979.697266	7.496181
29559.741489	-1544.690000	1978.729492	98.761879
29559.741489	-1544.690000	1977.761719	-153.044403
29559.741489	-1544.690000	1976.792969	10.089035
29559.741489	-1544.690000	1975.825195	207.850311
29559.741489	-1544.690000	1974.856445	13.323780
29559.741489	-1544.690000	1973.887695	100.246506
29559.741489	-1544.690000	1972.918945	61.457279
29559.741489	-1544.690000	1971.949219	-28.992451
29559.741489	-1544.690000	1970.980469	-8.338103
29559.741489	-1544.690000	1970.010742	14.879493
29559.741489	-1544.690000	1969.041016	16.007202
29559.741489	-1544.690000	1968.071289	-202.096115
29559.741489	-1544.690000	1967.101563	3.767349
29559.741489	-1544.690000	1966.130859	-71.190025
29559.741489	-1544.690000	1965.161133	41.153645
29559.741489	-1544.690000	1964.190430	27.947309
29559.741489	-1544.690000	1963.219727	2.512942
29559.741489	-1544.690000	1962.249023	-52.377407
29559.741489	-1544.690000	1961.277344	-8.730725
29559.741489	-1544.690000	1960.306641	-159.429825
29559.741489	-1544.690000	1959.334961	-88.587227
29559.741489	-1544.690000	1958.363281	-27.550325
29559.741489	-1544.690000	1957.391602	-40.260479
29559.741489	-1544.690000	1956.419922	89.701881
29559.741489	-1544.690000	1955.447266	67.244690
29559.741489	-1544.690000	1954.474609	32.552910
29559.741489	-1544.690000	1953.501953	96.217735
29559.741489	-1544.690000	1952.529297	24.762085
29559.741489	-1544.690000	1951.556641	98.309547
29559.741489	-1544.690000	1950.583984	-12.345310
29559.741489	-1544.690000	1949.610352	-9.964244
29559.741489	-1544.690000	1948.636719	-147.501740
29559.741489	-1544.690000	1947.663086	19.429762
29559.741489	-1544.690000	1946.689453	2.250615
29559.741489	-1544.690000	1945.715820	73.439346
29559.741489	-1544.690000	1944.741211	-142.424500
29559.741489	-1544.690000	1943.767578	-19.686684
29559.741489	-1544.690000	1942.792969	22.090759
29559.741489	-1544.690000	1941.818359	0.113809
29559.741489	-1544.690000	1940.842773	-132.163162
29559.741489	-1544.690000	1939.868164	-70.745422
29559.741489	-1544.690000	1938.892578	22.516752
29559.741489	-1544.690000	1937.916992	-33.712925
29559.741489	-1544.690000	1936.941406	-114.414818
29559.741489	-1544.690000	1935.965820	-35.881729
29559.741489	-1544.690000	1934.990234	76.905617
29559.741489	-1544.690000	1934.013672	-42.944153
29559.741489	-1544.690000	1933.037109	113.861351
29559.741489	-1544.690000	1932.060547	197.180420
29559.741489	-1544.690000	1931.083984	-8.284817
29559.741489	-1544.690000	1930.107422	75.011536
29559.741489	-1544.690000	1929.129883	38.410770
29559.741489	-1544.690000	1928.153320	-103.350502
29559.741489	-1544.690000	1927.175781	43.461586
29559.741489	-1544.690000	1926.198242	-39.598473
29559.741489	-1544.690000	1925.219727	70.457237
29559.741489	-1544.690000	1924.242188	-12.606534
29559.741489	-1544.690000	1923.263672	-7.693561
29559.741489	-1544.690000	1922.285156	119.344658
29559.741489	-1544.690000	1921.306641	43.594002
29559.741489	-1544.690000	1920.328125	11.807411
29559.741489	-1544.690000	1919.349609	63.024467
29559.741489	-1544.690000	1918.370117	150.818207
29559.741489	-1544.690000	1917.391602	143.371445
29559.741489	-1544.690000	1916.412109	-5.624878
29559.741489	-1544.690000	1915.431641	67.425583
29559.741489	-1544.690000	1914.452148	13.581347
29559.741489	-1544.690000	1913.472656	188.979080
29559.741489	-1544.690000	1912.492188	78.999527
29559.741489	-1544.690000	1911.511719	17.791830
29559.741489	-1544.690000	1910.531250	117.450607
29559.741489	-1544.690000	1909.550781	44.018265
29559.741489	-1544.690000	1908.569336	-87.891533
29559.741489	-1544.690000	1907.588867	101.779877
29559.741489	-1544.690000	1906.607422	-35.021343
29559.741489	-1544.690000	1905.625977	-23.257008
29559.741489	-1544.690000	1904.644531	29.863001
29559.741489	-1544.690000	1903.662109	92.669144
29559.741489	-1544.690000	1902.680664	33.730301
29559.741489	-1544.690000	1901.698242	-47.117393
29559.741489	-1544.690000	1900.715820	20.438467
29559.741489	-1544.690000	1899.733398	-70.170753
29559.741489	-1544.690000	1898.750000	111.603157
29559.741489	-1544.690000	1897.767578	-73.884346
29559.741489	-1544.690000	1896.784180	78.583534
29559.741489	-1544.690000	1895.800781	26.789223
29559.741489	-1544.690000	1894.817383	50.315563
29559.741489	-1544.690000	1893.833984	98.096992
29559.741489	-1544.690000	1892.850586	-50.942776
29559.741489	-1544.690000	1891.866211	-10.514390
29559.741489	-1544.690000	1890.881836	-91.551964
29559.741489	-1544.690000	1889.897461	123.608994
29559.741489	-1544.690000	1888.913086	76.492386
29559.741489	-1544.690000	1887.927734	31.785934
29559.741489	-1544.690000	1886.943359	74.417343
29559.741489	-1544.690000	1885.958008	44.216183
29559.741489	-1544.690000	1884.972656	140.124146
29559.741489	-1544.690000	1883.987305	75.901535
29559.741489	-1544.690000	1883.001953	45.614822
29559.741489	-1544.690000	1882.015625	-93.786156
29559.741489	-1544.690000	1881.029297	-97.436180
29559.741489	-1544.690000	1880.042969	124.252258
29559.741489	-1544.690000	1879.056641	103.534668
29559.741489	-1544.690000	1878.070313	56.144089
29559.741489	-1544.690000	1877.083984	-83.297745
29559.741489	-1544.690000	1876.096680	147.773621
29559.741489	-1544.690000	1875.109375	105.143135
29559.741489	-1544.690000	1874.122070	135.114182
29559.741489	-1544.690000	1873.134766	-93.917023
29559.741489	-1544.690000	1872.146484	-27.690310
29559.741489	-1544.690000	1871.159180	40.898582
29559.741489	-1544.690000	1870.170898	68.309250
29559.741489	-1544.690000	1869.182617	-92.954376
29559.741489	-1544.690000	1868.194336	-9.981409
29559.741489	-1544.690000	1867.205078	-62.448784
29559.741489	-1544.690000	1866.216797	85.682686
29559.741489	-1544.690000	1865.227539	6.572521
29559.741489	-1544.690000	1864.238281	72.426025
29559.741489	-1544.690000	1863.249023	152.717590
29559.741489	-1544.690000	1862.259766	-180.047104
29559.741489	-1544.690000	1861.269531	59.572514
29559.741489	-1544.690000	1860.279297	62.473804
29559.741489	-1544.690000	1859.290039	-67.415504
29559.741489	-1544.690000	1858.298828	167.131393
29559.741489	-1544.690000	1857.308594	-3.807466
29559.741489	-1544.690000	1856.318359	8.636195
29559.741489	-1544.690000	1855.327148	11.397956
29559.741489	-1544.690000	1854.335938	-19.631475
29559.741489	-1544.690000	1853.344727	122.921768
29559.741489	-1544.690000	1852.353516	147.272858
29559.741489	-1544.690000	1851.362305	10.103782
29559.741489	-1544.690000	1850.370117	140.440323
29559.741489	-1544.690000	1849.377930	56.274414
29559.741489	-1544.690000	1848.385742	66.058548
29559.741489	-1544.690000	1847.393555	-143.350006
29559.741489	-1544.690000	1846.401367	-152.847366
29559.741489	-1544.690000	1845.408203	32.638523
29559.741489	-1544.690000	1844.415039	-39.522350
29559.741489	-1544.690000	1843.421875	42.340290
29559.741489	-1544.690000	1842.428711	-10.594978
29559.741489	-1544.690000	1841.435547	126.513504
29559.741489	-1544.690000	1840.441406	198.604385
29559.741489	-1544.690000	1839.448242	102.313110
29559.741489	-1544.690000	1838.454102	20.459486
29559.741489	-1544.690000	1837.459961	61.211033
29559.741489	-1544.690000	1836.464844	99.519981
29559.741489	-1544.690000	1835.470703	161.823227
29559.741489	-1544.690000	1834.475586	152.005341
29559.741489	-1544.690000	1833.480469	34.077667
29559.741489	-1544.690000	1832.485352	-33.393036
29559.741489	-1544.690000	1831.490234	24.000311
29559.741489	-1544.690000	1830.495117	57.344967
29559.741489	-1544.690000	1829.499023	-36.556885
29559.741489	-1544.690000	1828.502930	-17.653271
29559.741489	-1544.690000	1827.506836	123.589836
29559.741489	-1544.690000	1826.510742	156.811447
29559.741489	-1544.690000	1825.513672	-33.054020
29559.741489	-1544.690000	1824.517578	-11.842703
29559.741489	-1544.690000	1823.520508	134.012146
29559.741489	-1544.690000	1822.523438	128.778900
29559.741489	-1544.690000	1821.526367	130.720078
29559.741489	-1544.690000	1820.529297	149.416092
29559.741489	-1544.690000	1819.531250	5.178680
29559.741489	-1544.690000	1818.533203	86.133209
29559.741489	-1544.690000	1817.535156	66.459190
29559.741489	-1544.690000	1816.537109	6.072453
29559.741489	-1544.690000	1815.539063	22.297510
29559.741489	-1544.690000	1814.540039	117.483627
29559.741489	-1544.690000	1813.541992	-2.749962
29559.741489	-1544.690000	1812.542969	-51.177700
29559.741489	-1544.690000	1811.543945	-111.562820
29559.741489	-1544.690000	1810.543945	28.957533
29559.741489	-1544.690000	1809.544922	119.197525
29559.741489	-1544.690000	1808.544922	1.392830
29559.741489	-1544.690000	1807.544922	-13.598163
29559.741489	-1544.690000	1806.544922	-21.427048
29559.741489	-1544.690000	1805.544922	6.574401
29559.741489	-1544.690000	1804.544922	-49.059872
29559.741489	-1544.690000	1803.543945	165.211105
29559.741489	-1544.690000	1802.542969	21.183744
29559.741489	-1544.690000	1801.541992	-15.359979
29559.741489	-1544.690000	1800.541016	-11.320708
29559.741489	-1544.690000	1799.539063	4.637390
29559.741489	-1544.690000	1798.538086	-43.848576
29559.741489	-1544.690000	1797.536133	-6.441657
29559.741489	-1544.690000	1796.534180	-47.775097
29559.741489	-1544.690000	1795.532227	-70.024956
29559.741489	-1544.690000	1794.529297	50.786621
29559.741489	-1544.690000	1793.527344	-21.557684
29559.741489	-1544.690000	1792.524414	149.232086
29559.741489	-1544.690000	1791.521484	22.063730
29559.741489	-1544.690000	1790.518555	11.681567
29559.741489	-1544.690000	1789.514648	72.757233
29559.741489	-1544.690000	1788.511719	12.334211
29559.741489	-1544.690000	1787.507813	-9.976846
29559.741489	-1544.690000	1786.503906	-8.480531
29559.741489	-1544.690000	1785.500000	81.079666
29559.741489	-1544.690000	1784.496094	-67.394257
29559.741489	-1544.690000	1783.491211	48.297585
29559.741489	-1544.690000	1782.486328	40.228542
29559.741489	-1544.690000	1781.481445	105.888985
29559.741489	-1544.690000	1780.476563	93.038811
29559.741489	-1544.690000	1779.471680	-95.761307
29559.741489	-1544.690000	1778.465820	24.536594
29559.741489	-1544.690000	1777.460938	68.726601
29559.741489	-1544.690000	1776.455078	46.353706
29559.741489	-1544.690000	1775.449219	83.377510
29559.741489	-1544.690000	1774.442383	56.241917
29559.741489	-1544.690000	1773.436523	-49.261879
29559.741489	-1544.690000	1772.429688	-36.010830
29559.741489	-1544.690000	1771.422852	-3.780199
29559.741489	-1544.690000	1770.416016	-57.018143
29559.741489	-1544.690000	1769.409180	48.757347
29559.741489	-1544.690000	1768.402344	-66.175339
29559.741489	-1544.690000	1767.394531	-29.249800
29559.741489	-1544.690000	1766.386719	43.231358
29559.741489	-1544.690000	1765.378906	-81.143433
29559.741489	-1544.690000	1764.371094	-110.642181
29559.741489	-1544.690000	1763.362305	-42.950970
29559.741489	-1544.690000	1762.354492	5.749771
29559.741489	-1544.690000	1761.345703	47.314365
29559.741489	-1544.690000	1760.336914	74.641884
29559.741489	-1544.690000	1759.328125	73.528244
29559.741489	-1544.690000	1758.318359	-12.848433
29559.741489	-1544.690000	1757.308594	-47.108608
29559.741489	-1544.690000	1756.299805	-69.524582
29559.741489	-1544.690000	1755.290039	76.104553
29559.741489	-1544.690000	1754.279297	20.526827
29559.741489	-1544.690000	1753.269531	-141.501587
29559.741489	-1544.690000	1752.258789	-116.604050
29559.741489	-1544.690000	1751.249023	-202.876923
29559.741489	-1544.690000	1750.238281	-64.491447
29559.741489	-1544.690000	1749.226563	111.658798
29559.741489	-1544.690000	1748.215820	-7.722233
29559.741489	-1544.690000	1747.204102	-39.628098
29559.741489	-1544.690000	1746.193359	-95.153648
29559.741489	-1544.690000	1745.181641	95.014160
29559.741489	-1544.690000	1744.168945	-106.970886
29559.741489	-1544.690000	1743.157227	21.716274
29559.741489	-1544.690000	1742.144531	-99.918953
29559.741489	-1544.690000	1741.132813	45.226860
29559.741489	-1544.690000	1740.120117	-62.219837
29559.741489	-1544.690000	1739.106445	-42.215641
29559.741489	-1544.690000	1738.093750	13.163685
29559.741489	-1544.690000	1737.080078	-84.804558
29559.741489	-1544.690000	1736.067383	36.578789
29559.741489	-1544.690000	1735.053711	-148.611145
29559.741489	-1544.690000	1734.040039	-154.577316
29559.741489	-1544.690000	1733.025391	35.073509
29559.741489	-1544.690000	1732.011719	90.327133
29559.741489	-1544.690000	1730.997070	15.969083
29559.741489	-1544.690000	1729.982422	49.987335
29559.741489	-1544.690000	1728.967773	-104.424820
29559.741489	-1544.690000	1727.952148	-20.966509
29559.741489	-1544.690000	1726.937500	-19.943846
29559.741489	-1544.690000	1725.921875	49.327526
29559.741489	-1544.690000	1724.906250	-48.521805
29559.741489	-1544.690000	1723.890625	20.711681
29559.741489	-1544.690000	1722.875000	111.082581
29559.741489	-1544.690000	1721.858398	55.585087
29559.741489	-1544.690000	1720.841797	0.100286
29559.741489	-1544.690000	1719.825195	45.724274
29559.741489	-1544.690000	1718.808594	74.867111
29559.741489	-1544.690000	1717.791992	94.589233
29559.741489	-1544.690000	1716.774414	-38.439430
29559.741489	-1544.690000	1715.756836	47.055794
29559.741489	-1544.690000	1714.739258	-22.513088
29559.741489	-1544.690000	1713.721680	-106.155472
29559.741489	-1544.690000	1712.704102	5.102664
29559.741489	-1544.690000	1711.685547	43.534218
29559.741489	-1544.690000	1710.667969	-58.878155
29559.741489	-1544.690000	1709.649414	40.542316
29559.741489	-1544.690000	1708.630859	-0.853476
29559.741489	-1544.690000	1707.611328	-30.517273
29559.741489	-1544.690000	1706.592773	-27.344296
29559.741489	-1544.690000	1705.573242	123.535034
29559.741489	-1544.690000	1704.553711	-145.287643
29559.741489	-1544.690000	1703.534180	50.068409
29559.741489	-1544.690000	1702.513672	-17.126429
29559.741489	-1544.690000	1701.494141	11.757614
29559.741489	-1544.690000	1700.473633	-43.714180
29559.741489	-1544.690000	1699.453125	31.980534
29559.741489	-1544.690000	1698.432617	-180.384933
29559.741489	-1544.690000	1697.412109	105.989601
29559.741489	-1544.690000	1696.390625	41.131767
29559.741489	-1544.690000	1695.369141	39.474113
29559.741489	-1544.690000	1694.347656	68.223053
29559.741489	-1544.690000	1693.326172	-29.377390
29559.741489	-1544.690000	1692.304688	-40.411819
29559.741489	-1544.690000	1691.282227	65.466705
29559.741489	-1544.690000	1690.260742	185.322723
29559.741489	-1544.690000	1689.238281	185.900986
29559.741489	-1544.690000	1688.214844	32.213562
29559.741489	-1544.690000	1687.192383	102.895859
29559.741489	-1544.690000	1686.168945	147.837097
29559.741489	-1544.690000	1685.146484	54.939819
29559.741489	-1544.690000	1684.123047	-2.907758
29559.741489	-1544.690000	1683.099609	182.081024
29559.741489	-1544.690000	1682.075195	19.152433
29559.741489	-1544.690000	1681.051758	176.031357
29559.741489	-1544.690000	1680.027344	171.819305
29559.741489	-1544.690000	1679.002930	88.270271
29559.741489	-1544.690000	1677.978516	233.337753
29559.741489	-1544.690000	1676.953125	149.778214
29559.741489	-1544.690000	1675.928711	-22.366425
29559.741489	-1544.690000	1674.903320	24.679527
29559.741489	-1544.690000	1673.877930	62.368870
29559.741489	-1544.690000	1672.852539	139.645844
29559.741489	-1544.690000	1671.826172	65.429909
29559.741489	-1544.690000	1670.800781	170.600540
29559.741489	-1544.690000	1669.774414	180.222855
29559.741489	-1544.690000	1668.748047	145.583237
29559.741489	-1544.690000	1667.721680	78.347595
29559.741489	-1544.690000	1666.694336	234.578415
29559.741489	-1544.690000	1665.667969	90.521996
29559.741489	-1544.690000	1664.640625	286.214539
29559.741489	-1544.690000	1663.613281	158.454193
29559.741489	-1544.690000	1662.585938	263.317047
29559.741489	-1544.690000	1661.557617	140.226883
29559.741489	-1544.690000	1660.530273	442.645935
29559.741489	-1544.690000	1659.501953	377.650299
29559.741489	-1544.690000	1658.473633	328.932800
29559.741489	-1544.690000	1657.444336	161.709106
29559.741489	-1544.690000	1656.416016	178.069031
29559.741489	-1544.690000	1655.386719	254.795166
29559.741489	-1544.690000	1654.358398	298.965637
29559.741489	-1544.690000	1653.328125	391.855560
29559.741489	-1544.690000	1652.298828	415.053986
29559.741489	-1544.690000	1651.269531	401.090973
29559.741489	-1544.690000	1650.239258	491.536713
29559.741489	-1544.690000	1649.208984	370.805786
29559.741489	-1544.690000	1648.178711	382.321930
29559.741489	-1544.690000	1647.148438	229.156387
29559.741489	-1544.690000	1646.117188	307.901245
29559.741489	-1544.690000	1645.086914	384.282837
29559.741489	-1544.690000	1644.055664	386.445313
29559.741489	-1544.690000	1643.024414	298.212006
29559.741489	-1544.690000	1641.992188	432.416168
29559.741489	-1544.690000	1640.960938	432.199829
29559.741489	-1544.690000	1639.928711	392.590271
29559.741489	-1544.690000	1638.896484	385.396820
29559.741489	-1544.690000	1637.864258	542.561829
29559.741489	-1544.690000	1636.832031	620.949463
29559.741489	-1544.690000	1635.798828	509.520905
29559.741489	-1544.690000	1634.766602	578.594604
29559.741489	-1544.690000	1633.733398	615.234253
29559.741489	-1544.690000	1632.699219	721.225098
29559.741489	-1544.690000	1631.666016	542.732300
29559.741489	-1544.690000	1630.632813	671.783875
29559.741489	-1544.690000	1629.598633	601.973145
29559.741489	-1544.690000	1628.564453	684.702820
29559.741489	-1544.690000	1627.530273	841.322571
29559.741489	-1544.690000	1626.495117	799.185425
29559.741489	-1544.690000	1625.460938	830.961731
29559.741489	-1544.690000	1624.425781	1065.920654
29559.741489	-1544.690000	1623.390625	1116.064453
29559.741489	-1544.690000	1622.355469	1293.132202
29559.741489	-1544.690000	1621.319336	1428.567505
29559.741489	-1544.690000	1620.284180	1607.777710
29559.741489	-1544.690000	1619.248047	1706.150635
29559.741489	-1544.690000	1618.211914	1818.307739
29559.741489	-1544.690000	1617.174805	1978.828613
29559.741489	-1544.690000	1616.138672	2063.185303
29559.741489	-1544.690000	1615.101563	2142.877441
29559.741489	-1544.690000	1614.065430	2031.227661
29559.741489	-1544.690000	1613.027344	2085.508545
29559.741489	-1544.690000	1611.990234	2114.411621
29559.741489	-1544.690000	1610.953125	1949.797607
29559.741489	-1544.690000	1609.915039	1676.985107
29559.741489	-1544.690000	1608.876953	1795.695679
29559.741489	-1544.690000	1607.838867	1541.401978
29559.741489	-1544.690000	1606.800781	1701.487915
29559.741489	-1544.690000	1605.761719	1700.406006
29559.741489	-1544.690000	1604.723633	1492.244629
29559.741489	-1544.690000	1603.684570	1318.646851
29559.741489	-1544.690000	1602.644531	1331.386475
29559.741489	-1544.690000	1601.605469	1245.232422
29559.741489	-1544.690000	1600.566406	1124.611816
29559.741489	-1544.690000	1599.526367	1160.316162
29559.741489	-1544.690000	1598.486328	1232.759155
29559.741489	-1544.690000	1597.446289	962.814209
29559.741489	-1544.690000	1596.405273	1134.009766
29559.741489	-1544.690000	1595.365234	1075.455078
29559.741489	-1544.690000	1594.324219	1163.864380
29559.741489	-1544.690000	1593.283203	1167.277710
29559.741489	-1544.690000	1592.242188	1147.721680
29559.741489	-1544.690000	1591.200195	1224.539063
29559.741489	-1544.690000	1590.159180	1271.487915
29559.741489	-1544.690000	1589.117188	1359.691406
29559.741489	-1544.690000	1588.075195	1346.927979
29559.741489	-1544.690000	1587.032227	1510.722168
29559.741489	-1544.690000	1585.990234	1461.221680
29559.741489	-1544.690000	1584.947266	1627.191284
29559.741489	-1544.690000	1583.904297	2065.803955
29559.741489	-1544.690000	1582.861328	2133.034668
29559.741489	-1544.690000	1581.818359	2016.954712
29559.741489	-1544.690000	1580.775391	2365.864014
29559.741489	-1544.690000	1579.731445	2636.758789
29559.741489	-1544.690000	1578.687500	2623.631836
29559.741489	-1544.690000	1577.643555	2454.838379
29559.741489	-1544.690000	1576.598633	2611.080811
29559.741489	-1544.690000	1575.554688	2588.774658
29559.741489	-1544.690000	1574.509766	2440.632568
29559.741489	-1544.690000	1573.464844	2271.951172
29559.741489	-1544.690000	1572.419922	2112.471436
29559.741489	-1544.690000	1571.374023	1781.557007
29559.741489	-1544.690000	1570.329102	1574.205322
29559.741489	-1544.690000	1569.283203	1506.336426
29559.741489	-1544.690000	1568.237305	1340.223877
29559.741489	-1544.690000	1567.191406	1386.634644
29559.741489	-1544.690000	1566.144531	1072.113647
29559.741489	-1544.690000	1565.098633	1157.359863
29559.741489	-1544.690000	1564.051758	968.566406
29559.741489	-1544.690000	1563.004883	754.724915
29559.741489	-1544.690000	1561.957031	748.649902
29559.741489	-1544.690000	1560.910156	512.096985
29559.741489	-1544.690000	1559.862305	690.851074
29559.741489	-1544.690000	1558.814453	698.448792
29559.741489	-1544.690000	1557.766602	525.868958
29559.741489	-1544.690000	1556.718750	642.924377
29559.741489	-1544.690000	1555.669922	668.734070
29559.741489	-1544.690000	1554.621094	724.155151
29559.741489	-1544.690000	1553.573242	528.884888
29559.741489	-1544.690000	1552.523438	597.962280
29559.741489	-1544.690000	1551.474609	792.292297
29559.741489	-1544.690000	1550.424805	669.971802
29559.741489	-1544.690000	1549.375000	695.696716
29559.741489	-1544.690000	1548.325195	489.197266
29559.741489	-1544.690000	1547.275391	483.069489
29559.741489	-1544.690000	1546.225586	461.008514
29559.741489	-1544.690000	1545.174805	650.539246
29559.741489	-1544.690000	1544.124023	537.449402
29559.741489	-1544.690000	1543.073242	622.263245
29559.741489	-1544.690000	1542.022461	725.229126
29559.741489	-1544.690000	1540.970703	462.128235
29559.741489	-1544.690000	1539.919922	367.329803
29559.741489	-1544.690000	1538.868164	595.257263
29559.741489	-1544.690000	1537.815430	477.733765
29559.741489	-1544.690000	1536.763672	669.197205
29559.741489	-1544.690000	1535.710938	542.614685
29559.741489	-1544.690000	1534.659180	509.184326
29559.741489	-1544.690000	1533.606445	482.570953
29559.741489	-1544.690000	1532.552734	587.611755
29559.741489	-1544.690000	1531.500000	597.300964
29559.741489	-1544.690000	1530.446289	504.878937
29559.741489	-1544.690000	1529.393555	696.056641
29559.741489	-1544.690000	1528.338867	390.452179
29559.741489	-1544.690000	1527.285156	533.953064
29559.741489	-1544.690000	1526.231445	384.938721
29559.741489	-1544.690000	1525.176758	306.246094
29559.741489	-1544.690000	1524.122070	449.677185
29559.741489	-1544.690000	1523.067383	393.663452
29559.741489	-1544.690000	1522.012695	484.921631
29559.741489	-1544.690000	1520.957031	567.081665
29559.741489	-1544.690000	1519.901367	622.037720
29559.741489	-1544.690000	1518.845703	620.376221
29559.741489	-1544.690000	1517.790039	614.191223
29559.741489	-1544.690000	1516.734375	567.277039
29559.741489	-1544.690000	1515.677734	683.291992
29559.741489	-1544.690000	1514.621094	577.569824
29559.741489	-1544.690000	1513.564453	616.646912
29559.741489	-1544.690000	1512.507813	542.648804
29559.741489	-1544.690000	1511.450195	599.810852
29559.741489	-1544.690000	1510.393555	507.772736
29559.741489	-1544.690000	1509.335938	497.132904
29559.741489	-1544.690000	1508.278320	574.625427
29559.741489	-1544.690000	1507.219727	634.018066
29559.741489	-1544.690000	1506.162109	560.139771
29559.741489	-1544.690000	1505.103516	420.807922
29559.741489	-1544.690000	1504.044922	389.910797
29559.741489	-1544.690000	1502.986328	514.786743
29559.741489	-1544.690000	1501.926758	395.881195
29559.741489	-1544.690000	1500.868164	520.725281
29559.741489	-1544.690000	1499.808594	458.283875
29559.741489	-1544.690000	1498.749023	542.484314
29559.741489	-1544.690000	1497.688477	518.416748
29559.741489	-1544.690000	1496.628906	530.447998
29559.741489	-1544.690000	1495.568359	319.321472
29559.741489	-1544.690000	1494.507813	586.073792
29559.741489	-1544.690000	1493.447266	442.642822
29559.741489	-1544.690000	1492.386719	450.219452
29559.741489	-1544.690000	1491.325195	520.867554
29559.741489	-1544.690000	1490.263672	431.616882
29559.741489	-1544.690000	1489.202148	315.398956
29559.741489	-1544.690000	1488.140625	530.139526
29559.741489	-1544.690000	1487.079102	220.429810
29559.741489	-1544.690000	1486.016602	255.121826
29559.741489	-1544.690000	1484.954102	244.822922
29559.741489	-1544.690000	1483.891602	338.008575
29559.741489	-1544.690000	1482.829102	280.506866
29559.741489	-1544.690000	1481.765625	148.847580
29559.741489	-1544.690000	1480.702148	212.822601
29559.741489	-1544.690000	1479.638672	-80.523735
29559.741489	-1544.690000	1478.575195	-14.228618
29559.741489	-1544.690000	1477.511719	83.493034
29559.741489	-1544.690000	1476.447266	232.834732
29559.741489	-1544.690000	1475.382813	191.292297
29559.741489	-1544.690000	1474.318359	93.672791
29559.741489	-1544.690000	1473.253906	132.993713
29559.741489	-1544.690000	1472.189453	262.096283
29559.741489	-1544.690000	1471.124023	220.615555
29559.741489	-1544.690000	1470.058594	203.992035
29559.741489	-1544.690000	1468.993164	252.248627
29559.741489	-1544.690000	1467.927734	262.542938
29559.741489	-1544.690000	1466.861328	160.852859
29559.741489	-1544.690000	1465.794922	309.802948
29559.741489	-1544.690000	1464.728516	400.972198
29559.741489	-1544.690000	1463.662109	538.653503
29559.741489	-1544.690000	1462.594727	401.129028
29559.741489	-1544.690000	1461.528320	264.124756
29559.741489	-1544.690000	1460.460938	450.926300
29559.741489	-1544.690000	1459.393555	389.772827
29559.741489	-1544.690000	1458.326172	409.127594
29559.741489	-1544.690000	1457.257813	558.415466
29559.741489	-1544.690000	1456.189453	557.950745
29559.741489	-1544.690000	1455.121094	496.470154
29559.741489	-1544.690000	1454.052734	587.109802
29559.741489	-1544.690000	1452.984375	714.351501
29559.741489	-1544.690000	1451.915039	838.648621
29559.741489	-1544.690000	1450.845703	1165.614990
29559.741489	-1544.690000	1449.776367	1099.011963
29559.741489	-1544.690000	1448.707031	1038.388428
29559.741489	-1544.690000	1447.636719	1185.911987
29559.741489	-1544.690000	1446.567383	970.519531
29559.741489	-1544.690000	1445.497070	831.476990
29559.741489	-1544.690000	1444.425781	613.248718
29559.741489	-1544.690000	1443.355469	566.352722
29559.741489	-1544.690000	1442.285156	652.083191
29559.741489	-1544.690000	1441.213867	621.256104
29559.741489	-1544.690000	1440.142578	643.281921
29559.741489	-1544.690000	1439.070313	572.877991
29559.741489	-1544.690000	1437.999023	684.689880
29559.741489	-1544.690000	1436.926758	416.965363
29559.741489	-1544.690000	1435.854492	639.769104
29559.741489	-1544.690000	1434.782227	470.583893
29559.741489	-1544.690000	1433.709961	510.550659
29559.741489	-1544.690000	1432.636719	379.001251
29559.741489	-1544.690000	1431.563477	381.904419
29559.741489	-1544.690000	1430.490234	461.472412
29559.741489	-1544.690000	1429.416992	285.004425
29559.741489	-1544.690000	1428.343750	477.820099
29559.741489	-1544.690000	1427.269531	422.266083
29559.741489	-1544.690000	1426.195313	503.882233
29559.741489	-1544.690000	1425.121094	350.607361
29559.741489	-1544.690000	1424.046875	566.995483
29559.741489	-1544.690000	1422.971680	503.146332
29559.741489	-1544.690000	1421.896484	499.842712
29559.741489	-1544.690000	1420.821289	782.784180
29559.741489	-1544.690000	1419.746094	828.659607
29559.741489	-1544.690000	1418.669922	894.493530
29559.741489	-1544.690000	1417.594727	816.481812
29559.741489	-1544.690000	1416.518555	958.704651
29559.741489	-1544.690000	1415.442383	760.546326
29559.741489	-1544.690000	1414.365234	757.035461
29559.741489	-1544.690000	1413.289063	505.776794
29559.741489	-1544.690000	1412.211914	590.867432
29559.741489	-1544.690000	1411.134766	612.027283
29559.741489	-1544.690000	1410.057617	467.308411
29559.741489	-1544.690000	1408.979492	604.991638
29559.741489	-1544.690000	1407.902344	384.214508
29559.741489	-1544.690000	1406.824219	400.162354
29559.741489	-1544.690000	1405.746094	448.087158
29559.741489	-1544.690000	1404.666992	395.705414
29559.741489	-1544.690000	1403.588867	288.353516
29559.741489	-1544.690000	1402.509766	272.904633
29559.741489	-1544.690000	1401.430664	413.013916
29559.741489	-1544.690000	1400.351563	286.004822
29559.741489	-1544.690000	1399.271484	314.436829
29559.741489	-1544.690000	1398.192383	390.076538
29559.741489	-1544.690000	1397.112305	335.537781
29559.741489	-1544.690000	1396.031250	347.410767
29559.741489	-1544.690000	1394.951172	442.972565
29559.741489	-1544.690000	1393.871094	426.748505
29559.741489	-1544.690000	1392.790039	359.695801
29559.741489	-1544.690000	1391.708984	520.076477
29559.741489	-1544.690000	1390.626953	633.792175
29559.741489	-1544.690000	1389.545898	541.451538
29559.741489	-1544.690000	1388.463867	741.522522
29559.741489	-1544.690000	1387.381836	1027.102051
29559.741489	-1544.690000	1386.299805	1019.007690
29559.741489	-1544.690000	1385.217773	1128.656616
29559.741489	-1544.690000	1384.134766	1419.105835
29559.741489	-1544.690000	1383.051758	1870.427734
29559.741489	-1544.690000	1381.968750	2140.947754
29559.741489	-1544.690000	1380.885742	2523.049561
29559.741489	-1544.690000	1379.802734	2926.540039
29559.741489	-1544.690000	1378.718750	3261.101563
29559.741489	-1544.690000	1377.634766	3463.280029
29559.741489	-1544.690000	1376.550781	3417.428467
29559.741489	-1544.690000	1375.465820	3129.474121
29559.741489	-1544.690000	1374.381836	2747.857666
29559.741489	-1544.690000	1373.296875	2238.973633
29559.741489	-1544.690000	1372.211914	1981.219604
29559.741489	-1544.690000	1371.126953	1598.190674
29559.741489	-1544.690000	1370.041016	1311.562378
29559.741489	-1544.690000	1368.955078	1116.346069
29559.741489	-1544.690000	1367.869141	809.009338
29559.741489	-1544.690000	1366.783203	901.212524
29559.741489	-1544.690000	1365.697266	792.838623
29559.741489	-1544.690000	1364.610352	613.674866
29559.741489	-1544.690000	1363.523438	626.276062
29559.741489	-1544.690000	1362.436523	708.836548
29559.741489	-1544.690000	1361.349609	1034.053711
29559.741489	-1544.690000	1360.261719	981.707153
29559.741489	-1544.690000	1359.174805	1115.834473
29559.741489	-1544.690000	1358.086914	1341.370117
29559.741489	-1544.690000	1356.998047	869.603271
29559.741489	-1544.690000	1355.910156	871.420715
29559.741489	-1544.690000	1354.821289	780.144836
29559.741489	-1544.690000	1353.732422	682.156006
29559.741489	-1544.690000	1352.643555	710.793152
29559.741489	-1544.690000	1351.554688	593.498657
29559.741489	-1544.690000	1350.464844	639.053589
29559.741489	-1544.690000	1349.375000	843.815735
29559.741489	-1544.690000	1348.285156	559.159058
29559.741489	-1544.690000	1347.195313	596.438965
29559.741489	-1544.690000	1346.105469	572.472961
29559.741489	-1544.690000	1345.014648	350.844055
29559.741489	-1544.690000	1343.923828	310.242676
29559.741489	-1544.690000	1342.833008	230.981323
29559.741489	-1544.690000	1341.741211	333.580658
29559.741489	-1544.690000	1340.650391	278.066650
29559.741489	-1544.690000	1339.558594	332.231750
29559.741489	-1544.690000	1338.466797	307.656708
29559.741489	-1544.690000	1337.374023	292.227661
29559.741489	-1544.690000	1336.282227	310.327515
29559.741489	-1544.690000	1335.189453	397.488403
29559.741489	-1544.690000	1334.096680	442.461761
29559.741489	-1544.690000	1333.003906	421.672302
29559.741489	-1544.690000	1331.910156	318.713409
29559.741489	-1544.690000	1330.817383	278.209656
29559.741489	-1544.690000	1329.723633	263.039337
29559.741489	-1544.690000	1328.629883	280.776825
29559.741489	-1544.690000	1327.535156	326.650482
29559.741489	-1544.690000	1326.441406	-19.932848
29559.741489	-1544.690000	1325.346680	86.107147
29559.741489	-1544.690000	1324.251953	45.747005
29559.741489	-1544.690000	1323.156250	-19.088022
29559.741489	-1544.690000	1322.061523	-7.434300
29559.741489	-1544.690000	1320.965820	-30.938747
29559.741489	-1544.690000	1319.870117	-50.983902
29559.741489	-1544.690000	1318.774414	85.495033
29559.741489	-1544.690000	1317.678711	-14.452300
29559.741489	-1544.690000	1316.582031	33.931141
29559.741489	-1544.690000	1315.485352	-82.142677
29559.741489	-1544.690000	1314.388672	45.608311
29559.741489	-1544.690000	1313.291016	-26.384428
29559.741489	-1544.690000	1312.194336	51.261280
29559.741489	-1544.690000	1311.096680	56.780659
29559.741489	-1544.690000	1309.999023	-217.190735
29559.741489	-1544.690000	1308.901367	-58.746391
29559.741489	-1544.690000	1307.802734	63.397934
29559.741489	-1544.690000	1306.705078	-29.547476
29559.741489	-1544.690000	1305.606445	-8.779574
29559.741489	-1544.690000	1304.506836	-53.167583
29559.741489	-1544.690000	1303.408203	93.887657
29559.741489	-1544.690000	1302.308594	120.770508
29559.741489	-1544.690000	1301.208984	160.501831
29559.741489	-1544.690000	1300.109375	231.986191
29559.741489	-1544.690000	1299.009766	168.212082
29559.741489	-1544.690000	1297.909180	301.310303
29559.741489	-1544.690000	1296.808594	430.550018
29559.741489	-1544.690000	1295.708008	319.637024
29559.741489	-1544.690000	1294.607422	349.319153
29559.741489	-1544.690000	1293.506836	322.191772
29559.741489	-1544.690000	1292.405273	351.978668
29559.741489	-1544.690000	1291.303711	381.068848
29559.741489	-1544.690000	1290.202148	290.873199
29559.741489	-1544.690000	1289.099609	250.853867
29559.741489	-1544.690000	1287.998047	192.676529
29559.741489	-1544.690000	1286.895508	165.350754
29559.741489	-1544.690000	1285.792969	161.073959
29559.741489	-1544.690000	1284.689453	218.212723
29559.741489	-1544.690000	1283.586914	175.499771
29559.741489	-1544.690000	1282.483398	-12.140942
29559.741489	-1544.690000	1281.379883	160.315430
29559.741489	-1544.690000	1280.276367	-22.174393
29559.741489	-1544.690000	1279.171875	-35.202663
29559.741489	-1544.690000	1278.067383	85.318352
29559.741489	-1544.690000	1276.962891	124.628548
29559.741489	-1544.690000	1275.858398	-94.085915
29559.741489	-1544.690000	1274.753906	5.470020
29559.741489	-1544.690000	1273.648438	-3.344049
29559.741489	-1544.690000	1272.542969	-96.989929
29559.741489	-1544.690000	1271.437500	132.643326
29559.741489	-1544.690000	1270.331055	81.521393
29559.741489	-1544.690000	1269.225586	-100.967346
29559.741489	-1544.690000	1268.119141	-113.749084
29559.741489	-1544.690000	1267.012695	14.765910
29559.741489	-1544.690000	1265.906250	13.110944
29559.741489	-1544.690000	1264.798828	-62.431282
29559.741489	-1544.690000	1263.691406	-96.477203
29559.741489	-1544.690000	1262.583984	27.883415
29559.741489	-1544.690000	1261.476563	199.635529
29559.741489	-1544.690000	1260.368164	222.163498
29559.741489	-1544.690000	1259.260742	287.079193
29559.741489	-1544.690000	1258.152344	391.141113
29559.741489	-1544.690000	1257.043945	545.157837
29559.741489	-1544.690000	1255.934570	560.475281
29559.741489	-1544.690000	1254.825195	696.427490
29559.741489	-1544.690000	1253.716797	578.107910
29559.741489	-1544.690000	1252.606445	595.061279
29559.741489	-1544.690000	1251.497070	683.200989
29559.741489	-1544.690000	1250.387695	663.358398
29559.741489	-1544.690000	1249.277344	479.797577
29559.741489	-1544.690000	1248.166992	565.393250
29559.741489	-1544.690000	1247.055664	381.030640
29559.741489	-1544.690000	1245.945313	523.786560
29559.741489	-1544.690000	1244.833984	381.539398
29559.741489	-1544.690000	1243.722656	261.182770
29559.741489	-1544.690000	1242.611328	463.818268
29559.741489	-1544.690000	1241.499023	549.233093
29559.741489	-1544.690000	1240.387695	641.858765
29559.741489	-1544.690000	1239.275391	566.070923
29559.741489	-1544.690000	1238.162109	631.740356
29559.741489	-1544.690000	1237.049805	512.406250
29559.741489	-1544.690000	1235.936523	411.988861
29559.741489	-1544.690000	1234.823242	362.406555
29559.741489	-1544.690000	1233.709961	273.056213
29559.741489	-1544.690000	1232.596680	109.558006
29559.741489	-1544.690000	1231.482422	290.374603
29559.741489	-1544.690000	1230.369141	357.252991
29559.741489	-1544.690000	1229.253906	305.340576
29559.741489	-1544.690000	1228.139648	330.251617
29559.741489	-1544.690000	1227.025391	471.126099
29559.741489	-1544.690000	1225.910156	545.561523
29559.741489	-1544.690000	1224.794922	577.395447
29559.741489	-1544.690000	1223.679688	870.368469
29559.741489	-1544.690000	1222.563477	846.201355
29559.741489	-1544.690000	1221.447266	909.856018
29559.741489	-1544.690000	1220.331055	771.082886
29559.741489	-1544.690000	1219.214844	693.124573
29559.741489	-1544.690000	1218.098633	684.986511
29559.741489	-1544.690000	1216.981445	651.963562
29559.741489	-1544.690000	1215.864258	633.397461
29559.741489	-1544.690000	1214.747070	758.877502
29559.741489	-1544.690000	1213.629883	690.155212
29559.741489	-1544.690000	1212.511719	701.864380
29559.741489	-1544.690000	1211.393555	800.730469
29559.741489	-1544.690000	1210.275391	777.211914
29559.741489	-1544.690000	1209.157227	788.803284
29559.741489	-1544.690000	1208.038086	738.615112
29559.741489	-1544.690000	1206.918945	675.260437
29559.741489	-1544.690000	1205.799805	767.033691
29559.741489	-1544.690000	1204.680664	746.801392
29559.741489	-1544.690000	1203.560547	791.064880
29559.741489	-1544.690000	1202.441406	778.618835
29559.741489	-1544.690000	1201.321289	729.813049
29559.741489	-1544.690000	1200.200195	731.517944
29559.741489	-1544.690000	1199.080078	597.520996
29559.741489	-1544.690000	1197.958984	874.309143
29559.741489	-1544.690000	1196.837891	726.260376
29559.741489	-1544.690000	1195.716797	633.725769
29559.741489	-1544.690000	1194.594727	731.553711
29559.741489	-1544.690000	1193.473633	567.004761
29559.741489	-1544.690000	1192.351563	716.573120
29559.741489	-1544.690000	1191.229492	786.987427
29559.741489	-1544.690000	1190.106445	762.970154
29559.741489	-1544.690000	1188.984375	964.526855
29559.741489	-1544.690000	1187.861328	944.296387
29559.741489	-1544.690000	1186.738281	978.876038
29559.741489	-1544.690000	1185.614258	1198.179199
29559.741489	-1544.690000	1184.491211	1401.601929
29559.741489	-1544.690000	1183.367188	1642.905273
29559.741489	-1544.690000	1182.243164	1859.820190
29559.741489	-1544.690000	1181.119141	2167.888184
29559.741489	-1544.690000	1179.994141	2441.329346
29559.741489	-1544.690000	1178.869141	2773.780029
29559.741489	-1544.690000	1177.744141	3036.098877
29559.741489	-1544.690000	1176.619141	3422.194336
29559.741489	-1544.690000	1175.493164	3598.704834
29559.741489	-1544.690000	1174.368164	3773.615234
29559.741489	-1544.690000	1173.242188	3582.761963
29559.741489	-1544.690000	1172.115234	3391.904785
29559.741489	-1544.690000	1170.989258	3159.381348
29559.741489	-1544.690000	1169.862305	2712.049561
29559.741489	-1544.690000	1168.735352	2295.978027
29559.741489	-1544.690000	1167.608398	1931.790405
29559.741489	-1544.690000	1166.481445	1691.878784
29559.741489	-1544.690000	1165.353516	1389.087158
29559.741489	-1544.690000	1164.225586	1170.093872
29559.741489	-1544.690000	1163.097656	891.534058
29559.741489	-1544.690000	1161.968750	902.081909
29559.741489	-1544.690000	1160.840820	1157.375854
29559.741489	-1544.690000	1159.711914	1127.083984
29559.741489	-1544.690000	1158.583008	1066.122070
29559.741489	-1544.690000	1157.453125	1089.633789
29559.741489	-1544.690000	1156.324219	1096.914917
29559.741489	-1544.690000	1155.194336	958.939331
29559.741489	-1544.690000	1154.064453	831.486755
29559.741489	-1544.690000	1152.933594	779.921387
29559.741489	-1544.690000	1151.803711	636.127747
29559.741489	-1544.690000	1150.672852	546.015625
29559.741489	-1544.690000	1149.541992	396.384583
29559.741489	-1544.690000	1148.411133	455.225250
29559.741489	-1544.690000	1147.279297	282.055023
29559.741489	-1544.690000	1146.147461	281.436554
29559.741489	-1544.690000	1145.015625	225.667236
29559.741489	-1544.690000	1143.883789	180.273911
29559.741489	-1544.690000	1142.750977	147.034653
29559.741489	-1544.690000	1141.619141	103.524681
29559.741489	-1544.690000	1140.486328	89.080391
29559.741489	-1544.690000	1139.352539	-64.533592
29559.741489	-1544.690000	1138.219727	-51.605751
29559.741489	-1544.690000	1137.085938	-106.239189
29559.741489	-1544.690000	1135.952148	-44.008305
29559.741489	-1544.690000	1134.818359	-32.580063
29559.741489	-1544.690000	1133.683594	28.836222
29559.741489	-1544.690000	1132.549805	55.503502
29559.741489	-1544.690000	1131.415039	183.703293
29559.741489	-1544.690000	1130.279297	142.111374
29559.741489	-1544.690000	1129.144531	202.199310
29559.741489	-1544.690000	1128.008789	212.253891
29559.741489	-1544.690000	1126.873047	208.772186
29559.741489	-1544.690000	1125.737305	113.268379
29559.741489	-1544.690000	1124.601563	181.930069
29559.741489	-1544.690000	1123.464844	140.843185
29559.741489	-1544.690000	1122.328125	117.911644
29559.741489	-1544.690000	1121.191406	142.510010
29559.741489	-1544.690000	1120.054688	89.705734
29559.741489	-1544.690000	1118.916992	50.171658
29559.741489	-1544.690000	1117.779297	69.091034
29559.741489	-1544.690000	1116.641602	-56.267975
29559.741489	-1544.690000	1115.503906	13.369628
29559.741489	-1544.690000	1114.365234	-2.326334
29559.741489	-1544.690000	1113.226563	75.648796
29559.741489	-1544.690000	1112.087891	54.445026
29559.741489	-1544.690000	1110.949219	22.408669
29559.741489	-1544.690000	1109.809570	68.352539
29559.741489	-1544.690000	1108.669922	52.487446
29559.741489	-1544.690000	1107.530273	-73.151802
29559.741489	-1544.690000	1106.390625	21.967640
29559.741489	-1544.690000	1105.250000	-26.025080
29559.741489	-1544.690000	1104.109375	23.421785
29559.741489	-1544.690000	1102.968750	-123.317101
29559.741489	-1544.690000	1101.828125	-12.721561
29559.741489	-1544.690000	1100.686523	-24.043394
29559.741489	-1544.690000	1099.544922	38.563709
29559.741489	-1544.690000	1098.403320	80.009583
29559.741489	-1544.690000	1097.261719	68.266571
29559.741489	-1544.690000	1096.120117	137.678116
29559.741489	-1544.690000	1094.977539	-22.842644
29559.741489	-1544.690000	1093.834961	89.296852
29559.741489	-1544.690000	1092.691406	185.081482
29559.741489	-1544.690000	1091.548828	83.724174
29559.741489	-1544.690000	1090.405273	192.374176
29559.741489	-1544.690000	1089.261719	203.495728
29559.741489	-1544.690000	1088.118164	216.116913
29559.741489	-1544.690000	1086.973633	314.051086
29559.741489	-1544.690000	1085.829102	337.538971
29559.741489	-1544.690000	1084.684570	121.216080
29559.741489	-1544.690000	1083.540039	80.900520
29559.741489	-1544.690000	1082.395508	150.692139
29559.741489	-1544.690000	1081.250000	41.453041
29559.741489	-1544.690000	1080.104492	47.124317
29559.741489	-1544.690000	1078.958984	90.293144
29559.741489	-1544.690000	1077.812500	62.172131
29559.741489	-1544.690000	1076.666016	-123.467445
29559.741489	-1544.690000	1075.519531	-37.178513
29559.741489	-1544.690000	1074.373047	75.828270
29559.741489	-1544.690000	1073.226563	-22.445816
29559.741489	-1544.690000	1072.079102	125.605743
29559.741489	-1544.690000	1070.931641	73.670441
29559.741489	-1544.690000	1069.784180	30.172409
29559.741489	-1544.690000	1068.635742	33.826008
29559.741489	-1544.690000	1067.487305	-28.867693
29559.741489	-1544.690000	1066.338867	95.120941
29559.741489	-1544.690000	1065.190430	7.082280
29559.741489	-1544.690000	1064.041992	14.609939
29559.741489	-1544.690000	1062.892578	-76.588699
29559.741489	-1544.690000	1061.743164	21.614590
29559.741489	-1544.690000	1060.593750	108.891548
29559.741489	-1544.690000	1059.443359	-64.424530
29559.741489	-1544.690000	1058.292969	63.716557
29559.741489	-1544.690000	1057.142578	38.635994
29559.741489	-1544.690000	1055.992188	92.876656
29559.741489	-1544.690000	1054.841797	36.506798
29559.741489	-1544.690000	1053.690430	-96.781036
29559.741489	-1544.690000	1052.539063	-60.933041
29559.741489	-1544.690000	1051.387695	64.524841
29559.741489	-1544.690000	1050.235352	-98.210052
29559.741489	-1544.690000	1049.083984	52.690517
29559.741489	-1544.690000	1047.931641	21.138844
29559.741489	-1544.690000	1046.778320	-20.646959
29559.741489	-1544.690000	1045.625977	-15.426797
29559.741489	-1544.690000	1044.472656	-47.134266
29559.741489	-1544.690000	1043.319336	-122.300194
29559.741489	-1544.690000	1042.166016	-52.646767
29559.741489	-1544.690000	1041.012695	-44.307793
29559.741489	-1544.690000	1039.858398	-131.118896
29559.741489	-1544.690000	1038.704102	90.075783
29559.741489	-1544.690000	1037.549805	64.673706
29559.741489	-1544.690000	1036.394531	-6.100778
29559.741489	-1544.690000	1035.239258	50.574329
29559.741489	-1544.690000	1034.083984	7.720529
29559.741489	-1544.690000	1032.928711	-44.734901
29559.741489	-1544.690000	1031.773438	81.585518
29559.741489	-1544.690000	1030.617188	-88.695572
29559.741489	-1544.690000	1029.460938	-23.097759
29559.741489	-1544.690000	1028.304688	-62.915924
29559.741489	-1544.690000	1027.147461	110.609718
29559.741489	-1544.690000	1025.991211	156.357697
29559.741489	-1544.690000	1024.833984	2.744000
29559.741489	-1544.690000	1023.675781	89.891144
29559.741489	-1544.690000	1022.518555	-54.921715
29559.741489	-1544.690000	1021.360352	-31.777327
29559.741489	-1544.690000	1020.202148	-81.027016
29559.741489	-1544.690000	1019.043945	-60.331806
29559.741489	-1544.690000	1017.884766	-148.312515
29559.741489	-1544.690000	1016.726563	-51.882000
29559.741489	-1544.690000	1015.567383	5.665251
29559.741489	-1544.690000	1014.407227	5.161788
29559.741489	-1544.690000	1013.248047	-105.500359
29559.741489	-1544.690000	1012.087891	73.029671
29559.741489	-1544.690000	1010.927734	38.805149
29559.741489	-1544.690000	1009.767578	76.434143
29559.741489	-1544.690000	1008.606445	-47.962658
29559.741489	-1544.690000	1007.446289	-50.822960
29559.741489	-1544.690000	1006.285156	2.856631
29559.741489	-1544.690000	1005.123047	97.951195
29559.741489	-1544.690000	1003.961914	83.999313
29559.741489	-1544.690000	1002.799805	103.138000
29559.741489	-1544.690000	1001.637695	65.316345
29559.741489	-1544.690000	1000.475586	72.465698
29559.741489	-1544.690000	999.312500	102.438477
29559.741489	-1544.690000	998.149414	112.873817
29559.741489	-1544.690000	996.986328	57.978970
29559.741489	-1544.690000	995.823242	-121.864014
29559.741489	-1544.690000	994.659180	91.441803
29559.741489	-1544.690000	993.496094	61.921440
29559.741489	-1544.690000	992.332031	81.494133
29559.741489	-1544.690000	991.166992	25.539904
29559.741489	-1544.690000	990.002930	138.975082
29559.741489	-1544.690000	988.837891	-28.186037
29559.741489	-1544.690000	987.672852	-6.594049
29559.741489	-1544.690000	986.506836	77.467453
29559.741489	-1544.690000	985.341797	-23.031240
29559.741489	-1544.690000	984.175781	-31.802135
29559.741489	-1544.690000	983.009766	188.330994
29559.741489	-1544.690000	981.843750	50.097900
29559.741489	-1544.690000	980.676758	86.929718
29559.741489	-1544.690000	979.509766	-129.614899
29559.741489	-1544.690000	978.342773	18.075161
29559.741489	-1544.690000	977.175781	25.717001
29559.741489	-1544.690000	976.007813	22.258253
29559.741489	-1544.690000	974.839844	-20.905888
29559.741489	-1544.690000	973.671875	3.723423
29559.741489	-1544.690000	972.503906	-115.081047
29559.741489	-1544.690000	971.334961	43.794765
29559.741489	-1544.690000	970.166016	87.203690
29559.741489	-1544.690000	968.997070	-70.068314
29559.741489	-1544.690000	967.828125	19.007416
29559.741489	-1544.690000	966.658203	-85.198814
29559.741489	-1544.690000	965.488281	4.586852
29559.741489	-1544.690000	964.318359	20.040529
29559.741489	-1544.690000	963.148438	-177.065460
29559.741489	-1544.690000	961.977539	-78.075256
29559.741489	-1544.690000	960.806641	-0.225618
29559.741489	-1544.690000	959.635742	-94.761810
29559.741489	-1544.690000	958.463867	-0.476249
29559.741489	-1544.690000	957.292969	68.015770
29559.741489	-1544.690000	956.121094	41.750134
29559.741489	-1544.690000	954.948242	134.858002
29559.741489	-1544.690000	953.776367	8.642175
29559.741489	-1544.690000	952.603516	-9.057367
29559.741489	-1544.690000	951.430664	-81.961090
29559.741489	-1544.690000	950.257813	-83.970482
29559.741489	-1544.690000	949.084961	-25.355190
29559.741489	-1544.690000	947.911133	-8.220779
29559.741489	-1544.690000	946.737305	21.077122
29559.741489	-1544.690000	945.563477	62.689770
29559.741489	-1544.690000	944.388672	-62.063160
29559.741489	-1544.690000	943.213867	-26.208614
29559.741489	-1544.690000	942.039063	-7.430293
29559.741489	-1544.690000	940.864258	-66.920189
29559.741489	-1544.690000	939.688477	-16.645311
29559.741489	-1544.690000	938.513672	52.632256
29559.741489	-1544.690000	937.337891	155.730026
29559.741489	-1544.690000	936.161133	-175.789154
29559.741489	-1544.690000	934.985352	-30.613527
29559.741489	-1544.690000	933.808594	19.549425
29559.741489	-1544.690000	932.631836	86.691971
29559.741489	-1544.690000	931.454102	-19.289238
29559.741489	-1544.690000	930.277344	111.003624
29559.741489	-1544.690000	929.099609	-47.612152
29559.741489	-1544.690000	927.921875	-73.376152
29559.741489	-1544.690000	926.743164	-29.634474
29559.741489	-1544.690000	925.565430	-51.217674
29559.741489	-1544.690000	924.386719	110.512230
29559.741489	-1544.690000	923.208008	-79.685776
29559.741489	-1544.690000	922.028320	84.080963
29559.741489	-1544.690000	920.849609	26.619173
29559.741489	-1544.690000	919.669922	27.358248
29559.741489	-1544.690000	919.474609	91.423729
29559.741489	-1544.690000	918.309570	156.056808
29559.741489	-1544.690000	917.143555	-69.829758
29559.741489	-1544.690000	915.977539	-1.007700
29559.741489	-1544.690000	914.810547	36.213398
29559.741489	-1544.690000	913.644531	138.618423
29559.741489	-1544.690000	912.477539	66.403702
29559.741489	-1544.690000	911.310547	-9.998810
29559.741489	-1544.690000	910.143555	54.476200
29559.741489	-1544.690000	908.975586	-32.424759
29559.741489	-1544.690000	907.807617	-70.966003
29559.741489	-1544.690000	906.639648	39.674129
29559.741489	-1544.690000	905.471680	-59.805244
29559.741489	-1544.690000	904.303711	145.278381
29559.741489	-1544.690000	903.134766	150.789124
29559.741489	-1544.690000	901.965820	66.016418
29559.741489	-1544.690000	900.796875	14.852729
29559.741489	-1544.690000	899.626953	16.164604
29559.741489	-1544.690000	898.457031	80.411407
29559.741489	-1544.690000	897.287109	-6.406975
29559.741489	-1544.690000	896.117188	-19.794098
29559.741489	-1544.690000	894.947266	-43.666103
29559.741489	-1544.690000	893.776367	16.320078
29559.741489	-1544.690000	892.605469	65.796684
29559.741489	-1544.690000	891.434570	39.808506
29559.741489	-1544.690000	890.262695	-9.219875
29559.741489	-1544.690000	889.091797	-77.085327
29559.741489	-1544.690000	887.919922	87.532166
29559.741489	-1544.690000	886.748047	21.759964
29559.741489	-1544.690000	885.575195	-18.868479
29559.741489	-1544.690000	884.403320	45.163456
29559.741489	-1544.690000	883.230469	15.002405
29559.741489	-1544.690000	882.057617	122.929054
29559.741489	-1544.690000	880.883789	-131.048569
29559.741489	-1544.690000	879.710938	-16.867435
29559.741489	-1544.690000	878.537109	5.269920
29559.741489	-1544.690000	877.362305	163.271530
29559.741489	-1544.690000	876.188477	168.640320
29559.741489	-1544.690000	875.013672	79.977005
29559.741489	-1544.690000	873.839844	-102.660805
29559.741489	-1544.690000	872.664063	61.496906
29559.741489	-1544.690000	871.489258	-16.650351
29559.741489	-1544.690000	870.313477	57.646046
29559.741489	-1544.690000	869.138672	21.279640
29559.741489	-1544.690000	867.962891	-146.549301
29559.741489	-1544.690000	866.786133	-7.587080
29559.741489	-1544.690000	865.610352	-23.053457
29559.741489	-1544.690000	864.433594	-140.710083
29559.741489	-1544.690000	863.256836	-181.162094
29559.741489	-1544.690000	862.079102	-92.336052
29559.741489	-1544.690000	860.902344	-66.076782
29559.741489	-1544.690000	859.724609	64.373123
29559.741489	-1544.690000	858.546875	63.509083
29559.741489	-1544.690000	857.368164	31.402060
29559.741489	-1544.690000	856.190430	113.858582
29559.741489	-1544.690000	855.011719	-34.846390
29559.741489	-1544.690000	853.833008	12.205894
29559.741489	-1544.690000	852.654297	77.975105
29559.741489	-1544.690000	851.474609	-4.027400
29559.741489	-1544.690000	850.294922	38.840248
29559.741489	-1544.690000	849.115234	75.454704
29559.741489	-1544.690000	847.935547	74.624237
29559.741489	-1544.690000	846.754883	-23.926901
29559.741489	-1544.690000	845.575195	-80.856163
29559.741489	-1544.690000	844.393555	28.517145
29559.741489	-1544.690000	843.212891	11.092716
29559.741489	-1544.690000	842.032227	-72.800735
29559.741489	-1544.690000	840.850586	-94.340347
29559.741489	-1544.690000	839.668945	106.342697
29559.741489	-1544.690000	838.486328	-35.637230
29559.741489	-1544.690000	837.304688	-77.912300
29559.741489	-1544.690000	836.122070	-47.523949
29559.741489	-1544.690000	834.939453	-12.991575
29559.741489	-1544.690000	833.756836	33.979832
29559.741489	-1544.690000	832.573242	-124.401627
29559.741489	-1544.690000	831.389648	-98.150520
29559.741489	-1544.690000	830.206055	8.954424
29559.741489	-1544.690000	829.022461	111.875664
29559.741489	-1544.690000	827.838867	-21.496119
29559.741489	-1544.690000	826.654297	95.906548
29559.741489	-1544.690000	825.469727	-20.820621
29559.741489	-1544.690000	824.284180	26.128119
29559.741489	-1544.690000	823.099609	79.276627
29559.741489	-1544.690000	821.914063	-169.854462
29559.741489	-1544.690000	820.728516	133.781189
29559.741489	-1544.690000	819.542969	-11.771977
29559.741489	-1544.690000	818.356445	64.127213
29559.741489	-1544.690000	817.169922	177.236496
29559.741489	-1544.690000	815.983398	-13.714651
29559.741489	-1544.690000	814.796875	-72.244827
29559.741489	-1544.690000	813.609375	-48.051239
29559.741489	-1544.690000	812.422852	141.489410
29559.741489	-1544.690000	811.235352	142.910965
29559.741489	-1544.690000	810.046875	195.990219
29559.741489	-1544.690000	808.859375	71.410973
29559.741489	-1544.690000	807.670898	238.080109
29559.741489	-1544.690000	806.482422	-74.335114
29559.741489	-1544.690000	805.293945	123.272644
29559.741489	-1544.690000	804.104492	89.649025
29559.741489	-1544.690000	802.915039	159.218582
29559.741489	-1544.690000	801.725586	104.982643
29559.741489	-1544.690000	800.536133	54.900555
29559.741489	-1544.690000	799.345703	70.835129
29559.741489	-1544.690000	798.155273	158.930115
29559.741489	-1544.690000	796.964844	224.319122
29559.741489	-1544.690000	795.774414	30.011755
29559.741489	-1544.690000	794.583008	179.890839
29559.741489	-1544.690000	793.392578	103.106209
29559.741489	-1544.690000	792.200195	219.963898
29559.741489	-1544.690000	791.008789	-23.583254
29559.741489	-1544.690000	789.816406	-100.264069
29559.741489	-1544.690000	788.625000	113.317818
29559.741489	-1544.690000	787.432617	166.297333
29559.741489	-1544.690000	786.239258	50.544365
29559.741489	-1544.690000	785.046875	-17.845551
29559.741489	-1544.690000	783.853516	4.288877
29559.741489	-1544.690000	782.660156	-14.707607
29559.741489	-1544.690000	781.465820	3.311424
29559.741489	-1544.690000	780.272461	-3.339796
29559.741489	-1544.690000	779.078125	-151.776855
29559.741489	-1544.690000	777.883789	12.135489
29559.741489	-1544.690000	776.688477	-56.130211
29559.741489	-1544.690000	775.494141	-23.737782
29559.741489	-1544.690000	774.298828	-124.817490
29559.741489	-1544.690000	773.103516	22.533934
29559.741489	-1544.690000	771.907227	-90.826706
29559.741489	-1544.690000	770.711914	56.456242
29559.741489	-1544.690000	769.515625	74.432190
29559.741489	-1544.690000	768.318359	-30.665844
29559.741489	-1544.690000	767.122070	67.294151
29559.741489	-1544.690000	765.924805	241.071503
29559.741489	-1544.690000	764.727539	43.756901
29559.741489	-1544.690000	763.530273	94.498398
29559.741489	-1544.690000	762.333008	137.019699
29559.741489	-1544.690000	761.134766	138.549622
29559.741489	-1544.690000	759.936523	78.631943
29559.741489	-1544.690000	758.738281	69.926888
29559.741489	-1544.690000	757.540039	302.797302
29559.741489	-1544.690000	756.340820	343.163818
29559.741489	-1544.690000	755.141602	504.245544
29559.741489	-1544.690000	753.942383	479.069794
29559.741489	-1544.690000	752.742188	683.001099
29559.741489	-1544.690000	751.541992	600.522156
29559.741489	-1544.690000	750.341797	622.349731
29559.741489	-1544.690000	749.141602	568.521484
29559.741489	-1544.690000	747.941406	289.884094
29559.741489	-1544.690000	746.740234	307.651031
29559.741489	-1544.690000	745.539063	239.594589
29559.741489	-1544.690000	744.337891	100.066307
29559.741489	-1544.690000	743.135742	85.157578
29559.741489	-1544.690000	741.933594	235.622635
29559.741489	-1544.690000	740.731445	139.017075
29559.741489	-1544.690000	739.529297	368.978058
29559.741489	-1544.690000	738.326172	258.076904
29559.741489	-1544.690000	737.124023	161.488693
29559.741489	-1544.690000	735.919922	150.589996
29559.741489	-1544.690000	734.716797	300.775085
29559.741489	-1544.690000	733.513672	377.487762
29559.741489	-1544.690000	732.309570	250.322250
29559.741489	-1544.690000	731.105469	245.466370
29559.741489	-1544.690000	729.900391	191.697372
29559.741489	-1544.690000	728.696289	235.709991
29559.741489	-1544.690000	727.491211	206.369324
29559.741489	-1544.690000	726.286133	83.357399
29559.741489	-1544.690000	725.080078	123.238480
29559.741489	-1544.690000	723.874023	97.952919
29559.741489	-1544.690000	722.668945	84.865944
29559.741489	-1544.690000	721.461914	22.936584
29559.741489	-1544.690000	720.255859	-167.134293
29559.741489	-1544.690000	719.048828	-84.641998
29559.741489	-1544.690000	717.841797	54.722534
29559.741489	-1544.690000	716.634766	61.874207
29559.741489	-1544.690000	715.427734	-26.521593
29559.741489	-1544.690000	714.219727	-139.287994
29559.741489	-1544.690000	713.011719	40.502296
29559.741489	-1544.690000	711.803711	-35.723621
29559.741489	-1544.690000	710.594727	-95.699593
29559.741489	-1544.690000	709.385742	-56.197491
29559.741489	-1544.690000	708.176758	103.017883
29559.741489	-1544.690000	706.967773	-117.354401
29559.741489	-1544.690000	705.758789	-79.988335
29559.741489	-1544.690000	704.548828	8.044717
29559.741489	-1544.690000	703.338867	55.448086
29559.741489	-1544.690000	702.127930	43.997520
29559.741489	-1544.690000	700.917969	36.573643
29559.741489	-1544.690000	699.707031	250.043015
29559.741489	-1544.690000	698.496094	191.852737
29559.741489	-1544.690000	697.285156	127.574898
29559.741489	-1544.690000	696.073242	99.748299
29559.741489	-1544.690000	694.861328	213.655075
29559.741489	-1544.690000	693.649414	90.589981
29559.741489	-1544.690000	692.436523	210.450134
29559.741489	-1544.690000	691.224609	200.697174
29559.741489	-1544.690000	690.011719	126.160599
29559.741489	-1544.690000	688.798828	45.547009
29559.741489	-1544.690000	687.584961	-18.892113
29559.741489	-1544.690000	686.372070	120.891556
29559.741489	-1544.690000	685.158203	17.969959
29559.741489	-1544.690000	683.943359	86.857994
29559.741489	-1544.690000	682.729492	137.487976
29559.741489	-1544.690000	681.514648	309.278839
29559.741489	-1544.690000	680.299805	18.371964
29559.741489	-1544.690000	679.084961	-110.889977
29559.741489	-1544.690000	677.869141	202.052368
29559.741489	-1544.690000	676.653320	181.726257
29559.741489	-1544.690000	675.437500	183.564209
29559.741489	-1544.690000	674.221680	181.318573
29559.741489	-1544.690000	673.004883	17.629114
29559.741489	-1544.690000	671.789063	13.306784
29559.741489	-1544.690000	670.571289	77.500526
29559.741489	-1544.690000	669.354492	-11.611135
29559.741489	-1544.690000	668.136719	82.698097
29559.741489	-1544.690000	666.919922	64.059296
29559.741489	-1544.690000	665.701172	57.464733
29559.741489	-1544.690000	664.483398	197.879562
29559.741489	-1544.690000	663.264648	40.101570
29559.741489	-1544.690000	662.045898	115.918312
29559.741489	-1544.690000	660.827148	119.174507
29559.741489	-1544.690000	659.608398	27.774921
29559.741489	-1544.690000	658.388672	79.235420
29559.741489	-1544.690000	657.168945	86.356964
29559.741489	-1544.690000	655.949219	-1.121175
29559.741489	-1544.690000	654.728516	1.879264
29559.741489	-1544.690000	653.507813	65.141815
29559.741489	-1544.690000	652.287109	154.453644
29559.741489	-1544.690000	651.066406	215.532593
29559.741489	-1544.690000	649.844727	-36.936783
29559.741489	-1544.690000	648.623047	-12.121889
29559.741489	-1544.690000	647.401367	24.675127
29559.741489	-1544.690000	646.179688	75.453888
29559.741489	-1544.690000	644.957031	65.919830
29559.741489	-1544.690000	643.734375	222.932129
29559.741489	-1544.690000	642.511719	245.359604
29559.741489	-1544.690000	641.289063	295.806396
29559.741489	-1544.690000	640.065430	147.576462
29559.741489	-1544.690000	638.841797	157.787048
29559.741489	-1544.690000	637.618164	264.178070
29559.741489	-1544.690000	636.393555	57.724789
29559.741489	-1544.690000	635.168945	194.029953
29559.741489	-1544.690000	633.944336	173.912689
29559.741489	-1544.690000	632.719727	125.693558
29559.741489	-1544.690000	631.494141	75.425781
29559.741489	-1544.690000	630.269531	173.309906
29559.741489	-1544.690000	629.042969	311.127441
29559.741489	-1544.690000	627.817383	308.703003
29559.741489	-1544.690000	626.590820	204.146454
29559.741489	-1544.690000	625.365234	259.643188
29559.741489	-1544.690000	624.137695	225.026443
29559.741489	-1544.690000	622.911133	470.368073
29559.741489	-1544.690000	621.683594	315.614532
29559.741489	-1544.690000	620.456055	242.828842
29559.741489	-1544.690000	619.228516	285.937805
29559.741489	-1544.690000	618.000977	215.058044
29559.741489	-1544.690000	616.772461	-19.689215
29559.741489	-1544.690000	615.543945	161.078201
29559.741489	-1544.690000	614.314453	223.873016
29559.741489	-1544.690000	613.085938	378.425293
29559.741489	-1544.690000	611.856445	433.032867
29559.741489	-1544.690000	610.626953	361.816498
29559.741489	-1544.690000	609.397461	290.565857
29559.741489	-1544.690000	608.166992	187.358459
29559.741489	-1544.690000	606.936523	2.354861
29559.741489	-1544.690000	605.706055	-9.147894
29559.741489	-1544.690000	604.474609	-46.630947
29559.741489	-1544.690000	603.244141	-28.347174
29559.741489	-1544.690000	602.012695	-145.651184
29559.741489	-1544.690000	600.780273	-121.511101
29559.741489	-1544.690000	599.548828	-51.625725
29559.741489	-1544.690000	598.316406	-99.338661
29559.741489	-1544.690000	597.083984	-145.103088
29559.741489	-1544.690000	595.851563	-157.068024
29559.741489	-1544.690000	594.618164	-79.530251
29559.741489	-1544.690000	593.384766	155.112442
29559.741489	-1544.690000	592.151367	81.230141
29559.741489	-1544.690000	590.917969	53.066002
29559.741489	-1544.690000	589.683594	56.666920
29559.741489	-1544.690000	588.449219	241.130508
29559.741489	-1544.690000	587.214844	373.774689
29559.741489	-1544.690000	585.979492	862.031067
29559.741489	-1544.690000	584.745117	805.613403
29559.741489	-1544.690000	583.509766	564.415527
29559.741489	-1544.690000	582.273438	450.366638
29559.741489	-1544.690000	581.038086	393.897644
29559.741489	-1544.690000	579.801758	402.904205
29559.741489	-1544.690000	578.565430	282.841370
29559.741489	-1544.690000	577.329102	275.883728
29559.741489	-1544.690000	576.091797	197.449097
29559.741489	-1544.690000	574.854492	150.731033
29559.741489	-1544.690000	573.617188	100.015053
29559.741489	-1544.690000	572.378906	98.831680
29559.741489	-1544.690000	571.141602	57.957851
29559.741489	-1544.690000	569.903320	106.229675
29559.741489	-1544.690000	568.664063	83.096703
29559.741489	-1544.690000	567.425781	0.501682
29559.741489	-1544.690000	566.186523	-4.868334
29559.741489	-1544.690000	564.947266	31.300858
29559.741489	-1544.690000	563.708008	37.714390
29559.741489	-1544.690000	562.467773	-114.266708
29559.741489	-1544.690000	561.227539	165.166565
29559.741489	-1544.690000	559.987305	315.840515
29559.741489	-1544.690000	558.747070	134.101974
29559.741489	-1544.690000	557.505859	343.960876
29559.741489	-1544.690000	556.264648	229.435425
29559.741489	-1544.690000	555.023438	205.852020
29559.741489	-1544.690000	553.781250	10.297244
29559.741489	-1544.690000	552.539063	-86.413658
29559.741489	-1544.690000	551.296875	-34.955200
29559.741489	-1544.690000	550.054688	-86.254807
29559.741489	-1544.690000	548.811523	-119.796219
29559.741489	-1544.690000	547.569336	-218.497192
29559.741489	-1544.690000	546.325195	-163.238800
29559.741489	-1544.690000	545.082031	-177.093811
29559.741489	-1544.690000	543.837891	-183.081757
29559.741489	-1544.690000	542.593750	-226.569687
29559.741489	-1544.690000	541.349609	-66.935059
29559.741489	-1544.690000	540.105469	-76.954750
29559.741489	-1544.690000	538.860352	23.394855
29559.741489	-1544.690000	537.615234	3.462213
29559.741489	-1544.690000	536.369141	-34.217819
29559.741489	-1544.690000	535.124023	-4.912108
29559.741489	-1544.690000	533.877930	-1.242839
29559.741489	-1544.690000	532.631836	165.851440
29559.741489	-1544.690000	531.384766	279.702515
29559.741489	-1544.690000	530.138672	149.431290
29559.741489	-1544.690000	528.891602	139.243744
29559.741489	-1544.690000	527.643555	302.184937
29559.741489	-1544.690000	526.396484	221.144882
29559.741489	-1544.690000	525.148438	102.766106
29559.741489	-1544.690000	523.900391	112.238571
29559.741489	-1544.690000	522.652344	237.688446
29559.741489	-1544.690000	521.403320	105.620438
29559.741489	-1544.690000	520.154297	-20.492727
29559.741489	-1544.690000	518.905273	138.307159
29559.741489	-1544.690000	517.656250	8.325490
29559.741489	-1544.690000	516.406250	170.988403
29559.741489	-1544.690000	515.156250	43.032768
29559.741489	-1544.690000	513.906250	345.000793
29559.741489	-1544.690000	512.655273	350.526215
29559.741489	-1544.690000	511.404297	660.170105
29559.741489	-1544.690000	510.153320	1036.391113
29559.741489	-1544.690000	508.902344	1339.907837
29559.741489	-1544.690000	507.650391	1694.286499
29559.741489	-1544.690000	506.398438	1556.504150
29559.741489	-1544.690000	505.146484	1412.924805
29559.741489	-1544.690000	503.893555	1024.497681
29559.741489	-1544.690000	502.641602	622.556274
29559.741489	-1544.690000	501.388672	379.458313
29559.741489	-1544.690000	500.134766	340.140625
29559.741489	-1544.690000	498.881836	167.749481
29559.741489	-1544.690000	497.627930	91.370773
29559.741489	-1544.690000	496.374023	138.345490
29559.741489	-1544.690000	495.119141	177.506271
29559.741489	-1544.690000	493.865234	71.943916
29559.741489	-1544.690000	492.610352	74.022820
29559.741489	-1544.690000	491.355469	119.157471
29559.741489	-1544.690000	490.099609	95.892448
29559.741489	-1544.690000	488.843750	100.043015
29559.741489	-1544.690000	487.587891	420.779938
29559.741489	-1544.690000	486.332031	505.046478
29559.741489	-1544.690000	485.075195	792.445801
29559.741489	-1544.690000	483.818359	1062.196655
29559.741489	-1544.690000	482.561523	1298.693359
29559.741489	-1544.690000	481.304688	1644.443359
29559.741489	-1544.690000	480.046875	1549.068481
29559.741489	-1544.690000	478.789063	1447.935547
29559.741489	-1544.690000	477.531250	1243.519165
29559.741489	-1544.690000	476.272461	887.129578
29559.741489	-1544.690000	475.013672	661.584473
29559.741489	-1544.690000	473.754883	527.813965
29559.741489	-1544.690000	472.496094	382.467163
29559.741489	-1544.690000	471.236328	350.251282
29559.741489	-1544.690000	469.976563	364.863953
29559.741489	-1544.690000	468.716797	465.228119
29559.741489	-1544.690000	467.456055	209.262695
29559.741489	-1544.690000	466.196289	80.017006
29559.741489	-1544.690000	464.935547	203.917236
29559.741489	-1544.690000	463.673828	41.764553
29559.741489	-1544.690000	462.413086	72.359154
29559.741489	-1544.690000	461.151367	147.737610
29559.741489	-1544.690000	459.889648	141.469574
29559.741489	-1544.690000	458.626953	45.825790
29559.741489	-1544.690000	457.364258	160.225204
29559.741489	-1544.690000	456.101563	175.521973
29559.741489	-1544.690000	454.838867	12.115066
29559.741489	-1544.690000	453.575195	163.541122
29559.741489	-1544.690000	452.312500	180.954636
29559.741489	-1544.690000	451.047852	252.784393
29559.741489	-1544.690000	449.784180	248.933365
29559.741489	-1544.690000	448.519531	252.902863
29559.741489	-1544.690000	447.254883	270.512329
29559.741489	-1544.690000	445.990234	210.566086
29559.741489	-1544.690000	444.725586	241.865875
29559.741489	-1544.690000	443.459961	407.010620
29559.741489	-1544.690000	442.194336	345.291656
29559.741489	-1544.690000	440.927734	283.646515
29559.741489	-1544.690000	439.662109	433.319641
29559.741489	-1544.690000	438.395508	414.401672
29559.741489	-1544.690000	437.127930	606.682251
29559.741489	-1544.690000	435.861328	390.270325
29559.741489	-1544.690000	434.593750	381.173126
29559.741489	-1544.690000	433.326172	325.653168
29559.741489	-1544.690000	432.058594	475.349823
29559.741489	-1544.690000	430.790039	251.539780
29559.741489	-1544.690000	429.521484	178.753357
29559.741489	-1544.690000	428.252930	278.165466
29559.741489	-1544.690000	426.984375	389.153870
29559.741489	-1544.690000	425.714844	666.375305
29559.741489	-1544.690000	424.445313	728.925110
29559.741489	-1544.690000	423.174805	961.513184
29559.741489	-1544.690000	421.905273	826.895142
29559.741489	-1544.690000	420.634766	688.463867
29559.741489	-1544.690000	419.364258	721.964539
29559.741489	-1544.690000	418.092773	504.416077
29559.741489	-1544.690000	416.822266	526.316711
29559.741489	-1544.690000	415.550781	428.512848
29559.741489	-1544.690000	414.278320	425.262451
29559.741489	-1544.690000	413.006836	366.024902
29559.741489	-1544.690000	411.734375	320.261261
29559.741489	-1544.690000	410.461914	174.183014
29559.741489	-1544.690000	409.188477	137.991882
29559.741489	-1544.690000	407.916016	238.598511
29559.741489	-1544.690000	406.642578	130.947144
29559.741489	-1544.690000	405.368164	285.277313
29559.741489	-1544.690000	404.094727	262.225037
29559.741489	-1544.690000	402.820313	325.731659
29559.741489	-1544.690000	401.545898	302.445129
29559.741489	-1544.690000	400.270508	298.283905
29559.741489	-1544.690000	398.996094	345.949677
29559.741489	-1544.690000	397.720703	295.304749
29559.741489	-1544.690000	396.444336	309.920898
29559.741489	-1544.690000	395.168945	364.747803
29559.741489	-1544.690000	393.892578	413.588654
29559.741489	-1544.690000	392.616211	427.601135
29559.741489	-1544.690000	391.339844	597.081116
29559.741489	-1544.690000	390.062500	635.579285
29559.741489	-1544.690000	388.785156	883.234314
29559.741489	-1544.690000	387.507813	750.197083
29559.741489	-1544.690000	386.229492	1002.944153
29559.741489	-1544.690000	384.951172	809.850342
29559.741489	-1544.690000	383.672852	892.955383
29559.741489	-1544.690000	382.394531	699.342346
29559.741489	-1544.690000	381.115234	637.860657
29559.741489	-1544.690000	379.835938	528.089600
29559.741489	-1544.690000	378.556641	293.325958
29559.741489	-1544.690000	377.277344	322.884583
29559.741489	-1544.690000	375.997070	290.661713
29559.741489	-1544.690000	374.716797	294.434235
29559.741489	-1544.690000	373.435547	221.092087
29559.741489	-1544.690000	372.155273	204.787201
29559.741489	-1544.690000	370.874023	281.836884
29559.741489	-1544.690000	369.591797	277.891937
29559.741489	-1544.690000	368.310547	217.889771
29559.741489	-1544.690000	367.028320	168.819153
29559.741489	-1544.690000	365.746094	69.417877
29559.741489	-1544.690000	364.463867	218.172653
29559.741489	-1544.690000	363.180664	58.226467
29559.741489	-1544.690000	361.897461	218.975967
29559.741489	-1544.690000	360.614258	227.899826
29559.741489	-1544.690000	359.330078	85.056152
29559.741489	-1544.690000	358.045898	81.036140
29559.741489	-1544.690000	356.761719	1.706791
29559.741489	-1544.690000	355.477539	68.693596
29559.741489	-1544.690000	354.192383	41.194569
29559.741489	-1544.690000	352.907227	177.046555
29559.741489	-1544.690000	351.622070	130.551285
29559.741489	-1544.690000	350.336914	-6.587524
29559.741489	-1544.690000	349.050781	25.170010
29559.741489	-1544.690000	347.764648	55.889923
29559.741489	-1544.690000	346.477539	-15.582233
29559.741489	-1544.690000	345.191406	-158.664841
29559.741489	-1544.690000	343.904297	53.703674
29559.741489	-1544.690000	342.616211	1.715452
29559.741489	-1544.690000	341.329102	80.054932
29559.741489	-1544.690000	340.041016	98.007843
29559.741489	-1544.690000	338.752930	-49.183617
29559.741489	-1544.690000	337.463867	-71.983192
29559.741489	-1544.690000	336.175781	-40.919647
29559.741489	-1544.690000	334.886719	-7.530435
29559.741489	-1544.690000	333.596680	-74.649429
29559.741489	-1544.690000	332.307617	-99.478981
29559.741489	-1544.690000	331.017578	-194.406448
29559.741489	-1544.690000	329.727539	79.977386
29559.741489	-1544.690000	328.436523	17.818720
29559.741489	-1544.690000	327.146484	7.213175
29559.741489	-1544.690000	325.855469	-10.925409
29559.741489	-1544.690000	324.563477	-29.050331
29559.741489	-1544.690000	323.272461	9.857800
29559.741489	-1544.690000	321.980469	-84.336441
29559.741489	-1544.690000	320.688477	-64.672287
29559.741489	-1544.690000	319.395508	11.707396
29559.741489	-1544.690000	318.103516	-65.929123
29559.741489	-1544.690000	316.810547	-104.043571
29559.741489	-1544.690000	315.516602	-53.397408
29559.741489	-1544.690000	314.223633	-39.228367
29559.741489	-1544.690000	312.929688	-103.408249
29559.741489	-1544.690000	311.635742	-105.581474
29559.741489	-1544.690000	310.340820	134.190094
29559.741489	-1544.690000	309.045898	20.554510
29559.741489	-1544.690000	307.750977	84.280540
29559.741489	-1544.690000	306.456055	-51.855824
29559.741489	-1544.690000	305.160156	186.081635
29559.741489	-1544.690000	303.865234	169.154205
29559.741489	-1544.690000	302.568359	185.037415
29559.741489	-1544.690000	301.272461	180.828598
29559.741489	-1544.690000	299.975586	237.692505
29559.741489	-1544.690000	298.678711	446.395905
