#X		#Y		#Wave		#Intensity
29677.836702	-1647.520000	1999.980469	-171.130768
29677.836702	-1647.520000	1999.016602	-30.047504
29677.836702	-1647.520000	1998.052734	-116.081436
29677.836702	-1647.520000	1997.087891	30.212927
29677.836702	-1647.520000	1996.123047	-42.223400
29677.836702	-1647.520000	1995.158203	-18.646179
29677.836702	-1647.520000	1994.193359	-87.325165
29677.836702	-1647.520000	1993.228516	41.532078
29677.836702	-1647.520000	1992.262695	-226.356232
29677.836702	-1647.520000	1991.297852	25.114941
29677.836702	-1647.520000	1990.332031	1.243088
29677.836702	-1647.520000	1989.366211	-77.585182
29677.836702	-1647.520000	1988.399414	-85.145187
29677.836702	-1647.520000	1987.433594	144.253326
29677.836702	-1647.520000	1986.466797	-2.818245
29677.836702	-1647.520000	1985.500977	-78.603760
29677.836702	-1647.520000	1984.534180	-31.202299
29677.836702	-1647.520000	1983.567383	89.891365
29677.836702	-1647.520000	1982.599609	64.715813
29677.836702	-1647.520000	1981.632813	123.135178
29677.836702	-1647.520000	1980.665039	-56.014744
29677.836702	-1647.520000	1979.697266	4.090361
29677.836702	-1647.520000	1978.729492	241.596130
29677.836702	-1647.520000	1977.761719	120.651825
29677.836702	-1647.520000	1976.792969	93.206253
29677.836702	-1647.520000	1975.825195	11.130543
29677.836702	-1647.520000	1974.856445	187.856033
29677.836702	-1647.520000	1973.887695	-178.567581
29677.836702	-1647.520000	1972.918945	110.970634
29677.836702	-1647.520000	1971.949219	168.285812
29677.836702	-1647.520000	1970.980469	326.387848
29677.836702	-1647.520000	1970.010742	171.068985
29677.836702	-1647.520000	1969.041016	-43.612843
29677.836702	-1647.520000	1968.071289	86.541985
29677.836702	-1647.520000	1967.101563	241.045364
29677.836702	-1647.520000	1966.130859	15.883360
29677.836702	-1647.520000	1965.161133	49.194565
29677.836702	-1647.520000	1964.190430	271.893890
29677.836702	-1647.520000	1963.219727	235.783600
29677.836702	-1647.520000	1962.249023	206.874496
29677.836702	-1647.520000	1961.277344	163.017807
29677.836702	-1647.520000	1960.306641	214.964432
29677.836702	-1647.520000	1959.334961	-149.065094
29677.836702	-1647.520000	1958.363281	229.731461
29677.836702	-1647.520000	1957.391602	25.367817
29677.836702	-1647.520000	1956.419922	305.328217
29677.836702	-1647.520000	1955.447266	326.905090
29677.836702	-1647.520000	1954.474609	134.496307
29677.836702	-1647.520000	1953.501953	109.142151
29677.836702	-1647.520000	1952.529297	-66.207062
29677.836702	-1647.520000	1951.556641	67.926109
29677.836702	-1647.520000	1950.583984	305.057983
29677.836702	-1647.520000	1949.610352	60.684326
29677.836702	-1647.520000	1948.636719	118.296402
29677.836702	-1647.520000	1947.663086	318.173706
29677.836702	-1647.520000	1946.689453	164.472534
29677.836702	-1647.520000	1945.715820	143.257187
29677.836702	-1647.520000	1944.741211	-62.032539
29677.836702	-1647.520000	1943.767578	260.072205
29677.836702	-1647.520000	1942.792969	246.001770
29677.836702	-1647.520000	1941.818359	187.741013
29677.836702	-1647.520000	1940.842773	92.674210
29677.836702	-1647.520000	1939.868164	-83.290466
29677.836702	-1647.520000	1938.892578	167.178604
29677.836702	-1647.520000	1937.916992	-153.381317
29677.836702	-1647.520000	1936.941406	38.139565
29677.836702	-1647.520000	1935.965820	-54.557274
29677.836702	-1647.520000	1934.990234	-122.758804
29677.836702	-1647.520000	1934.013672	-41.611282
29677.836702	-1647.520000	1933.037109	134.957184
29677.836702	-1647.520000	1932.060547	-21.411097
29677.836702	-1647.520000	1931.083984	-172.839554
29677.836702	-1647.520000	1930.107422	-196.996658
29677.836702	-1647.520000	1929.129883	96.835838
29677.836702	-1647.520000	1928.153320	-149.923248
29677.836702	-1647.520000	1927.175781	-10.254943
29677.836702	-1647.520000	1926.198242	-51.545189
29677.836702	-1647.520000	1925.219727	-7.265625
29677.836702	-1647.520000	1924.242188	-224.478455
29677.836702	-1647.520000	1923.263672	-43.334995
29677.836702	-1647.520000	1922.285156	30.266569
29677.836702	-1647.520000	1921.306641	-1.167531
29677.836702	-1647.520000	1920.328125	11.386390
29677.836702	-1647.520000	1919.349609	114.293709
29677.836702	-1647.520000	1918.370117	-12.281121
29677.836702	-1647.520000	1917.391602	-136.338837
29677.836702	-1647.520000	1916.412109	183.783218
29677.836702	-1647.520000	1915.431641	40.266506
29677.836702	-1647.520000	1914.452148	-186.099152
29677.836702	-1647.520000	1913.472656	19.319002
29677.836702	-1647.520000	1912.492188	-148.375549
29677.836702	-1647.520000	1911.511719	98.468422
29677.836702	-1647.520000	1910.531250	55.199799
29677.836702	-1647.520000	1909.550781	-68.436172
29677.836702	-1647.520000	1908.569336	127.193108
29677.836702	-1647.520000	1907.588867	-23.129564
29677.836702	-1647.520000	1906.607422	-187.974152
29677.836702	-1647.520000	1905.625977	-62.932373
29677.836702	-1647.520000	1904.644531	101.060928
29677.836702	-1647.520000	1903.662109	140.882294
29677.836702	-1647.520000	1902.680664	-65.078896
29677.836702	-1647.520000	1901.698242	164.646484
29677.836702	-1647.520000	1900.715820	-9.529958
29677.836702	-1647.520000	1899.733398	-40.084476
29677.836702	-1647.520000	1898.750000	-160.570374
29677.836702	-1647.520000	1897.767578	39.996628
29677.836702	-1647.520000	1896.784180	-26.886900
29677.836702	-1647.520000	1895.800781	3.524040
29677.836702	-1647.520000	1894.817383	-114.272530
29677.836702	-1647.520000	1893.833984	-35.173176
29677.836702	-1647.520000	1892.850586	60.944992
29677.836702	-1647.520000	1891.866211	-197.535919
29677.836702	-1647.520000	1890.881836	-251.894897
29677.836702	-1647.520000	1889.897461	-53.690853
29677.836702	-1647.520000	1888.913086	-15.726918
29677.836702	-1647.520000	1887.927734	-208.300720
29677.836702	-1647.520000	1886.943359	-2.806621
29677.836702	-1647.520000	1885.958008	88.623390
29677.836702	-1647.520000	1884.972656	-144.971909
29677.836702	-1647.520000	1883.987305	-201.401779
29677.836702	-1647.520000	1883.001953	-61.370022
29677.836702	-1647.520000	1882.015625	175.616669
29677.836702	-1647.520000	1881.029297	-234.600555
29677.836702	-1647.520000	1880.042969	113.879822
29677.836702	-1647.520000	1879.056641	137.597916
29677.836702	-1647.520000	1878.070313	8.730546
29677.836702	-1647.520000	1877.083984	76.128296
29677.836702	-1647.520000	1876.096680	-105.885460
29677.836702	-1647.520000	1875.109375	17.256498
29677.836702	-1647.520000	1874.122070	157.328476
29677.836702	-1647.520000	1873.134766	-259.258545
29677.836702	-1647.520000	1872.146484	-63.474163
29677.836702	-1647.520000	1871.159180	204.843933
29677.836702	-1647.520000	1870.170898	-165.478729
29677.836702	-1647.520000	1869.182617	-160.789368
29677.836702	-1647.520000	1868.194336	119.561104
29677.836702	-1647.520000	1867.205078	-204.531738
29677.836702	-1647.520000	1866.216797	215.953400
29677.836702	-1647.520000	1865.227539	10.418341
29677.836702	-1647.520000	1864.238281	-134.619217
29677.836702	-1647.520000	1863.249023	-11.449767
29677.836702	-1647.520000	1862.259766	-255.418503
29677.836702	-1647.520000	1861.269531	-9.090835
29677.836702	-1647.520000	1860.279297	-137.054703
29677.836702	-1647.520000	1859.290039	-105.644203
29677.836702	-1647.520000	1858.298828	-146.640472
29677.836702	-1647.520000	1857.308594	237.062622
29677.836702	-1647.520000	1856.318359	-158.596481
29677.836702	-1647.520000	1855.327148	-163.357071
29677.836702	-1647.520000	1854.335938	-40.299480
29677.836702	-1647.520000	1853.344727	-76.417526
29677.836702	-1647.520000	1852.353516	27.296904
29677.836702	-1647.520000	1851.362305	306.914398
29677.836702	-1647.520000	1850.370117	135.801102
29677.836702	-1647.520000	1849.377930	-146.078506
29677.836702	-1647.520000	1848.385742	58.726978
29677.836702	-1647.520000	1847.393555	169.520538
29677.836702	-1647.520000	1846.401367	251.366867
29677.836702	-1647.520000	1845.408203	164.647598
29677.836702	-1647.520000	1844.415039	256.067444
29677.836702	-1647.520000	1843.421875	378.724243
29677.836702	-1647.520000	1842.428711	171.680679
29677.836702	-1647.520000	1841.435547	-71.389206
29677.836702	-1647.520000	1840.441406	17.528925
29677.836702	-1647.520000	1839.448242	212.205734
29677.836702	-1647.520000	1838.454102	132.691162
29677.836702	-1647.520000	1837.459961	363.279846
29677.836702	-1647.520000	1836.464844	7.321916
29677.836702	-1647.520000	1835.470703	158.492523
29677.836702	-1647.520000	1834.475586	146.204697
29677.836702	-1647.520000	1833.480469	148.301956
29677.836702	-1647.520000	1832.485352	198.393829
29677.836702	-1647.520000	1831.490234	101.962906
29677.836702	-1647.520000	1830.495117	-13.676210
29677.836702	-1647.520000	1829.499023	161.115494
29677.836702	-1647.520000	1828.502930	199.011780
29677.836702	-1647.520000	1827.506836	-58.266499
29677.836702	-1647.520000	1826.510742	279.427338
29677.836702	-1647.520000	1825.513672	-114.574539
29677.836702	-1647.520000	1824.517578	129.386261
29677.836702	-1647.520000	1823.520508	78.305939
29677.836702	-1647.520000	1822.523438	108.694458
29677.836702	-1647.520000	1821.526367	158.188751
29677.836702	-1647.520000	1820.529297	257.929626
29677.836702	-1647.520000	1819.531250	86.854530
29677.836702	-1647.520000	1818.533203	66.688461
29677.836702	-1647.520000	1817.535156	353.001984
29677.836702	-1647.520000	1816.537109	253.654678
29677.836702	-1647.520000	1815.539063	317.062836
29677.836702	-1647.520000	1814.540039	141.034714
29677.836702	-1647.520000	1813.541992	185.161575
29677.836702	-1647.520000	1812.542969	68.899437
29677.836702	-1647.520000	1811.543945	69.823433
29677.836702	-1647.520000	1810.543945	-3.473277
29677.836702	-1647.520000	1809.544922	78.614853
29677.836702	-1647.520000	1808.544922	-35.448853
29677.836702	-1647.520000	1807.544922	-46.766678
29677.836702	-1647.520000	1806.544922	35.044544
29677.836702	-1647.520000	1805.544922	-31.399576
29677.836702	-1647.520000	1804.544922	-97.903336
29677.836702	-1647.520000	1803.543945	86.321297
29677.836702	-1647.520000	1802.542969	117.557251
29677.836702	-1647.520000	1801.541992	14.986609
29677.836702	-1647.520000	1800.541016	124.818802
29677.836702	-1647.520000	1799.539063	170.075958
29677.836702	-1647.520000	1798.538086	499.185822
29677.836702	-1647.520000	1797.536133	241.172653
29677.836702	-1647.520000	1796.534180	142.978165
29677.836702	-1647.520000	1795.532227	323.753265
29677.836702	-1647.520000	1794.529297	137.156448
29677.836702	-1647.520000	1793.527344	262.833282
29677.836702	-1647.520000	1792.524414	30.828615
29677.836702	-1647.520000	1791.521484	180.100372
29677.836702	-1647.520000	1790.518555	191.018295
29677.836702	-1647.520000	1789.514648	220.877228
29677.836702	-1647.520000	1788.511719	341.128448
29677.836702	-1647.520000	1787.507813	215.950714
29677.836702	-1647.520000	1786.503906	359.741974
29677.836702	-1647.520000	1785.500000	-98.864235
29677.836702	-1647.520000	1784.496094	68.507843
29677.836702	-1647.520000	1783.491211	314.216949
29677.836702	-1647.520000	1782.486328	121.981857
29677.836702	-1647.520000	1781.481445	53.387356
29677.836702	-1647.520000	1780.476563	277.209656
29677.836702	-1647.520000	1779.471680	293.971130
29677.836702	-1647.520000	1778.465820	125.178482
29677.836702	-1647.520000	1777.460938	167.865723
29677.836702	-1647.520000	1776.455078	179.516052
29677.836702	-1647.520000	1775.449219	115.011307
29677.836702	-1647.520000	1774.442383	147.791428
29677.836702	-1647.520000	1773.436523	204.190231
29677.836702	-1647.520000	1772.429688	101.342476
29677.836702	-1647.520000	1771.422852	121.857063
29677.836702	-1647.520000	1770.416016	253.793655
29677.836702	-1647.520000	1769.409180	214.684586
29677.836702	-1647.520000	1768.402344	308.329773
29677.836702	-1647.520000	1767.394531	432.641174
29677.836702	-1647.520000	1766.386719	635.040894
29677.836702	-1647.520000	1765.378906	284.707886
29677.836702	-1647.520000	1764.371094	-65.624245
29677.836702	-1647.520000	1763.362305	1.231396
29677.836702	-1647.520000	1762.354492	-43.456730
29677.836702	-1647.520000	1761.345703	172.377228
29677.836702	-1647.520000	1760.336914	1.830142
29677.836702	-1647.520000	1759.328125	27.807640
29677.836702	-1647.520000	1758.318359	-24.523432
29677.836702	-1647.520000	1757.308594	211.891296
29677.836702	-1647.520000	1756.299805	3.034459
29677.836702	-1647.520000	1755.290039	0.023252
29677.836702	-1647.520000	1754.279297	124.645836
29677.836702	-1647.520000	1753.269531	163.915405
29677.836702	-1647.520000	1752.258789	-234.594543
29677.836702	-1647.520000	1751.249023	-18.178833
29677.836702	-1647.520000	1750.238281	-220.530060
29677.836702	-1647.520000	1749.226563	-21.055271
29677.836702	-1647.520000	1748.215820	0.934031
29677.836702	-1647.520000	1747.204102	15.670279
29677.836702	-1647.520000	1746.193359	-215.464096
29677.836702	-1647.520000	1745.181641	-104.129707
29677.836702	-1647.520000	1744.168945	51.883705
29677.836702	-1647.520000	1743.157227	-0.104982
29677.836702	-1647.520000	1742.144531	18.598331
29677.836702	-1647.520000	1741.132813	77.287720
29677.836702	-1647.520000	1740.120117	34.313038
29677.836702	-1647.520000	1739.106445	54.908127
29677.836702	-1647.520000	1738.093750	-111.018768
29677.836702	-1647.520000	1737.080078	27.234985
29677.836702	-1647.520000	1736.067383	224.255966
29677.836702	-1647.520000	1735.053711	-142.476349
29677.836702	-1647.520000	1734.040039	-193.329727
29677.836702	-1647.520000	1733.025391	-84.052147
29677.836702	-1647.520000	1732.011719	-125.768745
29677.836702	-1647.520000	1730.997070	115.092705
29677.836702	-1647.520000	1729.982422	-44.731373
29677.836702	-1647.520000	1728.967773	-155.188126
29677.836702	-1647.520000	1727.952148	-369.365967
29677.836702	-1647.520000	1726.937500	-254.009613
29677.836702	-1647.520000	1725.921875	37.676529
29677.836702	-1647.520000	1724.906250	-68.609383
29677.836702	-1647.520000	1723.890625	-224.412018
29677.836702	-1647.520000	1722.875000	-1.563147
29677.836702	-1647.520000	1721.858398	-16.511232
29677.836702	-1647.520000	1720.841797	-125.660980
29677.836702	-1647.520000	1719.825195	-300.744476
29677.836702	-1647.520000	1718.808594	-214.991806
29677.836702	-1647.520000	1717.791992	-98.865494
29677.836702	-1647.520000	1716.774414	-48.734470
29677.836702	-1647.520000	1715.756836	-10.516316
29677.836702	-1647.520000	1714.739258	-59.364872
29677.836702	-1647.520000	1713.721680	-49.631214
29677.836702	-1647.520000	1712.704102	63.261333
29677.836702	-1647.520000	1711.685547	171.257736
29677.836702	-1647.520000	1710.667969	-91.745293
29677.836702	-1647.520000	1709.649414	-160.042038
29677.836702	-1647.520000	1708.630859	118.771324
29677.836702	-1647.520000	1707.611328	-15.518882
29677.836702	-1647.520000	1706.592773	-276.524567
29677.836702	-1647.520000	1705.573242	-206.976517
29677.836702	-1647.520000	1704.553711	12.441819
29677.836702	-1647.520000	1703.534180	-173.854797
29677.836702	-1647.520000	1702.513672	33.460472
29677.836702	-1647.520000	1701.494141	-124.931908
29677.836702	-1647.520000	1700.473633	84.359177
29677.836702	-1647.520000	1699.453125	106.065079
29677.836702	-1647.520000	1698.432617	38.643650
29677.836702	-1647.520000	1697.412109	-101.462868
29677.836702	-1647.520000	1696.390625	160.936966
29677.836702	-1647.520000	1695.369141	74.399292
29677.836702	-1647.520000	1694.347656	408.928925
29677.836702	-1647.520000	1693.326172	352.522919
29677.836702	-1647.520000	1692.304688	-190.491684
29677.836702	-1647.520000	1691.282227	377.331970
29677.836702	-1647.520000	1690.260742	425.780792
29677.836702	-1647.520000	1689.238281	142.128220
29677.836702	-1647.520000	1688.214844	-122.865341
29677.836702	-1647.520000	1687.192383	231.353424
29677.836702	-1647.520000	1686.168945	43.285831
29677.836702	-1647.520000	1685.146484	327.011047
29677.836702	-1647.520000	1684.123047	437.668671
29677.836702	-1647.520000	1683.099609	158.236389
29677.836702	-1647.520000	1682.075195	-11.511682
29677.836702	-1647.520000	1681.051758	248.154968
29677.836702	-1647.520000	1680.027344	162.220825
29677.836702	-1647.520000	1679.002930	531.150452
29677.836702	-1647.520000	1677.978516	538.261414
29677.836702	-1647.520000	1676.953125	360.989563
29677.836702	-1647.520000	1675.928711	155.711029
29677.836702	-1647.520000	1674.903320	113.565613
29677.836702	-1647.520000	1673.877930	351.022369
29677.836702	-1647.520000	1672.852539	52.287704
29677.836702	-1647.520000	1671.826172	336.021545
29677.836702	-1647.520000	1670.800781	500.751587
29677.836702	-1647.520000	1669.774414	378.817841
29677.836702	-1647.520000	1668.748047	-43.563938
29677.836702	-1647.520000	1667.721680	453.726776
29677.836702	-1647.520000	1666.694336	168.595642
29677.836702	-1647.520000	1665.667969	455.991272
29677.836702	-1647.520000	1664.640625	510.477478
29677.836702	-1647.520000	1663.613281	360.122070
29677.836702	-1647.520000	1662.585938	393.469513
29677.836702	-1647.520000	1661.557617	547.610657
29677.836702	-1647.520000	1660.530273	578.389526
29677.836702	-1647.520000	1659.501953	715.970764
29677.836702	-1647.520000	1658.473633	328.158997
29677.836702	-1647.520000	1657.444336	695.570251
29677.836702	-1647.520000	1656.416016	491.262146
29677.836702	-1647.520000	1655.386719	658.560852
29677.836702	-1647.520000	1654.358398	537.764587
29677.836702	-1647.520000	1653.328125	834.819153
29677.836702	-1647.520000	1652.298828	1001.695984
29677.836702	-1647.520000	1651.269531	1005.958130
29677.836702	-1647.520000	1650.239258	1049.562866
29677.836702	-1647.520000	1649.208984	1352.917480
29677.836702	-1647.520000	1648.178711	1273.341675
29677.836702	-1647.520000	1647.148438	1307.356812
29677.836702	-1647.520000	1646.117188	1503.572266
29677.836702	-1647.520000	1645.086914	1690.385254
29677.836702	-1647.520000	1644.055664	1633.661621
29677.836702	-1647.520000	1643.024414	1683.488647
29677.836702	-1647.520000	1641.992188	1895.387451
29677.836702	-1647.520000	1640.960938	1715.677856
29677.836702	-1647.520000	1639.928711	1772.182129
29677.836702	-1647.520000	1638.896484	1650.302246
29677.836702	-1647.520000	1637.864258	1588.600342
29677.836702	-1647.520000	1636.832031	1864.802979
29677.836702	-1647.520000	1635.798828	1650.202637
29677.836702	-1647.520000	1634.766602	1690.164551
29677.836702	-1647.520000	1633.733398	1665.260620
29677.836702	-1647.520000	1632.699219	2024.226685
29677.836702	-1647.520000	1631.666016	1735.543579
29677.836702	-1647.520000	1630.632813	1613.384766
29677.836702	-1647.520000	1629.598633	1759.339600
29677.836702	-1647.520000	1628.564453	1949.101440
29677.836702	-1647.520000	1627.530273	1960.824463
29677.836702	-1647.520000	1626.495117	2171.152588
29677.836702	-1647.520000	1625.460938	2399.858154
29677.836702	-1647.520000	1624.425781	2138.844482
29677.836702	-1647.520000	1623.390625	2175.734619
29677.836702	-1647.520000	1622.355469	2667.323242
29677.836702	-1647.520000	1621.319336	2680.922852
29677.836702	-1647.520000	1620.284180	2992.170410
29677.836702	-1647.520000	1619.248047	2987.180420
29677.836702	-1647.520000	1618.211914	3443.480469
29677.836702	-1647.520000	1617.174805	3085.487793
29677.836702	-1647.520000	1616.138672	3135.736572
29677.836702	-1647.520000	1615.101563	3310.401611
29677.836702	-1647.520000	1614.065430	2793.563965
29677.836702	-1647.520000	1613.027344	3260.815430
29677.836702	-1647.520000	1611.990234	3186.476074
29677.836702	-1647.520000	1610.953125	2950.906494
29677.836702	-1647.520000	1609.915039	2830.541504
29677.836702	-1647.520000	1608.876953	2905.926758
29677.836702	-1647.520000	1607.838867	2866.167725
29677.836702	-1647.520000	1606.800781	2745.857666
29677.836702	-1647.520000	1605.761719	2848.781494
29677.836702	-1647.520000	1604.723633	2691.697998
29677.836702	-1647.520000	1603.684570	2603.658447
29677.836702	-1647.520000	1602.644531	2775.512451
29677.836702	-1647.520000	1601.605469	2924.329834
29677.836702	-1647.520000	1600.566406	2820.205322
29677.836702	-1647.520000	1599.526367	3198.790527
29677.836702	-1647.520000	1598.486328	2954.459473
29677.836702	-1647.520000	1597.446289	2742.399170
29677.836702	-1647.520000	1596.405273	2842.822266
29677.836702	-1647.520000	1595.365234	2770.987061
29677.836702	-1647.520000	1594.324219	2508.582520
29677.836702	-1647.520000	1593.283203	2758.262939
29677.836702	-1647.520000	1592.242188	2459.270508
29677.836702	-1647.520000	1591.200195	2747.890137
29677.836702	-1647.520000	1590.159180	2293.032471
29677.836702	-1647.520000	1589.117188	2577.030762
29677.836702	-1647.520000	1588.075195	2558.190186
29677.836702	-1647.520000	1587.032227	2562.291260
29677.836702	-1647.520000	1585.990234	2330.297607
29677.836702	-1647.520000	1584.947266	2527.050537
29677.836702	-1647.520000	1583.904297	2668.757080
29677.836702	-1647.520000	1582.861328	2400.294189
29677.836702	-1647.520000	1581.818359	2374.806152
29677.836702	-1647.520000	1580.775391	2129.484375
29677.836702	-1647.520000	1579.731445	2438.453857
29677.836702	-1647.520000	1578.687500	2451.993652
29677.836702	-1647.520000	1577.643555	2124.498535
29677.836702	-1647.520000	1576.598633	2531.809814
29677.836702	-1647.520000	1575.554688	2273.165771
29677.836702	-1647.520000	1574.509766	2268.592041
29677.836702	-1647.520000	1573.464844	2225.187744
29677.836702	-1647.520000	1572.419922	2403.677246
29677.836702	-1647.520000	1571.374023	2300.903076
29677.836702	-1647.520000	1570.329102	2024.516357
29677.836702	-1647.520000	1569.283203	1940.256104
29677.836702	-1647.520000	1568.237305	1924.643311
29677.836702	-1647.520000	1567.191406	1781.160156
29677.836702	-1647.520000	1566.144531	2174.555176
29677.836702	-1647.520000	1565.098633	2168.231445
29677.836702	-1647.520000	1564.051758	1796.637085
29677.836702	-1647.520000	1563.004883	2066.728516
29677.836702	-1647.520000	1561.957031	1992.127441
29677.836702	-1647.520000	1560.910156	1461.267456
29677.836702	-1647.520000	1559.862305	1767.968628
29677.836702	-1647.520000	1558.814453	1595.612671
29677.836702	-1647.520000	1557.766602	1548.834106
29677.836702	-1647.520000	1556.718750	1607.040649
29677.836702	-1647.520000	1555.669922	1391.726074
29677.836702	-1647.520000	1554.621094	1570.884644
29677.836702	-1647.520000	1553.573242	1656.651123
29677.836702	-1647.520000	1552.523438	1813.057861
29677.836702	-1647.520000	1551.474609	1538.993896
29677.836702	-1647.520000	1550.424805	1722.872681
29677.836702	-1647.520000	1549.375000	1585.717529
29677.836702	-1647.520000	1548.325195	1505.623901
29677.836702	-1647.520000	1547.275391	1673.751587
29677.836702	-1647.520000	1546.225586	1557.455688
29677.836702	-1647.520000	1545.174805	1757.537109
29677.836702	-1647.520000	1544.124023	2025.884033
29677.836702	-1647.520000	1543.073242	1925.792847
29677.836702	-1647.520000	1542.022461	1905.429199
29677.836702	-1647.520000	1540.970703	1737.389282
29677.836702	-1647.520000	1539.919922	1960.491211
29677.836702	-1647.520000	1538.868164	1517.752441
29677.836702	-1647.520000	1537.815430	1759.168701
29677.836702	-1647.520000	1536.763672	2157.364258
29677.836702	-1647.520000	1535.710938	1987.706299
29677.836702	-1647.520000	1534.659180	2020.342041
29677.836702	-1647.520000	1533.606445	2107.553467
29677.836702	-1647.520000	1532.552734	2272.002686
29677.836702	-1647.520000	1531.500000	2018.962646
29677.836702	-1647.520000	1530.446289	2081.507080
29677.836702	-1647.520000	1529.393555	1704.084595
29677.836702	-1647.520000	1528.338867	1995.966919
29677.836702	-1647.520000	1527.285156	1573.594116
29677.836702	-1647.520000	1526.231445	1654.817383
29677.836702	-1647.520000	1525.176758	1783.721069
29677.836702	-1647.520000	1524.122070	1695.145630
29677.836702	-1647.520000	1523.067383	1717.762573
29677.836702	-1647.520000	1522.012695	1584.197998
29677.836702	-1647.520000	1520.957031	1314.909912
29677.836702	-1647.520000	1519.901367	1351.564453
29677.836702	-1647.520000	1518.845703	1922.645264
29677.836702	-1647.520000	1517.790039	1325.651733
29677.836702	-1647.520000	1516.734375	1068.499146
29677.836702	-1647.520000	1515.677734	1463.218384
29677.836702	-1647.520000	1514.621094	842.197327
29677.836702	-1647.520000	1513.564453	1019.966614
29677.836702	-1647.520000	1512.507813	863.136780
29677.836702	-1647.520000	1511.450195	1041.110229
29677.836702	-1647.520000	1510.393555	733.189453
29677.836702	-1647.520000	1509.335938	809.719055
29677.836702	-1647.520000	1508.278320	531.627258
29677.836702	-1647.520000	1507.219727	488.725037
29677.836702	-1647.520000	1506.162109	317.268921
29677.836702	-1647.520000	1505.103516	547.975647
29677.836702	-1647.520000	1504.044922	616.192688
29677.836702	-1647.520000	1502.986328	395.608551
29677.836702	-1647.520000	1501.926758	143.661987
29677.836702	-1647.520000	1500.868164	192.088333
29677.836702	-1647.520000	1499.808594	324.111633
29677.836702	-1647.520000	1498.749023	388.582428
29677.836702	-1647.520000	1497.688477	17.953608
29677.836702	-1647.520000	1496.628906	209.045181
29677.836702	-1647.520000	1495.568359	125.207390
29677.836702	-1647.520000	1494.507813	242.149429
29677.836702	-1647.520000	1493.447266	14.466011
29677.836702	-1647.520000	1492.386719	145.236160
29677.836702	-1647.520000	1491.325195	-30.205473
29677.836702	-1647.520000	1490.263672	-191.894547
29677.836702	-1647.520000	1489.202148	-29.138756
29677.836702	-1647.520000	1488.140625	14.422112
29677.836702	-1647.520000	1487.079102	35.636555
29677.836702	-1647.520000	1486.016602	-96.003799
29677.836702	-1647.520000	1484.954102	2.050452
29677.836702	-1647.520000	1483.891602	-124.676468
29677.836702	-1647.520000	1482.829102	-3.808788
29677.836702	-1647.520000	1481.765625	7.016825
29677.836702	-1647.520000	1480.702148	-112.346283
29677.836702	-1647.520000	1479.638672	226.958084
29677.836702	-1647.520000	1478.575195	-336.870148
29677.836702	-1647.520000	1477.511719	0.443120
29677.836702	-1647.520000	1476.447266	-214.628601
29677.836702	-1647.520000	1475.382813	80.220215
29677.836702	-1647.520000	1474.318359	18.265594
29677.836702	-1647.520000	1473.253906	-72.720367
29677.836702	-1647.520000	1472.189453	179.893799
29677.836702	-1647.520000	1471.124023	181.207367
29677.836702	-1647.520000	1470.058594	180.718277
29677.836702	-1647.520000	1468.993164	148.614548
29677.836702	-1647.520000	1467.927734	121.295189
29677.836702	-1647.520000	1466.861328	302.996826
29677.836702	-1647.520000	1465.794922	142.017365
29677.836702	-1647.520000	1464.728516	368.136597
29677.836702	-1647.520000	1463.662109	444.757355
29677.836702	-1647.520000	1462.594727	382.575897
29677.836702	-1647.520000	1461.528320	365.708984
29677.836702	-1647.520000	1460.460938	342.171906
29677.836702	-1647.520000	1459.393555	551.259460
29677.836702	-1647.520000	1458.326172	387.417358
29677.836702	-1647.520000	1457.257813	409.071167
29677.836702	-1647.520000	1456.189453	366.708496
29677.836702	-1647.520000	1455.121094	392.962433
29677.836702	-1647.520000	1454.052734	436.899719
29677.836702	-1647.520000	1452.984375	525.167114
29677.836702	-1647.520000	1451.915039	232.806320
29677.836702	-1647.520000	1450.845703	254.782364
29677.836702	-1647.520000	1449.776367	499.618927
29677.836702	-1647.520000	1448.707031	645.890442
29677.836702	-1647.520000	1447.636719	623.449890
29677.836702	-1647.520000	1446.567383	568.795227
29677.836702	-1647.520000	1445.497070	649.936951
29677.836702	-1647.520000	1444.425781	365.930481
29677.836702	-1647.520000	1443.355469	781.085205
29677.836702	-1647.520000	1442.285156	931.678162
29677.836702	-1647.520000	1441.213867	914.713562
29677.836702	-1647.520000	1440.142578	747.201477
29677.836702	-1647.520000	1439.070313	636.138550
29677.836702	-1647.520000	1437.999023	849.303162
29677.836702	-1647.520000	1436.926758	893.663452
29677.836702	-1647.520000	1435.854492	1294.623169
29677.836702	-1647.520000	1434.782227	1332.834717
29677.836702	-1647.520000	1433.709961	957.979553
29677.836702	-1647.520000	1432.636719	1193.334839
29677.836702	-1647.520000	1431.563477	1001.285889
29677.836702	-1647.520000	1430.490234	1248.121704
29677.836702	-1647.520000	1429.416992	1526.244385
29677.836702	-1647.520000	1428.343750	1331.013306
29677.836702	-1647.520000	1427.269531	1527.337280
29677.836702	-1647.520000	1426.195313	1132.489136
29677.836702	-1647.520000	1425.121094	1229.490356
29677.836702	-1647.520000	1424.046875	1564.594482
29677.836702	-1647.520000	1422.971680	1570.726685
29677.836702	-1647.520000	1421.896484	1708.727539
29677.836702	-1647.520000	1420.821289	1880.083008
29677.836702	-1647.520000	1419.746094	2006.421875
29677.836702	-1647.520000	1418.669922	2123.786865
29677.836702	-1647.520000	1417.594727	1884.992065
29677.836702	-1647.520000	1416.518555	1558.580688
29677.836702	-1647.520000	1415.442383	1743.360840
29677.836702	-1647.520000	1414.365234	1503.401611
29677.836702	-1647.520000	1413.289063	1459.122437
29677.836702	-1647.520000	1412.211914	1322.388672
29677.836702	-1647.520000	1411.134766	1261.821899
29677.836702	-1647.520000	1410.057617	1224.698975
29677.836702	-1647.520000	1408.979492	909.556763
29677.836702	-1647.520000	1407.902344	1255.232666
29677.836702	-1647.520000	1406.824219	1198.892700
29677.836702	-1647.520000	1405.746094	1289.407349
29677.836702	-1647.520000	1404.666992	1337.812012
29677.836702	-1647.520000	1403.588867	1173.905640
29677.836702	-1647.520000	1402.509766	1583.232422
29677.836702	-1647.520000	1401.430664	1349.888794
29677.836702	-1647.520000	1400.351563	1344.446411
29677.836702	-1647.520000	1399.271484	1168.296997
29677.836702	-1647.520000	1398.192383	1710.014893
29677.836702	-1647.520000	1397.112305	1717.954712
29677.836702	-1647.520000	1396.031250	1619.754883
29677.836702	-1647.520000	1394.951172	1836.861938
29677.836702	-1647.520000	1393.871094	1699.251831
29677.836702	-1647.520000	1392.790039	1831.594360
29677.836702	-1647.520000	1391.708984	1651.113403
29677.836702	-1647.520000	1390.626953	1946.689941
29677.836702	-1647.520000	1389.545898	1669.909302
29677.836702	-1647.520000	1388.463867	1715.613037
29677.836702	-1647.520000	1387.381836	1676.904663
29677.836702	-1647.520000	1386.299805	1641.515869
29677.836702	-1647.520000	1385.217773	1696.586670
29677.836702	-1647.520000	1384.134766	1804.438599
29677.836702	-1647.520000	1383.051758	1944.131592
29677.836702	-1647.520000	1381.968750	1776.633667
29677.836702	-1647.520000	1380.885742	1988.908813
29677.836702	-1647.520000	1379.802734	2054.815430
29677.836702	-1647.520000	1378.718750	2216.283936
29677.836702	-1647.520000	1377.634766	1950.273071
29677.836702	-1647.520000	1376.550781	2244.174805
29677.836702	-1647.520000	1375.465820	2037.484009
29677.836702	-1647.520000	1374.381836	2162.632324
29677.836702	-1647.520000	1373.296875	2131.139893
29677.836702	-1647.520000	1372.211914	2094.580078
29677.836702	-1647.520000	1371.126953	1886.928589
29677.836702	-1647.520000	1370.041016	2304.761230
29677.836702	-1647.520000	1368.955078	1908.375732
29677.836702	-1647.520000	1367.869141	2064.964355
29677.836702	-1647.520000	1366.783203	2043.256836
29677.836702	-1647.520000	1365.697266	2262.041016
29677.836702	-1647.520000	1364.610352	1939.608276
29677.836702	-1647.520000	1363.523438	1871.743530
29677.836702	-1647.520000	1362.436523	1980.860107
29677.836702	-1647.520000	1361.349609	1552.335693
29677.836702	-1647.520000	1360.261719	1814.436768
29677.836702	-1647.520000	1359.174805	1513.473267
29677.836702	-1647.520000	1358.086914	1810.910767
29677.836702	-1647.520000	1356.998047	1303.002319
29677.836702	-1647.520000	1355.910156	1530.623657
29677.836702	-1647.520000	1354.821289	1458.444092
29677.836702	-1647.520000	1353.732422	1215.460327
29677.836702	-1647.520000	1352.643555	1341.061890
29677.836702	-1647.520000	1351.554688	1112.521118
29677.836702	-1647.520000	1350.464844	1014.548767
29677.836702	-1647.520000	1349.375000	1057.992554
29677.836702	-1647.520000	1348.285156	1176.312256
29677.836702	-1647.520000	1347.195313	1172.801514
29677.836702	-1647.520000	1346.105469	1113.410400
29677.836702	-1647.520000	1345.014648	1167.760620
29677.836702	-1647.520000	1343.923828	1497.835571
29677.836702	-1647.520000	1342.833008	1330.493652
29677.836702	-1647.520000	1341.741211	1272.968140
29677.836702	-1647.520000	1340.650391	1315.462524
29677.836702	-1647.520000	1339.558594	1563.313965
29677.836702	-1647.520000	1338.466797	1439.159790
29677.836702	-1647.520000	1337.374023	1372.649902
29677.836702	-1647.520000	1336.282227	1347.593872
29677.836702	-1647.520000	1335.189453	1449.039185
29677.836702	-1647.520000	1334.096680	1116.165283
29677.836702	-1647.520000	1333.003906	1032.041260
29677.836702	-1647.520000	1331.910156	1228.606689
29677.836702	-1647.520000	1330.817383	831.255859
29677.836702	-1647.520000	1329.723633	883.033447
29677.836702	-1647.520000	1328.629883	859.921021
29677.836702	-1647.520000	1327.535156	730.028625
29677.836702	-1647.520000	1326.441406	950.009277
29677.836702	-1647.520000	1325.346680	792.617554
29677.836702	-1647.520000	1324.251953	881.279907
29677.836702	-1647.520000	1323.156250	624.022766
29677.836702	-1647.520000	1322.061523	907.410278
29677.836702	-1647.520000	1320.965820	837.670654
29677.836702	-1647.520000	1319.870117	906.274658
29677.836702	-1647.520000	1318.774414	936.472839
29677.836702	-1647.520000	1317.678711	1140.957275
29677.836702	-1647.520000	1316.582031	1343.467651
29677.836702	-1647.520000	1315.485352	1348.208984
29677.836702	-1647.520000	1314.388672	1191.033081
29677.836702	-1647.520000	1313.291016	1185.889404
29677.836702	-1647.520000	1312.194336	1341.431763
29677.836702	-1647.520000	1311.096680	1312.581787
29677.836702	-1647.520000	1309.999023	906.750488
29677.836702	-1647.520000	1308.901367	1068.465698
29677.836702	-1647.520000	1307.802734	1111.327759
29677.836702	-1647.520000	1306.705078	1141.407349
29677.836702	-1647.520000	1305.606445	1082.865234
29677.836702	-1647.520000	1304.506836	919.243286
29677.836702	-1647.520000	1303.408203	1079.584351
29677.836702	-1647.520000	1302.308594	1027.128052
29677.836702	-1647.520000	1301.208984	723.815735
29677.836702	-1647.520000	1300.109375	764.937073
29677.836702	-1647.520000	1299.009766	732.875305
29677.836702	-1647.520000	1297.909180	971.233276
29677.836702	-1647.520000	1296.808594	1153.876099
29677.836702	-1647.520000	1295.708008	1052.268921
29677.836702	-1647.520000	1294.607422	720.449280
29677.836702	-1647.520000	1293.506836	859.058411
29677.836702	-1647.520000	1292.405273	796.152649
29677.836702	-1647.520000	1291.303711	765.807495
29677.836702	-1647.520000	1290.202148	615.583862
29677.836702	-1647.520000	1289.099609	742.335388
29677.836702	-1647.520000	1287.998047	761.510620
29677.836702	-1647.520000	1286.895508	743.501831
29677.836702	-1647.520000	1285.792969	57.239536
29677.836702	-1647.520000	1284.689453	401.782623
29677.836702	-1647.520000	1283.586914	671.672913
29677.836702	-1647.520000	1282.483398	250.980896
29677.836702	-1647.520000	1281.379883	229.382935
29677.836702	-1647.520000	1280.276367	527.361877
29677.836702	-1647.520000	1279.171875	322.486694
29677.836702	-1647.520000	1278.067383	286.947174
29677.836702	-1647.520000	1276.962891	256.691040
29677.836702	-1647.520000	1275.858398	219.535126
29677.836702	-1647.520000	1274.753906	464.942688
29677.836702	-1647.520000	1273.648438	104.510399
29677.836702	-1647.520000	1272.542969	213.238266
29677.836702	-1647.520000	1271.437500	246.781021
29677.836702	-1647.520000	1270.331055	-168.477448
29677.836702	-1647.520000	1269.225586	-44.063358
29677.836702	-1647.520000	1268.119141	82.587555
29677.836702	-1647.520000	1267.012695	-48.905781
29677.836702	-1647.520000	1265.906250	-121.048813
29677.836702	-1647.520000	1264.798828	-176.488647
29677.836702	-1647.520000	1263.691406	12.530187
29677.836702	-1647.520000	1262.583984	-301.284851
29677.836702	-1647.520000	1261.476563	-134.698929
29677.836702	-1647.520000	1260.368164	36.221069
29677.836702	-1647.520000	1259.260742	-211.993317
29677.836702	-1647.520000	1258.152344	-127.870712
29677.836702	-1647.520000	1257.043945	15.502302
29677.836702	-1647.520000	1255.934570	-57.716354
29677.836702	-1647.520000	1254.825195	129.837845
29677.836702	-1647.520000	1253.716797	-107.478531
29677.836702	-1647.520000	1252.606445	9.375950
29677.836702	-1647.520000	1251.497070	12.847088
29677.836702	-1647.520000	1250.387695	181.258896
29677.836702	-1647.520000	1249.277344	152.236282
29677.836702	-1647.520000	1248.166992	93.323273
29677.836702	-1647.520000	1247.055664	126.637039
29677.836702	-1647.520000	1245.945313	-30.197901
29677.836702	-1647.520000	1244.833984	266.341400
29677.836702	-1647.520000	1243.722656	4.097711
29677.836702	-1647.520000	1242.611328	137.259003
29677.836702	-1647.520000	1241.499023	79.344917
29677.836702	-1647.520000	1240.387695	146.928970
29677.836702	-1647.520000	1239.275391	41.565632
29677.836702	-1647.520000	1238.162109	-5.986770
29677.836702	-1647.520000	1237.049805	130.901855
29677.836702	-1647.520000	1235.936523	109.622009
29677.836702	-1647.520000	1234.823242	99.426460
29677.836702	-1647.520000	1233.709961	97.679024
29677.836702	-1647.520000	1232.596680	104.218102
29677.836702	-1647.520000	1231.482422	22.116226
29677.836702	-1647.520000	1230.369141	-100.855995
29677.836702	-1647.520000	1229.253906	-6.140216
29677.836702	-1647.520000	1228.139648	70.145752
29677.836702	-1647.520000	1227.025391	-127.816162
29677.836702	-1647.520000	1225.910156	98.730217
29677.836702	-1647.520000	1224.794922	-13.829539
29677.836702	-1647.520000	1223.679688	143.302017
29677.836702	-1647.520000	1222.563477	-54.534939
29677.836702	-1647.520000	1221.447266	-28.163807
29677.836702	-1647.520000	1220.331055	103.072250
29677.836702	-1647.520000	1219.214844	-1.658199
29677.836702	-1647.520000	1218.098633	-61.340885
29677.836702	-1647.520000	1216.981445	31.649532
29677.836702	-1647.520000	1215.864258	-145.252487
29677.836702	-1647.520000	1214.747070	-12.497471
29677.836702	-1647.520000	1213.629883	-174.387543
29677.836702	-1647.520000	1212.511719	-71.436043
29677.836702	-1647.520000	1211.393555	-229.499466
29677.836702	-1647.520000	1210.275391	-233.981430
29677.836702	-1647.520000	1209.157227	-12.021930
29677.836702	-1647.520000	1208.038086	-300.017151
29677.836702	-1647.520000	1206.918945	-47.516815
29677.836702	-1647.520000	1205.799805	48.032455
29677.836702	-1647.520000	1204.680664	-229.456528
29677.836702	-1647.520000	1203.560547	-113.340927
29677.836702	-1647.520000	1202.441406	79.017563
29677.836702	-1647.520000	1201.321289	-72.076569
29677.836702	-1647.520000	1200.200195	115.494514
29677.836702	-1647.520000	1199.080078	300.138824
29677.836702	-1647.520000	1197.958984	254.043533
29677.836702	-1647.520000	1196.837891	228.493134
29677.836702	-1647.520000	1195.716797	283.134857
29677.836702	-1647.520000	1194.594727	264.082092
29677.836702	-1647.520000	1193.473633	559.989319
29677.836702	-1647.520000	1192.351563	373.146881
29677.836702	-1647.520000	1191.229492	163.062195
29677.836702	-1647.520000	1190.106445	432.377808
29677.836702	-1647.520000	1188.984375	209.834412
29677.836702	-1647.520000	1187.861328	539.458557
29677.836702	-1647.520000	1186.738281	462.150269
29677.836702	-1647.520000	1185.614258	659.876282
29677.836702	-1647.520000	1184.491211	827.348267
29677.836702	-1647.520000	1183.367188	1161.010498
29677.836702	-1647.520000	1182.243164	1111.632446
29677.836702	-1647.520000	1181.119141	1073.363403
29677.836702	-1647.520000	1179.994141	1013.804565
29677.836702	-1647.520000	1178.869141	823.981506
29677.836702	-1647.520000	1177.744141	836.668457
29677.836702	-1647.520000	1176.619141	694.841064
29677.836702	-1647.520000	1175.493164	626.373840
29677.836702	-1647.520000	1174.368164	406.965790
29677.836702	-1647.520000	1173.242188	418.826019
29677.836702	-1647.520000	1172.115234	552.424133
29677.836702	-1647.520000	1170.989258	616.801147
29677.836702	-1647.520000	1169.862305	534.490173
29677.836702	-1647.520000	1168.735352	381.374542
29677.836702	-1647.520000	1167.608398	190.920197
29677.836702	-1647.520000	1166.481445	200.352722
29677.836702	-1647.520000	1165.353516	208.769043
29677.836702	-1647.520000	1164.225586	334.585938
29677.836702	-1647.520000	1163.097656	292.958801
29677.836702	-1647.520000	1161.968750	232.560562
29677.836702	-1647.520000	1160.840820	255.386383
29677.836702	-1647.520000	1159.711914	-30.996262
29677.836702	-1647.520000	1158.583008	-171.584320
29677.836702	-1647.520000	1157.453125	82.716850
29677.836702	-1647.520000	1156.324219	-32.903732
29677.836702	-1647.520000	1155.194336	-71.380966
29677.836702	-1647.520000	1154.064453	-19.117765
29677.836702	-1647.520000	1152.933594	-176.763824
29677.836702	-1647.520000	1151.803711	-0.852252
29677.836702	-1647.520000	1150.672852	-68.818390
29677.836702	-1647.520000	1149.541992	-97.980881
29677.836702	-1647.520000	1148.411133	63.946636
29677.836702	-1647.520000	1147.279297	42.126732
29677.836702	-1647.520000	1146.147461	-3.325427
29677.836702	-1647.520000	1145.015625	-113.394920
29677.836702	-1647.520000	1143.883789	-57.213287
29677.836702	-1647.520000	1142.750977	-36.573277
29677.836702	-1647.520000	1141.619141	41.397572
29677.836702	-1647.520000	1140.486328	-32.076996
29677.836702	-1647.520000	1139.352539	-9.281023
29677.836702	-1647.520000	1138.219727	44.304867
29677.836702	-1647.520000	1137.085938	7.859132
29677.836702	-1647.520000	1135.952148	-128.195709
29677.836702	-1647.520000	1134.818359	-79.299706
29677.836702	-1647.520000	1133.683594	-69.169876
29677.836702	-1647.520000	1132.549805	116.075249
29677.836702	-1647.520000	1131.415039	148.841995
29677.836702	-1647.520000	1130.279297	415.041718
29677.836702	-1647.520000	1129.144531	376.796570
29677.836702	-1647.520000	1128.008789	696.141418
29677.836702	-1647.520000	1126.873047	596.432983
29677.836702	-1647.520000	1125.737305	525.987244
29677.836702	-1647.520000	1124.601563	413.479462
29677.836702	-1647.520000	1123.464844	668.397156
29677.836702	-1647.520000	1122.328125	681.060364
29677.836702	-1647.520000	1121.191406	640.183411
29677.836702	-1647.520000	1120.054688	476.332336
29677.836702	-1647.520000	1118.916992	410.636932
29677.836702	-1647.520000	1117.779297	763.419556
29677.836702	-1647.520000	1116.641602	556.021545
29677.836702	-1647.520000	1115.503906	643.288269
29677.836702	-1647.520000	1114.365234	485.126617
29677.836702	-1647.520000	1113.226563	353.417847
29677.836702	-1647.520000	1112.087891	354.647980
29677.836702	-1647.520000	1110.949219	264.691650
29677.836702	-1647.520000	1109.809570	289.219147
29677.836702	-1647.520000	1108.669922	433.391449
29677.836702	-1647.520000	1107.530273	446.616425
29677.836702	-1647.520000	1106.390625	237.389893
29677.836702	-1647.520000	1105.250000	298.713898
29677.836702	-1647.520000	1104.109375	330.318146
29677.836702	-1647.520000	1102.968750	244.587112
29677.836702	-1647.520000	1101.828125	371.313538
29677.836702	-1647.520000	1100.686523	526.907410
29677.836702	-1647.520000	1099.544922	243.229645
29677.836702	-1647.520000	1098.403320	332.166718
29677.836702	-1647.520000	1097.261719	389.191132
29677.836702	-1647.520000	1096.120117	338.876892
29677.836702	-1647.520000	1094.977539	254.508636
29677.836702	-1647.520000	1093.834961	26.871572
29677.836702	-1647.520000	1092.691406	-45.368961
29677.836702	-1647.520000	1091.548828	122.809364
29677.836702	-1647.520000	1090.405273	124.166992
29677.836702	-1647.520000	1089.261719	215.147720
29677.836702	-1647.520000	1088.118164	140.700653
29677.836702	-1647.520000	1086.973633	320.348206
29677.836702	-1647.520000	1085.829102	51.686768
29677.836702	-1647.520000	1084.684570	125.919418
29677.836702	-1647.520000	1083.540039	-25.875778
29677.836702	-1647.520000	1082.395508	102.637070
29677.836702	-1647.520000	1081.250000	-63.812954
29677.836702	-1647.520000	1080.104492	-70.070389
29677.836702	-1647.520000	1078.958984	14.653823
29677.836702	-1647.520000	1077.812500	99.508461
29677.836702	-1647.520000	1076.666016	117.166855
29677.836702	-1647.520000	1075.519531	96.380989
29677.836702	-1647.520000	1074.373047	-14.103021
29677.836702	-1647.520000	1073.226563	77.384804
29677.836702	-1647.520000	1072.079102	28.061222
29677.836702	-1647.520000	1070.931641	-142.661667
29677.836702	-1647.520000	1069.784180	-111.264267
29677.836702	-1647.520000	1068.635742	1.737552
29677.836702	-1647.520000	1067.487305	92.252258
29677.836702	-1647.520000	1066.338867	-59.950508
29677.836702	-1647.520000	1065.190430	47.289520
29677.836702	-1647.520000	1064.041992	239.966614
29677.836702	-1647.520000	1062.892578	419.197327
29677.836702	-1647.520000	1061.743164	351.460938
29677.836702	-1647.520000	1060.593750	245.728287
29677.836702	-1647.520000	1059.443359	125.686028
29677.836702	-1647.520000	1058.292969	183.905502
29677.836702	-1647.520000	1057.142578	199.287277
29677.836702	-1647.520000	1055.992188	85.759270
29677.836702	-1647.520000	1054.841797	196.850998
29677.836702	-1647.520000	1053.690430	270.686249
29677.836702	-1647.520000	1052.539063	417.202026
29677.836702	-1647.520000	1051.387695	-49.763531
29677.836702	-1647.520000	1050.235352	26.610420
29677.836702	-1647.520000	1049.083984	239.913284
29677.836702	-1647.520000	1047.931641	139.048187
29677.836702	-1647.520000	1046.778320	-22.908682
29677.836702	-1647.520000	1045.625977	173.990021
29677.836702	-1647.520000	1044.472656	75.141083
29677.836702	-1647.520000	1043.319336	242.943192
29677.836702	-1647.520000	1042.166016	364.683746
29677.836702	-1647.520000	1041.012695	443.281006
29677.836702	-1647.520000	1039.858398	416.428223
29677.836702	-1647.520000	1038.704102	222.282242
29677.836702	-1647.520000	1037.549805	215.218399
29677.836702	-1647.520000	1036.394531	366.689453
29677.836702	-1647.520000	1035.239258	254.420914
29677.836702	-1647.520000	1034.083984	222.741226
29677.836702	-1647.520000	1032.928711	270.418304
29677.836702	-1647.520000	1031.773438	257.222107
29677.836702	-1647.520000	1030.617188	164.347198
29677.836702	-1647.520000	1029.460938	255.892532
29677.836702	-1647.520000	1028.304688	293.588959
29677.836702	-1647.520000	1027.147461	280.328186
29677.836702	-1647.520000	1025.991211	333.868958
29677.836702	-1647.520000	1024.833984	312.339844
29677.836702	-1647.520000	1023.675781	-125.753067
29677.836702	-1647.520000	1022.518555	17.013506
29677.836702	-1647.520000	1021.360352	26.664211
29677.836702	-1647.520000	1020.202148	-22.179861
29677.836702	-1647.520000	1019.043945	-166.465546
29677.836702	-1647.520000	1017.884766	-328.006805
29677.836702	-1647.520000	1016.726563	-210.315079
29677.836702	-1647.520000	1015.567383	-77.001236
29677.836702	-1647.520000	1014.407227	137.753342
29677.836702	-1647.520000	1013.248047	55.554806
29677.836702	-1647.520000	1012.087891	-173.346756
29677.836702	-1647.520000	1010.927734	-4.413614
29677.836702	-1647.520000	1009.767578	156.778534
29677.836702	-1647.520000	1008.606445	-137.016449
29677.836702	-1647.520000	1007.446289	35.031010
29677.836702	-1647.520000	1006.285156	-261.900024
29677.836702	-1647.520000	1005.123047	5.747374
29677.836702	-1647.520000	1003.961914	-189.011261
29677.836702	-1647.520000	1002.799805	91.082825
29677.836702	-1647.520000	1001.637695	50.704678
29677.836702	-1647.520000	1000.475586	204.456360
29677.836702	-1647.520000	999.312500	85.798256
29677.836702	-1647.520000	998.149414	63.597042
29677.836702	-1647.520000	996.986328	76.876656
29677.836702	-1647.520000	995.823242	142.420822
29677.836702	-1647.520000	994.659180	45.306862
29677.836702	-1647.520000	993.496094	143.619904
29677.836702	-1647.520000	992.332031	175.146820
29677.836702	-1647.520000	991.166992	20.622303
29677.836702	-1647.520000	990.002930	-150.635681
29677.836702	-1647.520000	988.837891	-139.182434
29677.836702	-1647.520000	987.672852	-12.767873
29677.836702	-1647.520000	986.506836	120.563789
29677.836702	-1647.520000	985.341797	118.517761
29677.836702	-1647.520000	984.175781	-65.797729
29677.836702	-1647.520000	983.009766	61.328629
29677.836702	-1647.520000	981.843750	-68.897552
29677.836702	-1647.520000	980.676758	35.916702
29677.836702	-1647.520000	979.509766	-58.446800
29677.836702	-1647.520000	978.342773	329.823029
29677.836702	-1647.520000	977.175781	341.697418
29677.836702	-1647.520000	976.007813	343.908966
29677.836702	-1647.520000	974.839844	498.692841
29677.836702	-1647.520000	973.671875	306.147217
29677.836702	-1647.520000	972.503906	465.856659
29677.836702	-1647.520000	971.334961	206.723404
29677.836702	-1647.520000	970.166016	306.209442
29677.836702	-1647.520000	968.997070	434.194214
29677.836702	-1647.520000	967.828125	322.117676
29677.836702	-1647.520000	966.658203	148.751083
29677.836702	-1647.520000	965.488281	34.956959
29677.836702	-1647.520000	964.318359	1.548360
29677.836702	-1647.520000	963.148438	110.029716
29677.836702	-1647.520000	961.977539	87.357552
29677.836702	-1647.520000	960.806641	341.166138
29677.836702	-1647.520000	959.635742	100.414978
29677.836702	-1647.520000	958.463867	198.568253
29677.836702	-1647.520000	957.292969	296.736237
29677.836702	-1647.520000	956.121094	179.077179
29677.836702	-1647.520000	954.948242	245.085556
29677.836702	-1647.520000	953.776367	64.987206
29677.836702	-1647.520000	952.603516	319.197845
29677.836702	-1647.520000	951.430664	154.141235
29677.836702	-1647.520000	950.257813	146.214340
29677.836702	-1647.520000	949.084961	135.245804
29677.836702	-1647.520000	947.911133	143.578201
29677.836702	-1647.520000	946.737305	-68.032486
29677.836702	-1647.520000	945.563477	309.670074
29677.836702	-1647.520000	944.388672	140.346680
29677.836702	-1647.520000	943.213867	-3.687967
29677.836702	-1647.520000	942.039063	31.498243
29677.836702	-1647.520000	940.864258	-28.398897
29677.836702	-1647.520000	939.688477	-87.835983
29677.836702	-1647.520000	938.513672	77.960907
29677.836702	-1647.520000	937.337891	229.031189
29677.836702	-1647.520000	936.161133	181.517761
29677.836702	-1647.520000	934.985352	-237.105972
29677.836702	-1647.520000	933.808594	30.222553
29677.836702	-1647.520000	932.631836	178.904327
29677.836702	-1647.520000	931.454102	160.015625
29677.836702	-1647.520000	930.277344	388.551666
29677.836702	-1647.520000	929.099609	156.381287
29677.836702	-1647.520000	927.921875	404.112640
29677.836702	-1647.520000	926.743164	491.763245
29677.836702	-1647.520000	925.565430	375.773956
29677.836702	-1647.520000	924.386719	3.073735
29677.836702	-1647.520000	923.208008	269.821747
29677.836702	-1647.520000	922.028320	202.289154
29677.836702	-1647.520000	920.849609	812.616333
29677.836702	-1647.520000	919.669922	816.437073
29677.836702	-1647.520000	919.474609	406.672699
29677.836702	-1647.520000	918.309570	547.089783
29677.836702	-1647.520000	917.143555	820.482666
29677.836702	-1647.520000	915.977539	648.612183
29677.836702	-1647.520000	914.810547	607.370361
29677.836702	-1647.520000	913.644531	350.890228
29677.836702	-1647.520000	912.477539	416.008057
29677.836702	-1647.520000	911.310547	72.566910
29677.836702	-1647.520000	910.143555	89.293633
29677.836702	-1647.520000	908.975586	144.626877
29677.836702	-1647.520000	907.807617	117.763275
29677.836702	-1647.520000	906.639648	42.564453
29677.836702	-1647.520000	905.471680	-112.328697
29677.836702	-1647.520000	904.303711	-177.880753
29677.836702	-1647.520000	903.134766	-81.735313
29677.836702	-1647.520000	901.965820	-185.961243
29677.836702	-1647.520000	900.796875	-24.796545
29677.836702	-1647.520000	899.626953	-114.603737
29677.836702	-1647.520000	898.457031	-59.715240
29677.836702	-1647.520000	897.287109	-303.876923
29677.836702	-1647.520000	896.117188	151.114548
29677.836702	-1647.520000	894.947266	-278.660553
29677.836702	-1647.520000	893.776367	-33.584454
29677.836702	-1647.520000	892.605469	93.297653
29677.836702	-1647.520000	891.434570	20.163681
29677.836702	-1647.520000	890.262695	98.738678
29677.836702	-1647.520000	889.091797	143.530045
29677.836702	-1647.520000	887.919922	-88.568985
29677.836702	-1647.520000	886.748047	-39.025345
29677.836702	-1647.520000	885.575195	157.241318
29677.836702	-1647.520000	884.403320	-264.898071
29677.836702	-1647.520000	883.230469	-15.831870
29677.836702	-1647.520000	882.057617	-356.081573
29677.836702	-1647.520000	880.883789	-287.498627
29677.836702	-1647.520000	879.710938	-182.930649
29677.836702	-1647.520000	878.537109	-229.854187
29677.836702	-1647.520000	877.362305	30.765917
29677.836702	-1647.520000	876.188477	-16.263483
29677.836702	-1647.520000	875.013672	-289.083191
29677.836702	-1647.520000	873.839844	-300.087433
29677.836702	-1647.520000	872.664063	-20.622440
29677.836702	-1647.520000	871.489258	-233.386826
29677.836702	-1647.520000	870.313477	-69.324463
29677.836702	-1647.520000	869.138672	-18.141787
29677.836702	-1647.520000	867.962891	148.127335
29677.836702	-1647.520000	866.786133	-158.194946
29677.836702	-1647.520000	865.610352	-78.371552
29677.836702	-1647.520000	864.433594	34.942326
29677.836702	-1647.520000	863.256836	-321.626007
29677.836702	-1647.520000	862.079102	-57.413067
29677.836702	-1647.520000	860.902344	-104.824158
29677.836702	-1647.520000	859.724609	-197.768661
29677.836702	-1647.520000	858.546875	13.443333
29677.836702	-1647.520000	857.368164	102.410645
29677.836702	-1647.520000	856.190430	-208.494415
29677.836702	-1647.520000	855.011719	-189.013611
29677.836702	-1647.520000	853.833008	-167.189331
29677.836702	-1647.520000	852.654297	-152.594009
29677.836702	-1647.520000	851.474609	137.035034
29677.836702	-1647.520000	850.294922	22.337097
29677.836702	-1647.520000	849.115234	-75.619644
29677.836702	-1647.520000	847.935547	43.957611
29677.836702	-1647.520000	846.754883	51.112595
29677.836702	-1647.520000	845.575195	440.550171
29677.836702	-1647.520000	844.393555	261.186981
29677.836702	-1647.520000	843.212891	320.709473
29677.836702	-1647.520000	842.032227	248.821472
29677.836702	-1647.520000	840.850586	293.908295
29677.836702	-1647.520000	839.668945	269.707062
29677.836702	-1647.520000	838.486328	460.265167
29677.836702	-1647.520000	837.304688	235.516403
29677.836702	-1647.520000	836.122070	285.159119
29677.836702	-1647.520000	834.939453	360.973602
29677.836702	-1647.520000	833.756836	343.709503
29677.836702	-1647.520000	832.573242	524.288940
29677.836702	-1647.520000	831.389648	540.277405
29677.836702	-1647.520000	830.206055	384.619843
29677.836702	-1647.520000	829.022461	276.634338
29677.836702	-1647.520000	827.838867	323.486481
29677.836702	-1647.520000	826.654297	565.570862
29677.836702	-1647.520000	825.469727	459.849518
29677.836702	-1647.520000	824.284180	437.449310
29677.836702	-1647.520000	823.099609	324.556824
29677.836702	-1647.520000	821.914063	649.533447
29677.836702	-1647.520000	820.728516	327.171448
29677.836702	-1647.520000	819.542969	437.822021
29677.836702	-1647.520000	818.356445	408.058990
29677.836702	-1647.520000	817.169922	204.678696
29677.836702	-1647.520000	815.983398	600.405273
29677.836702	-1647.520000	814.796875	663.164124
29677.836702	-1647.520000	813.609375	495.341278
29677.836702	-1647.520000	812.422852	812.198242
29677.836702	-1647.520000	811.235352	736.943298
29677.836702	-1647.520000	810.046875	820.776917
29677.836702	-1647.520000	808.859375	733.568237
29677.836702	-1647.520000	807.670898	890.845520
29677.836702	-1647.520000	806.482422	1019.520630
29677.836702	-1647.520000	805.293945	1157.575439
29677.836702	-1647.520000	804.104492	1352.452271
29677.836702	-1647.520000	802.915039	1328.977295
29677.836702	-1647.520000	801.725586	1108.626465
29677.836702	-1647.520000	800.536133	1191.781982
29677.836702	-1647.520000	799.345703	1134.987549
29677.836702	-1647.520000	798.155273	1180.063599
29677.836702	-1647.520000	796.964844	1198.993896
29677.836702	-1647.520000	795.774414	909.893127
29677.836702	-1647.520000	794.583008	973.746155
29677.836702	-1647.520000	793.392578	791.243469
29677.836702	-1647.520000	792.200195	575.606384
29677.836702	-1647.520000	791.008789	797.883911
29677.836702	-1647.520000	789.816406	497.011017
29677.836702	-1647.520000	788.625000	446.993042
29677.836702	-1647.520000	787.432617	406.389709
29677.836702	-1647.520000	786.239258	226.198227
29677.836702	-1647.520000	785.046875	38.922375
29677.836702	-1647.520000	783.853516	400.107819
29677.836702	-1647.520000	782.660156	160.735641
29677.836702	-1647.520000	781.465820	167.147491
29677.836702	-1647.520000	780.272461	1.021349
29677.836702	-1647.520000	779.078125	189.201263
29677.836702	-1647.520000	777.883789	86.756386
29677.836702	-1647.520000	776.688477	312.471497
29677.836702	-1647.520000	775.494141	216.978149
29677.836702	-1647.520000	774.298828	50.645294
29677.836702	-1647.520000	773.103516	-26.026052
29677.836702	-1647.520000	771.907227	362.002533
29677.836702	-1647.520000	770.711914	318.165802
29677.836702	-1647.520000	769.515625	113.912308
29677.836702	-1647.520000	768.318359	506.151337
29677.836702	-1647.520000	767.122070	367.788666
29677.836702	-1647.520000	765.924805	186.981506
29677.836702	-1647.520000	764.727539	550.448059
29677.836702	-1647.520000	763.530273	508.502045
29677.836702	-1647.520000	762.333008	636.066650
29677.836702	-1647.520000	761.134766	937.742188
29677.836702	-1647.520000	759.936523	714.215881
29677.836702	-1647.520000	758.738281	497.760468
29677.836702	-1647.520000	757.540039	342.494415
29677.836702	-1647.520000	756.340820	264.845917
29677.836702	-1647.520000	755.141602	55.414555
29677.836702	-1647.520000	753.942383	130.549240
29677.836702	-1647.520000	752.742188	285.506073
29677.836702	-1647.520000	751.541992	47.726665
29677.836702	-1647.520000	750.341797	171.903671
29677.836702	-1647.520000	749.141602	58.606724
29677.836702	-1647.520000	747.941406	290.618347
29677.836702	-1647.520000	746.740234	118.438416
29677.836702	-1647.520000	745.539063	162.284302
29677.836702	-1647.520000	744.337891	220.106476
29677.836702	-1647.520000	743.135742	176.869476
29677.836702	-1647.520000	741.933594	128.863129
29677.836702	-1647.520000	740.731445	360.000854
29677.836702	-1647.520000	739.529297	142.879593
29677.836702	-1647.520000	738.326172	169.668701
29677.836702	-1647.520000	737.124023	456.640747
29677.836702	-1647.520000	735.919922	316.701294
29677.836702	-1647.520000	734.716797	172.035263
29677.836702	-1647.520000	733.513672	224.181076
29677.836702	-1647.520000	732.309570	550.325256
29677.836702	-1647.520000	731.105469	349.176331
29677.836702	-1647.520000	729.900391	333.022247
29677.836702	-1647.520000	728.696289	333.166016
29677.836702	-1647.520000	727.491211	148.264145
29677.836702	-1647.520000	726.286133	621.017700
29677.836702	-1647.520000	725.080078	398.478058
29677.836702	-1647.520000	723.874023	187.623718
29677.836702	-1647.520000	722.668945	163.878906
29677.836702	-1647.520000	721.461914	13.746001
29677.836702	-1647.520000	720.255859	207.268372
29677.836702	-1647.520000	719.048828	89.699097
29677.836702	-1647.520000	717.841797	-67.658569
29677.836702	-1647.520000	716.634766	-157.299301
29677.836702	-1647.520000	715.427734	82.375969
29677.836702	-1647.520000	714.219727	137.324127
29677.836702	-1647.520000	713.011719	-62.391426
29677.836702	-1647.520000	711.803711	230.472946
29677.836702	-1647.520000	710.594727	-20.760876
29677.836702	-1647.520000	709.385742	-169.320206
29677.836702	-1647.520000	708.176758	15.710480
29677.836702	-1647.520000	706.967773	6.940119
29677.836702	-1647.520000	705.758789	-265.481354
29677.836702	-1647.520000	704.548828	-185.822250
29677.836702	-1647.520000	703.338867	-180.910980
29677.836702	-1647.520000	702.127930	103.564034
29677.836702	-1647.520000	700.917969	-89.890808
29677.836702	-1647.520000	699.707031	59.084351
29677.836702	-1647.520000	698.496094	2.907612
29677.836702	-1647.520000	697.285156	102.660660
29677.836702	-1647.520000	696.073242	-100.427330
29677.836702	-1647.520000	694.861328	-212.766052
29677.836702	-1647.520000	693.649414	-173.902695
29677.836702	-1647.520000	692.436523	55.616314
29677.836702	-1647.520000	691.224609	156.978607
29677.836702	-1647.520000	690.011719	104.665764
29677.836702	-1647.520000	688.798828	59.229553
29677.836702	-1647.520000	687.584961	-272.273254
29677.836702	-1647.520000	686.372070	314.373108
29677.836702	-1647.520000	685.158203	421.926941
29677.836702	-1647.520000	683.943359	422.428772
29677.836702	-1647.520000	682.729492	527.346924
29677.836702	-1647.520000	681.514648	543.839661
29677.836702	-1647.520000	680.299805	288.537476
29677.836702	-1647.520000	679.084961	246.790009
29677.836702	-1647.520000	677.869141	283.842834
29677.836702	-1647.520000	676.653320	255.784027
29677.836702	-1647.520000	675.437500	424.810791
29677.836702	-1647.520000	674.221680	152.942673
29677.836702	-1647.520000	673.004883	386.594910
29677.836702	-1647.520000	671.789063	381.229919
29677.836702	-1647.520000	670.571289	433.675232
29677.836702	-1647.520000	669.354492	446.585876
29677.836702	-1647.520000	668.136719	341.190369
29677.836702	-1647.520000	666.919922	532.243042
29677.836702	-1647.520000	665.701172	271.441406
29677.836702	-1647.520000	664.483398	418.176117
29677.836702	-1647.520000	663.264648	307.741455
29677.836702	-1647.520000	662.045898	433.318665
29677.836702	-1647.520000	660.827148	301.853271
29677.836702	-1647.520000	659.608398	341.529144
29677.836702	-1647.520000	658.388672	327.854431
29677.836702	-1647.520000	657.168945	203.053802
29677.836702	-1647.520000	655.949219	138.301407
29677.836702	-1647.520000	654.728516	179.780960
29677.836702	-1647.520000	653.507813	-120.934822
29677.836702	-1647.520000	652.287109	246.144684
29677.836702	-1647.520000	651.066406	354.205444
29677.836702	-1647.520000	649.844727	346.602814
29677.836702	-1647.520000	648.623047	142.601349
29677.836702	-1647.520000	647.401367	231.773819
29677.836702	-1647.520000	646.179688	330.021179
29677.836702	-1647.520000	644.957031	324.249207
29677.836702	-1647.520000	643.734375	200.689835
29677.836702	-1647.520000	642.511719	353.876831
29677.836702	-1647.520000	641.289063	98.668243
29677.836702	-1647.520000	640.065430	288.461914
29677.836702	-1647.520000	638.841797	295.935425
29677.836702	-1647.520000	637.618164	430.058258
29677.836702	-1647.520000	636.393555	748.343262
29677.836702	-1647.520000	635.168945	508.847321
29677.836702	-1647.520000	633.944336	296.979431
29677.836702	-1647.520000	632.719727	409.795105
29677.836702	-1647.520000	631.494141	276.082397
29677.836702	-1647.520000	630.269531	149.230698
29677.836702	-1647.520000	629.042969	323.785706
29677.836702	-1647.520000	627.817383	272.678192
29677.836702	-1647.520000	626.590820	94.945908
29677.836702	-1647.520000	625.365234	236.887238
29677.836702	-1647.520000	624.137695	385.535339
29677.836702	-1647.520000	622.911133	152.396240
29677.836702	-1647.520000	621.683594	335.265015
29677.836702	-1647.520000	620.456055	187.039734
29677.836702	-1647.520000	619.228516	365.022308
29677.836702	-1647.520000	618.000977	235.026398
29677.836702	-1647.520000	616.772461	-30.523836
29677.836702	-1647.520000	615.543945	225.141174
29677.836702	-1647.520000	614.314453	313.011871
29677.836702	-1647.520000	613.085938	-51.369354
29677.836702	-1647.520000	611.856445	61.570869
29677.836702	-1647.520000	610.626953	-94.042015
29677.836702	-1647.520000	609.397461	-105.185143
29677.836702	-1647.520000	608.166992	-70.565514
29677.836702	-1647.520000	606.936523	-166.733185
29677.836702	-1647.520000	605.706055	-201.059738
29677.836702	-1647.520000	604.474609	-251.514008
29677.836702	-1647.520000	603.244141	-194.335526
29677.836702	-1647.520000	602.012695	-249.522049
29677.836702	-1647.520000	600.780273	-462.806549
29677.836702	-1647.520000	599.548828	-179.201584
29677.836702	-1647.520000	598.316406	85.876877
29677.836702	-1647.520000	597.083984	-127.583397
29677.836702	-1647.520000	595.851563	-283.824860
29677.836702	-1647.520000	594.618164	-277.656433
29677.836702	-1647.520000	593.384766	66.952888
29677.836702	-1647.520000	592.151367	155.221649
29677.836702	-1647.520000	590.917969	-234.453827
29677.836702	-1647.520000	589.683594	36.554939
29677.836702	-1647.520000	588.449219	170.261673
29677.836702	-1647.520000	587.214844	-13.747770
29677.836702	-1647.520000	585.979492	140.330811
29677.836702	-1647.520000	584.745117	68.191467
29677.836702	-1647.520000	583.509766	11.993500
29677.836702	-1647.520000	582.273438	-229.165558
29677.836702	-1647.520000	581.038086	-171.269073
29677.836702	-1647.520000	579.801758	69.088158
29677.836702	-1647.520000	578.565430	1.299297
29677.836702	-1647.520000	577.329102	230.010910
29677.836702	-1647.520000	576.091797	-207.330353
29677.836702	-1647.520000	574.854492	114.700111
29677.836702	-1647.520000	573.617188	42.198105
29677.836702	-1647.520000	572.378906	-230.881897
29677.836702	-1647.520000	571.141602	138.672699
29677.836702	-1647.520000	569.903320	52.411327
29677.836702	-1647.520000	568.664063	134.673950
29677.836702	-1647.520000	567.425781	305.688965
29677.836702	-1647.520000	566.186523	89.568214
29677.836702	-1647.520000	564.947266	-21.788799
29677.836702	-1647.520000	563.708008	-10.243158
29677.836702	-1647.520000	562.467773	190.093170
29677.836702	-1647.520000	561.227539	115.092430
29677.836702	-1647.520000	559.987305	340.290039
29677.836702	-1647.520000	558.747070	6.053491
29677.836702	-1647.520000	557.505859	397.071594
29677.836702	-1647.520000	556.264648	312.917847
29677.836702	-1647.520000	555.023438	299.227264
29677.836702	-1647.520000	553.781250	126.499313
29677.836702	-1647.520000	552.539063	237.742981
29677.836702	-1647.520000	551.296875	3.780872
29677.836702	-1647.520000	550.054688	114.996101
29677.836702	-1647.520000	548.811523	185.294342
29677.836702	-1647.520000	547.569336	296.425751
29677.836702	-1647.520000	546.325195	-25.856169
29677.836702	-1647.520000	545.082031	253.125366
29677.836702	-1647.520000	543.837891	92.025192
29677.836702	-1647.520000	542.593750	-125.678993
29677.836702	-1647.520000	541.349609	-148.326736
29677.836702	-1647.520000	540.105469	-21.368938
29677.836702	-1647.520000	538.860352	162.186066
29677.836702	-1647.520000	537.615234	-30.373547
29677.836702	-1647.520000	536.369141	139.543533
29677.836702	-1647.520000	535.124023	273.196777
29677.836702	-1647.520000	533.877930	205.315430
29677.836702	-1647.520000	532.631836	60.533230
29677.836702	-1647.520000	531.384766	146.654404
29677.836702	-1647.520000	530.138672	386.635376
29677.836702	-1647.520000	528.891602	294.020020
29677.836702	-1647.520000	527.643555	192.421814
29677.836702	-1647.520000	526.396484	163.275391
29677.836702	-1647.520000	525.148438	263.017334
29677.836702	-1647.520000	523.900391	374.062195
29677.836702	-1647.520000	522.652344	374.386444
29677.836702	-1647.520000	521.403320	453.812012
29677.836702	-1647.520000	520.154297	447.425049
29677.836702	-1647.520000	518.905273	138.502731
29677.836702	-1647.520000	517.656250	351.281189
29677.836702	-1647.520000	516.406250	514.351868
29677.836702	-1647.520000	515.156250	253.155975
29677.836702	-1647.520000	513.906250	154.576050
29677.836702	-1647.520000	512.655273	306.465240
29677.836702	-1647.520000	511.404297	257.637543
29677.836702	-1647.520000	510.153320	190.854126
29677.836702	-1647.520000	508.902344	9.198418
29677.836702	-1647.520000	507.650391	-303.044800
29677.836702	-1647.520000	506.398438	-15.718229
29677.836702	-1647.520000	505.146484	-142.957443
29677.836702	-1647.520000	503.893555	-366.936646
29677.836702	-1647.520000	502.641602	210.910675
29677.836702	-1647.520000	501.388672	-39.923294
29677.836702	-1647.520000	500.134766	-18.236338
29677.836702	-1647.520000	498.881836	41.781567
29677.836702	-1647.520000	497.627930	-206.398727
29677.836702	-1647.520000	496.374023	-31.509756
29677.836702	-1647.520000	495.119141	6.180397
29677.836702	-1647.520000	493.865234	-106.700775
29677.836702	-1647.520000	492.610352	-194.742844
29677.836702	-1647.520000	491.355469	65.684303
29677.836702	-1647.520000	490.099609	2.497959
29677.836702	-1647.520000	488.843750	110.148209
29677.836702	-1647.520000	487.587891	-11.263543
29677.836702	-1647.520000	486.332031	51.586666
29677.836702	-1647.520000	485.075195	260.399139
29677.836702	-1647.520000	483.818359	543.267700
29677.836702	-1647.520000	482.561523	31.685869
29677.836702	-1647.520000	481.304688	343.797394
29677.836702	-1647.520000	480.046875	274.507385
29677.836702	-1647.520000	478.789063	698.695984
29677.836702	-1647.520000	477.531250	580.172546
29677.836702	-1647.520000	476.272461	490.902405
29677.836702	-1647.520000	475.013672	271.749542
29677.836702	-1647.520000	473.754883	158.069626
29677.836702	-1647.520000	472.496094	479.103027
29677.836702	-1647.520000	471.236328	242.359650
29677.836702	-1647.520000	469.976563	384.210266
29677.836702	-1647.520000	468.716797	344.716980
29677.836702	-1647.520000	467.456055	233.662735
29677.836702	-1647.520000	466.196289	521.046143
29677.836702	-1647.520000	464.935547	555.528992
29677.836702	-1647.520000	463.673828	520.690369
29677.836702	-1647.520000	462.413086	447.904938
29677.836702	-1647.520000	461.151367	672.549011
29677.836702	-1647.520000	459.889648	590.888000
29677.836702	-1647.520000	458.626953	654.549255
29677.836702	-1647.520000	457.364258	1004.217529
29677.836702	-1647.520000	456.101563	480.292694
29677.836702	-1647.520000	454.838867	745.020081
29677.836702	-1647.520000	453.575195	766.243164
29677.836702	-1647.520000	452.312500	832.127197
29677.836702	-1647.520000	451.047852	987.245056
29677.836702	-1647.520000	449.784180	1151.231567
29677.836702	-1647.520000	448.519531	868.920044
29677.836702	-1647.520000	447.254883	1499.014526
29677.836702	-1647.520000	445.990234	1580.217529
29677.836702	-1647.520000	444.725586	1690.342529
29677.836702	-1647.520000	443.459961	2050.035400
29677.836702	-1647.520000	442.194336	2369.415039
29677.836702	-1647.520000	440.927734	2510.343506
29677.836702	-1647.520000	439.662109	2729.133789
29677.836702	-1647.520000	438.395508	2504.544434
29677.836702	-1647.520000	437.127930	2647.371094
29677.836702	-1647.520000	435.861328	2542.953857
29677.836702	-1647.520000	434.593750	2166.937988
29677.836702	-1647.520000	433.326172	1795.432983
29677.836702	-1647.520000	432.058594	1664.250732
29677.836702	-1647.520000	430.790039	1599.718872
29677.836702	-1647.520000	429.521484	1479.484619
29677.836702	-1647.520000	428.252930	1405.847168
29677.836702	-1647.520000	426.984375	1367.648682
29677.836702	-1647.520000	425.714844	1498.185425
29677.836702	-1647.520000	424.445313	1515.167603
29677.836702	-1647.520000	423.174805	1685.210815
29677.836702	-1647.520000	421.905273	1575.150757
29677.836702	-1647.520000	420.634766	2017.790527
29677.836702	-1647.520000	419.364258	2027.110962
29677.836702	-1647.520000	418.092773	1931.848022
29677.836702	-1647.520000	416.822266	1816.403442
29677.836702	-1647.520000	415.550781	1796.110229
29677.836702	-1647.520000	414.278320	1453.899048
29677.836702	-1647.520000	413.006836	1319.985962
29677.836702	-1647.520000	411.734375	1179.132935
29677.836702	-1647.520000	410.461914	1164.336182
29677.836702	-1647.520000	409.188477	1029.492676
29677.836702	-1647.520000	407.916016	1060.507813
29677.836702	-1647.520000	406.642578	805.336548
29677.836702	-1647.520000	405.368164	950.686951
29677.836702	-1647.520000	404.094727	714.704712
29677.836702	-1647.520000	402.820313	708.565979
29677.836702	-1647.520000	401.545898	761.696655
29677.836702	-1647.520000	400.270508	736.831299
29677.836702	-1647.520000	398.996094	760.127808
29677.836702	-1647.520000	397.720703	621.379944
29677.836702	-1647.520000	396.444336	417.963013
29677.836702	-1647.520000	395.168945	497.031830
29677.836702	-1647.520000	393.892578	787.605957
29677.836702	-1647.520000	392.616211	787.902893
29677.836702	-1647.520000	391.339844	699.140381
29677.836702	-1647.520000	390.062500	691.412964
29677.836702	-1647.520000	388.785156	665.277405
29677.836702	-1647.520000	387.507813	609.681763
29677.836702	-1647.520000	386.229492	515.759705
29677.836702	-1647.520000	384.951172	935.270447
29677.836702	-1647.520000	383.672852	632.214661
29677.836702	-1647.520000	382.394531	564.439819
29677.836702	-1647.520000	381.115234	674.390259
29677.836702	-1647.520000	379.835938	725.998535
29677.836702	-1647.520000	378.556641	492.201508
29677.836702	-1647.520000	377.277344	557.228333
29677.836702	-1647.520000	375.997070	680.632263
29677.836702	-1647.520000	374.716797	622.218445
29677.836702	-1647.520000	373.435547	426.095215
29677.836702	-1647.520000	372.155273	495.366394
29677.836702	-1647.520000	370.874023	732.886658
29677.836702	-1647.520000	369.591797	434.113403
29677.836702	-1647.520000	368.310547	330.061401
29677.836702	-1647.520000	367.028320	394.096375
29677.836702	-1647.520000	365.746094	-135.029434
29677.836702	-1647.520000	364.463867	458.482208
29677.836702	-1647.520000	363.180664	122.313972
29677.836702	-1647.520000	361.897461	323.356873
29677.836702	-1647.520000	360.614258	118.329979
29677.836702	-1647.520000	359.330078	223.755005
29677.836702	-1647.520000	358.045898	320.866974
29677.836702	-1647.520000	356.761719	499.672760
29677.836702	-1647.520000	355.477539	342.838379
29677.836702	-1647.520000	354.192383	142.481415
29677.836702	-1647.520000	352.907227	361.763306
29677.836702	-1647.520000	351.622070	155.463882
29677.836702	-1647.520000	350.336914	175.436035
29677.836702	-1647.520000	349.050781	-17.289394
29677.836702	-1647.520000	347.764648	239.723495
29677.836702	-1647.520000	346.477539	178.656082
29677.836702	-1647.520000	345.191406	297.378113
29677.836702	-1647.520000	343.904297	-46.556240
29677.836702	-1647.520000	342.616211	21.357397
29677.836702	-1647.520000	341.329102	54.010864
29677.836702	-1647.520000	340.041016	-16.665525
29677.836702	-1647.520000	338.752930	-2.293785
29677.836702	-1647.520000	337.463867	118.826523
29677.836702	-1647.520000	336.175781	-7.893178
29677.836702	-1647.520000	334.886719	-69.574837
29677.836702	-1647.520000	333.596680	-127.601631
29677.836702	-1647.520000	332.307617	-105.344940
29677.836702	-1647.520000	331.017578	-118.990753
29677.836702	-1647.520000	329.727539	19.507057
29677.836702	-1647.520000	328.436523	172.176834
29677.836702	-1647.520000	327.146484	98.694580
29677.836702	-1647.520000	325.855469	-107.095711
29677.836702	-1647.520000	324.563477	-95.680794
29677.836702	-1647.520000	323.272461	-338.851044
29677.836702	-1647.520000	321.980469	27.959608
29677.836702	-1647.520000	320.688477	176.978775
29677.836702	-1647.520000	319.395508	-251.972672
29677.836702	-1647.520000	318.103516	-138.986389
29677.836702	-1647.520000	316.810547	-302.831970
29677.836702	-1647.520000	315.516602	111.574722
29677.836702	-1647.520000	314.223633	-178.255676
29677.836702	-1647.520000	312.929688	-249.967819
29677.836702	-1647.520000	311.635742	61.960808
29677.836702	-1647.520000	310.340820	53.156490
29677.836702	-1647.520000	309.045898	-82.246368
29677.836702	-1647.520000	307.750977	-63.279072
29677.836702	-1647.520000	306.456055	153.406097
29677.836702	-1647.520000	305.160156	25.270922
29677.836702	-1647.520000	303.865234	72.970436
29677.836702	-1647.520000	302.568359	274.079437
29677.836702	-1647.520000	301.272461	160.989716
29677.836702	-1647.520000	299.975586	240.362869
29677.836702	-1647.520000	298.678711	316.347870
