#X		#Y		#Wave		#Intensity
30278.516489	-1915.278333	1999.980469	-9.443832
30278.516489	-1915.278333	1999.016602	74.837395
30278.516489	-1915.278333	1998.052734	-87.733414
30278.516489	-1915.278333	1997.087891	37.170071
30278.516489	-1915.278333	1996.123047	-18.890820
30278.516489	-1915.278333	1995.158203	-22.955877
30278.516489	-1915.278333	1994.193359	2.656273
30278.516489	-1915.278333	1993.228516	147.076691
30278.516489	-1915.278333	1992.262695	83.430222
30278.516489	-1915.278333	1991.297852	210.369537
30278.516489	-1915.278333	1990.332031	-93.414551
30278.516489	-1915.278333	1989.366211	80.444160
30278.516489	-1915.278333	1988.399414	29.064898
30278.516489	-1915.278333	1987.433594	103.818367
30278.516489	-1915.278333	1986.466797	-46.543484
30278.516489	-1915.278333	1985.500977	129.501526
30278.516489	-1915.278333	1984.534180	134.866287
30278.516489	-1915.278333	1983.567383	38.855602
30278.516489	-1915.278333	1982.599609	31.812010
30278.516489	-1915.278333	1981.632813	-64.208405
30278.516489	-1915.278333	1980.665039	-78.703735
30278.516489	-1915.278333	1979.697266	-26.538063
30278.516489	-1915.278333	1978.729492	-41.094269
30278.516489	-1915.278333	1977.761719	-58.142944
30278.516489	-1915.278333	1976.792969	25.995079
30278.516489	-1915.278333	1975.825195	-18.262054
30278.516489	-1915.278333	1974.856445	23.836145
30278.516489	-1915.278333	1973.887695	28.886604
30278.516489	-1915.278333	1972.918945	-109.155281
30278.516489	-1915.278333	1971.949219	31.510550
30278.516489	-1915.278333	1970.980469	-101.595055
30278.516489	-1915.278333	1970.010742	112.930893
30278.516489	-1915.278333	1969.041016	24.182447
30278.516489	-1915.278333	1968.071289	-15.266437
30278.516489	-1915.278333	1967.101563	-42.400406
30278.516489	-1915.278333	1966.130859	-37.520195
30278.516489	-1915.278333	1965.161133	-49.900227
30278.516489	-1915.278333	1964.190430	-62.294567
30278.516489	-1915.278333	1963.219727	28.706274
30278.516489	-1915.278333	1962.249023	-128.967880
30278.516489	-1915.278333	1961.277344	136.719986
30278.516489	-1915.278333	1960.306641	82.403229
30278.516489	-1915.278333	1959.334961	37.931561
30278.516489	-1915.278333	1958.363281	-33.596062
30278.516489	-1915.278333	1957.391602	101.473740
30278.516489	-1915.278333	1956.419922	133.206940
30278.516489	-1915.278333	1955.447266	34.618397
30278.516489	-1915.278333	1954.474609	90.905685
30278.516489	-1915.278333	1953.501953	48.859837
30278.516489	-1915.278333	1952.529297	55.959843
30278.516489	-1915.278333	1951.556641	26.197388
30278.516489	-1915.278333	1950.583984	-15.845040
30278.516489	-1915.278333	1949.610352	101.735939
30278.516489	-1915.278333	1948.636719	-92.549110
30278.516489	-1915.278333	1947.663086	-141.940018
30278.516489	-1915.278333	1946.689453	147.372696
30278.516489	-1915.278333	1945.715820	9.599895
30278.516489	-1915.278333	1944.741211	58.326969
30278.516489	-1915.278333	1943.767578	-18.069889
30278.516489	-1915.278333	1942.792969	50.249168
30278.516489	-1915.278333	1941.818359	91.563705
30278.516489	-1915.278333	1940.842773	24.985910
30278.516489	-1915.278333	1939.868164	61.374886
30278.516489	-1915.278333	1938.892578	168.811600
30278.516489	-1915.278333	1937.916992	146.342667
30278.516489	-1915.278333	1936.941406	118.976685
30278.516489	-1915.278333	1935.965820	111.210495
30278.516489	-1915.278333	1934.990234	42.221107
30278.516489	-1915.278333	1934.013672	39.357918
30278.516489	-1915.278333	1933.037109	83.001503
30278.516489	-1915.278333	1932.060547	-123.016373
30278.516489	-1915.278333	1931.083984	-96.496284
30278.516489	-1915.278333	1930.107422	40.105442
30278.516489	-1915.278333	1929.129883	152.189865
30278.516489	-1915.278333	1928.153320	-9.680815
30278.516489	-1915.278333	1927.175781	-110.365814
30278.516489	-1915.278333	1926.198242	-91.225319
30278.516489	-1915.278333	1925.219727	-18.322170
30278.516489	-1915.278333	1924.242188	113.203636
30278.516489	-1915.278333	1923.263672	-14.319160
30278.516489	-1915.278333	1922.285156	-80.724419
30278.516489	-1915.278333	1921.306641	-54.294746
30278.516489	-1915.278333	1920.328125	-71.832771
30278.516489	-1915.278333	1919.349609	42.476048
30278.516489	-1915.278333	1918.370117	-62.958546
30278.516489	-1915.278333	1917.391602	-85.372780
30278.516489	-1915.278333	1916.412109	63.029282
30278.516489	-1915.278333	1915.431641	40.592415
30278.516489	-1915.278333	1914.452148	110.855774
30278.516489	-1915.278333	1913.472656	10.374547
30278.516489	-1915.278333	1912.492188	12.338208
30278.516489	-1915.278333	1911.511719	-105.157501
30278.516489	-1915.278333	1910.531250	47.944080
30278.516489	-1915.278333	1909.550781	-81.702744
30278.516489	-1915.278333	1908.569336	-79.732285
30278.516489	-1915.278333	1907.588867	-24.168901
30278.516489	-1915.278333	1906.607422	-114.767059
30278.516489	-1915.278333	1905.625977	211.079681
30278.516489	-1915.278333	1904.644531	-132.741974
30278.516489	-1915.278333	1903.662109	7.977856
30278.516489	-1915.278333	1902.680664	129.174255
30278.516489	-1915.278333	1901.698242	4.554125
30278.516489	-1915.278333	1900.715820	64.878197
30278.516489	-1915.278333	1899.733398	20.582928
30278.516489	-1915.278333	1898.750000	34.667721
30278.516489	-1915.278333	1897.767578	34.157471
30278.516489	-1915.278333	1896.784180	-39.288799
30278.516489	-1915.278333	1895.800781	57.433350
30278.516489	-1915.278333	1894.817383	15.597262
30278.516489	-1915.278333	1893.833984	102.549026
30278.516489	-1915.278333	1892.850586	16.988239
30278.516489	-1915.278333	1891.866211	-119.549614
30278.516489	-1915.278333	1890.881836	96.070168
30278.516489	-1915.278333	1889.897461	54.249790
30278.516489	-1915.278333	1888.913086	-4.549933
30278.516489	-1915.278333	1887.927734	82.286041
30278.516489	-1915.278333	1886.943359	-20.181276
30278.516489	-1915.278333	1885.958008	-112.911621
30278.516489	-1915.278333	1884.972656	-18.838196
30278.516489	-1915.278333	1883.987305	-177.021210
30278.516489	-1915.278333	1883.001953	9.159790
30278.516489	-1915.278333	1882.015625	49.809540
30278.516489	-1915.278333	1881.029297	75.897179
30278.516489	-1915.278333	1880.042969	-79.781075
30278.516489	-1915.278333	1879.056641	-60.957333
30278.516489	-1915.278333	1878.070313	-122.086365
30278.516489	-1915.278333	1877.083984	245.493759
30278.516489	-1915.278333	1876.096680	60.819851
30278.516489	-1915.278333	1875.109375	-53.578880
30278.516489	-1915.278333	1874.122070	127.375000
30278.516489	-1915.278333	1873.134766	-57.190285
30278.516489	-1915.278333	1872.146484	-202.978668
30278.516489	-1915.278333	1871.159180	120.619247
30278.516489	-1915.278333	1870.170898	132.061523
30278.516489	-1915.278333	1869.182617	116.891006
30278.516489	-1915.278333	1868.194336	12.256432
30278.516489	-1915.278333	1867.205078	28.524618
30278.516489	-1915.278333	1866.216797	8.525709
30278.516489	-1915.278333	1865.227539	-88.804291
30278.516489	-1915.278333	1864.238281	55.502796
30278.516489	-1915.278333	1863.249023	86.212868
30278.516489	-1915.278333	1862.259766	-6.271488
30278.516489	-1915.278333	1861.269531	-89.072266
30278.516489	-1915.278333	1860.279297	-174.265198
30278.516489	-1915.278333	1859.290039	184.709229
30278.516489	-1915.278333	1858.298828	-21.191811
30278.516489	-1915.278333	1857.308594	122.848953
30278.516489	-1915.278333	1856.318359	194.452164
30278.516489	-1915.278333	1855.327148	-62.016945
30278.516489	-1915.278333	1854.335938	120.503143
30278.516489	-1915.278333	1853.344727	-121.410194
30278.516489	-1915.278333	1852.353516	92.369270
30278.516489	-1915.278333	1851.362305	43.345680
30278.516489	-1915.278333	1850.370117	-53.867737
30278.516489	-1915.278333	1849.377930	3.138711
30278.516489	-1915.278333	1848.385742	-118.142555
30278.516489	-1915.278333	1847.393555	-94.887077
30278.516489	-1915.278333	1846.401367	82.454697
30278.516489	-1915.278333	1845.408203	139.341141
30278.516489	-1915.278333	1844.415039	-37.288200
30278.516489	-1915.278333	1843.421875	188.033188
30278.516489	-1915.278333	1842.428711	-123.308685
30278.516489	-1915.278333	1841.435547	150.030136
30278.516489	-1915.278333	1840.441406	48.036781
30278.516489	-1915.278333	1839.448242	-58.740337
30278.516489	-1915.278333	1838.454102	-127.024963
30278.516489	-1915.278333	1837.459961	-10.201713
30278.516489	-1915.278333	1836.464844	330.077332
30278.516489	-1915.278333	1835.470703	88.700027
30278.516489	-1915.278333	1834.475586	138.098785
30278.516489	-1915.278333	1833.480469	177.854858
30278.516489	-1915.278333	1832.485352	116.712128
30278.516489	-1915.278333	1831.490234	-14.056699
30278.516489	-1915.278333	1830.495117	131.286392
30278.516489	-1915.278333	1829.499023	34.131721
30278.516489	-1915.278333	1828.502930	32.987358
30278.516489	-1915.278333	1827.506836	60.618202
30278.516489	-1915.278333	1826.510742	-48.515556
30278.516489	-1915.278333	1825.513672	-66.487541
30278.516489	-1915.278333	1824.517578	71.399033
30278.516489	-1915.278333	1823.520508	84.541580
30278.516489	-1915.278333	1822.523438	66.498581
30278.516489	-1915.278333	1821.526367	43.650169
30278.516489	-1915.278333	1820.529297	152.579590
30278.516489	-1915.278333	1819.531250	-9.268813
30278.516489	-1915.278333	1818.533203	82.821236
30278.516489	-1915.278333	1817.535156	7.219611
30278.516489	-1915.278333	1816.537109	108.808891
30278.516489	-1915.278333	1815.539063	-64.959984
30278.516489	-1915.278333	1814.540039	113.151176
30278.516489	-1915.278333	1813.541992	63.841045
30278.516489	-1915.278333	1812.542969	-14.184760
30278.516489	-1915.278333	1811.543945	48.931290
30278.516489	-1915.278333	1810.543945	109.607491
30278.516489	-1915.278333	1809.544922	93.722862
30278.516489	-1915.278333	1808.544922	128.024857
30278.516489	-1915.278333	1807.544922	18.874029
30278.516489	-1915.278333	1806.544922	65.081192
30278.516489	-1915.278333	1805.544922	-29.725946
30278.516489	-1915.278333	1804.544922	-74.352768
30278.516489	-1915.278333	1803.543945	-92.716057
30278.516489	-1915.278333	1802.542969	-44.230553
30278.516489	-1915.278333	1801.541992	47.188999
30278.516489	-1915.278333	1800.541016	52.613190
30278.516489	-1915.278333	1799.539063	55.621250
30278.516489	-1915.278333	1798.538086	70.537994
30278.516489	-1915.278333	1797.536133	104.507401
30278.516489	-1915.278333	1796.534180	178.989410
30278.516489	-1915.278333	1795.532227	57.858341
30278.516489	-1915.278333	1794.529297	79.810509
30278.516489	-1915.278333	1793.527344	-119.977959
30278.516489	-1915.278333	1792.524414	-14.628910
30278.516489	-1915.278333	1791.521484	-4.668619
30278.516489	-1915.278333	1790.518555	133.922760
30278.516489	-1915.278333	1789.514648	-37.248402
30278.516489	-1915.278333	1788.511719	48.845837
30278.516489	-1915.278333	1787.507813	8.671289
30278.516489	-1915.278333	1786.503906	16.101238
30278.516489	-1915.278333	1785.500000	83.010040
30278.516489	-1915.278333	1784.496094	90.368721
30278.516489	-1915.278333	1783.491211	200.010086
30278.516489	-1915.278333	1782.486328	223.938400
30278.516489	-1915.278333	1781.481445	-16.189768
30278.516489	-1915.278333	1780.476563	29.117649
30278.516489	-1915.278333	1779.471680	88.645660
30278.516489	-1915.278333	1778.465820	24.504786
30278.516489	-1915.278333	1777.460938	171.893982
30278.516489	-1915.278333	1776.455078	188.498734
30278.516489	-1915.278333	1775.449219	69.645294
30278.516489	-1915.278333	1774.442383	67.199463
30278.516489	-1915.278333	1773.436523	-92.018005
30278.516489	-1915.278333	1772.429688	-49.375027
30278.516489	-1915.278333	1771.422852	81.061684
30278.516489	-1915.278333	1770.416016	-14.071734
30278.516489	-1915.278333	1769.409180	97.264648
30278.516489	-1915.278333	1768.402344	32.950130
30278.516489	-1915.278333	1767.394531	73.005135
30278.516489	-1915.278333	1766.386719	-31.664246
30278.516489	-1915.278333	1765.378906	5.957052
30278.516489	-1915.278333	1764.371094	55.387985
30278.516489	-1915.278333	1763.362305	50.246048
30278.516489	-1915.278333	1762.354492	99.589455
30278.516489	-1915.278333	1761.345703	-66.748123
30278.516489	-1915.278333	1760.336914	-74.323761
30278.516489	-1915.278333	1759.328125	43.610519
30278.516489	-1915.278333	1758.318359	109.365456
30278.516489	-1915.278333	1757.308594	49.574482
30278.516489	-1915.278333	1756.299805	41.859917
30278.516489	-1915.278333	1755.290039	29.379839
30278.516489	-1915.278333	1754.279297	-148.777008
30278.516489	-1915.278333	1753.269531	77.680557
30278.516489	-1915.278333	1752.258789	-164.347366
30278.516489	-1915.278333	1751.249023	-105.951813
30278.516489	-1915.278333	1750.238281	13.865379
30278.516489	-1915.278333	1749.226563	-48.435936
30278.516489	-1915.278333	1748.215820	130.354172
30278.516489	-1915.278333	1747.204102	1.821594
30278.516489	-1915.278333	1746.193359	156.843857
30278.516489	-1915.278333	1745.181641	-18.954195
30278.516489	-1915.278333	1744.168945	-60.093636
30278.516489	-1915.278333	1743.157227	80.585480
30278.516489	-1915.278333	1742.144531	29.935856
30278.516489	-1915.278333	1741.132813	-11.278919
30278.516489	-1915.278333	1740.120117	-21.833189
30278.516489	-1915.278333	1739.106445	-53.655239
30278.516489	-1915.278333	1738.093750	-35.949562
30278.516489	-1915.278333	1737.080078	-74.895935
30278.516489	-1915.278333	1736.067383	46.508289
30278.516489	-1915.278333	1735.053711	-51.447025
30278.516489	-1915.278333	1734.040039	20.334694
30278.516489	-1915.278333	1733.025391	-89.429665
30278.516489	-1915.278333	1732.011719	-192.109772
30278.516489	-1915.278333	1730.997070	119.873566
30278.516489	-1915.278333	1729.982422	-218.430786
30278.516489	-1915.278333	1728.967773	-142.136032
30278.516489	-1915.278333	1727.952148	115.404259
30278.516489	-1915.278333	1726.937500	-168.651917
30278.516489	-1915.278333	1725.921875	-106.630898
30278.516489	-1915.278333	1724.906250	40.055885
30278.516489	-1915.278333	1723.890625	-10.986002
30278.516489	-1915.278333	1722.875000	156.736206
30278.516489	-1915.278333	1721.858398	-122.515450
30278.516489	-1915.278333	1720.841797	2.770573
30278.516489	-1915.278333	1719.825195	8.073882
30278.516489	-1915.278333	1718.808594	-21.914982
30278.516489	-1915.278333	1717.791992	-4.919049
30278.516489	-1915.278333	1716.774414	-20.860964
30278.516489	-1915.278333	1715.756836	5.459946
30278.516489	-1915.278333	1714.739258	85.764023
30278.516489	-1915.278333	1713.721680	-54.740097
30278.516489	-1915.278333	1712.704102	-108.346718
30278.516489	-1915.278333	1711.685547	-147.882385
30278.516489	-1915.278333	1710.667969	-93.546623
30278.516489	-1915.278333	1709.649414	-158.941422
30278.516489	-1915.278333	1708.630859	127.577454
30278.516489	-1915.278333	1707.611328	118.398682
30278.516489	-1915.278333	1706.592773	-108.907471
30278.516489	-1915.278333	1705.573242	-228.300140
30278.516489	-1915.278333	1704.553711	27.416304
30278.516489	-1915.278333	1703.534180	-49.824860
30278.516489	-1915.278333	1702.513672	163.515350
30278.516489	-1915.278333	1701.494141	-143.390015
30278.516489	-1915.278333	1700.473633	-2.788873
30278.516489	-1915.278333	1699.453125	-89.450302
30278.516489	-1915.278333	1698.432617	29.956955
30278.516489	-1915.278333	1697.412109	65.008293
30278.516489	-1915.278333	1696.390625	-12.341422
30278.516489	-1915.278333	1695.369141	-38.202934
30278.516489	-1915.278333	1694.347656	59.929825
30278.516489	-1915.278333	1693.326172	-127.405815
30278.516489	-1915.278333	1692.304688	45.498383
30278.516489	-1915.278333	1691.282227	-88.035637
30278.516489	-1915.278333	1690.260742	87.080322
30278.516489	-1915.278333	1689.238281	-79.188774
30278.516489	-1915.278333	1688.214844	-53.781235
30278.516489	-1915.278333	1687.192383	25.341473
30278.516489	-1915.278333	1686.168945	95.057274
30278.516489	-1915.278333	1685.146484	-24.472157
30278.516489	-1915.278333	1684.123047	-48.236156
30278.516489	-1915.278333	1683.099609	-29.987732
30278.516489	-1915.278333	1682.075195	107.278511
30278.516489	-1915.278333	1681.051758	141.779114
30278.516489	-1915.278333	1680.027344	169.236496
30278.516489	-1915.278333	1679.002930	163.996399
30278.516489	-1915.278333	1677.978516	0.115722
30278.516489	-1915.278333	1676.953125	46.166195
30278.516489	-1915.278333	1675.928711	68.864571
30278.516489	-1915.278333	1674.903320	121.832512
30278.516489	-1915.278333	1673.877930	281.975433
30278.516489	-1915.278333	1672.852539	-0.737618
30278.516489	-1915.278333	1671.826172	247.855820
30278.516489	-1915.278333	1670.800781	216.799850
30278.516489	-1915.278333	1669.774414	199.703278
30278.516489	-1915.278333	1668.748047	73.147400
30278.516489	-1915.278333	1667.721680	114.246803
30278.516489	-1915.278333	1666.694336	111.078903
30278.516489	-1915.278333	1665.667969	63.679222
30278.516489	-1915.278333	1664.640625	174.495270
30278.516489	-1915.278333	1663.613281	101.466850
30278.516489	-1915.278333	1662.585938	151.721252
30278.516489	-1915.278333	1661.557617	229.835831
30278.516489	-1915.278333	1660.530273	252.108963
30278.516489	-1915.278333	1659.501953	102.331802
30278.516489	-1915.278333	1658.473633	-7.894642
30278.516489	-1915.278333	1657.444336	165.382935
30278.516489	-1915.278333	1656.416016	122.525551
30278.516489	-1915.278333	1655.386719	160.957031
30278.516489	-1915.278333	1654.358398	20.547230
30278.516489	-1915.278333	1653.328125	223.796890
30278.516489	-1915.278333	1652.298828	364.280182
30278.516489	-1915.278333	1651.269531	379.362549
30278.516489	-1915.278333	1650.239258	280.713959
30278.516489	-1915.278333	1649.208984	198.328217
30278.516489	-1915.278333	1648.178711	190.188095
30278.516489	-1915.278333	1647.148438	281.760773
30278.516489	-1915.278333	1646.117188	236.474030
30278.516489	-1915.278333	1645.086914	332.612030
30278.516489	-1915.278333	1644.055664	563.126709
30278.516489	-1915.278333	1643.024414	274.450409
30278.516489	-1915.278333	1641.992188	261.580231
30278.516489	-1915.278333	1640.960938	292.722260
30278.516489	-1915.278333	1639.928711	543.856689
30278.516489	-1915.278333	1638.896484	303.982361
30278.516489	-1915.278333	1637.864258	385.991150
30278.516489	-1915.278333	1636.832031	558.230225
30278.516489	-1915.278333	1635.798828	559.134094
30278.516489	-1915.278333	1634.766602	249.990112
30278.516489	-1915.278333	1633.733398	468.387726
30278.516489	-1915.278333	1632.699219	478.526520
30278.516489	-1915.278333	1631.666016	532.595215
30278.516489	-1915.278333	1630.632813	383.181671
30278.516489	-1915.278333	1629.598633	615.214661
30278.516489	-1915.278333	1628.564453	549.021118
30278.516489	-1915.278333	1627.530273	593.756775
30278.516489	-1915.278333	1626.495117	619.981140
30278.516489	-1915.278333	1625.460938	844.832153
30278.516489	-1915.278333	1624.425781	790.161072
30278.516489	-1915.278333	1623.390625	839.403198
30278.516489	-1915.278333	1622.355469	950.948608
30278.516489	-1915.278333	1621.319336	977.046387
30278.516489	-1915.278333	1620.284180	1079.283691
30278.516489	-1915.278333	1619.248047	1174.550659
30278.516489	-1915.278333	1618.211914	1057.570923
30278.516489	-1915.278333	1617.174805	989.057373
30278.516489	-1915.278333	1616.138672	1049.692871
30278.516489	-1915.278333	1615.101563	1015.782532
30278.516489	-1915.278333	1614.065430	949.622742
30278.516489	-1915.278333	1613.027344	1104.692139
30278.516489	-1915.278333	1611.990234	1020.101746
30278.516489	-1915.278333	1610.953125	1029.986328
30278.516489	-1915.278333	1609.915039	811.864502
30278.516489	-1915.278333	1608.876953	685.930481
30278.516489	-1915.278333	1607.838867	810.975647
30278.516489	-1915.278333	1606.800781	830.097168
30278.516489	-1915.278333	1605.761719	736.449463
30278.516489	-1915.278333	1604.723633	665.853882
30278.516489	-1915.278333	1603.684570	758.605225
30278.516489	-1915.278333	1602.644531	701.825867
30278.516489	-1915.278333	1601.605469	842.828552
30278.516489	-1915.278333	1600.566406	496.402435
30278.516489	-1915.278333	1599.526367	501.781006
30278.516489	-1915.278333	1598.486328	654.238464
30278.516489	-1915.278333	1597.446289	666.489197
30278.516489	-1915.278333	1596.405273	589.144592
30278.516489	-1915.278333	1595.365234	828.789734
30278.516489	-1915.278333	1594.324219	560.867798
30278.516489	-1915.278333	1593.283203	873.900024
30278.516489	-1915.278333	1592.242188	980.235596
30278.516489	-1915.278333	1591.200195	785.896057
30278.516489	-1915.278333	1590.159180	807.328735
30278.516489	-1915.278333	1589.117188	658.997375
30278.516489	-1915.278333	1588.075195	799.725037
30278.516489	-1915.278333	1587.032227	750.072449
30278.516489	-1915.278333	1585.990234	741.725098
30278.516489	-1915.278333	1584.947266	689.832336
30278.516489	-1915.278333	1583.904297	738.810913
30278.516489	-1915.278333	1582.861328	741.955261
30278.516489	-1915.278333	1581.818359	692.420959
30278.516489	-1915.278333	1580.775391	732.245667
30278.516489	-1915.278333	1579.731445	593.443359
30278.516489	-1915.278333	1578.687500	637.872009
30278.516489	-1915.278333	1577.643555	684.586792
30278.516489	-1915.278333	1576.598633	694.674988
30278.516489	-1915.278333	1575.554688	489.688904
30278.516489	-1915.278333	1574.509766	579.913086
30278.516489	-1915.278333	1573.464844	752.460388
30278.516489	-1915.278333	1572.419922	778.598694
30278.516489	-1915.278333	1571.374023	635.543396
30278.516489	-1915.278333	1570.329102	627.439453
30278.516489	-1915.278333	1569.283203	630.778564
30278.516489	-1915.278333	1568.237305	650.129456
30278.516489	-1915.278333	1567.191406	699.191772
30278.516489	-1915.278333	1566.144531	618.052063
30278.516489	-1915.278333	1565.098633	610.047424
30278.516489	-1915.278333	1564.051758	501.597504
30278.516489	-1915.278333	1563.004883	543.876465
30278.516489	-1915.278333	1561.957031	718.531372
30278.516489	-1915.278333	1560.910156	429.915771
30278.516489	-1915.278333	1559.862305	499.620453
30278.516489	-1915.278333	1558.814453	560.196289
30278.516489	-1915.278333	1557.766602	363.066681
30278.516489	-1915.278333	1556.718750	492.095245
30278.516489	-1915.278333	1555.669922	682.643188
30278.516489	-1915.278333	1554.621094	713.594299
30278.516489	-1915.278333	1553.573242	546.309021
30278.516489	-1915.278333	1552.523438	645.668823
30278.516489	-1915.278333	1551.474609	521.788208
30278.516489	-1915.278333	1550.424805	566.506287
30278.516489	-1915.278333	1549.375000	474.614136
30278.516489	-1915.278333	1548.325195	441.975372
30278.516489	-1915.278333	1547.275391	377.511322
30278.516489	-1915.278333	1546.225586	522.459656
30278.516489	-1915.278333	1545.174805	519.485596
30278.516489	-1915.278333	1544.124023	680.323181
30278.516489	-1915.278333	1543.073242	520.450500
30278.516489	-1915.278333	1542.022461	626.709595
30278.516489	-1915.278333	1540.970703	439.683777
30278.516489	-1915.278333	1539.919922	500.518341
30278.516489	-1915.278333	1538.868164	495.451630
30278.516489	-1915.278333	1537.815430	517.678406
30278.516489	-1915.278333	1536.763672	433.166168
30278.516489	-1915.278333	1535.710938	389.595734
30278.516489	-1915.278333	1534.659180	584.504700
30278.516489	-1915.278333	1533.606445	624.986206
30278.516489	-1915.278333	1532.552734	492.973328
30278.516489	-1915.278333	1531.500000	501.752472
30278.516489	-1915.278333	1530.446289	378.958954
30278.516489	-1915.278333	1529.393555	621.477661
30278.516489	-1915.278333	1528.338867	664.339722
30278.516489	-1915.278333	1527.285156	430.580231
30278.516489	-1915.278333	1526.231445	382.852936
30278.516489	-1915.278333	1525.176758	525.576477
30278.516489	-1915.278333	1524.122070	323.812592
30278.516489	-1915.278333	1523.067383	486.956055
30278.516489	-1915.278333	1522.012695	305.740692
30278.516489	-1915.278333	1520.957031	262.788330
30278.516489	-1915.278333	1519.901367	346.699585
30278.516489	-1915.278333	1518.845703	235.912231
30278.516489	-1915.278333	1517.790039	507.746979
30278.516489	-1915.278333	1516.734375	315.577179
30278.516489	-1915.278333	1515.677734	365.621582
30278.516489	-1915.278333	1514.621094	284.478546
30278.516489	-1915.278333	1513.564453	174.003952
30278.516489	-1915.278333	1512.507813	296.529114
30278.516489	-1915.278333	1511.450195	278.867645
30278.516489	-1915.278333	1510.393555	419.488037
30278.516489	-1915.278333	1509.335938	225.614929
30278.516489	-1915.278333	1508.278320	237.476303
30278.516489	-1915.278333	1507.219727	102.531456
30278.516489	-1915.278333	1506.162109	137.082520
30278.516489	-1915.278333	1505.103516	61.008694
30278.516489	-1915.278333	1504.044922	183.687256
30278.516489	-1915.278333	1502.986328	58.060883
30278.516489	-1915.278333	1501.926758	241.709137
30278.516489	-1915.278333	1500.868164	172.617340
30278.516489	-1915.278333	1499.808594	281.812561
30278.516489	-1915.278333	1498.749023	138.394455
30278.516489	-1915.278333	1497.688477	33.410576
30278.516489	-1915.278333	1496.628906	-30.900240
30278.516489	-1915.278333	1495.568359	-140.226410
30278.516489	-1915.278333	1494.507813	-69.168633
30278.516489	-1915.278333	1493.447266	-113.007881
30278.516489	-1915.278333	1492.386719	-53.154072
30278.516489	-1915.278333	1491.325195	-27.066282
30278.516489	-1915.278333	1490.263672	147.682938
30278.516489	-1915.278333	1489.202148	58.990299
30278.516489	-1915.278333	1488.140625	-20.615620
30278.516489	-1915.278333	1487.079102	100.158371
30278.516489	-1915.278333	1486.016602	13.917862
30278.516489	-1915.278333	1484.954102	-42.993942
30278.516489	-1915.278333	1483.891602	-0.868807
30278.516489	-1915.278333	1482.829102	-95.886200
30278.516489	-1915.278333	1481.765625	25.022514
30278.516489	-1915.278333	1480.702148	-67.616051
30278.516489	-1915.278333	1479.638672	78.055725
30278.516489	-1915.278333	1478.575195	21.503870
30278.516489	-1915.278333	1477.511719	-34.981377
30278.516489	-1915.278333	1476.447266	-55.452255
30278.516489	-1915.278333	1475.382813	162.140045
30278.516489	-1915.278333	1474.318359	231.513489
30278.516489	-1915.278333	1473.253906	42.870396
30278.516489	-1915.278333	1472.189453	15.888686
30278.516489	-1915.278333	1471.124023	-118.602798
30278.516489	-1915.278333	1470.058594	-208.415863
30278.516489	-1915.278333	1468.993164	103.194771
30278.516489	-1915.278333	1467.927734	114.653099
30278.516489	-1915.278333	1466.861328	-118.168892
30278.516489	-1915.278333	1465.794922	-111.182823
30278.516489	-1915.278333	1464.728516	-97.315315
30278.516489	-1915.278333	1463.662109	-137.211716
30278.516489	-1915.278333	1462.594727	169.601685
30278.516489	-1915.278333	1461.528320	58.399574
30278.516489	-1915.278333	1460.460938	284.713318
30278.516489	-1915.278333	1459.393555	122.033272
30278.516489	-1915.278333	1458.326172	95.901581
30278.516489	-1915.278333	1457.257813	223.592987
30278.516489	-1915.278333	1456.189453	179.752991
30278.516489	-1915.278333	1455.121094	280.699066
30278.516489	-1915.278333	1454.052734	116.881538
30278.516489	-1915.278333	1452.984375	-7.887993
30278.516489	-1915.278333	1451.915039	135.796310
30278.516489	-1915.278333	1450.845703	273.292572
30278.516489	-1915.278333	1449.776367	225.579391
30278.516489	-1915.278333	1448.707031	83.929291
30278.516489	-1915.278333	1447.636719	73.925072
30278.516489	-1915.278333	1446.567383	267.005920
30278.516489	-1915.278333	1445.497070	72.076637
30278.516489	-1915.278333	1444.425781	266.344452
30278.516489	-1915.278333	1443.355469	354.949432
30278.516489	-1915.278333	1442.285156	186.021271
30278.516489	-1915.278333	1441.213867	154.485855
30278.516489	-1915.278333	1440.142578	177.032730
30278.516489	-1915.278333	1439.070313	114.317360
30278.516489	-1915.278333	1437.999023	210.395233
30278.516489	-1915.278333	1436.926758	375.120178
30278.516489	-1915.278333	1435.854492	217.877853
30278.516489	-1915.278333	1434.782227	-54.542667
30278.516489	-1915.278333	1433.709961	73.668198
30278.516489	-1915.278333	1432.636719	78.230606
30278.516489	-1915.278333	1431.563477	82.126671
30278.516489	-1915.278333	1430.490234	344.752869
30278.516489	-1915.278333	1429.416992	9.824988
30278.516489	-1915.278333	1428.343750	16.473911
30278.516489	-1915.278333	1427.269531	-80.341698
30278.516489	-1915.278333	1426.195313	246.245728
30278.516489	-1915.278333	1425.121094	125.606270
30278.516489	-1915.278333	1424.046875	101.798492
30278.516489	-1915.278333	1422.971680	88.882835
30278.516489	-1915.278333	1421.896484	43.588921
30278.516489	-1915.278333	1420.821289	2.547573
30278.516489	-1915.278333	1419.746094	25.685493
30278.516489	-1915.278333	1418.669922	36.876781
30278.516489	-1915.278333	1417.594727	50.327225
30278.516489	-1915.278333	1416.518555	-176.051788
30278.516489	-1915.278333	1415.442383	-103.502670
30278.516489	-1915.278333	1414.365234	-7.761458
30278.516489	-1915.278333	1413.289063	106.942619
30278.516489	-1915.278333	1412.211914	54.257664
30278.516489	-1915.278333	1411.134766	-111.864601
30278.516489	-1915.278333	1410.057617	-25.386177
30278.516489	-1915.278333	1408.979492	190.529358
30278.516489	-1915.278333	1407.902344	107.723549
30278.516489	-1915.278333	1406.824219	226.433853
30278.516489	-1915.278333	1405.746094	82.751358
30278.516489	-1915.278333	1404.666992	239.940414
30278.516489	-1915.278333	1403.588867	269.235687
30278.516489	-1915.278333	1402.509766	154.691452
30278.516489	-1915.278333	1401.430664	330.475677
30278.516489	-1915.278333	1400.351563	375.417358
30278.516489	-1915.278333	1399.271484	361.855316
30278.516489	-1915.278333	1398.192383	126.761925
30278.516489	-1915.278333	1397.112305	320.656799
30278.516489	-1915.278333	1396.031250	404.351410
30278.516489	-1915.278333	1394.951172	461.102081
30278.516489	-1915.278333	1393.871094	418.590454
30278.516489	-1915.278333	1392.790039	359.042297
30278.516489	-1915.278333	1391.708984	232.187668
30278.516489	-1915.278333	1390.626953	269.270966
30278.516489	-1915.278333	1389.545898	384.074341
30278.516489	-1915.278333	1388.463867	282.885712
30278.516489	-1915.278333	1387.381836	385.417297
30278.516489	-1915.278333	1386.299805	267.655212
30278.516489	-1915.278333	1385.217773	303.220367
30278.516489	-1915.278333	1384.134766	360.285217
30278.516489	-1915.278333	1383.051758	433.011932
30278.516489	-1915.278333	1381.968750	505.982361
30278.516489	-1915.278333	1380.885742	587.705078
30278.516489	-1915.278333	1379.802734	525.214966
30278.516489	-1915.278333	1378.718750	610.473755
30278.516489	-1915.278333	1377.634766	501.098541
30278.516489	-1915.278333	1376.550781	677.712036
30278.516489	-1915.278333	1375.465820	608.523254
30278.516489	-1915.278333	1374.381836	711.287415
30278.516489	-1915.278333	1373.296875	500.653168
30278.516489	-1915.278333	1372.211914	632.950134
30278.516489	-1915.278333	1371.126953	481.738617
30278.516489	-1915.278333	1370.041016	545.811707
30278.516489	-1915.278333	1368.955078	523.963806
30278.516489	-1915.278333	1367.869141	550.208252
30278.516489	-1915.278333	1366.783203	403.772308
30278.516489	-1915.278333	1365.697266	576.866699
30278.516489	-1915.278333	1364.610352	496.090302
30278.516489	-1915.278333	1363.523438	533.739258
30278.516489	-1915.278333	1362.436523	474.973419
30278.516489	-1915.278333	1361.349609	591.367676
30278.516489	-1915.278333	1360.261719	805.002563
30278.516489	-1915.278333	1359.174805	292.479797
30278.516489	-1915.278333	1358.086914	428.549744
30278.516489	-1915.278333	1356.998047	237.899673
30278.516489	-1915.278333	1355.910156	418.370270
30278.516489	-1915.278333	1354.821289	397.190613
30278.516489	-1915.278333	1353.732422	487.383911
30278.516489	-1915.278333	1352.643555	325.566040
30278.516489	-1915.278333	1351.554688	399.666321
30278.516489	-1915.278333	1350.464844	428.851654
30278.516489	-1915.278333	1349.375000	338.633301
30278.516489	-1915.278333	1348.285156	264.115387
30278.516489	-1915.278333	1347.195313	394.416748
30278.516489	-1915.278333	1346.105469	484.484253
30278.516489	-1915.278333	1345.014648	591.408813
30278.516489	-1915.278333	1343.923828	534.756165
30278.516489	-1915.278333	1342.833008	627.339355
30278.516489	-1915.278333	1341.741211	615.917419
30278.516489	-1915.278333	1340.650391	536.080750
30278.516489	-1915.278333	1339.558594	669.601501
30278.516489	-1915.278333	1338.466797	623.307983
30278.516489	-1915.278333	1337.374023	505.787292
30278.516489	-1915.278333	1336.282227	379.562225
30278.516489	-1915.278333	1335.189453	594.352539
30278.516489	-1915.278333	1334.096680	247.178619
30278.516489	-1915.278333	1333.003906	487.347717
30278.516489	-1915.278333	1331.910156	445.014587
30278.516489	-1915.278333	1330.817383	472.609772
30278.516489	-1915.278333	1329.723633	190.640488
30278.516489	-1915.278333	1328.629883	230.585953
30278.516489	-1915.278333	1327.535156	280.871552
30278.516489	-1915.278333	1326.441406	133.887512
30278.516489	-1915.278333	1325.346680	151.941086
30278.516489	-1915.278333	1324.251953	173.931290
30278.516489	-1915.278333	1323.156250	151.859787
30278.516489	-1915.278333	1322.061523	140.059891
30278.516489	-1915.278333	1320.965820	204.251236
30278.516489	-1915.278333	1319.870117	118.850227
30278.516489	-1915.278333	1318.774414	93.118179
30278.516489	-1915.278333	1317.678711	100.321251
30278.516489	-1915.278333	1316.582031	191.023804
30278.516489	-1915.278333	1315.485352	195.647003
30278.516489	-1915.278333	1314.388672	129.556625
30278.516489	-1915.278333	1313.291016	100.610069
30278.516489	-1915.278333	1312.194336	-8.722236
30278.516489	-1915.278333	1311.096680	98.196854
30278.516489	-1915.278333	1309.999023	26.803978
30278.516489	-1915.278333	1308.901367	5.214890
30278.516489	-1915.278333	1307.802734	173.823257
30278.516489	-1915.278333	1306.705078	178.893158
30278.516489	-1915.278333	1305.606445	202.963379
30278.516489	-1915.278333	1304.506836	195.289383
30278.516489	-1915.278333	1303.408203	254.860672
30278.516489	-1915.278333	1302.308594	274.131226
30278.516489	-1915.278333	1301.208984	279.474945
30278.516489	-1915.278333	1300.109375	288.412842
30278.516489	-1915.278333	1299.009766	251.420990
30278.516489	-1915.278333	1297.909180	324.046600
30278.516489	-1915.278333	1296.808594	221.346100
30278.516489	-1915.278333	1295.708008	203.516251
30278.516489	-1915.278333	1294.607422	303.470642
30278.516489	-1915.278333	1293.506836	309.055511
30278.516489	-1915.278333	1292.405273	423.952881
30278.516489	-1915.278333	1291.303711	195.791290
30278.516489	-1915.278333	1290.202148	205.035156
30278.516489	-1915.278333	1289.099609	266.653656
30278.516489	-1915.278333	1287.998047	48.299709
30278.516489	-1915.278333	1286.895508	93.708153
30278.516489	-1915.278333	1285.792969	222.100204
30278.516489	-1915.278333	1284.689453	298.848480
30278.516489	-1915.278333	1283.586914	182.087158
30278.516489	-1915.278333	1282.483398	197.498489
30278.516489	-1915.278333	1281.379883	93.629791
30278.516489	-1915.278333	1280.276367	136.545990
30278.516489	-1915.278333	1279.171875	158.942062
30278.516489	-1915.278333	1278.067383	57.843754
30278.516489	-1915.278333	1276.962891	-73.227943
30278.516489	-1915.278333	1275.858398	-122.905357
30278.516489	-1915.278333	1274.753906	-92.094261
30278.516489	-1915.278333	1273.648438	-13.825208
30278.516489	-1915.278333	1272.542969	-14.734628
30278.516489	-1915.278333	1271.437500	-118.348412
30278.516489	-1915.278333	1270.331055	-106.076958
30278.516489	-1915.278333	1269.225586	-21.660528
30278.516489	-1915.278333	1268.119141	-62.276829
30278.516489	-1915.278333	1267.012695	-15.272326
30278.516489	-1915.278333	1265.906250	-25.594788
30278.516489	-1915.278333	1264.798828	-55.746346
30278.516489	-1915.278333	1263.691406	-53.910427
30278.516489	-1915.278333	1262.583984	-20.274052
30278.516489	-1915.278333	1261.476563	52.088055
30278.516489	-1915.278333	1260.368164	-109.682655
30278.516489	-1915.278333	1259.260742	-82.609848
30278.516489	-1915.278333	1258.152344	-254.321228
30278.516489	-1915.278333	1257.043945	-104.730759
30278.516489	-1915.278333	1255.934570	-186.911789
30278.516489	-1915.278333	1254.825195	-58.848583
30278.516489	-1915.278333	1253.716797	33.918865
30278.516489	-1915.278333	1252.606445	-20.713219
30278.516489	-1915.278333	1251.497070	-149.170380
30278.516489	-1915.278333	1250.387695	-38.640213
30278.516489	-1915.278333	1249.277344	-20.178465
30278.516489	-1915.278333	1248.166992	86.379967
30278.516489	-1915.278333	1247.055664	-68.839020
30278.516489	-1915.278333	1245.945313	-168.063339
30278.516489	-1915.278333	1244.833984	-50.842442
30278.516489	-1915.278333	1243.722656	-91.663574
30278.516489	-1915.278333	1242.611328	-138.417877
30278.516489	-1915.278333	1241.499023	-33.762623
30278.516489	-1915.278333	1240.387695	-52.296856
30278.516489	-1915.278333	1239.275391	-19.294596
30278.516489	-1915.278333	1238.162109	-105.182121
30278.516489	-1915.278333	1237.049805	-0.194222
30278.516489	-1915.278333	1235.936523	-103.391045
30278.516489	-1915.278333	1234.823242	-96.603607
30278.516489	-1915.278333	1233.709961	-59.539440
30278.516489	-1915.278333	1232.596680	-33.530087
30278.516489	-1915.278333	1231.482422	-49.251381
30278.516489	-1915.278333	1230.369141	-45.904884
30278.516489	-1915.278333	1229.253906	-13.683143
30278.516489	-1915.278333	1228.139648	8.790958
30278.516489	-1915.278333	1227.025391	29.724401
30278.516489	-1915.278333	1225.910156	135.536057
30278.516489	-1915.278333	1224.794922	63.316833
30278.516489	-1915.278333	1223.679688	-48.371273
30278.516489	-1915.278333	1222.563477	-34.706062
30278.516489	-1915.278333	1221.447266	-17.911093
30278.516489	-1915.278333	1220.331055	28.987776
30278.516489	-1915.278333	1219.214844	-130.945480
30278.516489	-1915.278333	1218.098633	-15.238686
30278.516489	-1915.278333	1216.981445	90.079742
30278.516489	-1915.278333	1215.864258	92.327316
30278.516489	-1915.278333	1214.747070	91.564102
30278.516489	-1915.278333	1213.629883	138.246674
30278.516489	-1915.278333	1212.511719	118.285049
30278.516489	-1915.278333	1211.393555	-45.294239
30278.516489	-1915.278333	1210.275391	93.717339
30278.516489	-1915.278333	1209.157227	78.259750
30278.516489	-1915.278333	1208.038086	32.645329
30278.516489	-1915.278333	1206.918945	54.940693
30278.516489	-1915.278333	1205.799805	56.182499
30278.516489	-1915.278333	1204.680664	6.675965
30278.516489	-1915.278333	1203.560547	30.118151
30278.516489	-1915.278333	1202.441406	-70.664734
30278.516489	-1915.278333	1201.321289	6.034368
30278.516489	-1915.278333	1200.200195	-20.038931
30278.516489	-1915.278333	1199.080078	29.070578
30278.516489	-1915.278333	1197.958984	-4.371532
30278.516489	-1915.278333	1196.837891	61.911449
30278.516489	-1915.278333	1195.716797	-52.947113
30278.516489	-1915.278333	1194.594727	51.159901
30278.516489	-1915.278333	1193.473633	94.695663
30278.516489	-1915.278333	1192.351563	231.128754
30278.516489	-1915.278333	1191.229492	133.065048
30278.516489	-1915.278333	1190.106445	226.678040
30278.516489	-1915.278333	1188.984375	158.557022
30278.516489	-1915.278333	1187.861328	151.408722
30278.516489	-1915.278333	1186.738281	270.949463
30278.516489	-1915.278333	1185.614258	295.769653
30278.516489	-1915.278333	1184.491211	165.754639
30278.516489	-1915.278333	1183.367188	309.549500
30278.516489	-1915.278333	1182.243164	395.493652
30278.516489	-1915.278333	1181.119141	487.606323
30278.516489	-1915.278333	1179.994141	588.655518
30278.516489	-1915.278333	1178.869141	495.649658
30278.516489	-1915.278333	1177.744141	465.754486
30278.516489	-1915.278333	1176.619141	385.993988
30278.516489	-1915.278333	1175.493164	398.698639
30278.516489	-1915.278333	1174.368164	315.077454
30278.516489	-1915.278333	1173.242188	362.883545
30278.516489	-1915.278333	1172.115234	371.091064
30278.516489	-1915.278333	1170.989258	316.875977
30278.516489	-1915.278333	1169.862305	186.157288
30278.516489	-1915.278333	1168.735352	171.035492
30278.516489	-1915.278333	1167.608398	150.005371
30278.516489	-1915.278333	1166.481445	-72.668793
30278.516489	-1915.278333	1165.353516	38.290588
30278.516489	-1915.278333	1164.225586	97.696037
30278.516489	-1915.278333	1163.097656	65.186859
30278.516489	-1915.278333	1161.968750	75.395065
30278.516489	-1915.278333	1160.840820	102.616196
30278.516489	-1915.278333	1159.711914	73.029587
30278.516489	-1915.278333	1158.583008	163.636398
30278.516489	-1915.278333	1157.453125	-6.243971
30278.516489	-1915.278333	1156.324219	-90.731766
30278.516489	-1915.278333	1155.194336	-71.382210
30278.516489	-1915.278333	1154.064453	86.607727
30278.516489	-1915.278333	1152.933594	61.601299
30278.516489	-1915.278333	1151.803711	122.462868
30278.516489	-1915.278333	1150.672852	-13.921578
30278.516489	-1915.278333	1149.541992	37.161259
30278.516489	-1915.278333	1148.411133	-95.183434
30278.516489	-1915.278333	1147.279297	-0.980199
30278.516489	-1915.278333	1146.147461	-51.379898
30278.516489	-1915.278333	1145.015625	72.807632
30278.516489	-1915.278333	1143.883789	-37.421780
30278.516489	-1915.278333	1142.750977	179.731445
30278.516489	-1915.278333	1141.619141	12.758176
30278.516489	-1915.278333	1140.486328	17.776354
30278.516489	-1915.278333	1139.352539	27.899897
30278.516489	-1915.278333	1138.219727	-59.457260
30278.516489	-1915.278333	1137.085938	-52.229118
30278.516489	-1915.278333	1135.952148	-86.586739
30278.516489	-1915.278333	1134.818359	71.514580
30278.516489	-1915.278333	1133.683594	100.931801
30278.516489	-1915.278333	1132.549805	-72.787979
30278.516489	-1915.278333	1131.415039	96.678741
30278.516489	-1915.278333	1130.279297	136.070938
30278.516489	-1915.278333	1129.144531	-36.749664
30278.516489	-1915.278333	1128.008789	-37.213623
30278.516489	-1915.278333	1126.873047	-35.768078
30278.516489	-1915.278333	1125.737305	47.346554
30278.516489	-1915.278333	1124.601563	-19.795700
30278.516489	-1915.278333	1123.464844	66.345482
30278.516489	-1915.278333	1122.328125	31.780146
30278.516489	-1915.278333	1121.191406	29.019840
30278.516489	-1915.278333	1120.054688	260.056580
30278.516489	-1915.278333	1118.916992	-10.943433
30278.516489	-1915.278333	1117.779297	-4.289359
30278.516489	-1915.278333	1116.641602	-78.053604
30278.516489	-1915.278333	1115.503906	187.174820
30278.516489	-1915.278333	1114.365234	135.003372
30278.516489	-1915.278333	1113.226563	154.070343
30278.516489	-1915.278333	1112.087891	60.941029
30278.516489	-1915.278333	1110.949219	-6.041918
30278.516489	-1915.278333	1109.809570	-79.721344
30278.516489	-1915.278333	1108.669922	105.149590
30278.516489	-1915.278333	1107.530273	148.512177
30278.516489	-1915.278333	1106.390625	43.134861
30278.516489	-1915.278333	1105.250000	73.261604
30278.516489	-1915.278333	1104.109375	-23.177992
30278.516489	-1915.278333	1102.968750	98.762276
30278.516489	-1915.278333	1101.828125	-90.903999
30278.516489	-1915.278333	1100.686523	193.291611
30278.516489	-1915.278333	1099.544922	52.219311
30278.516489	-1915.278333	1098.403320	206.150513
30278.516489	-1915.278333	1097.261719	102.270714
30278.516489	-1915.278333	1096.120117	216.119873
30278.516489	-1915.278333	1094.977539	205.886993
30278.516489	-1915.278333	1093.834961	195.950287
30278.516489	-1915.278333	1092.691406	318.636383
30278.516489	-1915.278333	1091.548828	144.981308
30278.516489	-1915.278333	1090.405273	126.171539
30278.516489	-1915.278333	1089.261719	313.354004
30278.516489	-1915.278333	1088.118164	271.913483
30278.516489	-1915.278333	1086.973633	247.651962
30278.516489	-1915.278333	1085.829102	201.335693
30278.516489	-1915.278333	1084.684570	260.905090
30278.516489	-1915.278333	1083.540039	114.830818
30278.516489	-1915.278333	1082.395508	78.119751
30278.516489	-1915.278333	1081.250000	-18.643030
30278.516489	-1915.278333	1080.104492	-104.303902
30278.516489	-1915.278333	1078.958984	178.480392
30278.516489	-1915.278333	1077.812500	81.054176
30278.516489	-1915.278333	1076.666016	115.665871
30278.516489	-1915.278333	1075.519531	48.893658
30278.516489	-1915.278333	1074.373047	134.690674
30278.516489	-1915.278333	1073.226563	-10.009906
30278.516489	-1915.278333	1072.079102	29.851851
30278.516489	-1915.278333	1070.931641	20.706253
30278.516489	-1915.278333	1069.784180	140.991348
30278.516489	-1915.278333	1068.635742	-18.328712
30278.516489	-1915.278333	1067.487305	10.027088
30278.516489	-1915.278333	1066.338867	30.612041
30278.516489	-1915.278333	1065.190430	68.318314
30278.516489	-1915.278333	1064.041992	-13.613301
30278.516489	-1915.278333	1062.892578	-98.288124
30278.516489	-1915.278333	1061.743164	96.897324
30278.516489	-1915.278333	1060.593750	178.054947
30278.516489	-1915.278333	1059.443359	-111.423607
30278.516489	-1915.278333	1058.292969	22.860678
30278.516489	-1915.278333	1057.142578	93.582710
30278.516489	-1915.278333	1055.992188	166.331482
30278.516489	-1915.278333	1054.841797	3.580234
30278.516489	-1915.278333	1053.690430	-7.374735
30278.516489	-1915.278333	1052.539063	38.909725
30278.516489	-1915.278333	1051.387695	62.516750
30278.516489	-1915.278333	1050.235352	131.611679
30278.516489	-1915.278333	1049.083984	-45.709999
30278.516489	-1915.278333	1047.931641	55.109760
30278.516489	-1915.278333	1046.778320	107.391319
30278.516489	-1915.278333	1045.625977	61.315346
30278.516489	-1915.278333	1044.472656	169.655518
30278.516489	-1915.278333	1043.319336	-62.518719
30278.516489	-1915.278333	1042.166016	116.952950
30278.516489	-1915.278333	1041.012695	146.350006
30278.516489	-1915.278333	1039.858398	125.720314
30278.516489	-1915.278333	1038.704102	43.371277
30278.516489	-1915.278333	1037.549805	200.014496
30278.516489	-1915.278333	1036.394531	141.911163
30278.516489	-1915.278333	1035.239258	-56.779686
30278.516489	-1915.278333	1034.083984	-130.105194
30278.516489	-1915.278333	1032.928711	115.416763
30278.516489	-1915.278333	1031.773438	28.268818
30278.516489	-1915.278333	1030.617188	56.191982
30278.516489	-1915.278333	1029.460938	4.829880
30278.516489	-1915.278333	1028.304688	47.079700
30278.516489	-1915.278333	1027.147461	28.903568
30278.516489	-1915.278333	1025.991211	29.320740
30278.516489	-1915.278333	1024.833984	117.554543
30278.516489	-1915.278333	1023.675781	35.641243
30278.516489	-1915.278333	1022.518555	82.494827
30278.516489	-1915.278333	1021.360352	10.339434
30278.516489	-1915.278333	1020.202148	73.166611
30278.516489	-1915.278333	1019.043945	-62.499962
30278.516489	-1915.278333	1017.884766	167.410522
30278.516489	-1915.278333	1016.726563	31.251347
30278.516489	-1915.278333	1015.567383	-32.702881
30278.516489	-1915.278333	1014.407227	-73.752762
30278.516489	-1915.278333	1013.248047	78.460045
30278.516489	-1915.278333	1012.087891	233.168503
30278.516489	-1915.278333	1010.927734	238.478683
30278.516489	-1915.278333	1009.767578	224.965073
30278.516489	-1915.278333	1008.606445	77.749084
30278.516489	-1915.278333	1007.446289	360.451050
30278.516489	-1915.278333	1006.285156	357.244110
30278.516489	-1915.278333	1005.123047	169.341339
30278.516489	-1915.278333	1003.961914	157.710938
30278.516489	-1915.278333	1002.799805	120.558105
30278.516489	-1915.278333	1001.637695	122.902748
30278.516489	-1915.278333	1000.475586	136.232468
30278.516489	-1915.278333	999.312500	173.477036
30278.516489	-1915.278333	998.149414	-27.607695
30278.516489	-1915.278333	996.986328	102.212463
30278.516489	-1915.278333	995.823242	54.834312
30278.516489	-1915.278333	994.659180	55.628452
30278.516489	-1915.278333	993.496094	30.214460
30278.516489	-1915.278333	992.332031	-89.650673
30278.516489	-1915.278333	991.166992	-27.591702
30278.516489	-1915.278333	990.002930	-62.523075
30278.516489	-1915.278333	988.837891	38.724659
30278.516489	-1915.278333	987.672852	-68.850227
30278.516489	-1915.278333	986.506836	-35.973465
30278.516489	-1915.278333	985.341797	-68.247787
30278.516489	-1915.278333	984.175781	-107.032730
30278.516489	-1915.278333	983.009766	125.975258
30278.516489	-1915.278333	981.843750	140.647125
30278.516489	-1915.278333	980.676758	15.911822
30278.516489	-1915.278333	979.509766	207.426010
30278.516489	-1915.278333	978.342773	74.925850
30278.516489	-1915.278333	977.175781	41.046486
30278.516489	-1915.278333	976.007813	-65.120140
30278.516489	-1915.278333	974.839844	-27.350872
30278.516489	-1915.278333	973.671875	-58.839203
30278.516489	-1915.278333	972.503906	47.462097
30278.516489	-1915.278333	971.334961	165.115128
30278.516489	-1915.278333	970.166016	-45.309711
30278.516489	-1915.278333	968.997070	95.064911
30278.516489	-1915.278333	967.828125	-38.331463
30278.516489	-1915.278333	966.658203	-3.087186
30278.516489	-1915.278333	965.488281	-165.113220
30278.516489	-1915.278333	964.318359	-10.927246
30278.516489	-1915.278333	963.148438	65.923225
30278.516489	-1915.278333	961.977539	-38.580399
30278.516489	-1915.278333	960.806641	-91.139038
30278.516489	-1915.278333	959.635742	-47.380249
30278.516489	-1915.278333	958.463867	-34.546318
30278.516489	-1915.278333	957.292969	-15.302961
30278.516489	-1915.278333	956.121094	113.746223
30278.516489	-1915.278333	954.948242	-15.604500
30278.516489	-1915.278333	953.776367	118.136971
30278.516489	-1915.278333	952.603516	141.501221
30278.516489	-1915.278333	951.430664	-140.082169
30278.516489	-1915.278333	950.257813	-67.761734
30278.516489	-1915.278333	949.084961	1.952633
30278.516489	-1915.278333	947.911133	-28.761074
30278.516489	-1915.278333	946.737305	28.309999
30278.516489	-1915.278333	945.563477	-137.700958
30278.516489	-1915.278333	944.388672	-174.941681
30278.516489	-1915.278333	943.213867	-156.558640
30278.516489	-1915.278333	942.039063	-39.528511
30278.516489	-1915.278333	940.864258	120.745743
30278.516489	-1915.278333	939.688477	-86.528175
30278.516489	-1915.278333	938.513672	-20.837801
30278.516489	-1915.278333	937.337891	64.304138
30278.516489	-1915.278333	936.161133	80.273949
30278.516489	-1915.278333	934.985352	94.415222
30278.516489	-1915.278333	933.808594	24.716146
30278.516489	-1915.278333	932.631836	-124.479431
30278.516489	-1915.278333	931.454102	5.420387
30278.516489	-1915.278333	930.277344	193.362778
30278.516489	-1915.278333	929.099609	130.052643
30278.516489	-1915.278333	927.921875	28.050661
30278.516489	-1915.278333	926.743164	91.432098
30278.516489	-1915.278333	925.565430	154.692047
30278.516489	-1915.278333	924.386719	-52.347488
30278.516489	-1915.278333	923.208008	246.856155
30278.516489	-1915.278333	922.028320	365.810791
30278.516489	-1915.278333	920.849609	396.798706
30278.516489	-1915.278333	919.669922	395.211182
30278.516489	-1915.278333	919.474609	399.632202
30278.516489	-1915.278333	918.309570	548.483704
30278.516489	-1915.278333	917.143555	476.548737
30278.516489	-1915.278333	915.977539	434.629761
30278.516489	-1915.278333	914.810547	332.742340
30278.516489	-1915.278333	913.644531	280.147308
30278.516489	-1915.278333	912.477539	107.661636
30278.516489	-1915.278333	911.310547	12.305557
30278.516489	-1915.278333	910.143555	-18.811237
30278.516489	-1915.278333	908.975586	18.552404
30278.516489	-1915.278333	907.807617	73.010460
30278.516489	-1915.278333	906.639648	14.075935
30278.516489	-1915.278333	905.471680	-91.886101
30278.516489	-1915.278333	904.303711	-39.591644
30278.516489	-1915.278333	903.134766	-92.069107
30278.516489	-1915.278333	901.965820	-59.040443
30278.516489	-1915.278333	900.796875	-98.679176
30278.516489	-1915.278333	899.626953	-223.760315
30278.516489	-1915.278333	898.457031	-56.174755
30278.516489	-1915.278333	897.287109	19.514324
30278.516489	-1915.278333	896.117188	-203.733795
30278.516489	-1915.278333	894.947266	-74.684952
30278.516489	-1915.278333	893.776367	171.686630
30278.516489	-1915.278333	892.605469	87.228790
30278.516489	-1915.278333	891.434570	-144.393127
30278.516489	-1915.278333	890.262695	-181.833084
30278.516489	-1915.278333	889.091797	-25.206665
30278.516489	-1915.278333	887.919922	-124.484642
30278.516489	-1915.278333	886.748047	-157.644363
30278.516489	-1915.278333	885.575195	-48.007271
30278.516489	-1915.278333	884.403320	-202.617203
30278.516489	-1915.278333	883.230469	-218.698822
30278.516489	-1915.278333	882.057617	-75.037613
30278.516489	-1915.278333	880.883789	94.117249
30278.516489	-1915.278333	879.710938	-5.041779
30278.516489	-1915.278333	878.537109	-199.941528
30278.516489	-1915.278333	877.362305	-133.008972
30278.516489	-1915.278333	876.188477	63.685097
30278.516489	-1915.278333	875.013672	-24.745104
30278.516489	-1915.278333	873.839844	5.963627
30278.516489	-1915.278333	872.664063	-88.794121
30278.516489	-1915.278333	871.489258	-79.339745
30278.516489	-1915.278333	870.313477	-91.142044
30278.516489	-1915.278333	869.138672	118.068008
30278.516489	-1915.278333	867.962891	21.253254
30278.516489	-1915.278333	866.786133	39.185390
30278.516489	-1915.278333	865.610352	-142.514542
30278.516489	-1915.278333	864.433594	53.807220
30278.516489	-1915.278333	863.256836	27.154167
30278.516489	-1915.278333	862.079102	72.676529
30278.516489	-1915.278333	860.902344	-15.496913
30278.516489	-1915.278333	859.724609	49.118706
30278.516489	-1915.278333	858.546875	-117.486366
30278.516489	-1915.278333	857.368164	-97.400665
30278.516489	-1915.278333	856.190430	41.417141
30278.516489	-1915.278333	855.011719	-86.913795
30278.516489	-1915.278333	853.833008	138.748596
30278.516489	-1915.278333	852.654297	163.025543
30278.516489	-1915.278333	851.474609	64.424721
30278.516489	-1915.278333	850.294922	50.593040
30278.516489	-1915.278333	849.115234	36.772827
30278.516489	-1915.278333	847.935547	198.691727
30278.516489	-1915.278333	846.754883	59.970715
30278.516489	-1915.278333	845.575195	37.711002
30278.516489	-1915.278333	844.393555	78.942207
30278.516489	-1915.278333	843.212891	44.007973
30278.516489	-1915.278333	842.032227	231.171814
30278.516489	-1915.278333	840.850586	240.639648
30278.516489	-1915.278333	839.668945	87.321960
30278.516489	-1915.278333	838.486328	172.921738
30278.516489	-1915.278333	837.304688	197.210983
30278.516489	-1915.278333	836.122070	1.759662
30278.516489	-1915.278333	834.939453	146.494797
30278.516489	-1915.278333	833.756836	253.161575
30278.516489	-1915.278333	832.573242	300.668060
30278.516489	-1915.278333	831.389648	160.275253
30278.516489	-1915.278333	830.206055	233.124786
30278.516489	-1915.278333	829.022461	103.370018
30278.516489	-1915.278333	827.838867	51.738518
30278.516489	-1915.278333	826.654297	21.228214
30278.516489	-1915.278333	825.469727	142.582458
30278.516489	-1915.278333	824.284180	107.863609
30278.516489	-1915.278333	823.099609	121.653992
30278.516489	-1915.278333	821.914063	127.014877
30278.516489	-1915.278333	820.728516	258.813568
30278.516489	-1915.278333	819.542969	222.024689
30278.516489	-1915.278333	818.356445	197.895172
30278.516489	-1915.278333	817.169922	220.113586
30278.516489	-1915.278333	815.983398	122.319550
30278.516489	-1915.278333	814.796875	315.066742
30278.516489	-1915.278333	813.609375	488.799408
30278.516489	-1915.278333	812.422852	422.595764
30278.516489	-1915.278333	811.235352	621.494690
30278.516489	-1915.278333	810.046875	685.708069
30278.516489	-1915.278333	808.859375	663.686096
30278.516489	-1915.278333	807.670898	587.017456
30278.516489	-1915.278333	806.482422	577.651489
30278.516489	-1915.278333	805.293945	513.656311
30278.516489	-1915.278333	804.104492	361.447937
30278.516489	-1915.278333	802.915039	364.759644
30278.516489	-1915.278333	801.725586	452.085480
30278.516489	-1915.278333	800.536133	209.713455
30278.516489	-1915.278333	799.345703	175.286011
30278.516489	-1915.278333	798.155273	338.178070
30278.516489	-1915.278333	796.964844	253.387512
30278.516489	-1915.278333	795.774414	317.599792
30278.516489	-1915.278333	794.583008	60.854813
30278.516489	-1915.278333	793.392578	68.469765
30278.516489	-1915.278333	792.200195	15.279614
30278.516489	-1915.278333	791.008789	54.357285
30278.516489	-1915.278333	789.816406	7.491804
30278.516489	-1915.278333	788.625000	42.375252
30278.516489	-1915.278333	787.432617	-27.503134
30278.516489	-1915.278333	786.239258	-76.401329
30278.516489	-1915.278333	785.046875	-49.884140
30278.516489	-1915.278333	783.853516	20.595299
30278.516489	-1915.278333	782.660156	-28.267982
30278.516489	-1915.278333	781.465820	69.393112
30278.516489	-1915.278333	780.272461	60.304726
30278.516489	-1915.278333	779.078125	5.200269
30278.516489	-1915.278333	777.883789	-60.334652
30278.516489	-1915.278333	776.688477	39.358070
30278.516489	-1915.278333	775.494141	86.746712
30278.516489	-1915.278333	774.298828	77.681870
30278.516489	-1915.278333	773.103516	72.802841
30278.516489	-1915.278333	771.907227	168.218887
30278.516489	-1915.278333	770.711914	-24.675995
30278.516489	-1915.278333	769.515625	170.972717
30278.516489	-1915.278333	768.318359	-3.047134
30278.516489	-1915.278333	767.122070	104.840050
30278.516489	-1915.278333	765.924805	118.757347
30278.516489	-1915.278333	764.727539	191.100815
30278.516489	-1915.278333	763.530273	111.112350
30278.516489	-1915.278333	762.333008	118.765305
30278.516489	-1915.278333	761.134766	136.842743
30278.516489	-1915.278333	759.936523	134.061996
30278.516489	-1915.278333	758.738281	112.520401
30278.516489	-1915.278333	757.540039	24.293833
30278.516489	-1915.278333	756.340820	46.541309
30278.516489	-1915.278333	755.141602	106.277000
30278.516489	-1915.278333	753.942383	-8.974993
30278.516489	-1915.278333	752.742188	32.001949
30278.516489	-1915.278333	751.541992	62.549133
30278.516489	-1915.278333	750.341797	78.509972
30278.516489	-1915.278333	749.141602	111.110687
30278.516489	-1915.278333	747.941406	87.515968
30278.516489	-1915.278333	746.740234	38.962933
30278.516489	-1915.278333	745.539063	-26.211052
30278.516489	-1915.278333	744.337891	-10.267080
30278.516489	-1915.278333	743.135742	59.718456
30278.516489	-1915.278333	741.933594	23.664961
30278.516489	-1915.278333	740.731445	27.104292
30278.516489	-1915.278333	739.529297	-17.249083
30278.516489	-1915.278333	738.326172	-42.895412
30278.516489	-1915.278333	737.124023	-49.846081
30278.516489	-1915.278333	735.919922	306.560028
30278.516489	-1915.278333	734.716797	287.068237
30278.516489	-1915.278333	733.513672	284.181213
30278.516489	-1915.278333	732.309570	148.483658
30278.516489	-1915.278333	731.105469	195.399811
30278.516489	-1915.278333	729.900391	34.868832
30278.516489	-1915.278333	728.696289	220.712402
30278.516489	-1915.278333	727.491211	103.763283
30278.516489	-1915.278333	726.286133	148.538559
30278.516489	-1915.278333	725.080078	6.762468
30278.516489	-1915.278333	723.874023	-58.300816
30278.516489	-1915.278333	722.668945	15.448828
30278.516489	-1915.278333	721.461914	-57.897106
30278.516489	-1915.278333	720.255859	-104.304985
30278.516489	-1915.278333	719.048828	97.727745
30278.516489	-1915.278333	717.841797	94.746529
30278.516489	-1915.278333	716.634766	56.573189
30278.516489	-1915.278333	715.427734	-12.632545
30278.516489	-1915.278333	714.219727	108.481400
30278.516489	-1915.278333	713.011719	99.237846
30278.516489	-1915.278333	711.803711	-23.738663
30278.516489	-1915.278333	710.594727	-107.403694
30278.516489	-1915.278333	709.385742	-184.849457
30278.516489	-1915.278333	708.176758	-254.013397
30278.516489	-1915.278333	706.967773	-97.977516
30278.516489	-1915.278333	705.758789	-191.951721
30278.516489	-1915.278333	704.548828	-71.137260
30278.516489	-1915.278333	703.338867	-132.081375
30278.516489	-1915.278333	702.127930	-11.368632
30278.516489	-1915.278333	700.917969	-43.445488
30278.516489	-1915.278333	699.707031	-180.760956
30278.516489	-1915.278333	698.496094	-169.508682
30278.516489	-1915.278333	697.285156	-108.782875
30278.516489	-1915.278333	696.073242	-8.925033
30278.516489	-1915.278333	694.861328	-47.260597
30278.516489	-1915.278333	693.649414	15.396509
30278.516489	-1915.278333	692.436523	-20.913437
30278.516489	-1915.278333	691.224609	-65.471573
30278.516489	-1915.278333	690.011719	-239.808243
30278.516489	-1915.278333	688.798828	-245.220474
30278.516489	-1915.278333	687.584961	37.605392
30278.516489	-1915.278333	686.372070	198.832687
30278.516489	-1915.278333	685.158203	-8.444080
30278.516489	-1915.278333	683.943359	31.265821
30278.516489	-1915.278333	682.729492	110.021355
30278.516489	-1915.278333	681.514648	30.337828
30278.516489	-1915.278333	680.299805	109.005257
30278.516489	-1915.278333	679.084961	105.371849
30278.516489	-1915.278333	677.869141	179.821411
30278.516489	-1915.278333	676.653320	-70.498558
30278.516489	-1915.278333	675.437500	-59.797459
30278.516489	-1915.278333	674.221680	248.737762
30278.516489	-1915.278333	673.004883	64.192970
30278.516489	-1915.278333	671.789063	50.128540
30278.516489	-1915.278333	670.571289	-2.969595
30278.516489	-1915.278333	669.354492	93.758476
30278.516489	-1915.278333	668.136719	24.192820
30278.516489	-1915.278333	666.919922	96.189903
30278.516489	-1915.278333	665.701172	-112.897423
30278.516489	-1915.278333	664.483398	47.215866
30278.516489	-1915.278333	663.264648	80.103012
30278.516489	-1915.278333	662.045898	24.795631
30278.516489	-1915.278333	660.827148	86.298225
30278.516489	-1915.278333	659.608398	59.629940
30278.516489	-1915.278333	658.388672	73.908623
30278.516489	-1915.278333	657.168945	61.519524
30278.516489	-1915.278333	655.949219	106.436882
30278.516489	-1915.278333	654.728516	222.953293
30278.516489	-1915.278333	653.507813	38.489239
30278.516489	-1915.278333	652.287109	73.038528
30278.516489	-1915.278333	651.066406	-92.976349
30278.516489	-1915.278333	649.844727	-48.263874
30278.516489	-1915.278333	648.623047	29.114166
30278.516489	-1915.278333	647.401367	104.376190
30278.516489	-1915.278333	646.179688	118.237701
30278.516489	-1915.278333	644.957031	35.990108
30278.516489	-1915.278333	643.734375	25.257317
30278.516489	-1915.278333	642.511719	30.833944
30278.516489	-1915.278333	641.289063	-55.548862
30278.516489	-1915.278333	640.065430	27.560368
30278.516489	-1915.278333	638.841797	77.926315
30278.516489	-1915.278333	637.618164	58.825073
30278.516489	-1915.278333	636.393555	125.404320
30278.516489	-1915.278333	635.168945	281.690582
30278.516489	-1915.278333	633.944336	233.871094
30278.516489	-1915.278333	632.719727	57.536423
30278.516489	-1915.278333	631.494141	170.787292
30278.516489	-1915.278333	630.269531	126.969360
30278.516489	-1915.278333	629.042969	101.466240
30278.516489	-1915.278333	627.817383	18.874342
30278.516489	-1915.278333	626.590820	40.177441
30278.516489	-1915.278333	625.365234	36.987122
30278.516489	-1915.278333	624.137695	13.381935
30278.516489	-1915.278333	622.911133	18.251703
30278.516489	-1915.278333	621.683594	57.676636
30278.516489	-1915.278333	620.456055	109.252098
30278.516489	-1915.278333	619.228516	65.125389
30278.516489	-1915.278333	618.000977	94.208466
30278.516489	-1915.278333	616.772461	7.296086
30278.516489	-1915.278333	615.543945	127.793350
30278.516489	-1915.278333	614.314453	-54.738449
30278.516489	-1915.278333	613.085938	75.792549
30278.516489	-1915.278333	611.856445	88.349869
30278.516489	-1915.278333	610.626953	192.285080
30278.516489	-1915.278333	609.397461	186.437943
30278.516489	-1915.278333	608.166992	18.068846
30278.516489	-1915.278333	606.936523	-164.487106
30278.516489	-1915.278333	605.706055	6.216323
30278.516489	-1915.278333	604.474609	0.219720
30278.516489	-1915.278333	603.244141	69.262062
30278.516489	-1915.278333	602.012695	-149.858643
30278.516489	-1915.278333	600.780273	-164.075134
30278.516489	-1915.278333	599.548828	-127.632576
30278.516489	-1915.278333	598.316406	-48.678444
30278.516489	-1915.278333	597.083984	38.302410
30278.516489	-1915.278333	595.851563	-278.094269
30278.516489	-1915.278333	594.618164	25.601553
30278.516489	-1915.278333	593.384766	-21.332094
30278.516489	-1915.278333	592.151367	-35.888329
30278.516489	-1915.278333	590.917969	-42.385437
30278.516489	-1915.278333	589.683594	171.733475
30278.516489	-1915.278333	588.449219	47.704571
30278.516489	-1915.278333	587.214844	154.369766
30278.516489	-1915.278333	585.979492	84.924545
30278.516489	-1915.278333	584.745117	68.057350
30278.516489	-1915.278333	583.509766	-19.633942
30278.516489	-1915.278333	582.273438	-64.879753
30278.516489	-1915.278333	581.038086	81.888466
30278.516489	-1915.278333	579.801758	155.786987
30278.516489	-1915.278333	578.565430	-136.114624
30278.516489	-1915.278333	577.329102	-38.051552
30278.516489	-1915.278333	576.091797	-79.439819
30278.516489	-1915.278333	574.854492	147.707260
30278.516489	-1915.278333	573.617188	277.807861
30278.516489	-1915.278333	572.378906	103.023056
30278.516489	-1915.278333	571.141602	101.818497
30278.516489	-1915.278333	569.903320	-109.260323
30278.516489	-1915.278333	568.664063	54.886383
30278.516489	-1915.278333	567.425781	-61.396587
30278.516489	-1915.278333	566.186523	-10.329535
30278.516489	-1915.278333	564.947266	159.605820
30278.516489	-1915.278333	563.708008	0.915637
30278.516489	-1915.278333	562.467773	-16.706987
30278.516489	-1915.278333	561.227539	-28.321774
30278.516489	-1915.278333	559.987305	-5.735035
30278.516489	-1915.278333	558.747070	6.732276
30278.516489	-1915.278333	557.505859	-137.886017
30278.516489	-1915.278333	556.264648	-30.882853
30278.516489	-1915.278333	555.023438	53.896412
30278.516489	-1915.278333	553.781250	21.901562
30278.516489	-1915.278333	552.539063	-2.075283
30278.516489	-1915.278333	551.296875	60.394001
30278.516489	-1915.278333	550.054688	-178.801514
30278.516489	-1915.278333	548.811523	92.658943
30278.516489	-1915.278333	547.569336	-21.913828
30278.516489	-1915.278333	546.325195	56.414314
30278.516489	-1915.278333	545.082031	34.227634
30278.516489	-1915.278333	543.837891	-182.818146
30278.516489	-1915.278333	542.593750	25.905304
30278.516489	-1915.278333	541.349609	-74.677734
30278.516489	-1915.278333	540.105469	37.511311
30278.516489	-1915.278333	538.860352	-39.027252
30278.516489	-1915.278333	537.615234	-27.288975
30278.516489	-1915.278333	536.369141	44.580906
30278.516489	-1915.278333	535.124023	20.125206
30278.516489	-1915.278333	533.877930	135.995346
30278.516489	-1915.278333	532.631836	147.540649
30278.516489	-1915.278333	531.384766	249.230988
30278.516489	-1915.278333	530.138672	212.588898
30278.516489	-1915.278333	528.891602	161.900391
30278.516489	-1915.278333	527.643555	229.368011
30278.516489	-1915.278333	526.396484	288.770294
30278.516489	-1915.278333	525.148438	203.961456
30278.516489	-1915.278333	523.900391	343.340790
30278.516489	-1915.278333	522.652344	420.591400
30278.516489	-1915.278333	521.403320	463.761108
30278.516489	-1915.278333	520.154297	438.870392
30278.516489	-1915.278333	518.905273	301.964630
30278.516489	-1915.278333	517.656250	285.058960
30278.516489	-1915.278333	516.406250	300.111267
30278.516489	-1915.278333	515.156250	225.190918
30278.516489	-1915.278333	513.906250	-69.526833
30278.516489	-1915.278333	512.655273	-76.472794
30278.516489	-1915.278333	511.404297	16.425320
30278.516489	-1915.278333	510.153320	-86.439461
30278.516489	-1915.278333	508.902344	-131.388977
30278.516489	-1915.278333	507.650391	-38.622692
30278.516489	-1915.278333	506.398438	-157.456940
30278.516489	-1915.278333	505.146484	-90.711624
30278.516489	-1915.278333	503.893555	-231.481812
30278.516489	-1915.278333	502.641602	-130.893616
30278.516489	-1915.278333	501.388672	41.401489
30278.516489	-1915.278333	500.134766	40.161613
30278.516489	-1915.278333	498.881836	-4.942443
30278.516489	-1915.278333	497.627930	-4.225372
30278.516489	-1915.278333	496.374023	-117.086494
30278.516489	-1915.278333	495.119141	162.451202
30278.516489	-1915.278333	493.865234	-34.076210
30278.516489	-1915.278333	492.610352	-95.165245
30278.516489	-1915.278333	491.355469	118.436127
30278.516489	-1915.278333	490.099609	97.093445
30278.516489	-1915.278333	488.843750	83.696426
30278.516489	-1915.278333	487.587891	215.496216
30278.516489	-1915.278333	486.332031	36.970470
30278.516489	-1915.278333	485.075195	162.711166
30278.516489	-1915.278333	483.818359	135.307175
30278.516489	-1915.278333	482.561523	165.531998
30278.516489	-1915.278333	481.304688	173.865143
30278.516489	-1915.278333	480.046875	174.222626
30278.516489	-1915.278333	478.789063	79.221581
30278.516489	-1915.278333	477.531250	-1.859761
30278.516489	-1915.278333	476.272461	143.396439
30278.516489	-1915.278333	475.013672	107.942184
30278.516489	-1915.278333	473.754883	-40.633823
30278.516489	-1915.278333	472.496094	90.584198
30278.516489	-1915.278333	471.236328	164.193558
30278.516489	-1915.278333	469.976563	89.008469
30278.516489	-1915.278333	468.716797	71.334244
30278.516489	-1915.278333	467.456055	91.303162
30278.516489	-1915.278333	466.196289	-45.325188
30278.516489	-1915.278333	464.935547	152.946457
30278.516489	-1915.278333	463.673828	97.527641
30278.516489	-1915.278333	462.413086	252.059753
30278.516489	-1915.278333	461.151367	63.918701
30278.516489	-1915.278333	459.889648	263.867615
30278.516489	-1915.278333	458.626953	279.618408
30278.516489	-1915.278333	457.364258	228.050308
30278.516489	-1915.278333	456.101563	241.766937
30278.516489	-1915.278333	454.838867	344.459747
30278.516489	-1915.278333	453.575195	346.211304
30278.516489	-1915.278333	452.312500	527.863037
30278.516489	-1915.278333	451.047852	308.103149
30278.516489	-1915.278333	449.784180	420.438263
30278.516489	-1915.278333	448.519531	548.489380
30278.516489	-1915.278333	447.254883	785.100159
30278.516489	-1915.278333	445.990234	918.866882
30278.516489	-1915.278333	444.725586	928.131714
30278.516489	-1915.278333	443.459961	1014.339783
30278.516489	-1915.278333	442.194336	1240.605103
30278.516489	-1915.278333	440.927734	1068.100952
30278.516489	-1915.278333	439.662109	1110.681152
30278.516489	-1915.278333	438.395508	687.674561
30278.516489	-1915.278333	437.127930	834.723511
30278.516489	-1915.278333	435.861328	642.538086
30278.516489	-1915.278333	434.593750	610.041321
30278.516489	-1915.278333	433.326172	508.522552
30278.516489	-1915.278333	432.058594	460.186310
30278.516489	-1915.278333	430.790039	614.705872
30278.516489	-1915.278333	429.521484	643.041199
30278.516489	-1915.278333	428.252930	580.717834
30278.516489	-1915.278333	426.984375	614.812866
30278.516489	-1915.278333	425.714844	709.825989
30278.516489	-1915.278333	424.445313	956.240356
30278.516489	-1915.278333	423.174805	897.514343
30278.516489	-1915.278333	421.905273	885.940857
30278.516489	-1915.278333	420.634766	691.388733
30278.516489	-1915.278333	419.364258	561.708984
30278.516489	-1915.278333	418.092773	534.196045
30278.516489	-1915.278333	416.822266	655.961121
30278.516489	-1915.278333	415.550781	433.714752
30278.516489	-1915.278333	414.278320	445.210175
30278.516489	-1915.278333	413.006836	562.649475
30278.516489	-1915.278333	411.734375	422.685577
30278.516489	-1915.278333	410.461914	363.146454
30278.516489	-1915.278333	409.188477	293.682251
30278.516489	-1915.278333	407.916016	288.876007
30278.516489	-1915.278333	406.642578	168.175034
30278.516489	-1915.278333	405.368164	112.099930
30278.516489	-1915.278333	404.094727	353.977936
30278.516489	-1915.278333	402.820313	142.692703
30278.516489	-1915.278333	401.545898	295.922272
30278.516489	-1915.278333	400.270508	327.404541
30278.516489	-1915.278333	398.996094	297.966919
30278.516489	-1915.278333	397.720703	248.761841
30278.516489	-1915.278333	396.444336	91.663826
30278.516489	-1915.278333	395.168945	165.491714
30278.516489	-1915.278333	393.892578	223.412994
30278.516489	-1915.278333	392.616211	290.881531
30278.516489	-1915.278333	391.339844	283.745056
30278.516489	-1915.278333	390.062500	16.181902
30278.516489	-1915.278333	388.785156	262.897614
30278.516489	-1915.278333	387.507813	268.738220
30278.516489	-1915.278333	386.229492	106.177658
30278.516489	-1915.278333	384.951172	338.255249
30278.516489	-1915.278333	383.672852	227.976425
30278.516489	-1915.278333	382.394531	211.241867
30278.516489	-1915.278333	381.115234	55.524612
30278.516489	-1915.278333	379.835938	106.580482
30278.516489	-1915.278333	378.556641	243.209747
30278.516489	-1915.278333	377.277344	221.337402
30278.516489	-1915.278333	375.997070	134.723389
30278.516489	-1915.278333	374.716797	170.725891
30278.516489	-1915.278333	373.435547	157.571472
30278.516489	-1915.278333	372.155273	188.922394
30278.516489	-1915.278333	370.874023	118.467026
30278.516489	-1915.278333	369.591797	199.694016
30278.516489	-1915.278333	368.310547	-11.873259
30278.516489	-1915.278333	367.028320	45.131447
30278.516489	-1915.278333	365.746094	113.363800
30278.516489	-1915.278333	364.463867	140.211411
30278.516489	-1915.278333	363.180664	162.673096
30278.516489	-1915.278333	361.897461	100.924889
30278.516489	-1915.278333	360.614258	32.868965
30278.516489	-1915.278333	359.330078	-16.223700
30278.516489	-1915.278333	358.045898	192.956680
30278.516489	-1915.278333	356.761719	133.054276
30278.516489	-1915.278333	355.477539	-75.191391
30278.516489	-1915.278333	354.192383	9.668062
30278.516489	-1915.278333	352.907227	90.007843
30278.516489	-1915.278333	351.622070	35.591618
30278.516489	-1915.278333	350.336914	-54.409180
30278.516489	-1915.278333	349.050781	39.519630
30278.516489	-1915.278333	347.764648	25.910542
30278.516489	-1915.278333	346.477539	69.851967
30278.516489	-1915.278333	345.191406	41.251652
30278.516489	-1915.278333	343.904297	-71.554108
30278.516489	-1915.278333	342.616211	-29.836720
30278.516489	-1915.278333	341.329102	-39.334061
30278.516489	-1915.278333	340.041016	-92.322075
30278.516489	-1915.278333	338.752930	3.222306
30278.516489	-1915.278333	337.463867	10.605601
30278.516489	-1915.278333	336.175781	-73.965836
30278.516489	-1915.278333	334.886719	34.391064
30278.516489	-1915.278333	333.596680	-135.328537
30278.516489	-1915.278333	332.307617	-123.789917
30278.516489	-1915.278333	331.017578	-159.735886
30278.516489	-1915.278333	329.727539	-111.461021
30278.516489	-1915.278333	328.436523	3.499405
30278.516489	-1915.278333	327.146484	-161.328842
30278.516489	-1915.278333	325.855469	-83.369690
30278.516489	-1915.278333	324.563477	-145.884384
30278.516489	-1915.278333	323.272461	72.926369
30278.516489	-1915.278333	321.980469	66.112289
30278.516489	-1915.278333	320.688477	-96.573151
30278.516489	-1915.278333	319.395508	-277.853271
30278.516489	-1915.278333	318.103516	24.797371
30278.516489	-1915.278333	316.810547	99.917709
30278.516489	-1915.278333	315.516602	-81.356148
30278.516489	-1915.278333	314.223633	-72.676643
30278.516489	-1915.278333	312.929688	7.930489
30278.516489	-1915.278333	311.635742	179.727295
30278.516489	-1915.278333	310.340820	-20.638756
30278.516489	-1915.278333	309.045898	-15.960697
30278.516489	-1915.278333	307.750977	297.766296
30278.516489	-1915.278333	306.456055	384.097107
30278.516489	-1915.278333	305.160156	108.109924
30278.516489	-1915.278333	303.865234	137.162201
30278.516489	-1915.278333	302.568359	37.173794
30278.516489	-1915.278333	301.272461	245.787064
30278.516489	-1915.278333	299.975586	207.770462
30278.516489	-1915.278333	298.678711	462.642670
