#X		#Y		#Wave		#Intensity
30182.112234	-1484.371667	1999.980469	-18.057161
30182.112234	-1484.371667	1999.016602	-39.714943
30182.112234	-1484.371667	1998.052734	-34.198833
30182.112234	-1484.371667	1997.087891	-145.873505
30182.112234	-1484.371667	1996.123047	-129.380386
30182.112234	-1484.371667	1995.158203	-113.587578
30182.112234	-1484.371667	1994.193359	-76.183891
30182.112234	-1484.371667	1993.228516	168.561401
30182.112234	-1484.371667	1992.262695	162.534180
30182.112234	-1484.371667	1991.297852	22.209324
30182.112234	-1484.371667	1990.332031	-34.501980
30182.112234	-1484.371667	1989.366211	54.218121
30182.112234	-1484.371667	1988.399414	63.187260
30182.112234	-1484.371667	1987.433594	348.629791
30182.112234	-1484.371667	1986.466797	-59.012066
30182.112234	-1484.371667	1985.500977	-66.461685
30182.112234	-1484.371667	1984.534180	276.651978
30182.112234	-1484.371667	1983.567383	441.193085
30182.112234	-1484.371667	1982.599609	51.659691
30182.112234	-1484.371667	1981.632813	403.047882
30182.112234	-1484.371667	1980.665039	311.690338
30182.112234	-1484.371667	1979.697266	42.113991
30182.112234	-1484.371667	1978.729492	90.786591
30182.112234	-1484.371667	1977.761719	408.165802
30182.112234	-1484.371667	1976.792969	246.165298
30182.112234	-1484.371667	1975.825195	407.169006
30182.112234	-1484.371667	1974.856445	251.915039
30182.112234	-1484.371667	1973.887695	190.130188
30182.112234	-1484.371667	1972.918945	379.641693
30182.112234	-1484.371667	1971.949219	68.133530
30182.112234	-1484.371667	1970.980469	296.434967
30182.112234	-1484.371667	1970.010742	152.105545
30182.112234	-1484.371667	1969.041016	86.425056
30182.112234	-1484.371667	1968.071289	392.619751
30182.112234	-1484.371667	1967.101563	299.292603
30182.112234	-1484.371667	1966.130859	311.684845
30182.112234	-1484.371667	1965.161133	193.295349
30182.112234	-1484.371667	1964.190430	303.743408
30182.112234	-1484.371667	1963.219727	150.492432
30182.112234	-1484.371667	1962.249023	228.485840
30182.112234	-1484.371667	1961.277344	67.521149
30182.112234	-1484.371667	1960.306641	273.074768
30182.112234	-1484.371667	1959.334961	-139.147507
30182.112234	-1484.371667	1958.363281	24.204273
30182.112234	-1484.371667	1957.391602	238.982529
30182.112234	-1484.371667	1956.419922	190.428146
30182.112234	-1484.371667	1955.447266	146.664337
30182.112234	-1484.371667	1954.474609	228.136536
30182.112234	-1484.371667	1953.501953	265.215790
30182.112234	-1484.371667	1952.529297	167.022980
30182.112234	-1484.371667	1951.556641	-127.776367
30182.112234	-1484.371667	1950.583984	-103.274734
30182.112234	-1484.371667	1949.610352	365.596436
30182.112234	-1484.371667	1948.636719	65.713661
30182.112234	-1484.371667	1947.663086	77.612808
30182.112234	-1484.371667	1946.689453	-121.645126
30182.112234	-1484.371667	1945.715820	-41.163376
30182.112234	-1484.371667	1944.741211	46.578350
30182.112234	-1484.371667	1943.767578	276.496460
30182.112234	-1484.371667	1942.792969	-160.802521
30182.112234	-1484.371667	1941.818359	127.805222
30182.112234	-1484.371667	1940.842773	117.169136
30182.112234	-1484.371667	1939.868164	123.652611
30182.112234	-1484.371667	1938.892578	-166.433868
30182.112234	-1484.371667	1937.916992	-304.531403
30182.112234	-1484.371667	1936.941406	-11.451905
30182.112234	-1484.371667	1935.965820	269.248444
30182.112234	-1484.371667	1934.990234	-184.822632
30182.112234	-1484.371667	1934.013672	321.018860
30182.112234	-1484.371667	1933.037109	415.411255
30182.112234	-1484.371667	1932.060547	162.221542
30182.112234	-1484.371667	1931.083984	14.343893
30182.112234	-1484.371667	1930.107422	30.439943
30182.112234	-1484.371667	1929.129883	105.235931
30182.112234	-1484.371667	1928.153320	-120.802757
30182.112234	-1484.371667	1927.175781	-156.026001
30182.112234	-1484.371667	1926.198242	4.355820
30182.112234	-1484.371667	1925.219727	120.691505
30182.112234	-1484.371667	1924.242188	129.475082
30182.112234	-1484.371667	1923.263672	387.494934
30182.112234	-1484.371667	1922.285156	-41.014591
30182.112234	-1484.371667	1921.306641	131.499481
30182.112234	-1484.371667	1920.328125	-25.691238
30182.112234	-1484.371667	1919.349609	-155.940292
30182.112234	-1484.371667	1918.370117	-39.563663
30182.112234	-1484.371667	1917.391602	6.025219
30182.112234	-1484.371667	1916.412109	-94.780296
30182.112234	-1484.371667	1915.431641	109.447166
30182.112234	-1484.371667	1914.452148	-54.690758
30182.112234	-1484.371667	1913.472656	42.219933
30182.112234	-1484.371667	1912.492188	-36.428219
30182.112234	-1484.371667	1911.511719	150.722565
30182.112234	-1484.371667	1910.531250	18.538471
30182.112234	-1484.371667	1909.550781	30.229324
30182.112234	-1484.371667	1908.569336	214.949158
30182.112234	-1484.371667	1907.588867	-19.361795
30182.112234	-1484.371667	1906.607422	418.687622
30182.112234	-1484.371667	1905.625977	-46.826920
30182.112234	-1484.371667	1904.644531	-229.696014
30182.112234	-1484.371667	1903.662109	67.091530
30182.112234	-1484.371667	1902.680664	-161.884323
30182.112234	-1484.371667	1901.698242	-88.996063
30182.112234	-1484.371667	1900.715820	112.852829
30182.112234	-1484.371667	1899.733398	280.617401
30182.112234	-1484.371667	1898.750000	-21.009674
30182.112234	-1484.371667	1897.767578	-149.837967
30182.112234	-1484.371667	1896.784180	-174.038727
30182.112234	-1484.371667	1895.800781	71.610909
30182.112234	-1484.371667	1894.817383	-161.528137
30182.112234	-1484.371667	1893.833984	186.162796
30182.112234	-1484.371667	1892.850586	-80.834419
30182.112234	-1484.371667	1891.866211	269.225464
30182.112234	-1484.371667	1890.881836	-68.025078
30182.112234	-1484.371667	1889.897461	-70.059448
30182.112234	-1484.371667	1888.913086	95.439919
30182.112234	-1484.371667	1887.927734	-44.883377
30182.112234	-1484.371667	1886.943359	-211.805450
30182.112234	-1484.371667	1885.958008	-133.596909
30182.112234	-1484.371667	1884.972656	73.178810
30182.112234	-1484.371667	1883.987305	119.850700
30182.112234	-1484.371667	1883.001953	45.304367
30182.112234	-1484.371667	1882.015625	392.638397
30182.112234	-1484.371667	1881.029297	58.788956
30182.112234	-1484.371667	1880.042969	151.602478
30182.112234	-1484.371667	1879.056641	11.813958
30182.112234	-1484.371667	1878.070313	27.142754
30182.112234	-1484.371667	1877.083984	107.884338
30182.112234	-1484.371667	1876.096680	-269.046387
30182.112234	-1484.371667	1875.109375	97.458237
30182.112234	-1484.371667	1874.122070	-102.577942
30182.112234	-1484.371667	1873.134766	106.491974
30182.112234	-1484.371667	1872.146484	-146.663269
30182.112234	-1484.371667	1871.159180	-150.522629
30182.112234	-1484.371667	1870.170898	167.336884
30182.112234	-1484.371667	1869.182617	-104.987190
30182.112234	-1484.371667	1868.194336	33.849136
30182.112234	-1484.371667	1867.205078	-42.508904
30182.112234	-1484.371667	1866.216797	-26.983946
30182.112234	-1484.371667	1865.227539	148.034515
30182.112234	-1484.371667	1864.238281	-184.385498
30182.112234	-1484.371667	1863.249023	-28.718472
30182.112234	-1484.371667	1862.259766	81.004425
30182.112234	-1484.371667	1861.269531	28.899019
30182.112234	-1484.371667	1860.279297	61.312511
30182.112234	-1484.371667	1859.290039	149.226852
30182.112234	-1484.371667	1858.298828	-18.713858
30182.112234	-1484.371667	1857.308594	180.164658
30182.112234	-1484.371667	1856.318359	-14.273821
30182.112234	-1484.371667	1855.327148	-148.349167
30182.112234	-1484.371667	1854.335938	38.348232
30182.112234	-1484.371667	1853.344727	-40.261749
30182.112234	-1484.371667	1852.353516	-5.558080
30182.112234	-1484.371667	1851.362305	111.060722
30182.112234	-1484.371667	1850.370117	391.475830
30182.112234	-1484.371667	1849.377930	-166.672653
30182.112234	-1484.371667	1848.385742	-42.933678
30182.112234	-1484.371667	1847.393555	148.163376
30182.112234	-1484.371667	1846.401367	81.510971
30182.112234	-1484.371667	1845.408203	-107.929825
30182.112234	-1484.371667	1844.415039	169.629623
30182.112234	-1484.371667	1843.421875	-48.705353
30182.112234	-1484.371667	1842.428711	45.799515
30182.112234	-1484.371667	1841.435547	12.726128
30182.112234	-1484.371667	1840.441406	222.550980
30182.112234	-1484.371667	1839.448242	126.846062
30182.112234	-1484.371667	1838.454102	211.455078
30182.112234	-1484.371667	1837.459961	118.096573
30182.112234	-1484.371667	1836.464844	204.979309
30182.112234	-1484.371667	1835.470703	188.447128
30182.112234	-1484.371667	1834.475586	133.427353
30182.112234	-1484.371667	1833.480469	-53.742130
30182.112234	-1484.371667	1832.485352	40.085083
30182.112234	-1484.371667	1831.490234	100.199921
30182.112234	-1484.371667	1830.495117	56.998772
30182.112234	-1484.371667	1829.499023	145.762299
30182.112234	-1484.371667	1828.502930	8.842391
30182.112234	-1484.371667	1827.506836	385.362030
30182.112234	-1484.371667	1826.510742	149.954025
30182.112234	-1484.371667	1825.513672	70.459274
30182.112234	-1484.371667	1824.517578	209.133240
30182.112234	-1484.371667	1823.520508	43.191010
30182.112234	-1484.371667	1822.523438	-125.165436
30182.112234	-1484.371667	1821.526367	219.335403
30182.112234	-1484.371667	1820.529297	41.257999
30182.112234	-1484.371667	1819.531250	93.149963
30182.112234	-1484.371667	1818.533203	-188.007080
30182.112234	-1484.371667	1817.535156	278.033051
30182.112234	-1484.371667	1816.537109	59.018478
30182.112234	-1484.371667	1815.539063	151.199326
30182.112234	-1484.371667	1814.540039	114.003662
30182.112234	-1484.371667	1813.541992	189.196716
30182.112234	-1484.371667	1812.542969	139.847382
30182.112234	-1484.371667	1811.543945	-48.325665
30182.112234	-1484.371667	1810.543945	43.290916
30182.112234	-1484.371667	1809.544922	204.113571
30182.112234	-1484.371667	1808.544922	338.468292
30182.112234	-1484.371667	1807.544922	-81.884758
30182.112234	-1484.371667	1806.544922	198.035187
30182.112234	-1484.371667	1805.544922	-57.486420
30182.112234	-1484.371667	1804.544922	124.152306
30182.112234	-1484.371667	1803.543945	-52.670288
30182.112234	-1484.371667	1802.542969	52.246067
30182.112234	-1484.371667	1801.541992	-165.320892
30182.112234	-1484.371667	1800.541016	-91.694984
30182.112234	-1484.371667	1799.539063	-20.609547
30182.112234	-1484.371667	1798.538086	525.190430
30182.112234	-1484.371667	1797.536133	218.931122
30182.112234	-1484.371667	1796.534180	41.469864
30182.112234	-1484.371667	1795.532227	159.670456
30182.112234	-1484.371667	1794.529297	-51.357170
30182.112234	-1484.371667	1793.527344	-4.962138
30182.112234	-1484.371667	1792.524414	36.512260
30182.112234	-1484.371667	1791.521484	68.303001
30182.112234	-1484.371667	1790.518555	402.539642
30182.112234	-1484.371667	1789.514648	-49.605877
30182.112234	-1484.371667	1788.511719	-15.844580
30182.112234	-1484.371667	1787.507813	424.957611
30182.112234	-1484.371667	1786.503906	82.163445
30182.112234	-1484.371667	1785.500000	-220.175491
30182.112234	-1484.371667	1784.496094	348.502167
30182.112234	-1484.371667	1783.491211	381.437988
30182.112234	-1484.371667	1782.486328	-30.658903
30182.112234	-1484.371667	1781.481445	332.661621
30182.112234	-1484.371667	1780.476563	-98.587822
30182.112234	-1484.371667	1779.471680	43.189472
30182.112234	-1484.371667	1778.465820	139.591949
30182.112234	-1484.371667	1777.460938	207.290817
30182.112234	-1484.371667	1776.455078	265.302185
30182.112234	-1484.371667	1775.449219	280.371521
30182.112234	-1484.371667	1774.442383	133.749115
30182.112234	-1484.371667	1773.436523	127.154358
30182.112234	-1484.371667	1772.429688	-178.786362
30182.112234	-1484.371667	1771.422852	163.346924
30182.112234	-1484.371667	1770.416016	92.186287
30182.112234	-1484.371667	1769.409180	-43.179104
30182.112234	-1484.371667	1768.402344	20.654379
30182.112234	-1484.371667	1767.394531	323.891296
30182.112234	-1484.371667	1766.386719	244.995499
30182.112234	-1484.371667	1765.378906	-16.625412
30182.112234	-1484.371667	1764.371094	131.854202
30182.112234	-1484.371667	1763.362305	-18.566658
30182.112234	-1484.371667	1762.354492	-67.178665
30182.112234	-1484.371667	1761.345703	203.946289
30182.112234	-1484.371667	1760.336914	254.476242
30182.112234	-1484.371667	1759.328125	56.117844
30182.112234	-1484.371667	1758.318359	49.482742
30182.112234	-1484.371667	1757.308594	49.786407
30182.112234	-1484.371667	1756.299805	-170.223785
30182.112234	-1484.371667	1755.290039	85.407883
30182.112234	-1484.371667	1754.279297	-23.657181
30182.112234	-1484.371667	1753.269531	-19.272985
30182.112234	-1484.371667	1752.258789	-100.226845
30182.112234	-1484.371667	1751.249023	-115.084969
30182.112234	-1484.371667	1750.238281	-193.961395
30182.112234	-1484.371667	1749.226563	169.108139
30182.112234	-1484.371667	1748.215820	92.234253
30182.112234	-1484.371667	1747.204102	-29.688187
30182.112234	-1484.371667	1746.193359	-168.262741
30182.112234	-1484.371667	1745.181641	-207.745499
30182.112234	-1484.371667	1744.168945	-20.654440
30182.112234	-1484.371667	1743.157227	97.726265
30182.112234	-1484.371667	1742.144531	-168.956024
30182.112234	-1484.371667	1741.132813	352.720306
30182.112234	-1484.371667	1740.120117	-131.373367
30182.112234	-1484.371667	1739.106445	0.397471
30182.112234	-1484.371667	1738.093750	181.504288
30182.112234	-1484.371667	1737.080078	53.368404
30182.112234	-1484.371667	1736.067383	271.792053
30182.112234	-1484.371667	1735.053711	-38.200504
30182.112234	-1484.371667	1734.040039	78.442535
30182.112234	-1484.371667	1733.025391	-52.617607
30182.112234	-1484.371667	1732.011719	186.184387
30182.112234	-1484.371667	1730.997070	-48.845142
30182.112234	-1484.371667	1729.982422	-309.862640
30182.112234	-1484.371667	1728.967773	-92.855888
30182.112234	-1484.371667	1727.952148	88.566193
30182.112234	-1484.371667	1726.937500	-144.574341
30182.112234	-1484.371667	1725.921875	161.209137
30182.112234	-1484.371667	1724.906250	299.626282
30182.112234	-1484.371667	1723.890625	54.306679
30182.112234	-1484.371667	1722.875000	-125.213867
30182.112234	-1484.371667	1721.858398	113.808517
30182.112234	-1484.371667	1720.841797	70.394783
30182.112234	-1484.371667	1719.825195	59.750755
30182.112234	-1484.371667	1718.808594	105.363556
30182.112234	-1484.371667	1717.791992	96.745712
30182.112234	-1484.371667	1716.774414	-217.505997
30182.112234	-1484.371667	1715.756836	67.266953
30182.112234	-1484.371667	1714.739258	67.565475
30182.112234	-1484.371667	1713.721680	53.617046
30182.112234	-1484.371667	1712.704102	105.258537
30182.112234	-1484.371667	1711.685547	-9.962687
30182.112234	-1484.371667	1710.667969	-139.357315
30182.112234	-1484.371667	1709.649414	113.617554
30182.112234	-1484.371667	1708.630859	63.691940
30182.112234	-1484.371667	1707.611328	-94.282555
30182.112234	-1484.371667	1706.592773	22.060385
30182.112234	-1484.371667	1705.573242	-100.975647
30182.112234	-1484.371667	1704.553711	-151.439255
30182.112234	-1484.371667	1703.534180	-80.149590
30182.112234	-1484.371667	1702.513672	-297.290741
30182.112234	-1484.371667	1701.494141	68.921051
30182.112234	-1484.371667	1700.473633	-7.905175
30182.112234	-1484.371667	1699.453125	-75.475433
30182.112234	-1484.371667	1698.432617	90.998657
30182.112234	-1484.371667	1697.412109	20.809427
30182.112234	-1484.371667	1696.390625	-168.888031
30182.112234	-1484.371667	1695.369141	203.017288
30182.112234	-1484.371667	1694.347656	139.432999
30182.112234	-1484.371667	1693.326172	28.950342
30182.112234	-1484.371667	1692.304688	30.642992
30182.112234	-1484.371667	1691.282227	153.784698
30182.112234	-1484.371667	1690.260742	295.470825
30182.112234	-1484.371667	1689.238281	348.124359
30182.112234	-1484.371667	1688.214844	351.529602
30182.112234	-1484.371667	1687.192383	394.550293
30182.112234	-1484.371667	1686.168945	194.438843
30182.112234	-1484.371667	1685.146484	139.118011
30182.112234	-1484.371667	1684.123047	-163.869171
30182.112234	-1484.371667	1683.099609	240.607529
30182.112234	-1484.371667	1682.075195	371.660858
30182.112234	-1484.371667	1681.051758	413.872803
30182.112234	-1484.371667	1680.027344	21.892979
30182.112234	-1484.371667	1679.002930	418.531830
30182.112234	-1484.371667	1677.978516	222.416016
30182.112234	-1484.371667	1676.953125	336.421600
30182.112234	-1484.371667	1675.928711	545.895264
30182.112234	-1484.371667	1674.903320	701.538513
30182.112234	-1484.371667	1673.877930	526.035400
30182.112234	-1484.371667	1672.852539	508.959930
30182.112234	-1484.371667	1671.826172	748.060852
30182.112234	-1484.371667	1670.800781	604.951477
30182.112234	-1484.371667	1669.774414	245.174255
30182.112234	-1484.371667	1668.748047	940.288757
30182.112234	-1484.371667	1667.721680	564.093811
30182.112234	-1484.371667	1666.694336	506.821991
30182.112234	-1484.371667	1665.667969	800.911865
30182.112234	-1484.371667	1664.640625	748.084839
30182.112234	-1484.371667	1663.613281	962.715393
30182.112234	-1484.371667	1662.585938	907.373840
30182.112234	-1484.371667	1661.557617	944.962524
30182.112234	-1484.371667	1660.530273	1219.623779
30182.112234	-1484.371667	1659.501953	1054.734741
30182.112234	-1484.371667	1658.473633	1424.373413
30182.112234	-1484.371667	1657.444336	1212.855957
30182.112234	-1484.371667	1656.416016	1345.196533
30182.112234	-1484.371667	1655.386719	1458.810669
30182.112234	-1484.371667	1654.358398	1456.212646
30182.112234	-1484.371667	1653.328125	1653.180786
30182.112234	-1484.371667	1652.298828	1494.853027
30182.112234	-1484.371667	1651.269531	1789.104004
30182.112234	-1484.371667	1650.239258	1630.655884
30182.112234	-1484.371667	1649.208984	1787.734009
30182.112234	-1484.371667	1648.178711	1786.957397
30182.112234	-1484.371667	1647.148438	2045.867432
30182.112234	-1484.371667	1646.117188	1845.494507
30182.112234	-1484.371667	1645.086914	1849.172485
30182.112234	-1484.371667	1644.055664	2156.407715
30182.112234	-1484.371667	1643.024414	2037.079834
30182.112234	-1484.371667	1641.992188	2448.299805
30182.112234	-1484.371667	1640.960938	2217.674561
30182.112234	-1484.371667	1639.928711	2355.320068
30182.112234	-1484.371667	1638.896484	2302.993164
30182.112234	-1484.371667	1637.864258	2630.324707
30182.112234	-1484.371667	1636.832031	2607.977295
30182.112234	-1484.371667	1635.798828	2354.158691
30182.112234	-1484.371667	1634.766602	2609.455566
30182.112234	-1484.371667	1633.733398	2394.996582
30182.112234	-1484.371667	1632.699219	2784.227295
30182.112234	-1484.371667	1631.666016	2824.126953
30182.112234	-1484.371667	1630.632813	3067.440430
30182.112234	-1484.371667	1629.598633	2797.454102
30182.112234	-1484.371667	1628.564453	3160.786377
30182.112234	-1484.371667	1627.530273	3346.041260
30182.112234	-1484.371667	1626.495117	3445.709717
30182.112234	-1484.371667	1625.460938	3834.062256
30182.112234	-1484.371667	1624.425781	3681.858154
30182.112234	-1484.371667	1623.390625	3952.218018
30182.112234	-1484.371667	1622.355469	4194.767578
30182.112234	-1484.371667	1621.319336	4337.950684
30182.112234	-1484.371667	1620.284180	4241.121582
30182.112234	-1484.371667	1619.248047	3987.426514
30182.112234	-1484.371667	1618.211914	4257.426270
30182.112234	-1484.371667	1617.174805	4418.914063
30182.112234	-1484.371667	1616.138672	4365.937500
30182.112234	-1484.371667	1615.101563	4197.704102
30182.112234	-1484.371667	1614.065430	4439.822754
30182.112234	-1484.371667	1613.027344	4131.077148
30182.112234	-1484.371667	1611.990234	4304.000488
30182.112234	-1484.371667	1610.953125	4294.901367
30182.112234	-1484.371667	1609.915039	3908.113037
30182.112234	-1484.371667	1608.876953	4382.646484
30182.112234	-1484.371667	1607.838867	4237.755371
30182.112234	-1484.371667	1606.800781	4095.247314
30182.112234	-1484.371667	1605.761719	3738.789307
30182.112234	-1484.371667	1604.723633	3757.545410
30182.112234	-1484.371667	1603.684570	3523.270264
30182.112234	-1484.371667	1602.644531	3581.178955
30182.112234	-1484.371667	1601.605469	3685.115234
30182.112234	-1484.371667	1600.566406	4048.830078
30182.112234	-1484.371667	1599.526367	3709.077148
30182.112234	-1484.371667	1598.486328	3900.353760
30182.112234	-1484.371667	1597.446289	3827.376709
30182.112234	-1484.371667	1596.405273	3717.698486
30182.112234	-1484.371667	1595.365234	3837.806396
30182.112234	-1484.371667	1594.324219	3719.084961
30182.112234	-1484.371667	1593.283203	3765.765137
30182.112234	-1484.371667	1592.242188	3920.364746
30182.112234	-1484.371667	1591.200195	3856.922607
30182.112234	-1484.371667	1590.159180	4117.109375
30182.112234	-1484.371667	1589.117188	4228.126465
30182.112234	-1484.371667	1588.075195	3836.870117
30182.112234	-1484.371667	1587.032227	4209.423340
30182.112234	-1484.371667	1585.990234	4228.851563
30182.112234	-1484.371667	1584.947266	3911.363037
30182.112234	-1484.371667	1583.904297	4155.559082
30182.112234	-1484.371667	1582.861328	4367.658691
30182.112234	-1484.371667	1581.818359	3913.105225
30182.112234	-1484.371667	1580.775391	3882.539551
30182.112234	-1484.371667	1579.731445	4284.856934
30182.112234	-1484.371667	1578.687500	3785.021484
30182.112234	-1484.371667	1577.643555	4539.889160
30182.112234	-1484.371667	1576.598633	4296.683594
30182.112234	-1484.371667	1575.554688	4287.078613
30182.112234	-1484.371667	1574.509766	4105.969238
30182.112234	-1484.371667	1573.464844	4290.994629
30182.112234	-1484.371667	1572.419922	3872.315430
30182.112234	-1484.371667	1571.374023	4114.647949
30182.112234	-1484.371667	1570.329102	4267.855957
30182.112234	-1484.371667	1569.283203	3829.140625
30182.112234	-1484.371667	1568.237305	3591.789063
30182.112234	-1484.371667	1567.191406	3452.875732
30182.112234	-1484.371667	1566.144531	3773.220459
30182.112234	-1484.371667	1565.098633	3712.192871
30182.112234	-1484.371667	1564.051758	3763.162109
30182.112234	-1484.371667	1563.004883	3693.237305
30182.112234	-1484.371667	1561.957031	3529.860352
30182.112234	-1484.371667	1560.910156	3729.512695
30182.112234	-1484.371667	1559.862305	3577.839844
30182.112234	-1484.371667	1558.814453	3681.825928
30182.112234	-1484.371667	1557.766602	3683.269043
30182.112234	-1484.371667	1556.718750	3169.532715
30182.112234	-1484.371667	1555.669922	3770.867920
30182.112234	-1484.371667	1554.621094	3574.367432
30182.112234	-1484.371667	1553.573242	3496.593506
30182.112234	-1484.371667	1552.523438	3904.230713
30182.112234	-1484.371667	1551.474609	3238.981201
30182.112234	-1484.371667	1550.424805	3350.717041
30182.112234	-1484.371667	1549.375000	3196.141602
30182.112234	-1484.371667	1548.325195	3116.895508
30182.112234	-1484.371667	1547.275391	2803.386230
30182.112234	-1484.371667	1546.225586	2792.805176
30182.112234	-1484.371667	1545.174805	2841.513916
30182.112234	-1484.371667	1544.124023	2944.947266
30182.112234	-1484.371667	1543.073242	2841.529053
30182.112234	-1484.371667	1542.022461	2736.029785
30182.112234	-1484.371667	1540.970703	2457.929688
30182.112234	-1484.371667	1539.919922	2402.861816
30182.112234	-1484.371667	1538.868164	2429.766846
30182.112234	-1484.371667	1537.815430	2422.724365
30182.112234	-1484.371667	1536.763672	2395.416016
30182.112234	-1484.371667	1535.710938	2524.976318
30182.112234	-1484.371667	1534.659180	2293.621338
30182.112234	-1484.371667	1533.606445	2235.046387
30182.112234	-1484.371667	1532.552734	2294.679199
30182.112234	-1484.371667	1531.500000	2640.410400
30182.112234	-1484.371667	1530.446289	2611.790039
30182.112234	-1484.371667	1529.393555	2735.354736
30182.112234	-1484.371667	1528.338867	2768.295166
30182.112234	-1484.371667	1527.285156	2325.218262
30182.112234	-1484.371667	1526.231445	2580.770996
30182.112234	-1484.371667	1525.176758	2274.248047
30182.112234	-1484.371667	1524.122070	1677.947510
30182.112234	-1484.371667	1523.067383	1562.410034
30182.112234	-1484.371667	1522.012695	1533.183594
30182.112234	-1484.371667	1520.957031	1171.201904
30182.112234	-1484.371667	1519.901367	1436.796021
30182.112234	-1484.371667	1518.845703	977.996277
30182.112234	-1484.371667	1517.790039	1112.612549
30182.112234	-1484.371667	1516.734375	1084.421387
30182.112234	-1484.371667	1515.677734	891.247925
30182.112234	-1484.371667	1514.621094	858.957153
30182.112234	-1484.371667	1513.564453	573.556152
30182.112234	-1484.371667	1512.507813	783.688660
30182.112234	-1484.371667	1511.450195	675.141174
30182.112234	-1484.371667	1510.393555	469.648651
30182.112234	-1484.371667	1509.335938	429.398621
30182.112234	-1484.371667	1508.278320	391.624115
30182.112234	-1484.371667	1507.219727	313.391785
30182.112234	-1484.371667	1506.162109	472.557983
30182.112234	-1484.371667	1505.103516	196.024490
30182.112234	-1484.371667	1504.044922	619.699402
30182.112234	-1484.371667	1502.986328	115.671555
30182.112234	-1484.371667	1501.926758	338.736847
30182.112234	-1484.371667	1500.868164	455.880585
30182.112234	-1484.371667	1499.808594	318.256317
30182.112234	-1484.371667	1498.749023	232.773056
30182.112234	-1484.371667	1497.688477	569.215698
30182.112234	-1484.371667	1496.628906	623.921387
30182.112234	-1484.371667	1495.568359	306.875305
30182.112234	-1484.371667	1494.507813	274.131989
30182.112234	-1484.371667	1493.447266	115.436394
30182.112234	-1484.371667	1492.386719	11.084121
30182.112234	-1484.371667	1491.325195	-198.879013
30182.112234	-1484.371667	1490.263672	163.440475
30182.112234	-1484.371667	1489.202148	365.980804
30182.112234	-1484.371667	1488.140625	224.254288
30182.112234	-1484.371667	1487.079102	-178.261841
30182.112234	-1484.371667	1486.016602	-35.878319
30182.112234	-1484.371667	1484.954102	-26.060160
30182.112234	-1484.371667	1483.891602	62.697102
30182.112234	-1484.371667	1482.829102	113.411591
30182.112234	-1484.371667	1481.765625	-148.183685
30182.112234	-1484.371667	1480.702148	26.630896
30182.112234	-1484.371667	1479.638672	-2.909829
30182.112234	-1484.371667	1478.575195	208.184845
30182.112234	-1484.371667	1477.511719	152.114563
30182.112234	-1484.371667	1476.447266	145.744171
30182.112234	-1484.371667	1475.382813	130.526489
30182.112234	-1484.371667	1474.318359	746.387695
30182.112234	-1484.371667	1473.253906	345.628845
30182.112234	-1484.371667	1472.189453	647.396851
30182.112234	-1484.371667	1471.124023	491.871918
30182.112234	-1484.371667	1470.058594	477.964661
30182.112234	-1484.371667	1468.993164	1011.044556
30182.112234	-1484.371667	1467.927734	956.865723
30182.112234	-1484.371667	1466.861328	1026.302490
30182.112234	-1484.371667	1465.794922	849.645569
30182.112234	-1484.371667	1464.728516	1271.133301
30182.112234	-1484.371667	1463.662109	1376.951416
30182.112234	-1484.371667	1462.594727	1440.309082
30182.112234	-1484.371667	1461.528320	1774.671387
30182.112234	-1484.371667	1460.460938	1621.546631
30182.112234	-1484.371667	1459.393555	1851.680908
30182.112234	-1484.371667	1458.326172	1620.593750
30182.112234	-1484.371667	1457.257813	1847.915405
30182.112234	-1484.371667	1456.189453	1833.617676
30182.112234	-1484.371667	1455.121094	1917.103027
30182.112234	-1484.371667	1454.052734	1890.900635
30182.112234	-1484.371667	1452.984375	1918.049683
30182.112234	-1484.371667	1451.915039	2522.345215
30182.112234	-1484.371667	1450.845703	2478.136719
30182.112234	-1484.371667	1449.776367	2271.098389
30182.112234	-1484.371667	1448.707031	2063.319580
30182.112234	-1484.371667	1447.636719	2094.584473
30182.112234	-1484.371667	1446.567383	2063.793701
30182.112234	-1484.371667	1445.497070	1559.987915
30182.112234	-1484.371667	1444.425781	1559.134766
30182.112234	-1484.371667	1443.355469	1906.232666
30182.112234	-1484.371667	1442.285156	1559.558350
30182.112234	-1484.371667	1441.213867	1641.225098
30182.112234	-1484.371667	1440.142578	1662.101807
30182.112234	-1484.371667	1439.070313	1335.960571
30182.112234	-1484.371667	1437.999023	1731.246948
30182.112234	-1484.371667	1436.926758	1720.737671
30182.112234	-1484.371667	1435.854492	1476.603638
30182.112234	-1484.371667	1434.782227	1688.834595
30182.112234	-1484.371667	1433.709961	1780.078491
30182.112234	-1484.371667	1432.636719	1529.747437
30182.112234	-1484.371667	1431.563477	1437.577393
30182.112234	-1484.371667	1430.490234	1413.732056
30182.112234	-1484.371667	1429.416992	1402.134766
30182.112234	-1484.371667	1428.343750	1132.939209
30182.112234	-1484.371667	1427.269531	1413.445068
30182.112234	-1484.371667	1426.195313	1338.584595
30182.112234	-1484.371667	1425.121094	980.005676
30182.112234	-1484.371667	1424.046875	913.123718
30182.112234	-1484.371667	1422.971680	899.887451
30182.112234	-1484.371667	1421.896484	842.679443
30182.112234	-1484.371667	1420.821289	802.024414
30182.112234	-1484.371667	1419.746094	950.197144
30182.112234	-1484.371667	1418.669922	922.758484
30182.112234	-1484.371667	1417.594727	1200.258789
30182.112234	-1484.371667	1416.518555	939.465027
30182.112234	-1484.371667	1415.442383	857.817017
30182.112234	-1484.371667	1414.365234	818.292358
30182.112234	-1484.371667	1413.289063	708.539307
30182.112234	-1484.371667	1412.211914	574.711243
30182.112234	-1484.371667	1411.134766	791.549744
30182.112234	-1484.371667	1410.057617	758.913330
30182.112234	-1484.371667	1408.979492	917.477844
30182.112234	-1484.371667	1407.902344	822.039856
30182.112234	-1484.371667	1406.824219	913.820984
30182.112234	-1484.371667	1405.746094	1171.755127
30182.112234	-1484.371667	1404.666992	921.138000
30182.112234	-1484.371667	1403.588867	1086.617920
30182.112234	-1484.371667	1402.509766	1414.342041
30182.112234	-1484.371667	1401.430664	1621.975586
30182.112234	-1484.371667	1400.351563	1545.648682
30182.112234	-1484.371667	1399.271484	1609.534668
30182.112234	-1484.371667	1398.192383	1502.797485
30182.112234	-1484.371667	1397.112305	1813.744507
30182.112234	-1484.371667	1396.031250	1616.150391
30182.112234	-1484.371667	1394.951172	1595.177979
30182.112234	-1484.371667	1393.871094	1488.995239
30182.112234	-1484.371667	1392.790039	1658.288452
30182.112234	-1484.371667	1391.708984	1357.039429
30182.112234	-1484.371667	1390.626953	1492.618530
30182.112234	-1484.371667	1389.545898	1515.455933
30182.112234	-1484.371667	1388.463867	1327.228882
30182.112234	-1484.371667	1387.381836	1500.875488
30182.112234	-1484.371667	1386.299805	1451.664185
30182.112234	-1484.371667	1385.217773	1743.822266
30182.112234	-1484.371667	1384.134766	1838.404663
30182.112234	-1484.371667	1383.051758	1634.526245
30182.112234	-1484.371667	1381.968750	2024.625366
30182.112234	-1484.371667	1380.885742	2055.015137
30182.112234	-1484.371667	1379.802734	2185.831299
30182.112234	-1484.371667	1378.718750	2011.047241
30182.112234	-1484.371667	1377.634766	2172.529053
30182.112234	-1484.371667	1376.550781	2258.730713
30182.112234	-1484.371667	1375.465820	2077.641602
30182.112234	-1484.371667	1374.381836	2180.864746
30182.112234	-1484.371667	1373.296875	2328.781250
30182.112234	-1484.371667	1372.211914	2405.869873
30182.112234	-1484.371667	1371.126953	2023.435425
30182.112234	-1484.371667	1370.041016	2019.433472
30182.112234	-1484.371667	1368.955078	2016.646606
30182.112234	-1484.371667	1367.869141	1608.551880
30182.112234	-1484.371667	1366.783203	1708.622559
30182.112234	-1484.371667	1365.697266	1989.890503
30182.112234	-1484.371667	1364.610352	1819.667114
30182.112234	-1484.371667	1363.523438	1726.269287
30182.112234	-1484.371667	1362.436523	1994.269775
30182.112234	-1484.371667	1361.349609	1651.594971
30182.112234	-1484.371667	1360.261719	1649.941650
30182.112234	-1484.371667	1359.174805	1652.874878
30182.112234	-1484.371667	1358.086914	1990.254639
30182.112234	-1484.371667	1356.998047	1394.310547
30182.112234	-1484.371667	1355.910156	1624.005005
30182.112234	-1484.371667	1354.821289	1634.359131
30182.112234	-1484.371667	1353.732422	1432.998901
30182.112234	-1484.371667	1352.643555	1909.582886
30182.112234	-1484.371667	1351.554688	1877.515869
30182.112234	-1484.371667	1350.464844	1760.585693
30182.112234	-1484.371667	1349.375000	1764.542847
30182.112234	-1484.371667	1348.285156	1639.817139
30182.112234	-1484.371667	1347.195313	1634.915039
30182.112234	-1484.371667	1346.105469	2037.329102
30182.112234	-1484.371667	1345.014648	1987.084106
30182.112234	-1484.371667	1343.923828	2127.541016
30182.112234	-1484.371667	1342.833008	2490.838867
30182.112234	-1484.371667	1341.741211	2796.942383
30182.112234	-1484.371667	1340.650391	3104.604736
30182.112234	-1484.371667	1339.558594	3515.347168
30182.112234	-1484.371667	1338.466797	3106.250488
30182.112234	-1484.371667	1337.374023	3096.578857
30182.112234	-1484.371667	1336.282227	2733.363770
30182.112234	-1484.371667	1335.189453	2200.498291
30182.112234	-1484.371667	1334.096680	2222.017822
30182.112234	-1484.371667	1333.003906	1789.744873
30182.112234	-1484.371667	1331.910156	1837.561523
30182.112234	-1484.371667	1330.817383	1653.154053
30182.112234	-1484.371667	1329.723633	1754.311401
30182.112234	-1484.371667	1328.629883	1471.144531
30182.112234	-1484.371667	1327.535156	1391.830688
30182.112234	-1484.371667	1326.441406	1194.981201
30182.112234	-1484.371667	1325.346680	1120.133667
30182.112234	-1484.371667	1324.251953	1461.387207
30182.112234	-1484.371667	1323.156250	1117.212036
30182.112234	-1484.371667	1322.061523	1282.046875
30182.112234	-1484.371667	1320.965820	1206.645386
30182.112234	-1484.371667	1319.870117	1424.488403
30182.112234	-1484.371667	1318.774414	1324.629028
30182.112234	-1484.371667	1317.678711	1046.977661
30182.112234	-1484.371667	1316.582031	1198.946777
30182.112234	-1484.371667	1315.485352	1114.413574
30182.112234	-1484.371667	1314.388672	1280.708374
30182.112234	-1484.371667	1313.291016	1098.040771
30182.112234	-1484.371667	1312.194336	1497.963013
30182.112234	-1484.371667	1311.096680	1216.116821
30182.112234	-1484.371667	1309.999023	1106.367188
30182.112234	-1484.371667	1308.901367	1149.812012
30182.112234	-1484.371667	1307.802734	1157.153564
30182.112234	-1484.371667	1306.705078	1281.068115
30182.112234	-1484.371667	1305.606445	1078.124023
30182.112234	-1484.371667	1304.506836	1310.591553
30182.112234	-1484.371667	1303.408203	1084.974243
30182.112234	-1484.371667	1302.308594	1466.630249
30182.112234	-1484.371667	1301.208984	1455.166016
30182.112234	-1484.371667	1300.109375	1555.843384
30182.112234	-1484.371667	1299.009766	1414.643188
30182.112234	-1484.371667	1297.909180	1480.074951
30182.112234	-1484.371667	1296.808594	1603.610107
30182.112234	-1484.371667	1295.708008	1555.768311
30182.112234	-1484.371667	1294.607422	1553.110352
30182.112234	-1484.371667	1293.506836	1285.122681
30182.112234	-1484.371667	1292.405273	1077.778320
30182.112234	-1484.371667	1291.303711	1354.393799
30182.112234	-1484.371667	1290.202148	1233.891357
30182.112234	-1484.371667	1289.099609	1078.558350
30182.112234	-1484.371667	1287.998047	1001.345886
30182.112234	-1484.371667	1286.895508	1094.053467
30182.112234	-1484.371667	1285.792969	793.655640
30182.112234	-1484.371667	1284.689453	1042.420776
30182.112234	-1484.371667	1283.586914	883.119507
30182.112234	-1484.371667	1282.483398	1246.280518
30182.112234	-1484.371667	1281.379883	1041.942627
30182.112234	-1484.371667	1280.276367	813.223083
30182.112234	-1484.371667	1279.171875	1030.480347
30182.112234	-1484.371667	1278.067383	747.981567
30182.112234	-1484.371667	1276.962891	762.738647
30182.112234	-1484.371667	1275.858398	833.306641
30182.112234	-1484.371667	1274.753906	700.832092
30182.112234	-1484.371667	1273.648438	739.335815
30182.112234	-1484.371667	1272.542969	717.899109
30182.112234	-1484.371667	1271.437500	1015.735229
30182.112234	-1484.371667	1270.331055	774.466431
30182.112234	-1484.371667	1269.225586	759.149658
30182.112234	-1484.371667	1268.119141	830.619141
30182.112234	-1484.371667	1267.012695	572.700439
30182.112234	-1484.371667	1265.906250	603.143677
30182.112234	-1484.371667	1264.798828	594.338989
30182.112234	-1484.371667	1263.691406	511.605896
30182.112234	-1484.371667	1262.583984	647.415344
30182.112234	-1484.371667	1261.476563	632.293030
30182.112234	-1484.371667	1260.368164	467.756104
30182.112234	-1484.371667	1259.260742	348.075806
30182.112234	-1484.371667	1258.152344	339.592865
30182.112234	-1484.371667	1257.043945	482.439117
30182.112234	-1484.371667	1255.934570	341.260773
30182.112234	-1484.371667	1254.825195	259.713074
30182.112234	-1484.371667	1253.716797	241.154388
30182.112234	-1484.371667	1252.606445	275.112518
30182.112234	-1484.371667	1251.497070	1.902097
30182.112234	-1484.371667	1250.387695	176.569778
30182.112234	-1484.371667	1249.277344	87.228600
30182.112234	-1484.371667	1248.166992	107.375610
30182.112234	-1484.371667	1247.055664	216.233261
30182.112234	-1484.371667	1245.945313	173.502289
30182.112234	-1484.371667	1244.833984	4.428018
30182.112234	-1484.371667	1243.722656	36.009468
30182.112234	-1484.371667	1242.611328	53.006802
30182.112234	-1484.371667	1241.499023	-155.832108
30182.112234	-1484.371667	1240.387695	-105.009613
30182.112234	-1484.371667	1239.275391	-10.930738
30182.112234	-1484.371667	1238.162109	-0.044293
30182.112234	-1484.371667	1237.049805	-2.696308
30182.112234	-1484.371667	1235.936523	-42.153168
30182.112234	-1484.371667	1234.823242	-122.097412
30182.112234	-1484.371667	1233.709961	-60.274677
30182.112234	-1484.371667	1232.596680	23.260836
30182.112234	-1484.371667	1231.482422	-147.741074
30182.112234	-1484.371667	1230.369141	-122.050049
30182.112234	-1484.371667	1229.253906	-33.653999
30182.112234	-1484.371667	1228.139648	-10.812059
30182.112234	-1484.371667	1227.025391	-42.067364
30182.112234	-1484.371667	1225.910156	-118.662331
30182.112234	-1484.371667	1224.794922	-213.591797
30182.112234	-1484.371667	1223.679688	-94.667709
30182.112234	-1484.371667	1222.563477	-424.093475
30182.112234	-1484.371667	1221.447266	-144.139175
30182.112234	-1484.371667	1220.331055	-166.058197
30182.112234	-1484.371667	1219.214844	-149.515930
30182.112234	-1484.371667	1218.098633	-325.171906
30182.112234	-1484.371667	1216.981445	-191.415222
30182.112234	-1484.371667	1215.864258	-225.464996
30182.112234	-1484.371667	1214.747070	-67.072533
30182.112234	-1484.371667	1213.629883	-16.631742
30182.112234	-1484.371667	1212.511719	-58.287613
30182.112234	-1484.371667	1211.393555	144.149078
30182.112234	-1484.371667	1210.275391	43.561844
30182.112234	-1484.371667	1209.157227	-113.597473
30182.112234	-1484.371667	1208.038086	17.152975
30182.112234	-1484.371667	1206.918945	-32.507153
30182.112234	-1484.371667	1205.799805	147.122086
30182.112234	-1484.371667	1204.680664	163.021912
30182.112234	-1484.371667	1203.560547	196.498245
30182.112234	-1484.371667	1202.441406	156.544952
30182.112234	-1484.371667	1201.321289	79.038780
30182.112234	-1484.371667	1200.200195	-79.029411
30182.112234	-1484.371667	1199.080078	-66.659569
30182.112234	-1484.371667	1197.958984	67.716179
30182.112234	-1484.371667	1196.837891	153.785812
30182.112234	-1484.371667	1195.716797	63.179073
30182.112234	-1484.371667	1194.594727	171.195740
30182.112234	-1484.371667	1193.473633	48.469234
30182.112234	-1484.371667	1192.351563	213.496674
30182.112234	-1484.371667	1191.229492	76.315956
30182.112234	-1484.371667	1190.106445	155.929825
30182.112234	-1484.371667	1188.984375	180.669449
30182.112234	-1484.371667	1187.861328	126.111626
30182.112234	-1484.371667	1186.738281	214.800400
30182.112234	-1484.371667	1185.614258	226.234406
30182.112234	-1484.371667	1184.491211	342.512939
30182.112234	-1484.371667	1183.367188	507.944763
30182.112234	-1484.371667	1182.243164	665.179688
30182.112234	-1484.371667	1181.119141	559.333984
30182.112234	-1484.371667	1179.994141	568.831787
30182.112234	-1484.371667	1178.869141	209.655151
30182.112234	-1484.371667	1177.744141	427.441864
30182.112234	-1484.371667	1176.619141	282.228119
30182.112234	-1484.371667	1175.493164	43.771904
30182.112234	-1484.371667	1174.368164	278.999908
30182.112234	-1484.371667	1173.242188	329.981628
30182.112234	-1484.371667	1172.115234	240.899597
30182.112234	-1484.371667	1170.989258	183.382172
30182.112234	-1484.371667	1169.862305	60.045322
30182.112234	-1484.371667	1168.735352	110.313232
30182.112234	-1484.371667	1167.608398	10.120672
30182.112234	-1484.371667	1166.481445	84.064522
30182.112234	-1484.371667	1165.353516	-109.814575
30182.112234	-1484.371667	1164.225586	18.517275
30182.112234	-1484.371667	1163.097656	-110.868385
30182.112234	-1484.371667	1161.968750	-0.060011
30182.112234	-1484.371667	1160.840820	32.402275
30182.112234	-1484.371667	1159.711914	-77.894104
30182.112234	-1484.371667	1158.583008	125.022690
30182.112234	-1484.371667	1157.453125	-76.969254
30182.112234	-1484.371667	1156.324219	-57.585167
30182.112234	-1484.371667	1155.194336	174.087982
30182.112234	-1484.371667	1154.064453	171.071228
30182.112234	-1484.371667	1152.933594	-141.031036
30182.112234	-1484.371667	1151.803711	140.715088
30182.112234	-1484.371667	1150.672852	93.774773
30182.112234	-1484.371667	1149.541992	189.966309
30182.112234	-1484.371667	1148.411133	229.261810
30182.112234	-1484.371667	1147.279297	209.441116
30182.112234	-1484.371667	1146.147461	437.248596
30182.112234	-1484.371667	1145.015625	286.593872
30182.112234	-1484.371667	1143.883789	401.218658
30182.112234	-1484.371667	1142.750977	356.168152
30182.112234	-1484.371667	1141.619141	300.442291
30182.112234	-1484.371667	1140.486328	201.620163
30182.112234	-1484.371667	1139.352539	435.226440
30182.112234	-1484.371667	1138.219727	273.437439
30182.112234	-1484.371667	1137.085938	327.648132
30182.112234	-1484.371667	1135.952148	111.886986
30182.112234	-1484.371667	1134.818359	347.626251
30182.112234	-1484.371667	1133.683594	287.959381
30182.112234	-1484.371667	1132.549805	343.395630
30182.112234	-1484.371667	1131.415039	383.319427
30182.112234	-1484.371667	1130.279297	430.892303
30182.112234	-1484.371667	1129.144531	684.352600
30182.112234	-1484.371667	1128.008789	695.597900
30182.112234	-1484.371667	1126.873047	534.177063
30182.112234	-1484.371667	1125.737305	603.370972
30182.112234	-1484.371667	1124.601563	529.179504
30182.112234	-1484.371667	1123.464844	417.068329
30182.112234	-1484.371667	1122.328125	593.444153
30182.112234	-1484.371667	1121.191406	448.382935
30182.112234	-1484.371667	1120.054688	483.695038
30182.112234	-1484.371667	1118.916992	593.390808
30182.112234	-1484.371667	1117.779297	391.072693
30182.112234	-1484.371667	1116.641602	445.504120
30182.112234	-1484.371667	1115.503906	311.692841
30182.112234	-1484.371667	1114.365234	597.066833
30182.112234	-1484.371667	1113.226563	313.428192
30182.112234	-1484.371667	1112.087891	234.270905
30182.112234	-1484.371667	1110.949219	201.358551
30182.112234	-1484.371667	1109.809570	288.683350
30182.112234	-1484.371667	1108.669922	644.110229
30182.112234	-1484.371667	1107.530273	527.168396
30182.112234	-1484.371667	1106.390625	616.414490
30182.112234	-1484.371667	1105.250000	658.254456
30182.112234	-1484.371667	1104.109375	673.727417
30182.112234	-1484.371667	1102.968750	594.741638
30182.112234	-1484.371667	1101.828125	429.830292
30182.112234	-1484.371667	1100.686523	493.277954
30182.112234	-1484.371667	1099.544922	551.997253
30182.112234	-1484.371667	1098.403320	639.419800
30182.112234	-1484.371667	1097.261719	640.282104
30182.112234	-1484.371667	1096.120117	749.189636
30182.112234	-1484.371667	1094.977539	715.444153
30182.112234	-1484.371667	1093.834961	568.531067
30182.112234	-1484.371667	1092.691406	420.697235
30182.112234	-1484.371667	1091.548828	298.654236
30182.112234	-1484.371667	1090.405273	677.313660
30182.112234	-1484.371667	1089.261719	416.456146
30182.112234	-1484.371667	1088.118164	360.001892
30182.112234	-1484.371667	1086.973633	262.609436
30182.112234	-1484.371667	1085.829102	502.079346
30182.112234	-1484.371667	1084.684570	485.093445
30182.112234	-1484.371667	1083.540039	305.903961
30182.112234	-1484.371667	1082.395508	320.257141
30182.112234	-1484.371667	1081.250000	143.422516
30182.112234	-1484.371667	1080.104492	136.451202
30182.112234	-1484.371667	1078.958984	156.661789
30182.112234	-1484.371667	1077.812500	396.641937
30182.112234	-1484.371667	1076.666016	395.712524
30182.112234	-1484.371667	1075.519531	301.241058
30182.112234	-1484.371667	1074.373047	327.977814
30182.112234	-1484.371667	1073.226563	358.362549
30182.112234	-1484.371667	1072.079102	363.623169
30182.112234	-1484.371667	1070.931641	28.967772
30182.112234	-1484.371667	1069.784180	393.773651
30182.112234	-1484.371667	1068.635742	320.295807
30182.112234	-1484.371667	1067.487305	320.980927
30182.112234	-1484.371667	1066.338867	441.753204
30182.112234	-1484.371667	1065.190430	582.294678
30182.112234	-1484.371667	1064.041992	368.090057
30182.112234	-1484.371667	1062.892578	160.352966
30182.112234	-1484.371667	1061.743164	422.212219
30182.112234	-1484.371667	1060.593750	489.095947
30182.112234	-1484.371667	1059.443359	310.723389
30182.112234	-1484.371667	1058.292969	302.801758
30182.112234	-1484.371667	1057.142578	526.503357
30182.112234	-1484.371667	1055.992188	382.977112
30182.112234	-1484.371667	1054.841797	256.955872
30182.112234	-1484.371667	1053.690430	597.799072
30182.112234	-1484.371667	1052.539063	407.983917
30182.112234	-1484.371667	1051.387695	340.563690
30182.112234	-1484.371667	1050.235352	652.796021
30182.112234	-1484.371667	1049.083984	697.575195
30182.112234	-1484.371667	1047.931641	570.492065
30182.112234	-1484.371667	1046.778320	220.046967
30182.112234	-1484.371667	1045.625977	411.365082
30182.112234	-1484.371667	1044.472656	225.281082
30182.112234	-1484.371667	1043.319336	448.020935
30182.112234	-1484.371667	1042.166016	621.633972
30182.112234	-1484.371667	1041.012695	370.101288
30182.112234	-1484.371667	1039.858398	519.670044
30182.112234	-1484.371667	1038.704102	554.174011
30182.112234	-1484.371667	1037.549805	169.852081
30182.112234	-1484.371667	1036.394531	579.584045
30182.112234	-1484.371667	1035.239258	87.565254
30182.112234	-1484.371667	1034.083984	294.026764
30182.112234	-1484.371667	1032.928711	341.787476
30182.112234	-1484.371667	1031.773438	435.510101
30182.112234	-1484.371667	1030.617188	114.404228
30182.112234	-1484.371667	1029.460938	256.023010
30182.112234	-1484.371667	1028.304688	360.296722
30182.112234	-1484.371667	1027.147461	448.239441
30182.112234	-1484.371667	1025.991211	198.619675
30182.112234	-1484.371667	1024.833984	346.537170
30182.112234	-1484.371667	1023.675781	182.992294
30182.112234	-1484.371667	1022.518555	231.496231
30182.112234	-1484.371667	1021.360352	468.827972
30182.112234	-1484.371667	1020.202148	428.994385
30182.112234	-1484.371667	1019.043945	279.334045
30182.112234	-1484.371667	1017.884766	-13.996963
30182.112234	-1484.371667	1016.726563	-42.383266
30182.112234	-1484.371667	1015.567383	-54.079739
30182.112234	-1484.371667	1014.407227	-125.667984
30182.112234	-1484.371667	1013.248047	56.829136
30182.112234	-1484.371667	1012.087891	163.664154
30182.112234	-1484.371667	1010.927734	280.112122
30182.112234	-1484.371667	1009.767578	53.136562
30182.112234	-1484.371667	1008.606445	-6.056125
30182.112234	-1484.371667	1007.446289	118.922005
30182.112234	-1484.371667	1006.285156	-6.618564
30182.112234	-1484.371667	1005.123047	159.299179
30182.112234	-1484.371667	1003.961914	110.940552
30182.112234	-1484.371667	1002.799805	254.980881
30182.112234	-1484.371667	1001.637695	238.158630
30182.112234	-1484.371667	1000.475586	216.490112
30182.112234	-1484.371667	999.312500	296.427277
30182.112234	-1484.371667	998.149414	46.097458
30182.112234	-1484.371667	996.986328	262.292358
30182.112234	-1484.371667	995.823242	-217.876068
30182.112234	-1484.371667	994.659180	23.657227
30182.112234	-1484.371667	993.496094	-59.019115
30182.112234	-1484.371667	992.332031	-78.031616
30182.112234	-1484.371667	991.166992	14.782314
30182.112234	-1484.371667	990.002930	14.914024
30182.112234	-1484.371667	988.837891	174.572571
30182.112234	-1484.371667	987.672852	-25.329008
30182.112234	-1484.371667	986.506836	217.978973
30182.112234	-1484.371667	985.341797	-88.263657
30182.112234	-1484.371667	984.175781	-67.246704
30182.112234	-1484.371667	983.009766	217.927429
30182.112234	-1484.371667	981.843750	292.245728
30182.112234	-1484.371667	980.676758	102.870178
30182.112234	-1484.371667	979.509766	59.614567
30182.112234	-1484.371667	978.342773	195.186569
30182.112234	-1484.371667	977.175781	1.727420
30182.112234	-1484.371667	976.007813	-7.323729
30182.112234	-1484.371667	974.839844	110.392014
30182.112234	-1484.371667	973.671875	298.181915
30182.112234	-1484.371667	972.503906	-272.574493
30182.112234	-1484.371667	971.334961	-100.379730
30182.112234	-1484.371667	970.166016	-88.999664
30182.112234	-1484.371667	968.997070	-212.920044
30182.112234	-1484.371667	967.828125	-53.222290
30182.112234	-1484.371667	966.658203	-157.707916
30182.112234	-1484.371667	965.488281	-95.548904
30182.112234	-1484.371667	964.318359	134.237747
30182.112234	-1484.371667	963.148438	-106.538788
30182.112234	-1484.371667	961.977539	-61.482941
30182.112234	-1484.371667	960.806641	-123.065376
30182.112234	-1484.371667	959.635742	-60.490604
30182.112234	-1484.371667	958.463867	-28.679611
30182.112234	-1484.371667	957.292969	-200.290726
30182.112234	-1484.371667	956.121094	-275.178253
30182.112234	-1484.371667	954.948242	157.246109
30182.112234	-1484.371667	953.776367	145.947311
30182.112234	-1484.371667	952.603516	-221.091324
30182.112234	-1484.371667	951.430664	55.241867
30182.112234	-1484.371667	950.257813	87.062637
30182.112234	-1484.371667	949.084961	70.494545
30182.112234	-1484.371667	947.911133	-168.104507
30182.112234	-1484.371667	946.737305	2.068670
30182.112234	-1484.371667	945.563477	29.850525
30182.112234	-1484.371667	944.388672	-14.313305
30182.112234	-1484.371667	943.213867	-41.490612
30182.112234	-1484.371667	942.039063	-11.280525
30182.112234	-1484.371667	940.864258	120.229530
30182.112234	-1484.371667	939.688477	-174.831390
30182.112234	-1484.371667	938.513672	222.994781
30182.112234	-1484.371667	937.337891	106.037910
30182.112234	-1484.371667	936.161133	-83.299316
30182.112234	-1484.371667	934.985352	-71.544991
30182.112234	-1484.371667	933.808594	116.118820
30182.112234	-1484.371667	932.631836	186.448792
30182.112234	-1484.371667	931.454102	301.759247
30182.112234	-1484.371667	930.277344	365.051605
30182.112234	-1484.371667	929.099609	310.971649
30182.112234	-1484.371667	927.921875	403.641357
30182.112234	-1484.371667	926.743164	155.494064
30182.112234	-1484.371667	925.565430	279.625153
30182.112234	-1484.371667	924.386719	184.896912
30182.112234	-1484.371667	923.208008	171.357208
30182.112234	-1484.371667	922.028320	205.136414
30182.112234	-1484.371667	920.849609	128.410278
30182.112234	-1484.371667	919.669922	136.821991
30182.112234	-1484.371667	919.474609	104.920410
30182.112234	-1484.371667	918.309570	167.789032
30182.112234	-1484.371667	917.143555	401.824280
30182.112234	-1484.371667	915.977539	270.837799
30182.112234	-1484.371667	914.810547	142.129700
30182.112234	-1484.371667	913.644531	49.457985
30182.112234	-1484.371667	912.477539	265.193970
30182.112234	-1484.371667	911.310547	98.206047
30182.112234	-1484.371667	910.143555	311.527649
30182.112234	-1484.371667	908.975586	326.765259
30182.112234	-1484.371667	907.807617	166.525650
30182.112234	-1484.371667	906.639648	13.062911
30182.112234	-1484.371667	905.471680	-14.460682
30182.112234	-1484.371667	904.303711	185.027313
30182.112234	-1484.371667	903.134766	-130.245697
30182.112234	-1484.371667	901.965820	78.116188
30182.112234	-1484.371667	900.796875	209.982239
30182.112234	-1484.371667	899.626953	207.007492
30182.112234	-1484.371667	898.457031	278.107391
30182.112234	-1484.371667	897.287109	21.360228
30182.112234	-1484.371667	896.117188	16.088318
30182.112234	-1484.371667	894.947266	327.217529
30182.112234	-1484.371667	893.776367	189.449615
30182.112234	-1484.371667	892.605469	246.871948
30182.112234	-1484.371667	891.434570	268.355713
30182.112234	-1484.371667	890.262695	-93.639664
30182.112234	-1484.371667	889.091797	398.644775
30182.112234	-1484.371667	887.919922	-39.501114
30182.112234	-1484.371667	886.748047	-18.093348
30182.112234	-1484.371667	885.575195	83.940620
30182.112234	-1484.371667	884.403320	49.250576
30182.112234	-1484.371667	883.230469	54.862423
30182.112234	-1484.371667	882.057617	38.049282
30182.112234	-1484.371667	880.883789	-142.206299
30182.112234	-1484.371667	879.710938	-127.697731
30182.112234	-1484.371667	878.537109	-57.276314
30182.112234	-1484.371667	877.362305	-197.217606
30182.112234	-1484.371667	876.188477	-57.531681
30182.112234	-1484.371667	875.013672	32.873318
30182.112234	-1484.371667	873.839844	-194.303604
30182.112234	-1484.371667	872.664063	-52.550846
30182.112234	-1484.371667	871.489258	-78.522850
30182.112234	-1484.371667	870.313477	65.319221
30182.112234	-1484.371667	869.138672	-97.010994
30182.112234	-1484.371667	867.962891	-18.064627
30182.112234	-1484.371667	866.786133	80.919769
30182.112234	-1484.371667	865.610352	-56.846764
30182.112234	-1484.371667	864.433594	-76.271042
30182.112234	-1484.371667	863.256836	-162.677322
30182.112234	-1484.371667	862.079102	-159.821991
30182.112234	-1484.371667	860.902344	-83.386375
30182.112234	-1484.371667	859.724609	-283.588135
30182.112234	-1484.371667	858.546875	40.311047
30182.112234	-1484.371667	857.368164	-108.619194
30182.112234	-1484.371667	856.190430	-159.446732
30182.112234	-1484.371667	855.011719	39.321457
30182.112234	-1484.371667	853.833008	-27.179777
30182.112234	-1484.371667	852.654297	-113.737854
30182.112234	-1484.371667	851.474609	-86.703270
30182.112234	-1484.371667	850.294922	-224.499680
30182.112234	-1484.371667	849.115234	192.083481
30182.112234	-1484.371667	847.935547	-70.438515
30182.112234	-1484.371667	846.754883	-52.480766
30182.112234	-1484.371667	845.575195	170.123672
30182.112234	-1484.371667	844.393555	-85.662865
30182.112234	-1484.371667	843.212891	-10.004664
30182.112234	-1484.371667	842.032227	110.056129
30182.112234	-1484.371667	840.850586	-85.655571
30182.112234	-1484.371667	839.668945	-116.848412
30182.112234	-1484.371667	838.486328	20.825874
30182.112234	-1484.371667	837.304688	196.165497
30182.112234	-1484.371667	836.122070	-63.980309
30182.112234	-1484.371667	834.939453	104.562737
30182.112234	-1484.371667	833.756836	248.569534
30182.112234	-1484.371667	832.573242	383.599060
30182.112234	-1484.371667	831.389648	383.138153
30182.112234	-1484.371667	830.206055	324.938263
30182.112234	-1484.371667	829.022461	175.754745
30182.112234	-1484.371667	827.838867	-124.243034
30182.112234	-1484.371667	826.654297	247.790787
30182.112234	-1484.371667	825.469727	12.110757
30182.112234	-1484.371667	824.284180	317.371216
30182.112234	-1484.371667	823.099609	258.980560
30182.112234	-1484.371667	821.914063	76.484276
30182.112234	-1484.371667	820.728516	-6.296560
30182.112234	-1484.371667	819.542969	46.018341
30182.112234	-1484.371667	818.356445	171.342819
30182.112234	-1484.371667	817.169922	55.238323
30182.112234	-1484.371667	815.983398	200.327286
30182.112234	-1484.371667	814.796875	336.450867
30182.112234	-1484.371667	813.609375	375.114532
30182.112234	-1484.371667	812.422852	99.573067
30182.112234	-1484.371667	811.235352	180.183594
30182.112234	-1484.371667	810.046875	13.046891
30182.112234	-1484.371667	808.859375	270.394562
30182.112234	-1484.371667	807.670898	273.392059
30182.112234	-1484.371667	806.482422	225.505432
30182.112234	-1484.371667	805.293945	341.075806
30182.112234	-1484.371667	804.104492	394.694153
30182.112234	-1484.371667	802.915039	317.926239
30182.112234	-1484.371667	801.725586	283.083923
30182.112234	-1484.371667	800.536133	305.592255
30182.112234	-1484.371667	799.345703	204.430634
30182.112234	-1484.371667	798.155273	295.233398
30182.112234	-1484.371667	796.964844	374.902222
30182.112234	-1484.371667	795.774414	-180.790237
30182.112234	-1484.371667	794.583008	379.580566
30182.112234	-1484.371667	793.392578	353.155609
30182.112234	-1484.371667	792.200195	170.166641
30182.112234	-1484.371667	791.008789	335.409790
30182.112234	-1484.371667	789.816406	478.482452
30182.112234	-1484.371667	788.625000	553.131592
30182.112234	-1484.371667	787.432617	347.954376
30182.112234	-1484.371667	786.239258	270.516296
30182.112234	-1484.371667	785.046875	536.500183
30182.112234	-1484.371667	783.853516	355.456024
30182.112234	-1484.371667	782.660156	561.747253
30182.112234	-1484.371667	781.465820	712.875854
30182.112234	-1484.371667	780.272461	346.900146
30182.112234	-1484.371667	779.078125	271.322693
30182.112234	-1484.371667	777.883789	63.765034
30182.112234	-1484.371667	776.688477	170.599976
30182.112234	-1484.371667	775.494141	108.064018
30182.112234	-1484.371667	774.298828	-42.424725
30182.112234	-1484.371667	773.103516	222.323914
30182.112234	-1484.371667	771.907227	78.305511
30182.112234	-1484.371667	770.711914	309.813721
30182.112234	-1484.371667	769.515625	-29.745596
30182.112234	-1484.371667	768.318359	126.890312
30182.112234	-1484.371667	767.122070	162.660019
30182.112234	-1484.371667	765.924805	88.613548
30182.112234	-1484.371667	764.727539	-20.589725
30182.112234	-1484.371667	763.530273	-7.001313
30182.112234	-1484.371667	762.333008	59.128040
30182.112234	-1484.371667	761.134766	-105.071930
30182.112234	-1484.371667	759.936523	173.507675
30182.112234	-1484.371667	758.738281	259.020386
30182.112234	-1484.371667	757.540039	252.377655
30182.112234	-1484.371667	756.340820	208.406143
30182.112234	-1484.371667	755.141602	78.941628
30182.112234	-1484.371667	753.942383	-37.422844
30182.112234	-1484.371667	752.742188	-145.071716
30182.112234	-1484.371667	751.541992	134.663055
30182.112234	-1484.371667	750.341797	247.864746
30182.112234	-1484.371667	749.141602	104.931091
30182.112234	-1484.371667	747.941406	101.961044
30182.112234	-1484.371667	746.740234	83.589333
30182.112234	-1484.371667	745.539063	100.111359
30182.112234	-1484.371667	744.337891	-257.303619
30182.112234	-1484.371667	743.135742	102.240631
30182.112234	-1484.371667	741.933594	-89.145767
30182.112234	-1484.371667	740.731445	-121.063072
30182.112234	-1484.371667	739.529297	63.179485
30182.112234	-1484.371667	738.326172	258.163422
30182.112234	-1484.371667	737.124023	385.278473
30182.112234	-1484.371667	735.919922	154.229156
30182.112234	-1484.371667	734.716797	241.819519
30182.112234	-1484.371667	733.513672	340.177887
30182.112234	-1484.371667	732.309570	119.877625
30182.112234	-1484.371667	731.105469	268.174164
30182.112234	-1484.371667	729.900391	206.959015
30182.112234	-1484.371667	728.696289	117.316559
30182.112234	-1484.371667	727.491211	263.020569
30182.112234	-1484.371667	726.286133	290.871796
30182.112234	-1484.371667	725.080078	7.023243
30182.112234	-1484.371667	723.874023	320.068787
30182.112234	-1484.371667	722.668945	319.247253
30182.112234	-1484.371667	721.461914	233.393051
30182.112234	-1484.371667	720.255859	373.873993
30182.112234	-1484.371667	719.048828	137.636551
30182.112234	-1484.371667	717.841797	-107.320503
30182.112234	-1484.371667	716.634766	202.510208
30182.112234	-1484.371667	715.427734	124.907600
30182.112234	-1484.371667	714.219727	103.766144
30182.112234	-1484.371667	713.011719	-132.735321
30182.112234	-1484.371667	711.803711	-95.349098
30182.112234	-1484.371667	710.594727	41.881565
30182.112234	-1484.371667	709.385742	26.833094
30182.112234	-1484.371667	708.176758	-212.090515
30182.112234	-1484.371667	706.967773	-16.625856
30182.112234	-1484.371667	705.758789	63.549076
30182.112234	-1484.371667	704.548828	54.554722
30182.112234	-1484.371667	703.338867	149.637192
30182.112234	-1484.371667	702.127930	-180.798065
30182.112234	-1484.371667	700.917969	-374.517700
30182.112234	-1484.371667	699.707031	-51.984116
30182.112234	-1484.371667	698.496094	-39.849186
30182.112234	-1484.371667	697.285156	-56.025143
30182.112234	-1484.371667	696.073242	166.154816
30182.112234	-1484.371667	694.861328	-145.074127
30182.112234	-1484.371667	693.649414	-9.887839
30182.112234	-1484.371667	692.436523	-100.201736
30182.112234	-1484.371667	691.224609	-216.587479
30182.112234	-1484.371667	690.011719	149.891632
30182.112234	-1484.371667	688.798828	83.059212
30182.112234	-1484.371667	687.584961	133.028839
30182.112234	-1484.371667	686.372070	-133.125748
30182.112234	-1484.371667	685.158203	-61.732224
30182.112234	-1484.371667	683.943359	225.842087
30182.112234	-1484.371667	682.729492	-21.058947
30182.112234	-1484.371667	681.514648	205.599838
30182.112234	-1484.371667	680.299805	133.685852
30182.112234	-1484.371667	679.084961	312.423920
30182.112234	-1484.371667	677.869141	173.282547
30182.112234	-1484.371667	676.653320	-56.667397
30182.112234	-1484.371667	675.437500	67.632996
30182.112234	-1484.371667	674.221680	250.072708
30182.112234	-1484.371667	673.004883	207.748871
30182.112234	-1484.371667	671.789063	139.425217
30182.112234	-1484.371667	670.571289	269.571899
30182.112234	-1484.371667	669.354492	198.864136
30182.112234	-1484.371667	668.136719	488.360687
30182.112234	-1484.371667	666.919922	421.718750
30182.112234	-1484.371667	665.701172	370.073456
30182.112234	-1484.371667	664.483398	206.222336
30182.112234	-1484.371667	663.264648	391.532166
30182.112234	-1484.371667	662.045898	251.217804
30182.112234	-1484.371667	660.827148	287.535736
30182.112234	-1484.371667	659.608398	207.392883
30182.112234	-1484.371667	658.388672	247.780121
30182.112234	-1484.371667	657.168945	105.000717
30182.112234	-1484.371667	655.949219	373.375702
30182.112234	-1484.371667	654.728516	127.083305
30182.112234	-1484.371667	653.507813	248.776749
30182.112234	-1484.371667	652.287109	135.790833
30182.112234	-1484.371667	651.066406	263.663483
30182.112234	-1484.371667	649.844727	258.029785
30182.112234	-1484.371667	648.623047	243.689865
30182.112234	-1484.371667	647.401367	371.130981
30182.112234	-1484.371667	646.179688	363.008392
30182.112234	-1484.371667	644.957031	468.663971
30182.112234	-1484.371667	643.734375	395.857330
30182.112234	-1484.371667	642.511719	408.896088
30182.112234	-1484.371667	641.289063	151.246216
30182.112234	-1484.371667	640.065430	-44.137344
30182.112234	-1484.371667	638.841797	299.241760
30182.112234	-1484.371667	637.618164	247.497971
30182.112234	-1484.371667	636.393555	262.185730
30182.112234	-1484.371667	635.168945	231.719681
30182.112234	-1484.371667	633.944336	113.239723
30182.112234	-1484.371667	632.719727	129.803787
30182.112234	-1484.371667	631.494141	195.567719
30182.112234	-1484.371667	630.269531	147.622177
30182.112234	-1484.371667	629.042969	348.168213
30182.112234	-1484.371667	627.817383	158.620834
30182.112234	-1484.371667	626.590820	331.057739
30182.112234	-1484.371667	625.365234	263.488251
30182.112234	-1484.371667	624.137695	422.802155
30182.112234	-1484.371667	622.911133	282.284546
30182.112234	-1484.371667	621.683594	190.959961
30182.112234	-1484.371667	620.456055	18.285242
30182.112234	-1484.371667	619.228516	207.140884
30182.112234	-1484.371667	618.000977	235.428925
30182.112234	-1484.371667	616.772461	-14.369053
30182.112234	-1484.371667	615.543945	315.241241
30182.112234	-1484.371667	614.314453	-103.481300
30182.112234	-1484.371667	613.085938	-36.986874
30182.112234	-1484.371667	611.856445	-124.431259
30182.112234	-1484.371667	610.626953	-70.923370
30182.112234	-1484.371667	609.397461	-188.355927
30182.112234	-1484.371667	608.166992	87.065018
30182.112234	-1484.371667	606.936523	108.271782
30182.112234	-1484.371667	605.706055	-71.212250
30182.112234	-1484.371667	604.474609	-120.524834
30182.112234	-1484.371667	603.244141	241.878922
30182.112234	-1484.371667	602.012695	15.377867
30182.112234	-1484.371667	600.780273	72.530518
30182.112234	-1484.371667	599.548828	180.786346
30182.112234	-1484.371667	598.316406	-220.507172
30182.112234	-1484.371667	597.083984	96.508553
30182.112234	-1484.371667	595.851563	-104.404625
30182.112234	-1484.371667	594.618164	80.283417
30182.112234	-1484.371667	593.384766	-114.244331
30182.112234	-1484.371667	592.151367	-74.505264
30182.112234	-1484.371667	590.917969	-198.739426
30182.112234	-1484.371667	589.683594	-3.705759
30182.112234	-1484.371667	588.449219	-0.301183
30182.112234	-1484.371667	587.214844	-126.705132
30182.112234	-1484.371667	585.979492	53.200382
30182.112234	-1484.371667	584.745117	-49.821808
30182.112234	-1484.371667	583.509766	-131.569153
30182.112234	-1484.371667	582.273438	-119.785545
30182.112234	-1484.371667	581.038086	-154.768570
30182.112234	-1484.371667	579.801758	-119.645798
30182.112234	-1484.371667	578.565430	-101.548271
30182.112234	-1484.371667	577.329102	12.104437
30182.112234	-1484.371667	576.091797	-186.450516
30182.112234	-1484.371667	574.854492	73.628532
30182.112234	-1484.371667	573.617188	30.076332
30182.112234	-1484.371667	572.378906	-7.104313
30182.112234	-1484.371667	571.141602	312.168030
30182.112234	-1484.371667	569.903320	11.922044
30182.112234	-1484.371667	568.664063	65.956985
30182.112234	-1484.371667	567.425781	255.676498
30182.112234	-1484.371667	566.186523	127.349586
30182.112234	-1484.371667	564.947266	-140.785614
30182.112234	-1484.371667	563.708008	63.714626
30182.112234	-1484.371667	562.467773	-39.037403
30182.112234	-1484.371667	561.227539	131.493256
30182.112234	-1484.371667	559.987305	204.564774
30182.112234	-1484.371667	558.747070	-48.400627
30182.112234	-1484.371667	557.505859	107.266029
30182.112234	-1484.371667	556.264648	-58.763676
30182.112234	-1484.371667	555.023438	50.350395
30182.112234	-1484.371667	553.781250	74.830025
30182.112234	-1484.371667	552.539063	33.774380
30182.112234	-1484.371667	551.296875	121.748177
30182.112234	-1484.371667	550.054688	-132.726852
30182.112234	-1484.371667	548.811523	346.303558
30182.112234	-1484.371667	547.569336	-172.150497
30182.112234	-1484.371667	546.325195	27.910120
30182.112234	-1484.371667	545.082031	-44.519257
30182.112234	-1484.371667	543.837891	-19.743118
30182.112234	-1484.371667	542.593750	-32.924488
30182.112234	-1484.371667	541.349609	228.348785
30182.112234	-1484.371667	540.105469	240.551346
30182.112234	-1484.371667	538.860352	37.596542
30182.112234	-1484.371667	537.615234	229.240952
30182.112234	-1484.371667	536.369141	190.985855
30182.112234	-1484.371667	535.124023	76.912384
30182.112234	-1484.371667	533.877930	158.991913
30182.112234	-1484.371667	532.631836	150.476730
30182.112234	-1484.371667	531.384766	184.168945
30182.112234	-1484.371667	530.138672	180.006439
30182.112234	-1484.371667	528.891602	-78.943443
30182.112234	-1484.371667	527.643555	112.916702
30182.112234	-1484.371667	526.396484	85.826942
30182.112234	-1484.371667	525.148438	113.542336
30182.112234	-1484.371667	523.900391	-239.572388
30182.112234	-1484.371667	522.652344	-55.949585
30182.112234	-1484.371667	521.403320	-32.197277
30182.112234	-1484.371667	520.154297	18.966841
30182.112234	-1484.371667	518.905273	-70.684731
30182.112234	-1484.371667	517.656250	-38.287781
30182.112234	-1484.371667	516.406250	-169.758957
30182.112234	-1484.371667	515.156250	-27.925922
30182.112234	-1484.371667	513.906250	-192.784103
30182.112234	-1484.371667	512.655273	175.995895
30182.112234	-1484.371667	511.404297	-97.863312
30182.112234	-1484.371667	510.153320	54.671883
30182.112234	-1484.371667	508.902344	-88.728317
30182.112234	-1484.371667	507.650391	-255.068604
30182.112234	-1484.371667	506.398438	-121.220810
30182.112234	-1484.371667	505.146484	65.098221
30182.112234	-1484.371667	503.893555	-65.256950
30182.112234	-1484.371667	502.641602	-4.656078
30182.112234	-1484.371667	501.388672	114.695862
30182.112234	-1484.371667	500.134766	257.132568
30182.112234	-1484.371667	498.881836	41.293186
30182.112234	-1484.371667	497.627930	148.244308
30182.112234	-1484.371667	496.374023	116.999229
30182.112234	-1484.371667	495.119141	341.318329
30182.112234	-1484.371667	493.865234	347.900208
30182.112234	-1484.371667	492.610352	417.348511
30182.112234	-1484.371667	491.355469	114.351440
30182.112234	-1484.371667	490.099609	263.477631
30182.112234	-1484.371667	488.843750	285.020294
30182.112234	-1484.371667	487.587891	153.963760
30182.112234	-1484.371667	486.332031	196.579239
30182.112234	-1484.371667	485.075195	320.766998
30182.112234	-1484.371667	483.818359	258.963806
30182.112234	-1484.371667	482.561523	247.403229
30182.112234	-1484.371667	481.304688	359.164398
30182.112234	-1484.371667	480.046875	226.563034
30182.112234	-1484.371667	478.789063	309.157928
30182.112234	-1484.371667	477.531250	508.683807
30182.112234	-1484.371667	476.272461	150.866074
30182.112234	-1484.371667	475.013672	350.428741
30182.112234	-1484.371667	473.754883	449.803192
30182.112234	-1484.371667	472.496094	492.850250
30182.112234	-1484.371667	471.236328	452.489807
30182.112234	-1484.371667	469.976563	462.212372
30182.112234	-1484.371667	468.716797	482.378113
30182.112234	-1484.371667	467.456055	277.462830
30182.112234	-1484.371667	466.196289	437.293365
30182.112234	-1484.371667	464.935547	259.576324
30182.112234	-1484.371667	463.673828	146.494949
30182.112234	-1484.371667	462.413086	222.951416
30182.112234	-1484.371667	461.151367	393.042114
30182.112234	-1484.371667	459.889648	583.852966
30182.112234	-1484.371667	458.626953	549.801270
30182.112234	-1484.371667	457.364258	374.255524
30182.112234	-1484.371667	456.101563	446.270325
30182.112234	-1484.371667	454.838867	468.290558
30182.112234	-1484.371667	453.575195	577.562195
30182.112234	-1484.371667	452.312500	524.580933
30182.112234	-1484.371667	451.047852	673.126343
30182.112234	-1484.371667	449.784180	825.681274
30182.112234	-1484.371667	448.519531	797.334473
30182.112234	-1484.371667	447.254883	731.506714
30182.112234	-1484.371667	445.990234	1064.271362
30182.112234	-1484.371667	444.725586	985.707397
30182.112234	-1484.371667	443.459961	1174.781738
30182.112234	-1484.371667	442.194336	1330.416138
30182.112234	-1484.371667	440.927734	1170.461304
30182.112234	-1484.371667	439.662109	1504.069336
30182.112234	-1484.371667	438.395508	1159.206909
30182.112234	-1484.371667	437.127930	1011.248718
30182.112234	-1484.371667	435.861328	1091.159058
30182.112234	-1484.371667	434.593750	814.335815
30182.112234	-1484.371667	433.326172	962.140198
30182.112234	-1484.371667	432.058594	1035.041260
30182.112234	-1484.371667	430.790039	1093.125366
30182.112234	-1484.371667	429.521484	1024.578613
30182.112234	-1484.371667	428.252930	1177.259644
30182.112234	-1484.371667	426.984375	1387.496948
30182.112234	-1484.371667	425.714844	1442.088623
30182.112234	-1484.371667	424.445313	1587.317627
30182.112234	-1484.371667	423.174805	1531.455078
30182.112234	-1484.371667	421.905273	1404.909912
30182.112234	-1484.371667	420.634766	1726.632080
30182.112234	-1484.371667	419.364258	1508.268799
30182.112234	-1484.371667	418.092773	1376.320068
30182.112234	-1484.371667	416.822266	1444.367065
30182.112234	-1484.371667	415.550781	1487.073730
30182.112234	-1484.371667	414.278320	1235.949341
30182.112234	-1484.371667	413.006836	1190.868896
30182.112234	-1484.371667	411.734375	1077.089600
30182.112234	-1484.371667	410.461914	1068.014526
30182.112234	-1484.371667	409.188477	1068.613281
30182.112234	-1484.371667	407.916016	1076.820190
30182.112234	-1484.371667	406.642578	1010.069763
30182.112234	-1484.371667	405.368164	928.187012
30182.112234	-1484.371667	404.094727	1006.423950
30182.112234	-1484.371667	402.820313	1135.371826
30182.112234	-1484.371667	401.545898	1226.370239
30182.112234	-1484.371667	400.270508	1124.871948
30182.112234	-1484.371667	398.996094	919.576172
30182.112234	-1484.371667	397.720703	985.306702
30182.112234	-1484.371667	396.444336	1155.070435
30182.112234	-1484.371667	395.168945	821.535217
30182.112234	-1484.371667	393.892578	884.344482
30182.112234	-1484.371667	392.616211	909.059631
30182.112234	-1484.371667	391.339844	1058.188599
30182.112234	-1484.371667	390.062500	1103.289063
30182.112234	-1484.371667	388.785156	861.404724
30182.112234	-1484.371667	387.507813	967.941406
30182.112234	-1484.371667	386.229492	1030.027710
30182.112234	-1484.371667	384.951172	852.449524
30182.112234	-1484.371667	383.672852	772.266235
30182.112234	-1484.371667	382.394531	651.749207
30182.112234	-1484.371667	381.115234	987.829956
30182.112234	-1484.371667	379.835938	745.390320
30182.112234	-1484.371667	378.556641	850.546448
30182.112234	-1484.371667	377.277344	917.196960
30182.112234	-1484.371667	375.997070	686.753174
30182.112234	-1484.371667	374.716797	901.995789
30182.112234	-1484.371667	373.435547	830.363037
30182.112234	-1484.371667	372.155273	748.879456
30182.112234	-1484.371667	370.874023	702.528503
30182.112234	-1484.371667	369.591797	830.604675
30182.112234	-1484.371667	368.310547	858.432373
30182.112234	-1484.371667	367.028320	769.547913
30182.112234	-1484.371667	365.746094	756.555725
30182.112234	-1484.371667	364.463867	766.101563
30182.112234	-1484.371667	363.180664	744.831848
30182.112234	-1484.371667	361.897461	876.980957
30182.112234	-1484.371667	360.614258	687.601257
30182.112234	-1484.371667	359.330078	610.547424
30182.112234	-1484.371667	358.045898	547.547119
30182.112234	-1484.371667	356.761719	465.803375
30182.112234	-1484.371667	355.477539	680.148987
30182.112234	-1484.371667	354.192383	646.486816
30182.112234	-1484.371667	352.907227	647.019104
30182.112234	-1484.371667	351.622070	311.799377
30182.112234	-1484.371667	350.336914	603.198181
30182.112234	-1484.371667	349.050781	528.015015
30182.112234	-1484.371667	347.764648	396.874573
30182.112234	-1484.371667	346.477539	442.405060
30182.112234	-1484.371667	345.191406	72.625511
30182.112234	-1484.371667	343.904297	314.055389
30182.112234	-1484.371667	342.616211	637.778259
30182.112234	-1484.371667	341.329102	346.207520
30182.112234	-1484.371667	340.041016	308.267761
30182.112234	-1484.371667	338.752930	105.809982
30182.112234	-1484.371667	337.463867	201.499115
30182.112234	-1484.371667	336.175781	140.751266
30182.112234	-1484.371667	334.886719	55.840801
30182.112234	-1484.371667	333.596680	34.278637
30182.112234	-1484.371667	332.307617	214.623611
30182.112234	-1484.371667	331.017578	103.676918
30182.112234	-1484.371667	329.727539	-47.966442
30182.112234	-1484.371667	328.436523	119.773651
30182.112234	-1484.371667	327.146484	236.452026
30182.112234	-1484.371667	325.855469	-160.050323
30182.112234	-1484.371667	324.563477	-21.985788
30182.112234	-1484.371667	323.272461	78.996017
30182.112234	-1484.371667	321.980469	95.801369
30182.112234	-1484.371667	320.688477	-369.910248
30182.112234	-1484.371667	319.395508	-13.361140
30182.112234	-1484.371667	318.103516	128.843567
30182.112234	-1484.371667	316.810547	-134.494751
30182.112234	-1484.371667	315.516602	-216.303391
30182.112234	-1484.371667	314.223633	-295.209381
30182.112234	-1484.371667	312.929688	30.313082
30182.112234	-1484.371667	311.635742	-193.884399
30182.112234	-1484.371667	310.340820	-147.955032
30182.112234	-1484.371667	309.045898	-134.324478
30182.112234	-1484.371667	307.750977	33.501129
30182.112234	-1484.371667	306.456055	113.978508
30182.112234	-1484.371667	305.160156	-37.095684
30182.112234	-1484.371667	303.865234	-28.147266
30182.112234	-1484.371667	302.568359	308.217133
30182.112234	-1484.371667	301.272461	427.199402
30182.112234	-1484.371667	299.975586	585.660522
30182.112234	-1484.371667	298.678711	633.760193
