#X		#Y		#Wave		#Intensity
29248.672872	-557.391667	1999.980469	-23.236706
29248.672872	-557.391667	1999.016602	28.242243
29248.672872	-557.391667	1998.052734	64.317757
29248.672872	-557.391667	1997.087891	-1.155250
29248.672872	-557.391667	1996.123047	69.737335
29248.672872	-557.391667	1995.158203	-37.686905
29248.672872	-557.391667	1994.193359	-117.760513
29248.672872	-557.391667	1993.228516	32.555817
29248.672872	-557.391667	1992.262695	-57.277832
29248.672872	-557.391667	1991.297852	11.410804
29248.672872	-557.391667	1990.332031	-28.763680
29248.672872	-557.391667	1989.366211	-24.323032
29248.672872	-557.391667	1988.399414	4.911917
29248.672872	-557.391667	1987.433594	24.301483
29248.672872	-557.391667	1986.466797	63.522362
29248.672872	-557.391667	1985.500977	40.970074
29248.672872	-557.391667	1984.534180	-23.549257
29248.672872	-557.391667	1983.567383	85.026596
29248.672872	-557.391667	1982.599609	50.279369
29248.672872	-557.391667	1981.632813	25.479952
29248.672872	-557.391667	1980.665039	50.142971
29248.672872	-557.391667	1979.697266	92.133507
29248.672872	-557.391667	1978.729492	-73.275444
29248.672872	-557.391667	1977.761719	8.317328
29248.672872	-557.391667	1976.792969	60.300583
29248.672872	-557.391667	1975.825195	159.201828
29248.672872	-557.391667	1974.856445	26.155031
29248.672872	-557.391667	1973.887695	-22.919504
29248.672872	-557.391667	1972.918945	16.863888
29248.672872	-557.391667	1971.949219	105.994118
29248.672872	-557.391667	1970.980469	17.597244
29248.672872	-557.391667	1970.010742	-58.404690
29248.672872	-557.391667	1969.041016	-33.284363
29248.672872	-557.391667	1968.071289	87.972145
29248.672872	-557.391667	1967.101563	-49.492805
29248.672872	-557.391667	1966.130859	7.738226
29248.672872	-557.391667	1965.161133	3.406676
29248.672872	-557.391667	1964.190430	-23.055853
29248.672872	-557.391667	1963.219727	113.019493
29248.672872	-557.391667	1962.249023	12.758295
29248.672872	-557.391667	1961.277344	-55.442760
29248.672872	-557.391667	1960.306641	31.435349
29248.672872	-557.391667	1959.334961	145.370026
29248.672872	-557.391667	1958.363281	101.862297
29248.672872	-557.391667	1957.391602	-39.976822
29248.672872	-557.391667	1956.419922	108.409256
29248.672872	-557.391667	1955.447266	-11.204618
29248.672872	-557.391667	1954.474609	16.727468
29248.672872	-557.391667	1953.501953	47.129078
29248.672872	-557.391667	1952.529297	97.197952
29248.672872	-557.391667	1951.556641	66.201927
29248.672872	-557.391667	1950.583984	-53.182964
29248.672872	-557.391667	1949.610352	-20.252203
29248.672872	-557.391667	1948.636719	2.864517
29248.672872	-557.391667	1947.663086	11.262468
29248.672872	-557.391667	1946.689453	-4.867608
29248.672872	-557.391667	1945.715820	69.817871
29248.672872	-557.391667	1944.741211	-17.432484
29248.672872	-557.391667	1943.767578	59.713024
29248.672872	-557.391667	1942.792969	-12.756737
29248.672872	-557.391667	1941.818359	44.772385
29248.672872	-557.391667	1940.842773	-10.478237
29248.672872	-557.391667	1939.868164	-9.318339
29248.672872	-557.391667	1938.892578	-81.666367
29248.672872	-557.391667	1937.916992	46.941425
29248.672872	-557.391667	1936.941406	-25.365383
29248.672872	-557.391667	1935.965820	44.424625
29248.672872	-557.391667	1934.990234	97.057747
29248.672872	-557.391667	1934.013672	-19.256699
29248.672872	-557.391667	1933.037109	87.242638
29248.672872	-557.391667	1932.060547	46.864086
29248.672872	-557.391667	1931.083984	-135.416763
29248.672872	-557.391667	1930.107422	7.769463
29248.672872	-557.391667	1929.129883	-142.620972
29248.672872	-557.391667	1928.153320	-138.872574
29248.672872	-557.391667	1927.175781	-91.105568
29248.672872	-557.391667	1926.198242	-92.244141
29248.672872	-557.391667	1925.219727	-68.934044
29248.672872	-557.391667	1924.242188	120.552902
29248.672872	-557.391667	1923.263672	21.658092
29248.672872	-557.391667	1922.285156	81.593559
29248.672872	-557.391667	1921.306641	121.971687
29248.672872	-557.391667	1920.328125	37.797466
29248.672872	-557.391667	1919.349609	90.384216
29248.672872	-557.391667	1918.370117	-13.274544
29248.672872	-557.391667	1917.391602	-2.182097
29248.672872	-557.391667	1916.412109	35.750534
29248.672872	-557.391667	1915.431641	-4.400341
29248.672872	-557.391667	1914.452148	55.476025
29248.672872	-557.391667	1913.472656	-70.017197
29248.672872	-557.391667	1912.492188	-12.586881
29248.672872	-557.391667	1911.511719	5.816696
29248.672872	-557.391667	1910.531250	43.713722
29248.672872	-557.391667	1909.550781	110.840462
29248.672872	-557.391667	1908.569336	0.075515
29248.672872	-557.391667	1907.588867	67.185181
29248.672872	-557.391667	1906.607422	70.942856
29248.672872	-557.391667	1905.625977	94.179558
29248.672872	-557.391667	1904.644531	-23.806421
29248.672872	-557.391667	1903.662109	118.714638
29248.672872	-557.391667	1902.680664	51.874786
29248.672872	-557.391667	1901.698242	53.190857
29248.672872	-557.391667	1900.715820	81.266357
29248.672872	-557.391667	1899.733398	87.436966
29248.672872	-557.391667	1898.750000	57.122372
29248.672872	-557.391667	1897.767578	58.426590
29248.672872	-557.391667	1896.784180	-30.222891
29248.672872	-557.391667	1895.800781	-2.173211
29248.672872	-557.391667	1894.817383	18.571991
29248.672872	-557.391667	1893.833984	-65.171585
29248.672872	-557.391667	1892.850586	74.603188
29248.672872	-557.391667	1891.866211	95.309891
29248.672872	-557.391667	1890.881836	-7.840959
29248.672872	-557.391667	1889.897461	20.148003
29248.672872	-557.391667	1888.913086	50.549294
29248.672872	-557.391667	1887.927734	90.641495
29248.672872	-557.391667	1886.943359	-41.569134
29248.672872	-557.391667	1885.958008	-74.267433
29248.672872	-557.391667	1884.972656	41.003742
29248.672872	-557.391667	1883.987305	59.219578
29248.672872	-557.391667	1883.001953	-24.415007
29248.672872	-557.391667	1882.015625	32.581928
29248.672872	-557.391667	1881.029297	-21.943502
29248.672872	-557.391667	1880.042969	39.865971
29248.672872	-557.391667	1879.056641	26.535847
29248.672872	-557.391667	1878.070313	-23.132259
29248.672872	-557.391667	1877.083984	48.310741
29248.672872	-557.391667	1876.096680	42.230568
29248.672872	-557.391667	1875.109375	-53.434322
29248.672872	-557.391667	1874.122070	-8.674286
29248.672872	-557.391667	1873.134766	65.103821
29248.672872	-557.391667	1872.146484	20.280109
29248.672872	-557.391667	1871.159180	81.913834
29248.672872	-557.391667	1870.170898	-23.381393
29248.672872	-557.391667	1869.182617	108.353699
29248.672872	-557.391667	1868.194336	102.211296
29248.672872	-557.391667	1867.205078	59.800983
29248.672872	-557.391667	1866.216797	56.071018
29248.672872	-557.391667	1865.227539	40.251171
29248.672872	-557.391667	1864.238281	36.509258
29248.672872	-557.391667	1863.249023	-66.280533
29248.672872	-557.391667	1862.259766	-55.526482
29248.672872	-557.391667	1861.269531	3.508895
29248.672872	-557.391667	1860.279297	2.156548
29248.672872	-557.391667	1859.290039	12.866111
29248.672872	-557.391667	1858.298828	1.841137
29248.672872	-557.391667	1857.308594	77.677261
29248.672872	-557.391667	1856.318359	112.464012
29248.672872	-557.391667	1855.327148	45.923973
29248.672872	-557.391667	1854.335938	8.338343
29248.672872	-557.391667	1853.344727	31.035681
29248.672872	-557.391667	1852.353516	24.787424
29248.672872	-557.391667	1851.362305	-61.004135
29248.672872	-557.391667	1850.370117	26.728271
29248.672872	-557.391667	1849.377930	-44.594692
29248.672872	-557.391667	1848.385742	93.668533
29248.672872	-557.391667	1847.393555	82.550629
29248.672872	-557.391667	1846.401367	85.875290
29248.672872	-557.391667	1845.408203	60.298611
29248.672872	-557.391667	1844.415039	78.048691
29248.672872	-557.391667	1843.421875	83.749519
29248.672872	-557.391667	1842.428711	-18.836714
29248.672872	-557.391667	1841.435547	-46.817951
29248.672872	-557.391667	1840.441406	124.833458
29248.672872	-557.391667	1839.448242	7.840219
29248.672872	-557.391667	1838.454102	92.842361
29248.672872	-557.391667	1837.459961	50.398628
29248.672872	-557.391667	1836.464844	-40.107895
29248.672872	-557.391667	1835.470703	-72.918289
29248.672872	-557.391667	1834.475586	55.240467
29248.672872	-557.391667	1833.480469	-107.306480
29248.672872	-557.391667	1832.485352	68.822929
29248.672872	-557.391667	1831.490234	112.813515
29248.672872	-557.391667	1830.495117	29.541010
29248.672872	-557.391667	1829.499023	35.097916
29248.672872	-557.391667	1828.502930	-52.948624
29248.672872	-557.391667	1827.506836	43.776875
29248.672872	-557.391667	1826.510742	15.714361
29248.672872	-557.391667	1825.513672	18.831072
29248.672872	-557.391667	1824.517578	31.529942
29248.672872	-557.391667	1823.520508	1.057690
29248.672872	-557.391667	1822.523438	109.617256
29248.672872	-557.391667	1821.526367	23.999922
29248.672872	-557.391667	1820.529297	103.740601
29248.672872	-557.391667	1819.531250	8.553071
29248.672872	-557.391667	1818.533203	-105.770325
29248.672872	-557.391667	1817.535156	14.631021
29248.672872	-557.391667	1816.537109	-39.810986
29248.672872	-557.391667	1815.539063	118.815781
29248.672872	-557.391667	1814.540039	-50.531776
29248.672872	-557.391667	1813.541992	48.192314
29248.672872	-557.391667	1812.542969	-13.432407
29248.672872	-557.391667	1811.543945	25.424561
29248.672872	-557.391667	1810.543945	143.180298
29248.672872	-557.391667	1809.544922	-90.622581
29248.672872	-557.391667	1808.544922	-23.114304
29248.672872	-557.391667	1807.544922	-24.959452
29248.672872	-557.391667	1806.544922	-79.390175
29248.672872	-557.391667	1805.544922	121.854790
29248.672872	-557.391667	1804.544922	76.953705
29248.672872	-557.391667	1803.543945	44.001312
29248.672872	-557.391667	1802.542969	-39.096844
29248.672872	-557.391667	1801.541992	35.407566
29248.672872	-557.391667	1800.541016	88.390060
29248.672872	-557.391667	1799.539063	31.554499
29248.672872	-557.391667	1798.538086	65.409042
29248.672872	-557.391667	1797.536133	-24.820034
29248.672872	-557.391667	1796.534180	51.948399
29248.672872	-557.391667	1795.532227	38.053253
29248.672872	-557.391667	1794.529297	0.308694
29248.672872	-557.391667	1793.527344	-30.277515
29248.672872	-557.391667	1792.524414	5.876048
29248.672872	-557.391667	1791.521484	-105.743683
29248.672872	-557.391667	1790.518555	37.609924
29248.672872	-557.391667	1789.514648	161.841339
29248.672872	-557.391667	1788.511719	90.717674
29248.672872	-557.391667	1787.507813	5.323206
29248.672872	-557.391667	1786.503906	29.469141
29248.672872	-557.391667	1785.500000	39.315193
29248.672872	-557.391667	1784.496094	108.646324
29248.672872	-557.391667	1783.491211	75.624283
29248.672872	-557.391667	1782.486328	9.299808
29248.672872	-557.391667	1781.481445	-59.386623
29248.672872	-557.391667	1780.476563	62.192486
29248.672872	-557.391667	1779.471680	-56.425945
29248.672872	-557.391667	1778.465820	55.579216
29248.672872	-557.391667	1777.460938	86.725273
29248.672872	-557.391667	1776.455078	51.313133
29248.672872	-557.391667	1775.449219	56.295452
29248.672872	-557.391667	1774.442383	37.512131
29248.672872	-557.391667	1773.436523	123.226875
29248.672872	-557.391667	1772.429688	47.433411
29248.672872	-557.391667	1771.422852	35.759705
29248.672872	-557.391667	1770.416016	-40.004627
29248.672872	-557.391667	1769.409180	-127.614166
29248.672872	-557.391667	1768.402344	31.561514
29248.672872	-557.391667	1767.394531	34.099339
29248.672872	-557.391667	1766.386719	-91.448357
29248.672872	-557.391667	1765.378906	62.861599
29248.672872	-557.391667	1764.371094	41.659637
29248.672872	-557.391667	1763.362305	86.828323
29248.672872	-557.391667	1762.354492	6.364430
29248.672872	-557.391667	1761.345703	-14.839548
29248.672872	-557.391667	1760.336914	-54.995884
29248.672872	-557.391667	1759.328125	-2.767838
29248.672872	-557.391667	1758.318359	49.431461
29248.672872	-557.391667	1757.308594	-7.312385
29248.672872	-557.391667	1756.299805	49.589180
29248.672872	-557.391667	1755.290039	-33.183090
29248.672872	-557.391667	1754.279297	-92.268791
29248.672872	-557.391667	1753.269531	63.962009
29248.672872	-557.391667	1752.258789	71.099464
29248.672872	-557.391667	1751.249023	26.198112
29248.672872	-557.391667	1750.238281	35.690346
29248.672872	-557.391667	1749.226563	4.980275
29248.672872	-557.391667	1748.215820	12.095366
29248.672872	-557.391667	1747.204102	-98.961945
29248.672872	-557.391667	1746.193359	80.639557
29248.672872	-557.391667	1745.181641	-61.112373
29248.672872	-557.391667	1744.168945	5.026711
29248.672872	-557.391667	1743.157227	9.738387
29248.672872	-557.391667	1742.144531	-6.808456
29248.672872	-557.391667	1741.132813	38.019688
29248.672872	-557.391667	1740.120117	-28.100742
29248.672872	-557.391667	1739.106445	2.540511
29248.672872	-557.391667	1738.093750	-72.997231
29248.672872	-557.391667	1737.080078	4.803017
29248.672872	-557.391667	1736.067383	51.911484
29248.672872	-557.391667	1735.053711	-18.896812
29248.672872	-557.391667	1734.040039	-21.320311
29248.672872	-557.391667	1733.025391	49.313919
29248.672872	-557.391667	1732.011719	176.472733
29248.672872	-557.391667	1730.997070	-66.320358
29248.672872	-557.391667	1729.982422	58.443016
29248.672872	-557.391667	1728.967773	-28.808111
29248.672872	-557.391667	1727.952148	88.823524
29248.672872	-557.391667	1726.937500	-104.350922
29248.672872	-557.391667	1725.921875	-62.081676
29248.672872	-557.391667	1724.906250	-31.600574
29248.672872	-557.391667	1723.890625	-8.194893
29248.672872	-557.391667	1722.875000	-107.129204
29248.672872	-557.391667	1721.858398	-20.227213
29248.672872	-557.391667	1720.841797	29.012417
29248.672872	-557.391667	1719.825195	54.717449
29248.672872	-557.391667	1718.808594	80.407486
29248.672872	-557.391667	1717.791992	-53.728676
29248.672872	-557.391667	1716.774414	26.004541
29248.672872	-557.391667	1715.756836	14.081140
29248.672872	-557.391667	1714.739258	-127.027611
29248.672872	-557.391667	1713.721680	-16.811378
29248.672872	-557.391667	1712.704102	81.618584
29248.672872	-557.391667	1711.685547	95.495926
29248.672872	-557.391667	1710.667969	50.689522
29248.672872	-557.391667	1709.649414	24.667067
29248.672872	-557.391667	1708.630859	33.842045
29248.672872	-557.391667	1707.611328	-27.362700
29248.672872	-557.391667	1706.592773	-36.951061
29248.672872	-557.391667	1705.573242	-58.265675
29248.672872	-557.391667	1704.553711	72.805199
29248.672872	-557.391667	1703.534180	4.592699
29248.672872	-557.391667	1702.513672	27.794306
29248.672872	-557.391667	1701.494141	-80.221283
29248.672872	-557.391667	1700.473633	55.421532
29248.672872	-557.391667	1699.453125	94.983681
29248.672872	-557.391667	1698.432617	-120.709564
29248.672872	-557.391667	1697.412109	-15.582685
29248.672872	-557.391667	1696.390625	52.047146
29248.672872	-557.391667	1695.369141	54.120064
29248.672872	-557.391667	1694.347656	58.528976
29248.672872	-557.391667	1693.326172	11.466831
29248.672872	-557.391667	1692.304688	-65.985970
29248.672872	-557.391667	1691.282227	-56.890499
29248.672872	-557.391667	1690.260742	-87.545746
29248.672872	-557.391667	1689.238281	-64.429420
29248.672872	-557.391667	1688.214844	21.775938
29248.672872	-557.391667	1687.192383	7.470334
29248.672872	-557.391667	1686.168945	63.252701
29248.672872	-557.391667	1685.146484	4.559920
29248.672872	-557.391667	1684.123047	-12.078660
29248.672872	-557.391667	1683.099609	3.975363
29248.672872	-557.391667	1682.075195	143.743912
29248.672872	-557.391667	1681.051758	87.404091
29248.672872	-557.391667	1680.027344	19.414700
29248.672872	-557.391667	1679.002930	-11.221352
29248.672872	-557.391667	1677.978516	-46.512772
29248.672872	-557.391667	1676.953125	-16.492823
29248.672872	-557.391667	1675.928711	-14.465330
29248.672872	-557.391667	1674.903320	-3.116537
29248.672872	-557.391667	1673.877930	43.188557
29248.672872	-557.391667	1672.852539	-82.974045
29248.672872	-557.391667	1671.826172	35.552341
29248.672872	-557.391667	1670.800781	0.287385
29248.672872	-557.391667	1669.774414	9.284579
29248.672872	-557.391667	1668.748047	6.634493
29248.672872	-557.391667	1667.721680	-54.219185
29248.672872	-557.391667	1666.694336	50.213963
29248.672872	-557.391667	1665.667969	-29.244148
29248.672872	-557.391667	1664.640625	70.488785
29248.672872	-557.391667	1663.613281	100.392258
29248.672872	-557.391667	1662.585938	34.921913
29248.672872	-557.391667	1661.557617	-0.294620
29248.672872	-557.391667	1660.530273	141.203491
29248.672872	-557.391667	1659.501953	33.918468
29248.672872	-557.391667	1658.473633	1.045873
29248.672872	-557.391667	1657.444336	-22.521536
29248.672872	-557.391667	1656.416016	49.172916
29248.672872	-557.391667	1655.386719	120.838264
29248.672872	-557.391667	1654.358398	9.015886
29248.672872	-557.391667	1653.328125	64.406624
29248.672872	-557.391667	1652.298828	8.350834
29248.672872	-557.391667	1651.269531	28.908518
29248.672872	-557.391667	1650.239258	130.674606
29248.672872	-557.391667	1649.208984	158.160049
29248.672872	-557.391667	1648.178711	88.212364
29248.672872	-557.391667	1647.148438	129.611664
29248.672872	-557.391667	1646.117188	99.114250
29248.672872	-557.391667	1645.086914	17.629660
29248.672872	-557.391667	1644.055664	179.545654
29248.672872	-557.391667	1643.024414	197.723801
29248.672872	-557.391667	1641.992188	60.661346
29248.672872	-557.391667	1640.960938	4.731210
29248.672872	-557.391667	1639.928711	171.159546
29248.672872	-557.391667	1638.896484	228.693161
29248.672872	-557.391667	1637.864258	228.328461
29248.672872	-557.391667	1636.832031	142.322632
29248.672872	-557.391667	1635.798828	114.205673
29248.672872	-557.391667	1634.766602	160.143921
29248.672872	-557.391667	1633.733398	171.364532
29248.672872	-557.391667	1632.699219	69.250175
29248.672872	-557.391667	1631.666016	-35.132687
29248.672872	-557.391667	1630.632813	214.258652
29248.672872	-557.391667	1629.598633	193.105576
29248.672872	-557.391667	1628.564453	165.029877
29248.672872	-557.391667	1627.530273	111.550423
29248.672872	-557.391667	1626.495117	78.884270
29248.672872	-557.391667	1625.460938	127.075867
29248.672872	-557.391667	1624.425781	283.785522
29248.672872	-557.391667	1623.390625	248.804474
29248.672872	-557.391667	1622.355469	186.139099
29248.672872	-557.391667	1621.319336	192.737473
29248.672872	-557.391667	1620.284180	312.404938
29248.672872	-557.391667	1619.248047	217.473068
29248.672872	-557.391667	1618.211914	164.099670
29248.672872	-557.391667	1617.174805	159.177658
29248.672872	-557.391667	1616.138672	50.506989
29248.672872	-557.391667	1615.101563	158.572784
29248.672872	-557.391667	1614.065430	243.554169
29248.672872	-557.391667	1613.027344	358.459198
29248.672872	-557.391667	1611.990234	180.730423
29248.672872	-557.391667	1610.953125	214.991943
29248.672872	-557.391667	1609.915039	242.333176
29248.672872	-557.391667	1608.876953	248.945160
29248.672872	-557.391667	1607.838867	198.006195
29248.672872	-557.391667	1606.800781	190.822784
29248.672872	-557.391667	1605.761719	277.994141
29248.672872	-557.391667	1604.723633	383.543793
29248.672872	-557.391667	1603.684570	268.225983
29248.672872	-557.391667	1602.644531	336.944366
29248.672872	-557.391667	1601.605469	371.151642
29248.672872	-557.391667	1600.566406	331.783478
29248.672872	-557.391667	1599.526367	365.986481
29248.672872	-557.391667	1598.486328	243.912567
29248.672872	-557.391667	1597.446289	280.427063
29248.672872	-557.391667	1596.405273	231.935852
29248.672872	-557.391667	1595.365234	256.965546
29248.672872	-557.391667	1594.324219	256.729980
29248.672872	-557.391667	1593.283203	346.037292
29248.672872	-557.391667	1592.242188	258.571625
29248.672872	-557.391667	1591.200195	86.232124
29248.672872	-557.391667	1590.159180	267.316284
29248.672872	-557.391667	1589.117188	248.753830
29248.672872	-557.391667	1588.075195	262.314758
29248.672872	-557.391667	1587.032227	262.116028
29248.672872	-557.391667	1585.990234	264.217743
29248.672872	-557.391667	1584.947266	215.894196
29248.672872	-557.391667	1583.904297	229.474197
29248.672872	-557.391667	1582.861328	231.598694
29248.672872	-557.391667	1581.818359	291.000946
29248.672872	-557.391667	1580.775391	215.250641
29248.672872	-557.391667	1579.731445	308.994476
29248.672872	-557.391667	1578.687500	178.333466
29248.672872	-557.391667	1577.643555	221.701553
29248.672872	-557.391667	1576.598633	107.141716
29248.672872	-557.391667	1575.554688	104.756966
29248.672872	-557.391667	1574.509766	180.162262
29248.672872	-557.391667	1573.464844	315.014984
29248.672872	-557.391667	1572.419922	129.663086
29248.672872	-557.391667	1571.374023	216.471909
29248.672872	-557.391667	1570.329102	188.957916
29248.672872	-557.391667	1569.283203	191.172455
29248.672872	-557.391667	1568.237305	101.991577
29248.672872	-557.391667	1567.191406	165.922226
29248.672872	-557.391667	1566.144531	79.079720
29248.672872	-557.391667	1565.098633	56.224869
29248.672872	-557.391667	1564.051758	74.484268
29248.672872	-557.391667	1563.004883	188.622864
29248.672872	-557.391667	1561.957031	145.240173
29248.672872	-557.391667	1560.910156	138.395020
29248.672872	-557.391667	1559.862305	56.271172
29248.672872	-557.391667	1558.814453	42.618919
29248.672872	-557.391667	1557.766602	-28.033819
29248.672872	-557.391667	1556.718750	-16.565390
29248.672872	-557.391667	1555.669922	70.135239
29248.672872	-557.391667	1554.621094	195.557571
29248.672872	-557.391667	1553.573242	83.947632
29248.672872	-557.391667	1552.523438	223.004883
29248.672872	-557.391667	1551.474609	136.507080
29248.672872	-557.391667	1550.424805	61.438725
29248.672872	-557.391667	1549.375000	97.981400
29248.672872	-557.391667	1548.325195	54.840267
29248.672872	-557.391667	1547.275391	139.186783
29248.672872	-557.391667	1546.225586	132.484177
29248.672872	-557.391667	1545.174805	114.416542
29248.672872	-557.391667	1544.124023	191.904938
29248.672872	-557.391667	1543.073242	196.595428
29248.672872	-557.391667	1542.022461	96.696838
29248.672872	-557.391667	1540.970703	130.977066
29248.672872	-557.391667	1539.919922	144.798492
29248.672872	-557.391667	1538.868164	190.438553
29248.672872	-557.391667	1537.815430	208.805054
29248.672872	-557.391667	1536.763672	456.608246
29248.672872	-557.391667	1535.710938	343.208649
29248.672872	-557.391667	1534.659180	463.748779
29248.672872	-557.391667	1533.606445	566.088684
29248.672872	-557.391667	1532.552734	598.033203
29248.672872	-557.391667	1531.500000	702.597351
29248.672872	-557.391667	1530.446289	664.187622
29248.672872	-557.391667	1529.393555	637.147156
29248.672872	-557.391667	1528.338867	821.052856
29248.672872	-557.391667	1527.285156	635.282532
29248.672872	-557.391667	1526.231445	501.740936
29248.672872	-557.391667	1525.176758	542.796753
29248.672872	-557.391667	1524.122070	456.938843
29248.672872	-557.391667	1523.067383	289.557465
29248.672872	-557.391667	1522.012695	346.522797
29248.672872	-557.391667	1520.957031	306.085388
29248.672872	-557.391667	1519.901367	288.320007
29248.672872	-557.391667	1518.845703	259.253662
29248.672872	-557.391667	1517.790039	223.420013
29248.672872	-557.391667	1516.734375	223.821899
29248.672872	-557.391667	1515.677734	285.326294
29248.672872	-557.391667	1514.621094	224.659119
29248.672872	-557.391667	1513.564453	222.833862
29248.672872	-557.391667	1512.507813	245.895996
29248.672872	-557.391667	1511.450195	230.525574
29248.672872	-557.391667	1510.393555	233.257721
29248.672872	-557.391667	1509.335938	344.478851
29248.672872	-557.391667	1508.278320	238.754395
29248.672872	-557.391667	1507.219727	338.658997
29248.672872	-557.391667	1506.162109	300.761353
29248.672872	-557.391667	1505.103516	423.220917
29248.672872	-557.391667	1504.044922	211.501770
29248.672872	-557.391667	1502.986328	239.150589
29248.672872	-557.391667	1501.926758	205.865875
29248.672872	-557.391667	1500.868164	192.915619
29248.672872	-557.391667	1499.808594	231.869110
29248.672872	-557.391667	1498.749023	103.914719
29248.672872	-557.391667	1497.688477	59.459686
29248.672872	-557.391667	1496.628906	109.728981
29248.672872	-557.391667	1495.568359	146.466034
29248.672872	-557.391667	1494.507813	77.278343
29248.672872	-557.391667	1493.447266	-45.946335
29248.672872	-557.391667	1492.386719	-15.918406
29248.672872	-557.391667	1491.325195	-42.198063
29248.672872	-557.391667	1490.263672	73.415894
29248.672872	-557.391667	1489.202148	24.641518
29248.672872	-557.391667	1488.140625	41.179550
29248.672872	-557.391667	1487.079102	-59.304432
29248.672872	-557.391667	1486.016602	-96.731888
29248.672872	-557.391667	1484.954102	-107.134605
29248.672872	-557.391667	1483.891602	-61.288910
29248.672872	-557.391667	1482.829102	-4.202806
29248.672872	-557.391667	1481.765625	-106.754730
29248.672872	-557.391667	1480.702148	-85.622292
29248.672872	-557.391667	1479.638672	-57.741470
29248.672872	-557.391667	1478.575195	-63.543625
29248.672872	-557.391667	1477.511719	22.756201
29248.672872	-557.391667	1476.447266	-81.833405
29248.672872	-557.391667	1475.382813	-123.516716
29248.672872	-557.391667	1474.318359	-1.341067
29248.672872	-557.391667	1473.253906	42.278305
29248.672872	-557.391667	1472.189453	2.922492
29248.672872	-557.391667	1471.124023	12.967336
29248.672872	-557.391667	1470.058594	43.070057
29248.672872	-557.391667	1468.993164	-27.610374
29248.672872	-557.391667	1467.927734	47.460747
29248.672872	-557.391667	1466.861328	156.146866
29248.672872	-557.391667	1465.794922	38.355373
29248.672872	-557.391667	1464.728516	46.291645
29248.672872	-557.391667	1463.662109	150.316788
29248.672872	-557.391667	1462.594727	117.992287
29248.672872	-557.391667	1461.528320	116.953094
29248.672872	-557.391667	1460.460938	180.542862
29248.672872	-557.391667	1459.393555	81.136208
29248.672872	-557.391667	1458.326172	-20.378428
29248.672872	-557.391667	1457.257813	157.127182
29248.672872	-557.391667	1456.189453	305.682617
29248.672872	-557.391667	1455.121094	195.587204
29248.672872	-557.391667	1454.052734	261.545074
29248.672872	-557.391667	1452.984375	414.488647
29248.672872	-557.391667	1451.915039	264.214417
29248.672872	-557.391667	1450.845703	218.717667
29248.672872	-557.391667	1449.776367	222.363205
29248.672872	-557.391667	1448.707031	209.866852
29248.672872	-557.391667	1447.636719	189.159943
29248.672872	-557.391667	1446.567383	143.856461
29248.672872	-557.391667	1445.497070	64.640335
29248.672872	-557.391667	1444.425781	130.531876
29248.672872	-557.391667	1443.355469	8.283917
29248.672872	-557.391667	1442.285156	67.117844
29248.672872	-557.391667	1441.213867	163.514603
29248.672872	-557.391667	1440.142578	57.130024
29248.672872	-557.391667	1439.070313	148.297867
29248.672872	-557.391667	1437.999023	196.894836
29248.672872	-557.391667	1436.926758	143.429291
29248.672872	-557.391667	1435.854492	117.582626
29248.672872	-557.391667	1434.782227	107.611191
29248.672872	-557.391667	1433.709961	84.806984
29248.672872	-557.391667	1432.636719	58.580276
29248.672872	-557.391667	1431.563477	101.445648
29248.672872	-557.391667	1430.490234	39.482689
29248.672872	-557.391667	1429.416992	165.646973
29248.672872	-557.391667	1428.343750	118.443146
29248.672872	-557.391667	1427.269531	86.467812
29248.672872	-557.391667	1426.195313	136.991333
29248.672872	-557.391667	1425.121094	46.040581
29248.672872	-557.391667	1424.046875	203.413635
29248.672872	-557.391667	1422.971680	139.786026
29248.672872	-557.391667	1421.896484	200.125076
29248.672872	-557.391667	1420.821289	159.305542
29248.672872	-557.391667	1419.746094	172.430679
29248.672872	-557.391667	1418.669922	128.264206
29248.672872	-557.391667	1417.594727	208.809952
29248.672872	-557.391667	1416.518555	327.395386
29248.672872	-557.391667	1415.442383	336.884735
29248.672872	-557.391667	1414.365234	416.343292
29248.672872	-557.391667	1413.289063	299.731262
29248.672872	-557.391667	1412.211914	371.184143
29248.672872	-557.391667	1411.134766	462.477905
29248.672872	-557.391667	1410.057617	373.595490
29248.672872	-557.391667	1408.979492	365.202820
29248.672872	-557.391667	1407.902344	323.540222
29248.672872	-557.391667	1406.824219	456.431366
29248.672872	-557.391667	1405.746094	345.631592
29248.672872	-557.391667	1404.666992	374.277649
29248.672872	-557.391667	1403.588867	332.027252
29248.672872	-557.391667	1402.509766	295.313934
29248.672872	-557.391667	1401.430664	144.776184
29248.672872	-557.391667	1400.351563	224.196869
29248.672872	-557.391667	1399.271484	239.994278
29248.672872	-557.391667	1398.192383	113.101372
29248.672872	-557.391667	1397.112305	48.762657
29248.672872	-557.391667	1396.031250	125.239868
29248.672872	-557.391667	1394.951172	29.398245
29248.672872	-557.391667	1393.871094	141.688553
29248.672872	-557.391667	1392.790039	44.855522
29248.672872	-557.391667	1391.708984	80.096283
29248.672872	-557.391667	1390.626953	86.894142
29248.672872	-557.391667	1389.545898	148.410828
29248.672872	-557.391667	1388.463867	253.880066
29248.672872	-557.391667	1387.381836	-44.855331
29248.672872	-557.391667	1386.299805	-65.386948
29248.672872	-557.391667	1385.217773	42.248074
29248.672872	-557.391667	1384.134766	129.569733
29248.672872	-557.391667	1383.051758	32.697136
29248.672872	-557.391667	1381.968750	70.991577
29248.672872	-557.391667	1380.885742	26.856585
29248.672872	-557.391667	1379.802734	122.035515
29248.672872	-557.391667	1378.718750	194.984497
29248.672872	-557.391667	1377.634766	91.303978
29248.672872	-557.391667	1376.550781	124.641876
29248.672872	-557.391667	1375.465820	130.947754
29248.672872	-557.391667	1374.381836	199.461060
29248.672872	-557.391667	1373.296875	224.904907
29248.672872	-557.391667	1372.211914	283.729340
29248.672872	-557.391667	1371.126953	114.199409
29248.672872	-557.391667	1370.041016	276.387329
29248.672872	-557.391667	1368.955078	257.881958
29248.672872	-557.391667	1367.869141	168.697174
29248.672872	-557.391667	1366.783203	157.738434
29248.672872	-557.391667	1365.697266	203.925613
29248.672872	-557.391667	1364.610352	81.028214
29248.672872	-557.391667	1363.523438	194.770798
29248.672872	-557.391667	1362.436523	170.489960
29248.672872	-557.391667	1361.349609	125.227661
29248.672872	-557.391667	1360.261719	-31.987770
29248.672872	-557.391667	1359.174805	88.524368
29248.672872	-557.391667	1358.086914	49.864044
29248.672872	-557.391667	1356.998047	34.038811
29248.672872	-557.391667	1355.910156	151.830841
29248.672872	-557.391667	1354.821289	151.694199
29248.672872	-557.391667	1353.732422	167.036896
29248.672872	-557.391667	1352.643555	55.144749
29248.672872	-557.391667	1351.554688	238.961792
29248.672872	-557.391667	1350.464844	117.159790
29248.672872	-557.391667	1349.375000	145.561005
29248.672872	-557.391667	1348.285156	290.017426
29248.672872	-557.391667	1347.195313	240.510193
29248.672872	-557.391667	1346.105469	351.593201
29248.672872	-557.391667	1345.014648	511.613037
29248.672872	-557.391667	1343.923828	561.918274
29248.672872	-557.391667	1342.833008	515.814575
29248.672872	-557.391667	1341.741211	631.583801
29248.672872	-557.391667	1340.650391	614.614075
29248.672872	-557.391667	1339.558594	641.091370
29248.672872	-557.391667	1338.466797	564.127197
29248.672872	-557.391667	1337.374023	302.910797
29248.672872	-557.391667	1336.282227	274.618378
29248.672872	-557.391667	1335.189453	140.904160
29248.672872	-557.391667	1334.096680	254.350449
29248.672872	-557.391667	1333.003906	138.329254
29248.672872	-557.391667	1331.910156	199.591629
29248.672872	-557.391667	1330.817383	153.526596
29248.672872	-557.391667	1329.723633	136.610474
29248.672872	-557.391667	1328.629883	126.277344
29248.672872	-557.391667	1327.535156	144.809311
29248.672872	-557.391667	1326.441406	154.592865
29248.672872	-557.391667	1325.346680	136.765289
29248.672872	-557.391667	1324.251953	42.071911
29248.672872	-557.391667	1323.156250	146.240677
29248.672872	-557.391667	1322.061523	138.267090
29248.672872	-557.391667	1320.965820	133.435043
29248.672872	-557.391667	1319.870117	148.497589
29248.672872	-557.391667	1318.774414	193.684875
29248.672872	-557.391667	1317.678711	118.617432
29248.672872	-557.391667	1316.582031	155.724167
29248.672872	-557.391667	1315.485352	112.429283
29248.672872	-557.391667	1314.388672	114.147949
29248.672872	-557.391667	1313.291016	136.200500
29248.672872	-557.391667	1312.194336	145.359344
29248.672872	-557.391667	1311.096680	123.117523
29248.672872	-557.391667	1309.999023	-23.712166
29248.672872	-557.391667	1308.901367	-52.527042
29248.672872	-557.391667	1307.802734	11.875107
29248.672872	-557.391667	1306.705078	-10.057151
29248.672872	-557.391667	1305.606445	-44.849461
29248.672872	-557.391667	1304.506836	-19.851505
29248.672872	-557.391667	1303.408203	74.509491
29248.672872	-557.391667	1302.308594	26.794615
29248.672872	-557.391667	1301.208984	17.966459
29248.672872	-557.391667	1300.109375	44.855247
29248.672872	-557.391667	1299.009766	69.757263
29248.672872	-557.391667	1297.909180	146.362595
29248.672872	-557.391667	1296.808594	-17.798080
29248.672872	-557.391667	1295.708008	31.781233
29248.672872	-557.391667	1294.607422	18.158293
29248.672872	-557.391667	1293.506836	2.515615
29248.672872	-557.391667	1292.405273	-61.077526
29248.672872	-557.391667	1291.303711	97.815994
29248.672872	-557.391667	1290.202148	32.423607
29248.672872	-557.391667	1289.099609	-36.617760
29248.672872	-557.391667	1287.998047	65.858398
29248.672872	-557.391667	1286.895508	-22.312418
29248.672872	-557.391667	1285.792969	-28.190210
29248.672872	-557.391667	1284.689453	17.662033
29248.672872	-557.391667	1283.586914	-17.440817
29248.672872	-557.391667	1282.483398	-19.768179
29248.672872	-557.391667	1281.379883	-13.907673
29248.672872	-557.391667	1280.276367	4.833463
29248.672872	-557.391667	1279.171875	22.026796
29248.672872	-557.391667	1278.067383	11.179896
29248.672872	-557.391667	1276.962891	-5.323558
29248.672872	-557.391667	1275.858398	-66.881142
29248.672872	-557.391667	1274.753906	-31.971720
29248.672872	-557.391667	1273.648438	38.386456
29248.672872	-557.391667	1272.542969	-32.814213
29248.672872	-557.391667	1271.437500	-49.537220
29248.672872	-557.391667	1270.331055	-48.552746
29248.672872	-557.391667	1269.225586	15.033727
29248.672872	-557.391667	1268.119141	-15.098315
29248.672872	-557.391667	1267.012695	17.002720
29248.672872	-557.391667	1265.906250	66.766891
29248.672872	-557.391667	1264.798828	-58.704853
29248.672872	-557.391667	1263.691406	-122.714119
29248.672872	-557.391667	1262.583984	-76.880898
29248.672872	-557.391667	1261.476563	11.906998
29248.672872	-557.391667	1260.368164	-81.063179
29248.672872	-557.391667	1259.260742	-16.048645
29248.672872	-557.391667	1258.152344	-78.783379
29248.672872	-557.391667	1257.043945	-31.685469
29248.672872	-557.391667	1255.934570	-73.538940
29248.672872	-557.391667	1254.825195	-89.552429
29248.672872	-557.391667	1253.716797	-87.668251
29248.672872	-557.391667	1252.606445	-28.611462
29248.672872	-557.391667	1251.497070	-49.941906
29248.672872	-557.391667	1250.387695	-32.140362
29248.672872	-557.391667	1249.277344	-71.583839
29248.672872	-557.391667	1248.166992	-103.247360
29248.672872	-557.391667	1247.055664	-24.788441
29248.672872	-557.391667	1245.945313	28.367352
29248.672872	-557.391667	1244.833984	-109.633209
29248.672872	-557.391667	1243.722656	52.258503
29248.672872	-557.391667	1242.611328	54.225235
29248.672872	-557.391667	1241.499023	51.992790
29248.672872	-557.391667	1240.387695	-31.357109
29248.672872	-557.391667	1239.275391	64.738609
29248.672872	-557.391667	1238.162109	64.415085
29248.672872	-557.391667	1237.049805	112.507668
29248.672872	-557.391667	1235.936523	138.683960
29248.672872	-557.391667	1234.823242	67.234985
29248.672872	-557.391667	1233.709961	143.157196
29248.672872	-557.391667	1232.596680	94.485634
29248.672872	-557.391667	1231.482422	98.114838
29248.672872	-557.391667	1230.369141	97.130615
29248.672872	-557.391667	1229.253906	100.150200
29248.672872	-557.391667	1228.139648	31.574415
29248.672872	-557.391667	1227.025391	85.797089
29248.672872	-557.391667	1225.910156	84.203987
29248.672872	-557.391667	1224.794922	47.657150
29248.672872	-557.391667	1223.679688	63.818817
29248.672872	-557.391667	1222.563477	16.857964
29248.672872	-557.391667	1221.447266	81.748932
29248.672872	-557.391667	1220.331055	68.987450
29248.672872	-557.391667	1219.214844	12.420080
29248.672872	-557.391667	1218.098633	118.866524
29248.672872	-557.391667	1216.981445	99.369072
29248.672872	-557.391667	1215.864258	65.813416
29248.672872	-557.391667	1214.747070	117.651360
29248.672872	-557.391667	1213.629883	100.283646
29248.672872	-557.391667	1212.511719	108.384895
29248.672872	-557.391667	1211.393555	145.367920
29248.672872	-557.391667	1210.275391	203.591949
29248.672872	-557.391667	1209.157227	233.435303
29248.672872	-557.391667	1208.038086	211.391205
29248.672872	-557.391667	1206.918945	206.927124
29248.672872	-557.391667	1205.799805	206.505615
29248.672872	-557.391667	1204.680664	157.819885
29248.672872	-557.391667	1203.560547	128.991852
29248.672872	-557.391667	1202.441406	187.776398
29248.672872	-557.391667	1201.321289	57.187683
29248.672872	-557.391667	1200.200195	11.272966
29248.672872	-557.391667	1199.080078	86.664085
29248.672872	-557.391667	1197.958984	69.365448
29248.672872	-557.391667	1196.837891	2.189979
29248.672872	-557.391667	1195.716797	39.233276
29248.672872	-557.391667	1194.594727	58.026653
29248.672872	-557.391667	1193.473633	31.973928
29248.672872	-557.391667	1192.351563	48.437176
29248.672872	-557.391667	1191.229492	59.236404
29248.672872	-557.391667	1190.106445	33.962757
29248.672872	-557.391667	1188.984375	-41.826389
29248.672872	-557.391667	1187.861328	-22.210365
29248.672872	-557.391667	1186.738281	36.334702
29248.672872	-557.391667	1185.614258	3.417034
29248.672872	-557.391667	1184.491211	38.416782
29248.672872	-557.391667	1183.367188	-112.298378
29248.672872	-557.391667	1182.243164	-28.246313
29248.672872	-557.391667	1181.119141	-68.176155
29248.672872	-557.391667	1179.994141	15.515193
29248.672872	-557.391667	1178.869141	-27.072947
29248.672872	-557.391667	1177.744141	-41.016365
29248.672872	-557.391667	1176.619141	-39.994606
29248.672872	-557.391667	1175.493164	-88.520073
29248.672872	-557.391667	1174.368164	-103.938889
29248.672872	-557.391667	1173.242188	-86.389030
29248.672872	-557.391667	1172.115234	-38.958244
29248.672872	-557.391667	1170.989258	18.746595
29248.672872	-557.391667	1169.862305	7.667601
29248.672872	-557.391667	1168.735352	23.593813
29248.672872	-557.391667	1167.608398	78.325180
29248.672872	-557.391667	1166.481445	20.404331
29248.672872	-557.391667	1165.353516	-5.860590
29248.672872	-557.391667	1164.225586	46.214249
29248.672872	-557.391667	1163.097656	107.222015
29248.672872	-557.391667	1161.968750	89.015770
29248.672872	-557.391667	1160.840820	1.215258
29248.672872	-557.391667	1159.711914	3.885107
29248.672872	-557.391667	1158.583008	-63.767643
29248.672872	-557.391667	1157.453125	8.592978
29248.672872	-557.391667	1156.324219	-23.563898
29248.672872	-557.391667	1155.194336	81.988197
29248.672872	-557.391667	1154.064453	-56.528534
29248.672872	-557.391667	1152.933594	-57.668034
29248.672872	-557.391667	1151.803711	73.611855
29248.672872	-557.391667	1150.672852	-46.391121
29248.672872	-557.391667	1149.541992	31.659988
29248.672872	-557.391667	1148.411133	94.776566
29248.672872	-557.391667	1147.279297	93.709106
29248.672872	-557.391667	1146.147461	145.243317
29248.672872	-557.391667	1145.015625	118.521431
29248.672872	-557.391667	1143.883789	200.953766
29248.672872	-557.391667	1142.750977	176.326202
29248.672872	-557.391667	1141.619141	156.350174
29248.672872	-557.391667	1140.486328	168.314560
29248.672872	-557.391667	1139.352539	130.527618
29248.672872	-557.391667	1138.219727	82.301140
29248.672872	-557.391667	1137.085938	18.406164
29248.672872	-557.391667	1135.952148	30.090593
29248.672872	-557.391667	1134.818359	53.601906
29248.672872	-557.391667	1133.683594	-46.328735
29248.672872	-557.391667	1132.549805	99.223312
29248.672872	-557.391667	1131.415039	96.557854
29248.672872	-557.391667	1130.279297	129.117905
29248.672872	-557.391667	1129.144531	38.658966
29248.672872	-557.391667	1128.008789	57.340420
29248.672872	-557.391667	1126.873047	91.277893
29248.672872	-557.391667	1125.737305	43.710564
29248.672872	-557.391667	1124.601563	13.396917
29248.672872	-557.391667	1123.464844	73.424515
29248.672872	-557.391667	1122.328125	26.495441
29248.672872	-557.391667	1121.191406	23.043453
29248.672872	-557.391667	1120.054688	-28.971062
29248.672872	-557.391667	1118.916992	-46.319195
29248.672872	-557.391667	1117.779297	-34.270775
29248.672872	-557.391667	1116.641602	49.180489
29248.672872	-557.391667	1115.503906	41.202251
29248.672872	-557.391667	1114.365234	41.896938
29248.672872	-557.391667	1113.226563	18.034304
29248.672872	-557.391667	1112.087891	-21.449678
29248.672872	-557.391667	1110.949219	-76.000626
29248.672872	-557.391667	1109.809570	26.644022
29248.672872	-557.391667	1108.669922	22.324850
29248.672872	-557.391667	1107.530273	-13.152538
29248.672872	-557.391667	1106.390625	88.753059
29248.672872	-557.391667	1105.250000	44.266350
29248.672872	-557.391667	1104.109375	20.080719
29248.672872	-557.391667	1102.968750	13.136055
29248.672872	-557.391667	1101.828125	80.107841
29248.672872	-557.391667	1100.686523	-71.349060
29248.672872	-557.391667	1099.544922	66.177277
29248.672872	-557.391667	1098.403320	103.226341
29248.672872	-557.391667	1097.261719	124.322754
29248.672872	-557.391667	1096.120117	46.064613
29248.672872	-557.391667	1094.977539	83.481743
29248.672872	-557.391667	1093.834961	33.233669
29248.672872	-557.391667	1092.691406	94.591660
29248.672872	-557.391667	1091.548828	14.778170
29248.672872	-557.391667	1090.405273	61.295258
29248.672872	-557.391667	1089.261719	1.011462
29248.672872	-557.391667	1088.118164	26.161358
29248.672872	-557.391667	1086.973633	46.455647
29248.672872	-557.391667	1085.829102	-60.935116
29248.672872	-557.391667	1084.684570	39.157738
29248.672872	-557.391667	1083.540039	126.981247
29248.672872	-557.391667	1082.395508	-65.896271
29248.672872	-557.391667	1081.250000	44.372578
29248.672872	-557.391667	1080.104492	19.521866
29248.672872	-557.391667	1078.958984	-8.466746
29248.672872	-557.391667	1077.812500	17.042683
29248.672872	-557.391667	1076.666016	-55.894455
29248.672872	-557.391667	1075.519531	57.141735
29248.672872	-557.391667	1074.373047	106.864609
29248.672872	-557.391667	1073.226563	-31.176067
29248.672872	-557.391667	1072.079102	81.388786
29248.672872	-557.391667	1070.931641	54.855560
29248.672872	-557.391667	1069.784180	13.397822
29248.672872	-557.391667	1068.635742	13.948825
29248.672872	-557.391667	1067.487305	44.029358
29248.672872	-557.391667	1066.338867	-14.170900
29248.672872	-557.391667	1065.190430	10.417124
29248.672872	-557.391667	1064.041992	34.108841
29248.672872	-557.391667	1062.892578	6.487139
29248.672872	-557.391667	1061.743164	48.183929
29248.672872	-557.391667	1060.593750	14.118387
29248.672872	-557.391667	1059.443359	112.421959
29248.672872	-557.391667	1058.292969	21.860626
29248.672872	-557.391667	1057.142578	7.679976
29248.672872	-557.391667	1055.992188	65.383423
29248.672872	-557.391667	1054.841797	70.950684
29248.672872	-557.391667	1053.690430	39.157471
29248.672872	-557.391667	1052.539063	-7.253641
29248.672872	-557.391667	1051.387695	-153.319031
29248.672872	-557.391667	1050.235352	41.590496
29248.672872	-557.391667	1049.083984	33.100559
29248.672872	-557.391667	1047.931641	-97.946953
29248.672872	-557.391667	1046.778320	54.239933
29248.672872	-557.391667	1045.625977	39.095470
29248.672872	-557.391667	1044.472656	-15.562415
29248.672872	-557.391667	1043.319336	36.344128
29248.672872	-557.391667	1042.166016	2.429852
29248.672872	-557.391667	1041.012695	31.106867
29248.672872	-557.391667	1039.858398	-58.237141
29248.672872	-557.391667	1038.704102	-35.840939
29248.672872	-557.391667	1037.549805	53.915844
29248.672872	-557.391667	1036.394531	-4.454369
29248.672872	-557.391667	1035.239258	-45.941051
29248.672872	-557.391667	1034.083984	76.737541
29248.672872	-557.391667	1032.928711	53.245975
29248.672872	-557.391667	1031.773438	9.358187
29248.672872	-557.391667	1030.617188	-132.838242
29248.672872	-557.391667	1029.460938	85.604279
29248.672872	-557.391667	1028.304688	-28.264446
29248.672872	-557.391667	1027.147461	73.216888
29248.672872	-557.391667	1025.991211	55.963036
29248.672872	-557.391667	1024.833984	34.187187
29248.672872	-557.391667	1023.675781	24.474548
29248.672872	-557.391667	1022.518555	34.679611
29248.672872	-557.391667	1021.360352	24.122465
29248.672872	-557.391667	1020.202148	32.595242
29248.672872	-557.391667	1019.043945	62.880920
29248.672872	-557.391667	1017.884766	4.822144
29248.672872	-557.391667	1016.726563	23.736128
29248.672872	-557.391667	1015.567383	73.114044
29248.672872	-557.391667	1014.407227	52.361645
29248.672872	-557.391667	1013.248047	-9.009217
29248.672872	-557.391667	1012.087891	56.430325
29248.672872	-557.391667	1010.927734	53.143364
29248.672872	-557.391667	1009.767578	-34.905476
29248.672872	-557.391667	1008.606445	80.205750
29248.672872	-557.391667	1007.446289	13.823424
29248.672872	-557.391667	1006.285156	51.532360
29248.672872	-557.391667	1005.123047	1.887986
29248.672872	-557.391667	1003.961914	88.035812
29248.672872	-557.391667	1002.799805	-7.128368
29248.672872	-557.391667	1001.637695	0.865203
29248.672872	-557.391667	1000.475586	16.061722
29248.672872	-557.391667	999.312500	49.759052
29248.672872	-557.391667	998.149414	86.703827
29248.672872	-557.391667	996.986328	13.696606
29248.672872	-557.391667	995.823242	-56.155384
29248.672872	-557.391667	994.659180	50.651745
29248.672872	-557.391667	993.496094	-90.609169
29248.672872	-557.391667	992.332031	0.842325
29248.672872	-557.391667	991.166992	11.743063
29248.672872	-557.391667	990.002930	-119.007858
29248.672872	-557.391667	988.837891	-42.114151
29248.672872	-557.391667	987.672852	-19.365997
29248.672872	-557.391667	986.506836	11.620590
29248.672872	-557.391667	985.341797	-5.800647
29248.672872	-557.391667	984.175781	80.899918
29248.672872	-557.391667	983.009766	-18.835918
29248.672872	-557.391667	981.843750	15.495546
29248.672872	-557.391667	980.676758	-7.079893
29248.672872	-557.391667	979.509766	-72.359436
29248.672872	-557.391667	978.342773	-56.030540
29248.672872	-557.391667	977.175781	-62.684708
29248.672872	-557.391667	976.007813	-23.602322
29248.672872	-557.391667	974.839844	7.689707
29248.672872	-557.391667	973.671875	12.305197
29248.672872	-557.391667	972.503906	19.855768
29248.672872	-557.391667	971.334961	115.066879
29248.672872	-557.391667	970.166016	64.459976
29248.672872	-557.391667	968.997070	43.697720
29248.672872	-557.391667	967.828125	139.358032
29248.672872	-557.391667	966.658203	-36.425201
29248.672872	-557.391667	965.488281	-29.073372
29248.672872	-557.391667	964.318359	14.773678
29248.672872	-557.391667	963.148438	-37.248260
29248.672872	-557.391667	961.977539	26.896778
29248.672872	-557.391667	960.806641	-1.463797
29248.672872	-557.391667	959.635742	-20.286476
29248.672872	-557.391667	958.463867	23.900476
29248.672872	-557.391667	957.292969	19.979916
29248.672872	-557.391667	956.121094	33.207508
29248.672872	-557.391667	954.948242	101.828651
29248.672872	-557.391667	953.776367	126.344154
29248.672872	-557.391667	952.603516	69.946915
29248.672872	-557.391667	951.430664	128.711700
29248.672872	-557.391667	950.257813	-36.984978
29248.672872	-557.391667	949.084961	2.696550
29248.672872	-557.391667	947.911133	64.548035
29248.672872	-557.391667	946.737305	-24.634542
29248.672872	-557.391667	945.563477	15.001176
29248.672872	-557.391667	944.388672	-12.844379
29248.672872	-557.391667	943.213867	48.788124
29248.672872	-557.391667	942.039063	-73.099304
29248.672872	-557.391667	940.864258	-33.175552
29248.672872	-557.391667	939.688477	23.875755
29248.672872	-557.391667	938.513672	-12.691751
29248.672872	-557.391667	937.337891	26.901361
29248.672872	-557.391667	936.161133	25.158791
29248.672872	-557.391667	934.985352	-83.585480
29248.672872	-557.391667	933.808594	-50.454147
29248.672872	-557.391667	932.631836	80.922073
29248.672872	-557.391667	931.454102	-3.789637
29248.672872	-557.391667	930.277344	129.720810
29248.672872	-557.391667	929.099609	73.323853
29248.672872	-557.391667	927.921875	36.623894
29248.672872	-557.391667	926.743164	76.250748
29248.672872	-557.391667	925.565430	74.439339
29248.672872	-557.391667	924.386719	33.381844
29248.672872	-557.391667	923.208008	-90.500664
29248.672872	-557.391667	922.028320	-5.124769
29248.672872	-557.391667	920.849609	-115.884666
29248.672872	-557.391667	919.669922	-114.893394
29248.672872	-557.391667	919.474609	63.295341
29248.672872	-557.391667	918.309570	70.158974
29248.672872	-557.391667	917.143555	-145.096375
29248.672872	-557.391667	915.977539	14.197241
29248.672872	-557.391667	914.810547	49.351452
29248.672872	-557.391667	913.644531	-26.502481
29248.672872	-557.391667	912.477539	45.625366
29248.672872	-557.391667	911.310547	-65.010872
29248.672872	-557.391667	910.143555	17.961172
29248.672872	-557.391667	908.975586	-46.968174
29248.672872	-557.391667	907.807617	55.524807
29248.672872	-557.391667	906.639648	23.209455
29248.672872	-557.391667	905.471680	-48.213745
29248.672872	-557.391667	904.303711	67.240601
29248.672872	-557.391667	903.134766	-8.514333
29248.672872	-557.391667	901.965820	-66.867950
29248.672872	-557.391667	900.796875	-47.032372
29248.672872	-557.391667	899.626953	-33.720650
29248.672872	-557.391667	898.457031	-57.316814
29248.672872	-557.391667	897.287109	14.574690
29248.672872	-557.391667	896.117188	-69.778275
29248.672872	-557.391667	894.947266	-52.150314
29248.672872	-557.391667	893.776367	-58.388313
29248.672872	-557.391667	892.605469	-51.617725
29248.672872	-557.391667	891.434570	50.530869
29248.672872	-557.391667	890.262695	-12.086778
29248.672872	-557.391667	889.091797	-63.848797
29248.672872	-557.391667	887.919922	-46.263943
29248.672872	-557.391667	886.748047	103.440041
29248.672872	-557.391667	885.575195	-30.616714
29248.672872	-557.391667	884.403320	-4.399222
29248.672872	-557.391667	883.230469	52.110828
29248.672872	-557.391667	882.057617	-3.948817
29248.672872	-557.391667	880.883789	-51.333035
29248.672872	-557.391667	879.710938	-10.001939
29248.672872	-557.391667	878.537109	-117.935295
29248.672872	-557.391667	877.362305	20.701155
29248.672872	-557.391667	876.188477	31.713661
29248.672872	-557.391667	875.013672	-74.009392
29248.672872	-557.391667	873.839844	-52.182495
29248.672872	-557.391667	872.664063	-47.652180
29248.672872	-557.391667	871.489258	-36.646561
29248.672872	-557.391667	870.313477	6.750065
29248.672872	-557.391667	869.138672	-12.498549
29248.672872	-557.391667	867.962891	37.346287
29248.672872	-557.391667	866.786133	33.204514
29248.672872	-557.391667	865.610352	42.009373
29248.672872	-557.391667	864.433594	-7.448700
29248.672872	-557.391667	863.256836	22.927788
29248.672872	-557.391667	862.079102	29.564814
29248.672872	-557.391667	860.902344	49.133434
29248.672872	-557.391667	859.724609	-8.920179
29248.672872	-557.391667	858.546875	2.021245
29248.672872	-557.391667	857.368164	144.411987
29248.672872	-557.391667	856.190430	-4.126420
29248.672872	-557.391667	855.011719	34.803074
29248.672872	-557.391667	853.833008	4.796032
29248.672872	-557.391667	852.654297	-38.121410
29248.672872	-557.391667	851.474609	69.672989
29248.672872	-557.391667	850.294922	-50.729858
29248.672872	-557.391667	849.115234	35.497700
29248.672872	-557.391667	847.935547	-11.704138
29248.672872	-557.391667	846.754883	-5.113052
29248.672872	-557.391667	845.575195	18.676683
29248.672872	-557.391667	844.393555	70.406952
29248.672872	-557.391667	843.212891	85.567818
29248.672872	-557.391667	842.032227	62.032478
29248.672872	-557.391667	840.850586	29.909708
29248.672872	-557.391667	839.668945	25.725986
29248.672872	-557.391667	838.486328	77.388428
29248.672872	-557.391667	837.304688	36.683880
29248.672872	-557.391667	836.122070	88.317192
29248.672872	-557.391667	834.939453	49.768700
29248.672872	-557.391667	833.756836	77.764725
29248.672872	-557.391667	832.573242	15.626425
29248.672872	-557.391667	831.389648	69.356354
29248.672872	-557.391667	830.206055	90.888603
29248.672872	-557.391667	829.022461	82.387459
29248.672872	-557.391667	827.838867	9.568255
29248.672872	-557.391667	826.654297	-28.927073
29248.672872	-557.391667	825.469727	67.604729
29248.672872	-557.391667	824.284180	-43.741276
29248.672872	-557.391667	823.099609	-67.214821
29248.672872	-557.391667	821.914063	-41.420692
29248.672872	-557.391667	820.728516	20.762085
29248.672872	-557.391667	819.542969	127.874756
29248.672872	-557.391667	818.356445	5.914948
29248.672872	-557.391667	817.169922	10.261707
29248.672872	-557.391667	815.983398	21.022436
29248.672872	-557.391667	814.796875	3.967134
29248.672872	-557.391667	813.609375	14.719149
29248.672872	-557.391667	812.422852	14.772201
29248.672872	-557.391667	811.235352	-45.035206
29248.672872	-557.391667	810.046875	-143.292450
29248.672872	-557.391667	808.859375	49.104778
29248.672872	-557.391667	807.670898	4.273546
29248.672872	-557.391667	806.482422	-14.910025
29248.672872	-557.391667	805.293945	-36.224525
29248.672872	-557.391667	804.104492	62.034409
29248.672872	-557.391667	802.915039	6.551755
29248.672872	-557.391667	801.725586	25.787437
29248.672872	-557.391667	800.536133	57.814667
29248.672872	-557.391667	799.345703	21.558254
29248.672872	-557.391667	798.155273	4.509578
29248.672872	-557.391667	796.964844	74.896133
29248.672872	-557.391667	795.774414	-104.198120
29248.672872	-557.391667	794.583008	21.596672
29248.672872	-557.391667	793.392578	-21.025742
29248.672872	-557.391667	792.200195	0.288444
29248.672872	-557.391667	791.008789	100.409462
29248.672872	-557.391667	789.816406	-8.237631
29248.672872	-557.391667	788.625000	-23.150724
29248.672872	-557.391667	787.432617	-23.158194
29248.672872	-557.391667	786.239258	-38.068687
29248.672872	-557.391667	785.046875	68.322067
29248.672872	-557.391667	783.853516	-27.458611
29248.672872	-557.391667	782.660156	32.080429
29248.672872	-557.391667	781.465820	-101.941971
29248.672872	-557.391667	780.272461	10.737330
29248.672872	-557.391667	779.078125	10.695661
29248.672872	-557.391667	777.883789	121.171501
29248.672872	-557.391667	776.688477	93.474098
29248.672872	-557.391667	775.494141	-10.699538
29248.672872	-557.391667	774.298828	23.232038
29248.672872	-557.391667	773.103516	-6.564464
29248.672872	-557.391667	771.907227	-4.504414
29248.672872	-557.391667	770.711914	-42.783123
29248.672872	-557.391667	769.515625	-61.948811
29248.672872	-557.391667	768.318359	39.836582
29248.672872	-557.391667	767.122070	-59.962803
29248.672872	-557.391667	765.924805	69.343315
29248.672872	-557.391667	764.727539	88.321556
29248.672872	-557.391667	763.530273	111.527039
29248.672872	-557.391667	762.333008	-11.539803
29248.672872	-557.391667	761.134766	-73.102493
29248.672872	-557.391667	759.936523	-9.635410
29248.672872	-557.391667	758.738281	79.220276
29248.672872	-557.391667	757.540039	-50.111671
29248.672872	-557.391667	756.340820	32.352726
29248.672872	-557.391667	755.141602	55.500439
29248.672872	-557.391667	753.942383	-52.595844
29248.672872	-557.391667	752.742188	137.725327
29248.672872	-557.391667	751.541992	80.423210
29248.672872	-557.391667	750.341797	12.562912
29248.672872	-557.391667	749.141602	86.418785
29248.672872	-557.391667	747.941406	143.322540
29248.672872	-557.391667	746.740234	94.499817
29248.672872	-557.391667	745.539063	37.237522
29248.672872	-557.391667	744.337891	49.724060
29248.672872	-557.391667	743.135742	68.537354
29248.672872	-557.391667	741.933594	-26.721237
29248.672872	-557.391667	740.731445	70.222153
29248.672872	-557.391667	739.529297	50.997078
29248.672872	-557.391667	738.326172	84.545212
29248.672872	-557.391667	737.124023	20.993254
29248.672872	-557.391667	735.919922	77.730774
29248.672872	-557.391667	734.716797	75.370255
29248.672872	-557.391667	733.513672	178.458817
29248.672872	-557.391667	732.309570	173.956146
29248.672872	-557.391667	731.105469	135.717117
29248.672872	-557.391667	729.900391	105.918175
29248.672872	-557.391667	728.696289	50.836517
29248.672872	-557.391667	727.491211	31.588110
29248.672872	-557.391667	726.286133	-4.511247
29248.672872	-557.391667	725.080078	24.683662
29248.672872	-557.391667	723.874023	68.598015
29248.672872	-557.391667	722.668945	95.645294
29248.672872	-557.391667	721.461914	34.276894
29248.672872	-557.391667	720.255859	103.389900
29248.672872	-557.391667	719.048828	16.784311
29248.672872	-557.391667	717.841797	-34.035328
29248.672872	-557.391667	716.634766	-78.532951
29248.672872	-557.391667	715.427734	1.026709
29248.672872	-557.391667	714.219727	59.524906
29248.672872	-557.391667	713.011719	-14.410975
29248.672872	-557.391667	711.803711	10.430905
29248.672872	-557.391667	710.594727	-8.861197
29248.672872	-557.391667	709.385742	-17.652309
29248.672872	-557.391667	708.176758	-30.647577
29248.672872	-557.391667	706.967773	-16.353910
29248.672872	-557.391667	705.758789	12.617782
29248.672872	-557.391667	704.548828	-57.061756
29248.672872	-557.391667	703.338867	55.812309
29248.672872	-557.391667	702.127930	42.771793
29248.672872	-557.391667	700.917969	54.894215
29248.672872	-557.391667	699.707031	-29.448633
29248.672872	-557.391667	698.496094	-23.623171
29248.672872	-557.391667	697.285156	-15.713694
29248.672872	-557.391667	696.073242	6.851622
29248.672872	-557.391667	694.861328	-10.406906
29248.672872	-557.391667	693.649414	106.384438
29248.672872	-557.391667	692.436523	-32.365623
29248.672872	-557.391667	691.224609	44.582161
29248.672872	-557.391667	690.011719	29.385612
29248.672872	-557.391667	688.798828	114.640053
29248.672872	-557.391667	687.584961	78.492195
29248.672872	-557.391667	686.372070	84.188210
29248.672872	-557.391667	685.158203	10.395382
29248.672872	-557.391667	683.943359	45.358261
29248.672872	-557.391667	682.729492	94.930229
29248.672872	-557.391667	681.514648	167.463364
29248.672872	-557.391667	680.299805	118.751984
29248.672872	-557.391667	679.084961	61.693523
29248.672872	-557.391667	677.869141	146.690506
29248.672872	-557.391667	676.653320	110.513885
29248.672872	-557.391667	675.437500	26.319122
29248.672872	-557.391667	674.221680	69.488251
29248.672872	-557.391667	673.004883	104.280235
29248.672872	-557.391667	671.789063	86.881371
29248.672872	-557.391667	670.571289	67.392807
29248.672872	-557.391667	669.354492	-52.214657
29248.672872	-557.391667	668.136719	-34.151127
29248.672872	-557.391667	666.919922	4.743160
29248.672872	-557.391667	665.701172	-4.331871
29248.672872	-557.391667	664.483398	-109.278107
29248.672872	-557.391667	663.264648	50.421818
29248.672872	-557.391667	662.045898	7.980607
29248.672872	-557.391667	660.827148	-28.205763
29248.672872	-557.391667	659.608398	-33.153915
29248.672872	-557.391667	658.388672	82.633797
29248.672872	-557.391667	657.168945	15.201416
29248.672872	-557.391667	655.949219	39.347271
29248.672872	-557.391667	654.728516	36.425674
29248.672872	-557.391667	653.507813	-35.147461
29248.672872	-557.391667	652.287109	-52.631428
29248.672872	-557.391667	651.066406	-61.802597
29248.672872	-557.391667	649.844727	3.853477
29248.672872	-557.391667	648.623047	13.356750
29248.672872	-557.391667	647.401367	45.701363
29248.672872	-557.391667	646.179688	111.259872
29248.672872	-557.391667	644.957031	14.775467
29248.672872	-557.391667	643.734375	36.683182
29248.672872	-557.391667	642.511719	-1.636116
29248.672872	-557.391667	641.289063	92.891563
29248.672872	-557.391667	640.065430	58.704449
29248.672872	-557.391667	638.841797	18.296698
29248.672872	-557.391667	637.618164	71.240112
29248.672872	-557.391667	636.393555	-64.574951
29248.672872	-557.391667	635.168945	-67.642334
29248.672872	-557.391667	633.944336	39.151039
29248.672872	-557.391667	632.719727	38.113781
29248.672872	-557.391667	631.494141	95.085693
29248.672872	-557.391667	630.269531	33.935875
29248.672872	-557.391667	629.042969	57.722187
29248.672872	-557.391667	627.817383	75.275513
29248.672872	-557.391667	626.590820	163.203369
29248.672872	-557.391667	625.365234	66.858315
29248.672872	-557.391667	624.137695	-10.831992
29248.672872	-557.391667	622.911133	-14.012873
29248.672872	-557.391667	621.683594	86.227814
29248.672872	-557.391667	620.456055	16.823847
29248.672872	-557.391667	619.228516	-42.222260
29248.672872	-557.391667	618.000977	43.457966
29248.672872	-557.391667	616.772461	-23.857506
29248.672872	-557.391667	615.543945	-35.361069
29248.672872	-557.391667	614.314453	-36.540630
29248.672872	-557.391667	613.085938	22.172144
29248.672872	-557.391667	611.856445	-59.579021
29248.672872	-557.391667	610.626953	-31.877340
29248.672872	-557.391667	609.397461	18.509457
29248.672872	-557.391667	608.166992	11.077811
29248.672872	-557.391667	606.936523	-31.437590
29248.672872	-557.391667	605.706055	-121.391869
29248.672872	-557.391667	604.474609	69.180397
29248.672872	-557.391667	603.244141	41.085476
29248.672872	-557.391667	602.012695	37.731659
29248.672872	-557.391667	600.780273	36.430801
29248.672872	-557.391667	599.548828	-16.396519
29248.672872	-557.391667	598.316406	-46.547611
29248.672872	-557.391667	597.083984	-16.959089
29248.672872	-557.391667	595.851563	-47.115208
29248.672872	-557.391667	594.618164	15.386688
29248.672872	-557.391667	593.384766	69.619049
29248.672872	-557.391667	592.151367	-1.724640
29248.672872	-557.391667	590.917969	-1.027776
29248.672872	-557.391667	589.683594	-10.626249
29248.672872	-557.391667	588.449219	33.247982
29248.672872	-557.391667	587.214844	-17.496725
29248.672872	-557.391667	585.979492	46.903091
29248.672872	-557.391667	584.745117	76.325241
29248.672872	-557.391667	583.509766	50.240849
29248.672872	-557.391667	582.273438	17.995762
29248.672872	-557.391667	581.038086	16.570366
29248.672872	-557.391667	579.801758	41.836395
29248.672872	-557.391667	578.565430	44.498493
29248.672872	-557.391667	577.329102	86.156929
29248.672872	-557.391667	576.091797	-52.821583
29248.672872	-557.391667	574.854492	-25.537302
29248.672872	-557.391667	573.617188	42.759701
29248.672872	-557.391667	572.378906	-57.168831
29248.672872	-557.391667	571.141602	2.891469
29248.672872	-557.391667	569.903320	130.577179
29248.672872	-557.391667	568.664063	-24.667912
29248.672872	-557.391667	567.425781	-50.742691
29248.672872	-557.391667	566.186523	76.856354
29248.672872	-557.391667	564.947266	71.245308
29248.672872	-557.391667	563.708008	12.383113
29248.672872	-557.391667	562.467773	23.159187
29248.672872	-557.391667	561.227539	33.926456
29248.672872	-557.391667	559.987305	61.058659
29248.672872	-557.391667	558.747070	-20.277496
29248.672872	-557.391667	557.505859	-58.620571
29248.672872	-557.391667	556.264648	-53.997261
29248.672872	-557.391667	555.023438	-8.479376
29248.672872	-557.391667	553.781250	55.415760
29248.672872	-557.391667	552.539063	-36.070473
29248.672872	-557.391667	551.296875	-6.944205
29248.672872	-557.391667	550.054688	-24.826799
29248.672872	-557.391667	548.811523	-20.234119
29248.672872	-557.391667	547.569336	-27.898922
29248.672872	-557.391667	546.325195	-23.311859
29248.672872	-557.391667	545.082031	-0.354397
29248.672872	-557.391667	543.837891	10.344841
29248.672872	-557.391667	542.593750	-15.692225
29248.672872	-557.391667	541.349609	-39.678753
29248.672872	-557.391667	540.105469	-41.218769
29248.672872	-557.391667	538.860352	69.401848
29248.672872	-557.391667	537.615234	-21.871647
29248.672872	-557.391667	536.369141	11.236639
29248.672872	-557.391667	535.124023	7.648006
29248.672872	-557.391667	533.877930	-4.089412
29248.672872	-557.391667	532.631836	-52.488853
29248.672872	-557.391667	531.384766	21.332502
29248.672872	-557.391667	530.138672	21.819872
29248.672872	-557.391667	528.891602	-2.121916
29248.672872	-557.391667	527.643555	35.008087
29248.672872	-557.391667	526.396484	-47.935490
29248.672872	-557.391667	525.148438	38.019810
29248.672872	-557.391667	523.900391	60.884899
29248.672872	-557.391667	522.652344	8.499088
29248.672872	-557.391667	521.403320	-47.928623
29248.672872	-557.391667	520.154297	-157.180557
29248.672872	-557.391667	518.905273	-10.312428
29248.672872	-557.391667	517.656250	32.870541
29248.672872	-557.391667	516.406250	33.377632
29248.672872	-557.391667	515.156250	-81.878426
29248.672872	-557.391667	513.906250	91.258057
29248.672872	-557.391667	512.655273	14.618384
29248.672872	-557.391667	511.404297	-23.420382
29248.672872	-557.391667	510.153320	-22.882490
29248.672872	-557.391667	508.902344	-6.110072
29248.672872	-557.391667	507.650391	-46.135349
29248.672872	-557.391667	506.398438	-9.076915
29248.672872	-557.391667	505.146484	-2.442190
29248.672872	-557.391667	503.893555	-111.348618
29248.672872	-557.391667	502.641602	-129.004028
29248.672872	-557.391667	501.388672	-67.625641
29248.672872	-557.391667	500.134766	-67.041435
29248.672872	-557.391667	498.881836	30.764086
29248.672872	-557.391667	497.627930	-13.209730
29248.672872	-557.391667	496.374023	-53.109882
29248.672872	-557.391667	495.119141	-82.867554
29248.672872	-557.391667	493.865234	2.738244
29248.672872	-557.391667	492.610352	66.057701
29248.672872	-557.391667	491.355469	-52.687843
29248.672872	-557.391667	490.099609	-37.906887
29248.672872	-557.391667	488.843750	9.223450
29248.672872	-557.391667	487.587891	-20.473829
29248.672872	-557.391667	486.332031	-54.194283
29248.672872	-557.391667	485.075195	29.296144
29248.672872	-557.391667	483.818359	3.671325
29248.672872	-557.391667	482.561523	-19.916437
29248.672872	-557.391667	481.304688	-11.180820
29248.672872	-557.391667	480.046875	-56.950802
29248.672872	-557.391667	478.789063	0.240878
29248.672872	-557.391667	477.531250	-63.661552
29248.672872	-557.391667	476.272461	-0.429966
29248.672872	-557.391667	475.013672	42.609612
29248.672872	-557.391667	473.754883	83.619141
29248.672872	-557.391667	472.496094	68.162895
29248.672872	-557.391667	471.236328	-7.754200
29248.672872	-557.391667	469.976563	-33.251225
29248.672872	-557.391667	468.716797	-60.747597
29248.672872	-557.391667	467.456055	20.551594
29248.672872	-557.391667	466.196289	-51.244297
29248.672872	-557.391667	464.935547	134.731140
29248.672872	-557.391667	463.673828	42.816460
29248.672872	-557.391667	462.413086	-0.750161
29248.672872	-557.391667	461.151367	56.317554
29248.672872	-557.391667	459.889648	-3.323076
29248.672872	-557.391667	458.626953	11.485021
29248.672872	-557.391667	457.364258	40.364929
29248.672872	-557.391667	456.101563	-17.219215
29248.672872	-557.391667	454.838867	63.918613
29248.672872	-557.391667	453.575195	-37.858318
29248.672872	-557.391667	452.312500	-29.083799
29248.672872	-557.391667	451.047852	21.869326
29248.672872	-557.391667	449.784180	-29.626802
29248.672872	-557.391667	448.519531	45.395462
29248.672872	-557.391667	447.254883	56.142704
29248.672872	-557.391667	445.990234	24.733355
29248.672872	-557.391667	444.725586	41.491863
29248.672872	-557.391667	443.459961	32.156956
29248.672872	-557.391667	442.194336	18.808617
29248.672872	-557.391667	440.927734	1.447942
29248.672872	-557.391667	439.662109	-56.010422
29248.672872	-557.391667	438.395508	20.844927
29248.672872	-557.391667	437.127930	77.616760
29248.672872	-557.391667	435.861328	142.367828
29248.672872	-557.391667	434.593750	48.829941
29248.672872	-557.391667	433.326172	33.425358
29248.672872	-557.391667	432.058594	-32.043835
29248.672872	-557.391667	430.790039	94.676964
29248.672872	-557.391667	429.521484	27.189110
29248.672872	-557.391667	428.252930	79.771606
29248.672872	-557.391667	426.984375	18.280792
29248.672872	-557.391667	425.714844	180.808411
29248.672872	-557.391667	424.445313	-14.699330
29248.672872	-557.391667	423.174805	67.748573
29248.672872	-557.391667	421.905273	136.144821
29248.672872	-557.391667	420.634766	102.566811
29248.672872	-557.391667	419.364258	48.995247
29248.672872	-557.391667	418.092773	41.359081
29248.672872	-557.391667	416.822266	-2.252375
29248.672872	-557.391667	415.550781	45.966385
29248.672872	-557.391667	414.278320	58.196026
29248.672872	-557.391667	413.006836	92.337349
29248.672872	-557.391667	411.734375	124.427933
29248.672872	-557.391667	410.461914	14.823707
29248.672872	-557.391667	409.188477	8.935411
29248.672872	-557.391667	407.916016	38.897472
29248.672872	-557.391667	406.642578	62.816280
29248.672872	-557.391667	405.368164	96.638840
29248.672872	-557.391667	404.094727	106.481285
29248.672872	-557.391667	402.820313	56.492996
29248.672872	-557.391667	401.545898	114.029907
29248.672872	-557.391667	400.270508	44.026360
29248.672872	-557.391667	398.996094	51.640518
29248.672872	-557.391667	397.720703	43.258652
29248.672872	-557.391667	396.444336	68.641884
29248.672872	-557.391667	395.168945	28.281931
29248.672872	-557.391667	393.892578	25.658968
29248.672872	-557.391667	392.616211	-8.863998
29248.672872	-557.391667	391.339844	-1.696937
29248.672872	-557.391667	390.062500	-0.584609
29248.672872	-557.391667	388.785156	101.803902
29248.672872	-557.391667	387.507813	45.084476
29248.672872	-557.391667	386.229492	20.078505
29248.672872	-557.391667	384.951172	-14.948133
29248.672872	-557.391667	383.672852	33.341335
29248.672872	-557.391667	382.394531	127.166153
29248.672872	-557.391667	381.115234	4.473691
29248.672872	-557.391667	379.835938	42.465752
29248.672872	-557.391667	378.556641	-1.027901
29248.672872	-557.391667	377.277344	143.821411
29248.672872	-557.391667	375.997070	96.100861
29248.672872	-557.391667	374.716797	89.905472
29248.672872	-557.391667	373.435547	-43.301544
29248.672872	-557.391667	372.155273	13.675127
29248.672872	-557.391667	370.874023	88.308693
29248.672872	-557.391667	369.591797	32.000511
29248.672872	-557.391667	368.310547	9.231114
29248.672872	-557.391667	367.028320	14.026828
29248.672872	-557.391667	365.746094	-24.906115
29248.672872	-557.391667	364.463867	36.949188
29248.672872	-557.391667	363.180664	76.823204
29248.672872	-557.391667	361.897461	-29.917461
29248.672872	-557.391667	360.614258	96.606468
29248.672872	-557.391667	359.330078	98.278885
29248.672872	-557.391667	358.045898	-48.547295
29248.672872	-557.391667	356.761719	-53.195377
29248.672872	-557.391667	355.477539	-101.541573
29248.672872	-557.391667	354.192383	-9.808698
29248.672872	-557.391667	352.907227	-40.830360
29248.672872	-557.391667	351.622070	-16.778879
29248.672872	-557.391667	350.336914	105.744553
29248.672872	-557.391667	349.050781	8.816484
29248.672872	-557.391667	347.764648	47.856064
29248.672872	-557.391667	346.477539	58.973522
29248.672872	-557.391667	345.191406	40.218098
29248.672872	-557.391667	343.904297	-142.539536
29248.672872	-557.391667	342.616211	-23.799009
29248.672872	-557.391667	341.329102	-55.252266
29248.672872	-557.391667	340.041016	-65.330574
29248.672872	-557.391667	338.752930	-18.576780
29248.672872	-557.391667	337.463867	45.548809
29248.672872	-557.391667	336.175781	-16.762033
29248.672872	-557.391667	334.886719	-12.444067
29248.672872	-557.391667	333.596680	50.572144
29248.672872	-557.391667	332.307617	-54.134674
29248.672872	-557.391667	331.017578	-25.351383
29248.672872	-557.391667	329.727539	36.477428
29248.672872	-557.391667	328.436523	-85.094650
29248.672872	-557.391667	327.146484	-14.264533
29248.672872	-557.391667	325.855469	-14.694165
29248.672872	-557.391667	324.563477	-131.567520
29248.672872	-557.391667	323.272461	-69.959923
29248.672872	-557.391667	321.980469	34.381973
29248.672872	-557.391667	320.688477	41.932095
29248.672872	-557.391667	319.395508	50.944847
29248.672872	-557.391667	318.103516	-79.968948
29248.672872	-557.391667	316.810547	-46.419891
29248.672872	-557.391667	315.516602	-76.241074
29248.672872	-557.391667	314.223633	-0.595306
29248.672872	-557.391667	312.929688	-43.278698
29248.672872	-557.391667	311.635742	41.002289
29248.672872	-557.391667	310.340820	-93.054611
29248.672872	-557.391667	309.045898	-119.801353
29248.672872	-557.391667	307.750977	60.659924
29248.672872	-557.391667	306.456055	67.934341
29248.672872	-557.391667	305.160156	0.082351
29248.672872	-557.391667	303.865234	21.740837
29248.672872	-557.391667	302.568359	48.557407
29248.672872	-557.391667	301.272461	29.647764
29248.672872	-557.391667	299.975586	53.094074
29248.672872	-557.391667	298.678711	220.656311
