#X		#Y		#Wave		#Intensity
29632.854255	-1739.736667	1999.980469	70.729393
29632.854255	-1739.736667	1999.016602	1.476194
29632.854255	-1739.736667	1998.052734	124.513863
29632.854255	-1739.736667	1997.087891	71.505943
29632.854255	-1739.736667	1996.123047	-65.773888
29632.854255	-1739.736667	1995.158203	71.918365
29632.854255	-1739.736667	1994.193359	38.616219
29632.854255	-1739.736667	1993.228516	139.000595
29632.854255	-1739.736667	1992.262695	61.043671
29632.854255	-1739.736667	1991.297852	91.989670
29632.854255	-1739.736667	1990.332031	-82.534760
29632.854255	-1739.736667	1989.366211	-34.332527
29632.854255	-1739.736667	1988.399414	73.189354
29632.854255	-1739.736667	1987.433594	-173.080215
29632.854255	-1739.736667	1986.466797	-6.289908
29632.854255	-1739.736667	1985.500977	16.993675
29632.854255	-1739.736667	1984.534180	-38.873001
29632.854255	-1739.736667	1983.567383	90.627991
29632.854255	-1739.736667	1982.599609	205.223495
29632.854255	-1739.736667	1981.632813	198.680557
29632.854255	-1739.736667	1980.665039	189.641876
29632.854255	-1739.736667	1979.697266	-39.236931
29632.854255	-1739.736667	1978.729492	-45.808170
29632.854255	-1739.736667	1977.761719	-25.242050
29632.854255	-1739.736667	1976.792969	5.167440
29632.854255	-1739.736667	1975.825195	-48.367729
29632.854255	-1739.736667	1974.856445	-72.293205
29632.854255	-1739.736667	1973.887695	39.463089
29632.854255	-1739.736667	1972.918945	-83.172523
29632.854255	-1739.736667	1971.949219	65.501335
29632.854255	-1739.736667	1970.980469	2.051174
29632.854255	-1739.736667	1970.010742	121.039330
29632.854255	-1739.736667	1969.041016	-23.766376
29632.854255	-1739.736667	1968.071289	-20.670221
29632.854255	-1739.736667	1967.101563	-64.401321
29632.854255	-1739.736667	1966.130859	5.189704
29632.854255	-1739.736667	1965.161133	-68.108467
29632.854255	-1739.736667	1964.190430	60.537685
29632.854255	-1739.736667	1963.219727	93.105865
29632.854255	-1739.736667	1962.249023	201.963516
29632.854255	-1739.736667	1961.277344	37.583088
29632.854255	-1739.736667	1960.306641	-77.528503
29632.854255	-1739.736667	1959.334961	-15.466661
29632.854255	-1739.736667	1958.363281	46.566078
29632.854255	-1739.736667	1957.391602	123.327171
29632.854255	-1739.736667	1956.419922	10.721028
29632.854255	-1739.736667	1955.447266	-52.679462
29632.854255	-1739.736667	1954.474609	-81.648201
29632.854255	-1739.736667	1953.501953	34.383709
29632.854255	-1739.736667	1952.529297	81.572548
29632.854255	-1739.736667	1951.556641	37.848019
29632.854255	-1739.736667	1950.583984	45.717426
29632.854255	-1739.736667	1949.610352	-15.177136
29632.854255	-1739.736667	1948.636719	2.517767
29632.854255	-1739.736667	1947.663086	30.024725
29632.854255	-1739.736667	1946.689453	-102.007912
29632.854255	-1739.736667	1945.715820	28.570625
29632.854255	-1739.736667	1944.741211	-56.797363
29632.854255	-1739.736667	1943.767578	56.556854
29632.854255	-1739.736667	1942.792969	25.172747
29632.854255	-1739.736667	1941.818359	-1.293161
29632.854255	-1739.736667	1940.842773	-13.038280
29632.854255	-1739.736667	1939.868164	-34.580486
29632.854255	-1739.736667	1938.892578	-4.648422
29632.854255	-1739.736667	1937.916992	44.876766
29632.854255	-1739.736667	1936.941406	11.095893
29632.854255	-1739.736667	1935.965820	-15.320409
29632.854255	-1739.736667	1934.990234	73.371223
29632.854255	-1739.736667	1934.013672	-53.423672
29632.854255	-1739.736667	1933.037109	145.405853
29632.854255	-1739.736667	1932.060547	-64.560455
29632.854255	-1739.736667	1931.083984	19.196600
29632.854255	-1739.736667	1930.107422	173.876846
29632.854255	-1739.736667	1929.129883	27.633831
29632.854255	-1739.736667	1928.153320	-52.516422
29632.854255	-1739.736667	1927.175781	-49.496960
29632.854255	-1739.736667	1926.198242	24.423653
29632.854255	-1739.736667	1925.219727	76.322754
29632.854255	-1739.736667	1924.242188	-13.532757
29632.854255	-1739.736667	1923.263672	-110.680664
29632.854255	-1739.736667	1922.285156	29.174362
29632.854255	-1739.736667	1921.306641	27.320908
29632.854255	-1739.736667	1920.328125	-57.554489
29632.854255	-1739.736667	1919.349609	-30.082195
29632.854255	-1739.736667	1918.370117	-44.114109
29632.854255	-1739.736667	1917.391602	-41.050472
29632.854255	-1739.736667	1916.412109	44.982559
29632.854255	-1739.736667	1915.431641	-186.174713
29632.854255	-1739.736667	1914.452148	34.022724
29632.854255	-1739.736667	1913.472656	93.181923
29632.854255	-1739.736667	1912.492188	-113.456268
29632.854255	-1739.736667	1911.511719	40.795887
29632.854255	-1739.736667	1910.531250	51.186340
29632.854255	-1739.736667	1909.550781	-1.784011
29632.854255	-1739.736667	1908.569336	-86.405090
29632.854255	-1739.736667	1907.588867	87.234177
29632.854255	-1739.736667	1906.607422	-94.787262
29632.854255	-1739.736667	1905.625977	37.398907
29632.854255	-1739.736667	1904.644531	-30.105402
29632.854255	-1739.736667	1903.662109	41.170628
29632.854255	-1739.736667	1902.680664	56.448044
29632.854255	-1739.736667	1901.698242	-49.944679
29632.854255	-1739.736667	1900.715820	52.934921
29632.854255	-1739.736667	1899.733398	221.454849
29632.854255	-1739.736667	1898.750000	154.012665
29632.854255	-1739.736667	1897.767578	-15.524654
29632.854255	-1739.736667	1896.784180	-17.251976
29632.854255	-1739.736667	1895.800781	53.942066
29632.854255	-1739.736667	1894.817383	32.766270
29632.854255	-1739.736667	1893.833984	45.616924
29632.854255	-1739.736667	1892.850586	5.021165
29632.854255	-1739.736667	1891.866211	124.742752
29632.854255	-1739.736667	1890.881836	-3.269586
29632.854255	-1739.736667	1889.897461	-46.256302
29632.854255	-1739.736667	1888.913086	5.444006
29632.854255	-1739.736667	1887.927734	54.699089
29632.854255	-1739.736667	1886.943359	103.937332
29632.854255	-1739.736667	1885.958008	148.304596
29632.854255	-1739.736667	1884.972656	61.672924
29632.854255	-1739.736667	1883.987305	-85.555588
29632.854255	-1739.736667	1883.001953	31.564627
29632.854255	-1739.736667	1882.015625	88.033623
29632.854255	-1739.736667	1881.029297	-61.542213
29632.854255	-1739.736667	1880.042969	-0.231490
29632.854255	-1739.736667	1879.056641	-62.511997
29632.854255	-1739.736667	1878.070313	-20.605669
29632.854255	-1739.736667	1877.083984	64.878838
29632.854255	-1739.736667	1876.096680	41.360512
29632.854255	-1739.736667	1875.109375	8.164472
29632.854255	-1739.736667	1874.122070	18.549734
29632.854255	-1739.736667	1873.134766	36.189373
29632.854255	-1739.736667	1872.146484	-69.586998
29632.854255	-1739.736667	1871.159180	112.566452
29632.854255	-1739.736667	1870.170898	14.065563
29632.854255	-1739.736667	1869.182617	133.250092
29632.854255	-1739.736667	1868.194336	13.013834
29632.854255	-1739.736667	1867.205078	163.571609
29632.854255	-1739.736667	1866.216797	67.535896
29632.854255	-1739.736667	1865.227539	-45.384556
29632.854255	-1739.736667	1864.238281	119.581680
29632.854255	-1739.736667	1863.249023	59.827404
29632.854255	-1739.736667	1862.259766	36.317177
29632.854255	-1739.736667	1861.269531	20.053900
29632.854255	-1739.736667	1860.279297	-8.281321
29632.854255	-1739.736667	1859.290039	-24.542021
29632.854255	-1739.736667	1858.298828	41.249275
29632.854255	-1739.736667	1857.308594	-8.809777
29632.854255	-1739.736667	1856.318359	126.901871
29632.854255	-1739.736667	1855.327148	110.598030
29632.854255	-1739.736667	1854.335938	176.285019
29632.854255	-1739.736667	1853.344727	-237.869446
29632.854255	-1739.736667	1852.353516	-90.196213
29632.854255	-1739.736667	1851.362305	71.874748
29632.854255	-1739.736667	1850.370117	65.192467
29632.854255	-1739.736667	1849.377930	205.470840
29632.854255	-1739.736667	1848.385742	10.858026
29632.854255	-1739.736667	1847.393555	100.498291
29632.854255	-1739.736667	1846.401367	158.791275
29632.854255	-1739.736667	1845.408203	270.016144
29632.854255	-1739.736667	1844.415039	29.762775
29632.854255	-1739.736667	1843.421875	-13.072081
29632.854255	-1739.736667	1842.428711	110.120186
29632.854255	-1739.736667	1841.435547	50.423794
29632.854255	-1739.736667	1840.441406	-16.477858
29632.854255	-1739.736667	1839.448242	65.729767
29632.854255	-1739.736667	1838.454102	-8.387060
29632.854255	-1739.736667	1837.459961	-60.853558
29632.854255	-1739.736667	1836.464844	-31.598179
29632.854255	-1739.736667	1835.470703	24.066265
29632.854255	-1739.736667	1834.475586	187.808517
29632.854255	-1739.736667	1833.480469	192.940292
29632.854255	-1739.736667	1832.485352	-49.307663
29632.854255	-1739.736667	1831.490234	75.895935
29632.854255	-1739.736667	1830.495117	-82.243095
29632.854255	-1739.736667	1829.499023	30.889206
29632.854255	-1739.736667	1828.502930	203.958160
29632.854255	-1739.736667	1827.506836	108.221855
29632.854255	-1739.736667	1826.510742	103.663940
29632.854255	-1739.736667	1825.513672	180.637573
29632.854255	-1739.736667	1824.517578	152.056824
29632.854255	-1739.736667	1823.520508	-20.381500
29632.854255	-1739.736667	1822.523438	106.862526
29632.854255	-1739.736667	1821.526367	44.709583
29632.854255	-1739.736667	1820.529297	95.183395
29632.854255	-1739.736667	1819.531250	186.347015
29632.854255	-1739.736667	1818.533203	143.324432
29632.854255	-1739.736667	1817.535156	78.747780
29632.854255	-1739.736667	1816.537109	93.191559
29632.854255	-1739.736667	1815.539063	40.583305
29632.854255	-1739.736667	1814.540039	114.828300
29632.854255	-1739.736667	1813.541992	-14.376306
29632.854255	-1739.736667	1812.542969	23.926706
29632.854255	-1739.736667	1811.543945	141.135880
29632.854255	-1739.736667	1810.543945	-59.808395
29632.854255	-1739.736667	1809.544922	112.332191
29632.854255	-1739.736667	1808.544922	54.876053
29632.854255	-1739.736667	1807.544922	167.132965
29632.854255	-1739.736667	1806.544922	128.768280
29632.854255	-1739.736667	1805.544922	49.778427
29632.854255	-1739.736667	1804.544922	1.855132
29632.854255	-1739.736667	1803.543945	90.072456
29632.854255	-1739.736667	1802.542969	-84.447723
29632.854255	-1739.736667	1801.541992	106.377953
29632.854255	-1739.736667	1800.541016	77.495140
29632.854255	-1739.736667	1799.539063	110.654091
29632.854255	-1739.736667	1798.538086	174.803055
29632.854255	-1739.736667	1797.536133	-4.444498
29632.854255	-1739.736667	1796.534180	35.804920
29632.854255	-1739.736667	1795.532227	116.560471
29632.854255	-1739.736667	1794.529297	109.039124
29632.854255	-1739.736667	1793.527344	-39.153423
29632.854255	-1739.736667	1792.524414	-10.932703
29632.854255	-1739.736667	1791.521484	-85.216621
29632.854255	-1739.736667	1790.518555	185.984955
29632.854255	-1739.736667	1789.514648	106.882568
29632.854255	-1739.736667	1788.511719	149.256454
29632.854255	-1739.736667	1787.507813	124.915497
29632.854255	-1739.736667	1786.503906	67.229523
29632.854255	-1739.736667	1785.500000	142.843460
29632.854255	-1739.736667	1784.496094	85.131233
29632.854255	-1739.736667	1783.491211	120.215424
29632.854255	-1739.736667	1782.486328	22.039177
29632.854255	-1739.736667	1781.481445	16.640512
29632.854255	-1739.736667	1780.476563	175.310867
29632.854255	-1739.736667	1779.471680	1.026233
29632.854255	-1739.736667	1778.465820	62.125900
29632.854255	-1739.736667	1777.460938	82.775848
29632.854255	-1739.736667	1776.455078	105.769897
29632.854255	-1739.736667	1775.449219	38.449329
29632.854255	-1739.736667	1774.442383	9.135283
29632.854255	-1739.736667	1773.436523	134.182404
29632.854255	-1739.736667	1772.429688	78.694916
29632.854255	-1739.736667	1771.422852	118.167015
29632.854255	-1739.736667	1770.416016	169.468323
29632.854255	-1739.736667	1769.409180	-28.453447
29632.854255	-1739.736667	1768.402344	10.945637
29632.854255	-1739.736667	1767.394531	31.325937
29632.854255	-1739.736667	1766.386719	56.418617
29632.854255	-1739.736667	1765.378906	50.650421
29632.854255	-1739.736667	1764.371094	44.860214
29632.854255	-1739.736667	1763.362305	124.382607
29632.854255	-1739.736667	1762.354492	125.643570
29632.854255	-1739.736667	1761.345703	160.051071
29632.854255	-1739.736667	1760.336914	83.074730
29632.854255	-1739.736667	1759.328125	224.018738
29632.854255	-1739.736667	1758.318359	-6.922504
29632.854255	-1739.736667	1757.308594	25.019005
29632.854255	-1739.736667	1756.299805	158.719772
29632.854255	-1739.736667	1755.290039	119.565079
29632.854255	-1739.736667	1754.279297	54.368855
29632.854255	-1739.736667	1753.269531	-17.921993
29632.854255	-1739.736667	1752.258789	101.392639
29632.854255	-1739.736667	1751.249023	-44.242695
29632.854255	-1739.736667	1750.238281	-66.890663
29632.854255	-1739.736667	1749.226563	21.558090
29632.854255	-1739.736667	1748.215820	13.040947
29632.854255	-1739.736667	1747.204102	-120.750000
29632.854255	-1739.736667	1746.193359	-25.321629
29632.854255	-1739.736667	1745.181641	93.667496
29632.854255	-1739.736667	1744.168945	2.378521
29632.854255	-1739.736667	1743.157227	-48.752422
29632.854255	-1739.736667	1742.144531	192.871353
29632.854255	-1739.736667	1741.132813	-25.919882
29632.854255	-1739.736667	1740.120117	-15.726778
29632.854255	-1739.736667	1739.106445	-92.869141
29632.854255	-1739.736667	1738.093750	75.351616
29632.854255	-1739.736667	1737.080078	-178.728775
29632.854255	-1739.736667	1736.067383	-154.456055
29632.854255	-1739.736667	1735.053711	32.471249
29632.854255	-1739.736667	1734.040039	122.652298
29632.854255	-1739.736667	1733.025391	-70.056847
29632.854255	-1739.736667	1732.011719	-109.541824
29632.854255	-1739.736667	1730.997070	-24.167776
29632.854255	-1739.736667	1729.982422	-11.871109
29632.854255	-1739.736667	1728.967773	-37.283043
29632.854255	-1739.736667	1727.952148	-105.094971
29632.854255	-1739.736667	1726.937500	-130.523834
29632.854255	-1739.736667	1725.921875	-21.802670
29632.854255	-1739.736667	1724.906250	-11.984440
29632.854255	-1739.736667	1723.890625	21.337240
29632.854255	-1739.736667	1722.875000	-25.357504
29632.854255	-1739.736667	1721.858398	-39.131741
29632.854255	-1739.736667	1720.841797	-125.818626
29632.854255	-1739.736667	1719.825195	55.528759
29632.854255	-1739.736667	1718.808594	-78.197815
29632.854255	-1739.736667	1717.791992	-40.331211
29632.854255	-1739.736667	1716.774414	-96.491692
29632.854255	-1739.736667	1715.756836	9.448138
29632.854255	-1739.736667	1714.739258	16.676922
29632.854255	-1739.736667	1713.721680	124.862312
29632.854255	-1739.736667	1712.704102	-27.632727
29632.854255	-1739.736667	1711.685547	94.561691
29632.854255	-1739.736667	1710.667969	-53.214588
29632.854255	-1739.736667	1709.649414	90.017761
29632.854255	-1739.736667	1708.630859	-3.782658
29632.854255	-1739.736667	1707.611328	148.726151
29632.854255	-1739.736667	1706.592773	-71.729591
29632.854255	-1739.736667	1705.573242	-6.060811
29632.854255	-1739.736667	1704.553711	-95.161377
29632.854255	-1739.736667	1703.534180	-62.364578
29632.854255	-1739.736667	1702.513672	-64.753784
29632.854255	-1739.736667	1701.494141	-17.953674
29632.854255	-1739.736667	1700.473633	122.507492
29632.854255	-1739.736667	1699.453125	-53.282608
29632.854255	-1739.736667	1698.432617	-11.251990
29632.854255	-1739.736667	1697.412109	-11.396046
29632.854255	-1739.736667	1696.390625	105.475716
29632.854255	-1739.736667	1695.369141	-103.012344
29632.854255	-1739.736667	1694.347656	58.255241
29632.854255	-1739.736667	1693.326172	-12.153933
29632.854255	-1739.736667	1692.304688	1.649032
29632.854255	-1739.736667	1691.282227	17.765699
29632.854255	-1739.736667	1690.260742	148.427200
29632.854255	-1739.736667	1689.238281	117.726089
29632.854255	-1739.736667	1688.214844	56.635201
29632.854255	-1739.736667	1687.192383	72.667007
29632.854255	-1739.736667	1686.168945	163.432541
29632.854255	-1739.736667	1685.146484	-30.812027
29632.854255	-1739.736667	1684.123047	41.226898
29632.854255	-1739.736667	1683.099609	-68.896927
29632.854255	-1739.736667	1682.075195	38.106441
29632.854255	-1739.736667	1681.051758	140.390259
29632.854255	-1739.736667	1680.027344	-35.072762
29632.854255	-1739.736667	1679.002930	116.150093
29632.854255	-1739.736667	1677.978516	262.636200
29632.854255	-1739.736667	1676.953125	24.238993
29632.854255	-1739.736667	1675.928711	-13.546410
29632.854255	-1739.736667	1674.903320	-60.658028
29632.854255	-1739.736667	1673.877930	48.402351
29632.854255	-1739.736667	1672.852539	-56.986599
29632.854255	-1739.736667	1671.826172	-92.452499
29632.854255	-1739.736667	1670.800781	156.285080
29632.854255	-1739.736667	1669.774414	71.859810
29632.854255	-1739.736667	1668.748047	6.084876
29632.854255	-1739.736667	1667.721680	-192.379288
29632.854255	-1739.736667	1666.694336	-2.056829
29632.854255	-1739.736667	1665.667969	92.769302
29632.854255	-1739.736667	1664.640625	201.506134
29632.854255	-1739.736667	1663.613281	-13.170796
29632.854255	-1739.736667	1662.585938	193.212921
29632.854255	-1739.736667	1661.557617	27.433407
29632.854255	-1739.736667	1660.530273	82.587181
29632.854255	-1739.736667	1659.501953	179.549454
29632.854255	-1739.736667	1658.473633	41.732155
29632.854255	-1739.736667	1657.444336	71.258560
29632.854255	-1739.736667	1656.416016	93.800919
29632.854255	-1739.736667	1655.386719	-36.978481
29632.854255	-1739.736667	1654.358398	157.411484
29632.854255	-1739.736667	1653.328125	8.077819
29632.854255	-1739.736667	1652.298828	5.047873
29632.854255	-1739.736667	1651.269531	57.715416
29632.854255	-1739.736667	1650.239258	87.147552
29632.854255	-1739.736667	1649.208984	135.123444
29632.854255	-1739.736667	1648.178711	162.198547
29632.854255	-1739.736667	1647.148438	110.406845
29632.854255	-1739.736667	1646.117188	118.913094
29632.854255	-1739.736667	1645.086914	280.420380
29632.854255	-1739.736667	1644.055664	117.363403
29632.854255	-1739.736667	1643.024414	206.957855
29632.854255	-1739.736667	1641.992188	222.368988
29632.854255	-1739.736667	1640.960938	193.762299
29632.854255	-1739.736667	1639.928711	186.003128
29632.854255	-1739.736667	1638.896484	240.764709
29632.854255	-1739.736667	1637.864258	170.486328
29632.854255	-1739.736667	1636.832031	190.504669
29632.854255	-1739.736667	1635.798828	330.848724
29632.854255	-1739.736667	1634.766602	325.373535
29632.854255	-1739.736667	1633.733398	329.147980
29632.854255	-1739.736667	1632.699219	275.094727
29632.854255	-1739.736667	1631.666016	403.746552
29632.854255	-1739.736667	1630.632813	229.479538
29632.854255	-1739.736667	1629.598633	207.836426
29632.854255	-1739.736667	1628.564453	183.891296
29632.854255	-1739.736667	1627.530273	143.780701
29632.854255	-1739.736667	1626.495117	228.432571
29632.854255	-1739.736667	1625.460938	229.905975
29632.854255	-1739.736667	1624.425781	162.097992
29632.854255	-1739.736667	1623.390625	249.009506
29632.854255	-1739.736667	1622.355469	370.514801
29632.854255	-1739.736667	1621.319336	427.349030
29632.854255	-1739.736667	1620.284180	421.865082
29632.854255	-1739.736667	1619.248047	460.216003
29632.854255	-1739.736667	1618.211914	371.692657
29632.854255	-1739.736667	1617.174805	396.203979
29632.854255	-1739.736667	1616.138672	441.464722
29632.854255	-1739.736667	1615.101563	442.908173
29632.854255	-1739.736667	1614.065430	504.283264
29632.854255	-1739.736667	1613.027344	321.371429
29632.854255	-1739.736667	1611.990234	313.634979
29632.854255	-1739.736667	1610.953125	492.486237
29632.854255	-1739.736667	1609.915039	295.880127
29632.854255	-1739.736667	1608.876953	214.484375
29632.854255	-1739.736667	1607.838867	559.014160
29632.854255	-1739.736667	1606.800781	397.052734
29632.854255	-1739.736667	1605.761719	235.157593
29632.854255	-1739.736667	1604.723633	264.298645
29632.854255	-1739.736667	1603.684570	323.335144
29632.854255	-1739.736667	1602.644531	271.959320
29632.854255	-1739.736667	1601.605469	388.471588
29632.854255	-1739.736667	1600.566406	288.844482
29632.854255	-1739.736667	1599.526367	207.649170
29632.854255	-1739.736667	1598.486328	225.310165
29632.854255	-1739.736667	1597.446289	164.854111
29632.854255	-1739.736667	1596.405273	187.125641
29632.854255	-1739.736667	1595.365234	170.356750
29632.854255	-1739.736667	1594.324219	300.561615
29632.854255	-1739.736667	1593.283203	343.484558
29632.854255	-1739.736667	1592.242188	257.860657
29632.854255	-1739.736667	1591.200195	369.639648
29632.854255	-1739.736667	1590.159180	352.899048
29632.854255	-1739.736667	1589.117188	404.993530
29632.854255	-1739.736667	1588.075195	328.637970
29632.854255	-1739.736667	1587.032227	252.320724
29632.854255	-1739.736667	1585.990234	231.073318
29632.854255	-1739.736667	1584.947266	175.458984
29632.854255	-1739.736667	1583.904297	190.924042
29632.854255	-1739.736667	1582.861328	300.340851
29632.854255	-1739.736667	1581.818359	341.001129
29632.854255	-1739.736667	1580.775391	377.077545
29632.854255	-1739.736667	1579.731445	287.200531
29632.854255	-1739.736667	1578.687500	364.509216
29632.854255	-1739.736667	1577.643555	190.001404
29632.854255	-1739.736667	1576.598633	230.705063
29632.854255	-1739.736667	1575.554688	241.664658
29632.854255	-1739.736667	1574.509766	170.271790
29632.854255	-1739.736667	1573.464844	204.138184
29632.854255	-1739.736667	1572.419922	249.440826
29632.854255	-1739.736667	1571.374023	111.825920
29632.854255	-1739.736667	1570.329102	296.603363
29632.854255	-1739.736667	1569.283203	95.071213
29632.854255	-1739.736667	1568.237305	172.410873
29632.854255	-1739.736667	1567.191406	192.622101
29632.854255	-1739.736667	1566.144531	84.925407
29632.854255	-1739.736667	1565.098633	114.314583
29632.854255	-1739.736667	1564.051758	125.439880
29632.854255	-1739.736667	1563.004883	132.012909
29632.854255	-1739.736667	1561.957031	159.139496
29632.854255	-1739.736667	1560.910156	250.170212
29632.854255	-1739.736667	1559.862305	140.410736
29632.854255	-1739.736667	1558.814453	238.286453
29632.854255	-1739.736667	1557.766602	251.760971
29632.854255	-1739.736667	1556.718750	299.451202
29632.854255	-1739.736667	1555.669922	319.782410
29632.854255	-1739.736667	1554.621094	166.904007
29632.854255	-1739.736667	1553.573242	150.835495
29632.854255	-1739.736667	1552.523438	143.900146
29632.854255	-1739.736667	1551.474609	93.711136
29632.854255	-1739.736667	1550.424805	102.772202
29632.854255	-1739.736667	1549.375000	175.606689
29632.854255	-1739.736667	1548.325195	141.435516
29632.854255	-1739.736667	1547.275391	66.329185
29632.854255	-1739.736667	1546.225586	34.511044
29632.854255	-1739.736667	1545.174805	193.840607
29632.854255	-1739.736667	1544.124023	246.215637
29632.854255	-1739.736667	1543.073242	75.711037
29632.854255	-1739.736667	1542.022461	244.099426
29632.854255	-1739.736667	1540.970703	148.726288
29632.854255	-1739.736667	1539.919922	212.522873
29632.854255	-1739.736667	1538.868164	214.956284
29632.854255	-1739.736667	1537.815430	176.512100
29632.854255	-1739.736667	1536.763672	192.627335
29632.854255	-1739.736667	1535.710938	351.840485
29632.854255	-1739.736667	1534.659180	408.834564
29632.854255	-1739.736667	1533.606445	325.070984
29632.854255	-1739.736667	1532.552734	447.914734
29632.854255	-1739.736667	1531.500000	450.460327
29632.854255	-1739.736667	1530.446289	552.859192
29632.854255	-1739.736667	1529.393555	460.156006
29632.854255	-1739.736667	1528.338867	558.022644
29632.854255	-1739.736667	1527.285156	458.598999
29632.854255	-1739.736667	1526.231445	420.451965
29632.854255	-1739.736667	1525.176758	337.009308
29632.854255	-1739.736667	1524.122070	276.286957
29632.854255	-1739.736667	1523.067383	213.348526
29632.854255	-1739.736667	1522.012695	87.031105
29632.854255	-1739.736667	1520.957031	130.654160
29632.854255	-1739.736667	1519.901367	142.583115
29632.854255	-1739.736667	1518.845703	106.990463
29632.854255	-1739.736667	1517.790039	60.120007
29632.854255	-1739.736667	1516.734375	29.136425
29632.854255	-1739.736667	1515.677734	104.533638
29632.854255	-1739.736667	1514.621094	-75.700516
29632.854255	-1739.736667	1513.564453	33.667980
29632.854255	-1739.736667	1512.507813	-17.532633
29632.854255	-1739.736667	1511.450195	64.702896
29632.854255	-1739.736667	1510.393555	-4.511996
29632.854255	-1739.736667	1509.335938	21.244209
29632.854255	-1739.736667	1508.278320	17.643749
29632.854255	-1739.736667	1507.219727	0.516675
29632.854255	-1739.736667	1506.162109	112.167603
29632.854255	-1739.736667	1505.103516	-35.889950
29632.854255	-1739.736667	1504.044922	-64.200653
29632.854255	-1739.736667	1502.986328	-4.438230
29632.854255	-1739.736667	1501.926758	-30.432669
29632.854255	-1739.736667	1500.868164	137.662354
29632.854255	-1739.736667	1499.808594	28.237572
29632.854255	-1739.736667	1498.749023	22.637815
29632.854255	-1739.736667	1497.688477	-122.745125
29632.854255	-1739.736667	1496.628906	94.949013
29632.854255	-1739.736667	1495.568359	28.562336
29632.854255	-1739.736667	1494.507813	174.078720
29632.854255	-1739.736667	1493.447266	130.293640
29632.854255	-1739.736667	1492.386719	102.325340
29632.854255	-1739.736667	1491.325195	198.274765
29632.854255	-1739.736667	1490.263672	64.521637
29632.854255	-1739.736667	1489.202148	61.436142
29632.854255	-1739.736667	1488.140625	112.405556
29632.854255	-1739.736667	1487.079102	181.388931
29632.854255	-1739.736667	1486.016602	68.114281
29632.854255	-1739.736667	1484.954102	256.369873
29632.854255	-1739.736667	1483.891602	122.942863
29632.854255	-1739.736667	1482.829102	284.187317
29632.854255	-1739.736667	1481.765625	404.924652
29632.854255	-1739.736667	1480.702148	170.483963
29632.854255	-1739.736667	1479.638672	304.747192
29632.854255	-1739.736667	1478.575195	310.903290
29632.854255	-1739.736667	1477.511719	198.033890
29632.854255	-1739.736667	1476.447266	312.086945
29632.854255	-1739.736667	1475.382813	264.437347
29632.854255	-1739.736667	1474.318359	232.619843
29632.854255	-1739.736667	1473.253906	216.500626
29632.854255	-1739.736667	1472.189453	251.988907
29632.854255	-1739.736667	1471.124023	224.785263
29632.854255	-1739.736667	1470.058594	190.736603
29632.854255	-1739.736667	1468.993164	199.493317
29632.854255	-1739.736667	1467.927734	134.326920
29632.854255	-1739.736667	1466.861328	192.362885
29632.854255	-1739.736667	1465.794922	95.914291
29632.854255	-1739.736667	1464.728516	144.949905
29632.854255	-1739.736667	1463.662109	39.592278
29632.854255	-1739.736667	1462.594727	37.299030
29632.854255	-1739.736667	1461.528320	158.200394
29632.854255	-1739.736667	1460.460938	-121.565742
29632.854255	-1739.736667	1459.393555	91.046921
29632.854255	-1739.736667	1458.326172	153.731735
29632.854255	-1739.736667	1457.257813	140.369293
29632.854255	-1739.736667	1456.189453	-38.204651
29632.854255	-1739.736667	1455.121094	4.901979
29632.854255	-1739.736667	1454.052734	25.406450
29632.854255	-1739.736667	1452.984375	264.204742
29632.854255	-1739.736667	1451.915039	108.907562
29632.854255	-1739.736667	1450.845703	35.658604
29632.854255	-1739.736667	1449.776367	354.367035
29632.854255	-1739.736667	1448.707031	178.629486
29632.854255	-1739.736667	1447.636719	136.319962
29632.854255	-1739.736667	1446.567383	116.838844
29632.854255	-1739.736667	1445.497070	111.358986
29632.854255	-1739.736667	1444.425781	42.619205
29632.854255	-1739.736667	1443.355469	-28.069178
29632.854255	-1739.736667	1442.285156	61.095619
29632.854255	-1739.736667	1441.213867	-14.977576
29632.854255	-1739.736667	1440.142578	65.710571
29632.854255	-1739.736667	1439.070313	99.587990
29632.854255	-1739.736667	1437.999023	6.224976
29632.854255	-1739.736667	1436.926758	-80.393158
29632.854255	-1739.736667	1435.854492	31.334370
29632.854255	-1739.736667	1434.782227	16.086693
29632.854255	-1739.736667	1433.709961	85.611801
29632.854255	-1739.736667	1432.636719	129.207886
29632.854255	-1739.736667	1431.563477	-36.016094
29632.854255	-1739.736667	1430.490234	-30.281887
29632.854255	-1739.736667	1429.416992	51.312775
29632.854255	-1739.736667	1428.343750	23.718992
29632.854255	-1739.736667	1427.269531	-69.520279
29632.854255	-1739.736667	1426.195313	17.509432
29632.854255	-1739.736667	1425.121094	51.037529
29632.854255	-1739.736667	1424.046875	-99.282753
29632.854255	-1739.736667	1422.971680	-46.662251
29632.854255	-1739.736667	1421.896484	-48.910255
29632.854255	-1739.736667	1420.821289	-26.697273
29632.854255	-1739.736667	1419.746094	-72.506302
29632.854255	-1739.736667	1418.669922	-40.427967
29632.854255	-1739.736667	1417.594727	-133.465363
29632.854255	-1739.736667	1416.518555	-91.695114
29632.854255	-1739.736667	1415.442383	-40.402298
29632.854255	-1739.736667	1414.365234	-58.195972
29632.854255	-1739.736667	1413.289063	102.420044
29632.854255	-1739.736667	1412.211914	-12.426576
29632.854255	-1739.736667	1411.134766	-58.737309
29632.854255	-1739.736667	1410.057617	-179.593323
29632.854255	-1739.736667	1408.979492	-62.866272
29632.854255	-1739.736667	1407.902344	146.790344
29632.854255	-1739.736667	1406.824219	-8.736742
29632.854255	-1739.736667	1405.746094	22.172901
29632.854255	-1739.736667	1404.666992	87.251244
29632.854255	-1739.736667	1403.588867	-65.926926
29632.854255	-1739.736667	1402.509766	-14.012762
29632.854255	-1739.736667	1401.430664	48.550095
29632.854255	-1739.736667	1400.351563	-75.026573
29632.854255	-1739.736667	1399.271484	-24.566328
29632.854255	-1739.736667	1398.192383	3.558556
29632.854255	-1739.736667	1397.112305	123.254311
29632.854255	-1739.736667	1396.031250	125.673225
29632.854255	-1739.736667	1394.951172	154.836914
29632.854255	-1739.736667	1393.871094	102.261208
29632.854255	-1739.736667	1392.790039	84.639763
29632.854255	-1739.736667	1391.708984	124.442261
29632.854255	-1739.736667	1390.626953	78.071877
29632.854255	-1739.736667	1389.545898	269.578796
29632.854255	-1739.736667	1388.463867	211.689911
29632.854255	-1739.736667	1387.381836	49.381680
29632.854255	-1739.736667	1386.299805	91.156364
29632.854255	-1739.736667	1385.217773	163.068024
29632.854255	-1739.736667	1384.134766	71.701599
29632.854255	-1739.736667	1383.051758	228.541718
29632.854255	-1739.736667	1381.968750	210.245911
29632.854255	-1739.736667	1380.885742	145.419998
29632.854255	-1739.736667	1379.802734	166.710297
29632.854255	-1739.736667	1378.718750	239.670624
29632.854255	-1739.736667	1377.634766	266.214172
29632.854255	-1739.736667	1376.550781	239.906189
29632.854255	-1739.736667	1375.465820	276.439240
29632.854255	-1739.736667	1374.381836	240.029800
29632.854255	-1739.736667	1373.296875	80.973320
29632.854255	-1739.736667	1372.211914	237.323471
29632.854255	-1739.736667	1371.126953	255.035172
29632.854255	-1739.736667	1370.041016	298.679504
29632.854255	-1739.736667	1368.955078	192.127930
29632.854255	-1739.736667	1367.869141	274.943787
29632.854255	-1739.736667	1366.783203	258.076569
29632.854255	-1739.736667	1365.697266	258.306396
29632.854255	-1739.736667	1364.610352	136.379242
29632.854255	-1739.736667	1363.523438	216.295395
29632.854255	-1739.736667	1362.436523	245.854965
29632.854255	-1739.736667	1361.349609	272.140259
29632.854255	-1739.736667	1360.261719	171.308029
29632.854255	-1739.736667	1359.174805	122.388535
29632.854255	-1739.736667	1358.086914	160.321854
29632.854255	-1739.736667	1356.998047	189.066391
29632.854255	-1739.736667	1355.910156	230.059967
29632.854255	-1739.736667	1354.821289	187.799469
29632.854255	-1739.736667	1353.732422	240.917786
29632.854255	-1739.736667	1352.643555	104.589989
29632.854255	-1739.736667	1351.554688	189.432602
29632.854255	-1739.736667	1350.464844	274.271454
29632.854255	-1739.736667	1349.375000	260.789642
29632.854255	-1739.736667	1348.285156	233.413712
29632.854255	-1739.736667	1347.195313	422.372009
29632.854255	-1739.736667	1346.105469	361.442139
29632.854255	-1739.736667	1345.014648	450.235687
29632.854255	-1739.736667	1343.923828	491.633362
29632.854255	-1739.736667	1342.833008	834.732666
29632.854255	-1739.736667	1341.741211	803.921570
29632.854255	-1739.736667	1340.650391	921.971863
29632.854255	-1739.736667	1339.558594	921.229004
29632.854255	-1739.736667	1338.466797	832.102539
29632.854255	-1739.736667	1337.374023	776.493652
29632.854255	-1739.736667	1336.282227	533.955261
29632.854255	-1739.736667	1335.189453	505.618164
29632.854255	-1739.736667	1334.096680	381.859039
29632.854255	-1739.736667	1333.003906	455.811462
29632.854255	-1739.736667	1331.910156	319.599884
29632.854255	-1739.736667	1330.817383	446.694000
29632.854255	-1739.736667	1329.723633	482.977753
29632.854255	-1739.736667	1328.629883	424.689545
29632.854255	-1739.736667	1327.535156	427.479279
29632.854255	-1739.736667	1326.441406	604.427856
29632.854255	-1739.736667	1325.346680	416.328949
29632.854255	-1739.736667	1324.251953	443.470245
29632.854255	-1739.736667	1323.156250	525.708740
29632.854255	-1739.736667	1322.061523	595.380066
29632.854255	-1739.736667	1320.965820	649.720520
29632.854255	-1739.736667	1319.870117	425.678711
29632.854255	-1739.736667	1318.774414	517.552795
29632.854255	-1739.736667	1317.678711	521.713196
29632.854255	-1739.736667	1316.582031	454.935486
29632.854255	-1739.736667	1315.485352	332.439697
29632.854255	-1739.736667	1314.388672	294.344360
29632.854255	-1739.736667	1313.291016	460.259491
29632.854255	-1739.736667	1312.194336	313.345703
29632.854255	-1739.736667	1311.096680	208.282806
29632.854255	-1739.736667	1309.999023	38.466167
29632.854255	-1739.736667	1308.901367	139.487366
29632.854255	-1739.736667	1307.802734	250.517059
29632.854255	-1739.736667	1306.705078	179.168839
29632.854255	-1739.736667	1305.606445	264.680786
29632.854255	-1739.736667	1304.506836	158.426193
29632.854255	-1739.736667	1303.408203	228.826736
29632.854255	-1739.736667	1302.308594	191.033096
29632.854255	-1739.736667	1301.208984	160.397598
29632.854255	-1739.736667	1300.109375	157.152435
29632.854255	-1739.736667	1299.009766	104.390152
29632.854255	-1739.736667	1297.909180	113.547638
29632.854255	-1739.736667	1296.808594	151.485443
29632.854255	-1739.736667	1295.708008	160.333237
29632.854255	-1739.736667	1294.607422	127.556618
29632.854255	-1739.736667	1293.506836	126.028900
29632.854255	-1739.736667	1292.405273	131.506348
29632.854255	-1739.736667	1291.303711	92.938332
29632.854255	-1739.736667	1290.202148	85.546806
29632.854255	-1739.736667	1289.099609	88.861992
29632.854255	-1739.736667	1287.998047	62.469772
29632.854255	-1739.736667	1286.895508	68.825348
29632.854255	-1739.736667	1285.792969	-56.974010
29632.854255	-1739.736667	1284.689453	65.849998
29632.854255	-1739.736667	1283.586914	121.453995
29632.854255	-1739.736667	1282.483398	8.919712
29632.854255	-1739.736667	1281.379883	17.026031
29632.854255	-1739.736667	1280.276367	30.740509
29632.854255	-1739.736667	1279.171875	-62.985176
29632.854255	-1739.736667	1278.067383	-107.777924
29632.854255	-1739.736667	1276.962891	-5.931898
29632.854255	-1739.736667	1275.858398	-91.651413
29632.854255	-1739.736667	1274.753906	7.781580
29632.854255	-1739.736667	1273.648438	17.154730
29632.854255	-1739.736667	1272.542969	-8.317588
29632.854255	-1739.736667	1271.437500	-104.162445
29632.854255	-1739.736667	1270.331055	-108.047241
29632.854255	-1739.736667	1269.225586	-2.718855
29632.854255	-1739.736667	1268.119141	-58.127117
29632.854255	-1739.736667	1267.012695	-12.373105
29632.854255	-1739.736667	1265.906250	-52.044437
29632.854255	-1739.736667	1264.798828	30.211529
29632.854255	-1739.736667	1263.691406	-72.542732
29632.854255	-1739.736667	1262.583984	-39.629200
29632.854255	-1739.736667	1261.476563	-87.021233
29632.854255	-1739.736667	1260.368164	-61.549767
29632.854255	-1739.736667	1259.260742	-96.114578
29632.854255	-1739.736667	1258.152344	27.030378
29632.854255	-1739.736667	1257.043945	-40.038761
29632.854255	-1739.736667	1255.934570	-93.744713
29632.854255	-1739.736667	1254.825195	-145.803345
29632.854255	-1739.736667	1253.716797	-40.638557
29632.854255	-1739.736667	1252.606445	-16.012194
29632.854255	-1739.736667	1251.497070	-190.305878
29632.854255	-1739.736667	1250.387695	-40.194763
29632.854255	-1739.736667	1249.277344	44.194366
29632.854255	-1739.736667	1248.166992	-57.192265
29632.854255	-1739.736667	1247.055664	-183.107422
29632.854255	-1739.736667	1245.945313	-124.607216
29632.854255	-1739.736667	1244.833984	-61.250675
29632.854255	-1739.736667	1243.722656	-88.356232
29632.854255	-1739.736667	1242.611328	-125.990486
29632.854255	-1739.736667	1241.499023	-102.719673
29632.854255	-1739.736667	1240.387695	-49.482224
29632.854255	-1739.736667	1239.275391	-94.478760
29632.854255	-1739.736667	1238.162109	-105.869133
29632.854255	-1739.736667	1237.049805	-33.536613
29632.854255	-1739.736667	1235.936523	42.629223
29632.854255	-1739.736667	1234.823242	3.634651
29632.854255	-1739.736667	1233.709961	45.633289
29632.854255	-1739.736667	1232.596680	-37.369186
29632.854255	-1739.736667	1231.482422	-16.812046
29632.854255	-1739.736667	1230.369141	-65.270927
29632.854255	-1739.736667	1229.253906	-28.566177
29632.854255	-1739.736667	1228.139648	-40.673714
29632.854255	-1739.736667	1227.025391	6.178141
29632.854255	-1739.736667	1225.910156	17.735182
29632.854255	-1739.736667	1224.794922	20.462191
29632.854255	-1739.736667	1223.679688	130.008896
29632.854255	-1739.736667	1222.563477	109.808578
29632.854255	-1739.736667	1221.447266	67.231308
29632.854255	-1739.736667	1220.331055	-0.447207
29632.854255	-1739.736667	1219.214844	144.808014
29632.854255	-1739.736667	1218.098633	124.049522
29632.854255	-1739.736667	1216.981445	150.895676
29632.854255	-1739.736667	1215.864258	-9.066649
29632.854255	-1739.736667	1214.747070	-9.530012
29632.854255	-1739.736667	1213.629883	105.142632
29632.854255	-1739.736667	1212.511719	65.637978
29632.854255	-1739.736667	1211.393555	-35.667042
29632.854255	-1739.736667	1210.275391	117.584343
29632.854255	-1739.736667	1209.157227	146.856323
29632.854255	-1739.736667	1208.038086	154.845352
29632.854255	-1739.736667	1206.918945	-9.569665
29632.854255	-1739.736667	1205.799805	53.114529
29632.854255	-1739.736667	1204.680664	88.991035
29632.854255	-1739.736667	1203.560547	93.506310
29632.854255	-1739.736667	1202.441406	65.070198
29632.854255	-1739.736667	1201.321289	42.455151
29632.854255	-1739.736667	1200.200195	120.444206
29632.854255	-1739.736667	1199.080078	56.912094
29632.854255	-1739.736667	1197.958984	158.248917
29632.854255	-1739.736667	1196.837891	160.070419
29632.854255	-1739.736667	1195.716797	72.396484
29632.854255	-1739.736667	1194.594727	176.061722
29632.854255	-1739.736667	1193.473633	-29.406738
29632.854255	-1739.736667	1192.351563	44.784470
29632.854255	-1739.736667	1191.229492	16.150558
29632.854255	-1739.736667	1190.106445	85.728264
29632.854255	-1739.736667	1188.984375	1.975425
29632.854255	-1739.736667	1187.861328	4.961750
29632.854255	-1739.736667	1186.738281	149.711746
29632.854255	-1739.736667	1185.614258	10.729914
29632.854255	-1739.736667	1184.491211	134.996597
29632.854255	-1739.736667	1183.367188	135.935471
29632.854255	-1739.736667	1182.243164	152.324982
29632.854255	-1739.736667	1181.119141	186.181595
29632.854255	-1739.736667	1179.994141	73.577171
29632.854255	-1739.736667	1178.869141	132.449356
29632.854255	-1739.736667	1177.744141	146.026535
29632.854255	-1739.736667	1176.619141	56.970219
29632.854255	-1739.736667	1175.493164	99.417175
29632.854255	-1739.736667	1174.368164	155.379623
29632.854255	-1739.736667	1173.242188	246.077499
29632.854255	-1739.736667	1172.115234	162.409134
29632.854255	-1739.736667	1170.989258	177.660690
29632.854255	-1739.736667	1169.862305	141.707367
29632.854255	-1739.736667	1168.735352	42.858479
29632.854255	-1739.736667	1167.608398	86.475227
29632.854255	-1739.736667	1166.481445	148.822159
29632.854255	-1739.736667	1165.353516	149.727890
29632.854255	-1739.736667	1164.225586	107.672157
29632.854255	-1739.736667	1163.097656	130.956635
29632.854255	-1739.736667	1161.968750	187.929916
29632.854255	-1739.736667	1160.840820	110.692337
29632.854255	-1739.736667	1159.711914	79.621368
29632.854255	-1739.736667	1158.583008	-28.409620
29632.854255	-1739.736667	1157.453125	15.165236
29632.854255	-1739.736667	1156.324219	33.582558
29632.854255	-1739.736667	1155.194336	29.779348
29632.854255	-1739.736667	1154.064453	78.575783
29632.854255	-1739.736667	1152.933594	52.868744
29632.854255	-1739.736667	1151.803711	31.355391
29632.854255	-1739.736667	1150.672852	102.443359
29632.854255	-1739.736667	1149.541992	88.084694
29632.854255	-1739.736667	1148.411133	54.394062
29632.854255	-1739.736667	1147.279297	141.277603
29632.854255	-1739.736667	1146.147461	35.639042
29632.854255	-1739.736667	1145.015625	239.271774
29632.854255	-1739.736667	1143.883789	148.875412
29632.854255	-1739.736667	1142.750977	284.162231
29632.854255	-1739.736667	1141.619141	173.250427
29632.854255	-1739.736667	1140.486328	86.113907
29632.854255	-1739.736667	1139.352539	63.657352
29632.854255	-1739.736667	1138.219727	133.755402
29632.854255	-1739.736667	1137.085938	63.189510
29632.854255	-1739.736667	1135.952148	34.884510
29632.854255	-1739.736667	1134.818359	58.269539
29632.854255	-1739.736667	1133.683594	130.638809
29632.854255	-1739.736667	1132.549805	-6.021112
29632.854255	-1739.736667	1131.415039	-27.251137
29632.854255	-1739.736667	1130.279297	86.772377
29632.854255	-1739.736667	1129.144531	78.730873
29632.854255	-1739.736667	1128.008789	92.121971
29632.854255	-1739.736667	1126.873047	39.818848
29632.854255	-1739.736667	1125.737305	19.986967
29632.854255	-1739.736667	1124.601563	143.021790
29632.854255	-1739.736667	1123.464844	123.639320
29632.854255	-1739.736667	1122.328125	176.382706
29632.854255	-1739.736667	1121.191406	139.343704
29632.854255	-1739.736667	1120.054688	43.135040
29632.854255	-1739.736667	1118.916992	220.229050
29632.854255	-1739.736667	1117.779297	-14.267115
29632.854255	-1739.736667	1116.641602	129.534683
29632.854255	-1739.736667	1115.503906	131.216446
29632.854255	-1739.736667	1114.365234	107.857872
29632.854255	-1739.736667	1113.226563	12.330318
29632.854255	-1739.736667	1112.087891	111.122040
29632.854255	-1739.736667	1110.949219	152.924393
29632.854255	-1739.736667	1109.809570	9.169606
29632.854255	-1739.736667	1108.669922	51.136791
29632.854255	-1739.736667	1107.530273	84.701408
29632.854255	-1739.736667	1106.390625	49.095356
29632.854255	-1739.736667	1105.250000	27.960285
29632.854255	-1739.736667	1104.109375	-51.678051
29632.854255	-1739.736667	1102.968750	3.371727
29632.854255	-1739.736667	1101.828125	88.589088
29632.854255	-1739.736667	1100.686523	27.466707
29632.854255	-1739.736667	1099.544922	18.457151
29632.854255	-1739.736667	1098.403320	149.120941
29632.854255	-1739.736667	1097.261719	60.309147
29632.854255	-1739.736667	1096.120117	148.329346
29632.854255	-1739.736667	1094.977539	91.337753
29632.854255	-1739.736667	1093.834961	103.757210
29632.854255	-1739.736667	1092.691406	204.604248
29632.854255	-1739.736667	1091.548828	14.798372
29632.854255	-1739.736667	1090.405273	4.325795
29632.854255	-1739.736667	1089.261719	148.494659
29632.854255	-1739.736667	1088.118164	-30.766336
29632.854255	-1739.736667	1086.973633	128.156952
29632.854255	-1739.736667	1085.829102	76.130798
29632.854255	-1739.736667	1084.684570	85.706970
29632.854255	-1739.736667	1083.540039	75.843468
29632.854255	-1739.736667	1082.395508	-82.624748
29632.854255	-1739.736667	1081.250000	45.703014
29632.854255	-1739.736667	1080.104492	-47.120842
29632.854255	-1739.736667	1078.958984	95.156120
29632.854255	-1739.736667	1077.812500	-37.073242
29632.854255	-1739.736667	1076.666016	93.357765
29632.854255	-1739.736667	1075.519531	61.899334
29632.854255	-1739.736667	1074.373047	159.454788
29632.854255	-1739.736667	1073.226563	113.375702
29632.854255	-1739.736667	1072.079102	166.750198
29632.854255	-1739.736667	1070.931641	-32.619247
29632.854255	-1739.736667	1069.784180	-24.631050
29632.854255	-1739.736667	1068.635742	182.714005
29632.854255	-1739.736667	1067.487305	139.884476
29632.854255	-1739.736667	1066.338867	8.903313
29632.854255	-1739.736667	1065.190430	8.826679
29632.854255	-1739.736667	1064.041992	-37.775585
29632.854255	-1739.736667	1062.892578	86.277817
29632.854255	-1739.736667	1061.743164	29.846607
29632.854255	-1739.736667	1060.593750	-57.088730
29632.854255	-1739.736667	1059.443359	43.367920
29632.854255	-1739.736667	1058.292969	39.531876
29632.854255	-1739.736667	1057.142578	29.619955
29632.854255	-1739.736667	1055.992188	-46.980614
29632.854255	-1739.736667	1054.841797	-51.511513
29632.854255	-1739.736667	1053.690430	-35.733421
29632.854255	-1739.736667	1052.539063	-99.885643
29632.854255	-1739.736667	1051.387695	15.030873
29632.854255	-1739.736667	1050.235352	56.470257
29632.854255	-1739.736667	1049.083984	-102.149529
29632.854255	-1739.736667	1047.931641	45.361488
29632.854255	-1739.736667	1046.778320	71.963264
29632.854255	-1739.736667	1045.625977	-75.442284
29632.854255	-1739.736667	1044.472656	-13.769742
29632.854255	-1739.736667	1043.319336	-5.566908
29632.854255	-1739.736667	1042.166016	-99.525650
29632.854255	-1739.736667	1041.012695	-74.829041
29632.854255	-1739.736667	1039.858398	28.486231
29632.854255	-1739.736667	1038.704102	2.881695
29632.854255	-1739.736667	1037.549805	-69.128952
29632.854255	-1739.736667	1036.394531	-84.423233
29632.854255	-1739.736667	1035.239258	53.910595
29632.854255	-1739.736667	1034.083984	223.992203
29632.854255	-1739.736667	1032.928711	64.667313
29632.854255	-1739.736667	1031.773438	-47.273991
29632.854255	-1739.736667	1030.617188	16.457209
29632.854255	-1739.736667	1029.460938	44.563248
29632.854255	-1739.736667	1028.304688	57.410866
29632.854255	-1739.736667	1027.147461	17.464237
29632.854255	-1739.736667	1025.991211	85.875175
29632.854255	-1739.736667	1024.833984	60.973862
29632.854255	-1739.736667	1023.675781	48.153843
29632.854255	-1739.736667	1022.518555	38.949329
29632.854255	-1739.736667	1021.360352	65.359375
29632.854255	-1739.736667	1020.202148	17.045389
29632.854255	-1739.736667	1019.043945	-56.535557
29632.854255	-1739.736667	1017.884766	-123.772385
29632.854255	-1739.736667	1016.726563	-162.078064
29632.854255	-1739.736667	1015.567383	-4.816423
29632.854255	-1739.736667	1014.407227	-65.756996
29632.854255	-1739.736667	1013.248047	47.570641
29632.854255	-1739.736667	1012.087891	93.468102
29632.854255	-1739.736667	1010.927734	180.799515
29632.854255	-1739.736667	1009.767578	80.117188
29632.854255	-1739.736667	1008.606445	1.852890
29632.854255	-1739.736667	1007.446289	-48.402241
29632.854255	-1739.736667	1006.285156	11.915025
29632.854255	-1739.736667	1005.123047	67.156265
29632.854255	-1739.736667	1003.961914	-10.222106
29632.854255	-1739.736667	1002.799805	-71.726242
29632.854255	-1739.736667	1001.637695	85.028091
29632.854255	-1739.736667	1000.475586	-55.511307
29632.854255	-1739.736667	999.312500	15.484250
29632.854255	-1739.736667	998.149414	-49.227921
29632.854255	-1739.736667	996.986328	-128.460770
29632.854255	-1739.736667	995.823242	-5.806529
29632.854255	-1739.736667	994.659180	-89.004433
29632.854255	-1739.736667	993.496094	43.858173
29632.854255	-1739.736667	992.332031	-16.306593
29632.854255	-1739.736667	991.166992	53.883610
29632.854255	-1739.736667	990.002930	134.678894
29632.854255	-1739.736667	988.837891	-38.494026
29632.854255	-1739.736667	987.672852	-61.609196
29632.854255	-1739.736667	986.506836	-66.668114
29632.854255	-1739.736667	985.341797	-18.977718
29632.854255	-1739.736667	984.175781	50.890091
29632.854255	-1739.736667	983.009766	-88.946892
29632.854255	-1739.736667	981.843750	33.615868
29632.854255	-1739.736667	980.676758	-123.870934
29632.854255	-1739.736667	979.509766	-38.671791
29632.854255	-1739.736667	978.342773	-115.122604
29632.854255	-1739.736667	977.175781	-97.302437
29632.854255	-1739.736667	976.007813	-147.104965
29632.854255	-1739.736667	974.839844	-30.619341
29632.854255	-1739.736667	973.671875	-20.788906
29632.854255	-1739.736667	972.503906	35.982582
29632.854255	-1739.736667	971.334961	35.364395
29632.854255	-1739.736667	970.166016	27.727846
29632.854255	-1739.736667	968.997070	10.717024
29632.854255	-1739.736667	967.828125	-3.871649
29632.854255	-1739.736667	966.658203	50.948444
29632.854255	-1739.736667	965.488281	2.270336
29632.854255	-1739.736667	964.318359	49.419262
29632.854255	-1739.736667	963.148438	139.904053
29632.854255	-1739.736667	961.977539	-18.023102
29632.854255	-1739.736667	960.806641	-34.402908
29632.854255	-1739.736667	959.635742	-70.538071
29632.854255	-1739.736667	958.463867	-56.451313
29632.854255	-1739.736667	957.292969	18.462000
29632.854255	-1739.736667	956.121094	6.985467
29632.854255	-1739.736667	954.948242	54.740192
29632.854255	-1739.736667	953.776367	230.907532
29632.854255	-1739.736667	952.603516	39.146500
29632.854255	-1739.736667	951.430664	-77.682655
29632.854255	-1739.736667	950.257813	-51.701012
29632.854255	-1739.736667	949.084961	-23.268387
29632.854255	-1739.736667	947.911133	26.484005
29632.854255	-1739.736667	946.737305	16.222576
29632.854255	-1739.736667	945.563477	-15.337801
29632.854255	-1739.736667	944.388672	-72.978264
29632.854255	-1739.736667	943.213867	-8.955713
29632.854255	-1739.736667	942.039063	50.370499
29632.854255	-1739.736667	940.864258	-45.826740
29632.854255	-1739.736667	939.688477	-77.396973
29632.854255	-1739.736667	938.513672	56.022526
29632.854255	-1739.736667	937.337891	17.121315
29632.854255	-1739.736667	936.161133	-79.134293
29632.854255	-1739.736667	934.985352	-29.391293
29632.854255	-1739.736667	933.808594	-37.113987
29632.854255	-1739.736667	932.631836	45.963745
29632.854255	-1739.736667	931.454102	-83.757698
29632.854255	-1739.736667	930.277344	35.236370
29632.854255	-1739.736667	929.099609	70.457657
29632.854255	-1739.736667	927.921875	-54.472214
29632.854255	-1739.736667	926.743164	78.778267
29632.854255	-1739.736667	925.565430	85.295143
29632.854255	-1739.736667	924.386719	-65.879189
29632.854255	-1739.736667	923.208008	17.099581
29632.854255	-1739.736667	922.028320	181.249939
29632.854255	-1739.736667	920.849609	51.596954
29632.854255	-1739.736667	919.669922	52.076519
29632.854255	-1739.736667	919.474609	117.847420
29632.854255	-1739.736667	918.309570	114.749092
29632.854255	-1739.736667	917.143555	-5.302381
29632.854255	-1739.736667	915.977539	5.922595
29632.854255	-1739.736667	914.810547	148.345291
29632.854255	-1739.736667	913.644531	178.596344
29632.854255	-1739.736667	912.477539	75.282433
29632.854255	-1739.736667	911.310547	205.653198
29632.854255	-1739.736667	910.143555	99.972816
29632.854255	-1739.736667	908.975586	72.972084
29632.854255	-1739.736667	907.807617	-130.350784
29632.854255	-1739.736667	906.639648	80.913376
29632.854255	-1739.736667	905.471680	58.666935
29632.854255	-1739.736667	904.303711	-13.587665
29632.854255	-1739.736667	903.134766	21.314407
29632.854255	-1739.736667	901.965820	79.995422
29632.854255	-1739.736667	900.796875	-89.822456
29632.854255	-1739.736667	899.626953	-14.507131
29632.854255	-1739.736667	898.457031	13.190641
29632.854255	-1739.736667	897.287109	-89.944473
29632.854255	-1739.736667	896.117188	-33.727901
29632.854255	-1739.736667	894.947266	-44.112289
29632.854255	-1739.736667	893.776367	-11.717044
29632.854255	-1739.736667	892.605469	-131.437912
29632.854255	-1739.736667	891.434570	-106.186035
29632.854255	-1739.736667	890.262695	25.942106
29632.854255	-1739.736667	889.091797	-24.868349
29632.854255	-1739.736667	887.919922	-51.922691
29632.854255	-1739.736667	886.748047	23.106516
29632.854255	-1739.736667	885.575195	-60.931458
29632.854255	-1739.736667	884.403320	-40.531082
29632.854255	-1739.736667	883.230469	-62.855637
29632.854255	-1739.736667	882.057617	-130.250015
29632.854255	-1739.736667	880.883789	-50.588615
29632.854255	-1739.736667	879.710938	-110.865356
29632.854255	-1739.736667	878.537109	23.264215
29632.854255	-1739.736667	877.362305	-41.763401
29632.854255	-1739.736667	876.188477	-90.187698
29632.854255	-1739.736667	875.013672	53.301571
29632.854255	-1739.736667	873.839844	101.973740
29632.854255	-1739.736667	872.664063	48.783112
29632.854255	-1739.736667	871.489258	-191.446335
29632.854255	-1739.736667	870.313477	41.859737
29632.854255	-1739.736667	869.138672	-20.784164
29632.854255	-1739.736667	867.962891	27.801720
29632.854255	-1739.736667	866.786133	81.088539
29632.854255	-1739.736667	865.610352	-85.628868
29632.854255	-1739.736667	864.433594	59.865826
29632.854255	-1739.736667	863.256836	13.780578
29632.854255	-1739.736667	862.079102	-18.113646
29632.854255	-1739.736667	860.902344	87.069366
29632.854255	-1739.736667	859.724609	100.046364
29632.854255	-1739.736667	858.546875	-120.868713
29632.854255	-1739.736667	857.368164	-105.513824
29632.854255	-1739.736667	856.190430	-38.224857
29632.854255	-1739.736667	855.011719	-8.749007
29632.854255	-1739.736667	853.833008	89.156906
29632.854255	-1739.736667	852.654297	-56.064770
29632.854255	-1739.736667	851.474609	-69.107018
29632.854255	-1739.736667	850.294922	-32.615807
29632.854255	-1739.736667	849.115234	-17.377293
29632.854255	-1739.736667	847.935547	2.560145
29632.854255	-1739.736667	846.754883	126.210030
29632.854255	-1739.736667	845.575195	4.663854
29632.854255	-1739.736667	844.393555	-55.572933
29632.854255	-1739.736667	843.212891	-9.771958
29632.854255	-1739.736667	842.032227	-157.160446
29632.854255	-1739.736667	840.850586	-45.436817
29632.854255	-1739.736667	839.668945	54.456631
29632.854255	-1739.736667	838.486328	74.256012
29632.854255	-1739.736667	837.304688	-28.354763
29632.854255	-1739.736667	836.122070	184.391464
29632.854255	-1739.736667	834.939453	110.009499
29632.854255	-1739.736667	833.756836	61.520767
29632.854255	-1739.736667	832.573242	13.040243
29632.854255	-1739.736667	831.389648	16.295630
29632.854255	-1739.736667	830.206055	115.918716
29632.854255	-1739.736667	829.022461	39.218063
29632.854255	-1739.736667	827.838867	56.529068
29632.854255	-1739.736667	826.654297	83.218109
29632.854255	-1739.736667	825.469727	149.813721
29632.854255	-1739.736667	824.284180	-79.520851
29632.854255	-1739.736667	823.099609	142.015686
29632.854255	-1739.736667	821.914063	-5.089499
29632.854255	-1739.736667	820.728516	40.299080
29632.854255	-1739.736667	819.542969	31.689196
29632.854255	-1739.736667	818.356445	121.599014
29632.854255	-1739.736667	817.169922	80.114746
29632.854255	-1739.736667	815.983398	26.910652
29632.854255	-1739.736667	814.796875	-131.785278
29632.854255	-1739.736667	813.609375	-30.246428
29632.854255	-1739.736667	812.422852	52.490307
29632.854255	-1739.736667	811.235352	191.412384
29632.854255	-1739.736667	810.046875	23.392296
29632.854255	-1739.736667	808.859375	232.498657
29632.854255	-1739.736667	807.670898	200.324356
29632.854255	-1739.736667	806.482422	67.483986
29632.854255	-1739.736667	805.293945	18.947235
29632.854255	-1739.736667	804.104492	157.625702
29632.854255	-1739.736667	802.915039	97.365486
29632.854255	-1739.736667	801.725586	67.525902
29632.854255	-1739.736667	800.536133	70.426231
29632.854255	-1739.736667	799.345703	80.326668
29632.854255	-1739.736667	798.155273	120.599716
29632.854255	-1739.736667	796.964844	123.446983
29632.854255	-1739.736667	795.774414	-46.637939
29632.854255	-1739.736667	794.583008	175.821899
29632.854255	-1739.736667	793.392578	155.258194
29632.854255	-1739.736667	792.200195	-0.758023
29632.854255	-1739.736667	791.008789	23.056599
29632.854255	-1739.736667	789.816406	-27.851377
29632.854255	-1739.736667	788.625000	-34.408577
29632.854255	-1739.736667	787.432617	80.355934
29632.854255	-1739.736667	786.239258	-21.897276
29632.854255	-1739.736667	785.046875	43.809036
29632.854255	-1739.736667	783.853516	198.085388
29632.854255	-1739.736667	782.660156	-6.752224
29632.854255	-1739.736667	781.465820	9.917075
29632.854255	-1739.736667	780.272461	-6.059752
29632.854255	-1739.736667	779.078125	-117.573250
29632.854255	-1739.736667	777.883789	104.058838
29632.854255	-1739.736667	776.688477	90.356750
29632.854255	-1739.736667	775.494141	118.559151
29632.854255	-1739.736667	774.298828	218.903320
29632.854255	-1739.736667	773.103516	0.319133
29632.854255	-1739.736667	771.907227	93.634888
29632.854255	-1739.736667	770.711914	-59.717800
29632.854255	-1739.736667	769.515625	-19.957771
29632.854255	-1739.736667	768.318359	89.537941
29632.854255	-1739.736667	767.122070	-31.212551
29632.854255	-1739.736667	765.924805	45.665596
29632.854255	-1739.736667	764.727539	69.040794
29632.854255	-1739.736667	763.530273	117.952065
29632.854255	-1739.736667	762.333008	66.930618
29632.854255	-1739.736667	761.134766	148.308060
29632.854255	-1739.736667	759.936523	153.003662
29632.854255	-1739.736667	758.738281	108.925095
29632.854255	-1739.736667	757.540039	169.306183
29632.854255	-1739.736667	756.340820	69.512711
29632.854255	-1739.736667	755.141602	-55.777256
29632.854255	-1739.736667	753.942383	76.466530
29632.854255	-1739.736667	752.742188	32.371025
29632.854255	-1739.736667	751.541992	57.843349
29632.854255	-1739.736667	750.341797	71.697441
29632.854255	-1739.736667	749.141602	157.383942
29632.854255	-1739.736667	747.941406	180.449707
29632.854255	-1739.736667	746.740234	78.376106
29632.854255	-1739.736667	745.539063	36.556683
29632.854255	-1739.736667	744.337891	-5.261536
29632.854255	-1739.736667	743.135742	-102.649918
29632.854255	-1739.736667	741.933594	31.482847
29632.854255	-1739.736667	740.731445	56.763199
29632.854255	-1739.736667	739.529297	91.272652
29632.854255	-1739.736667	738.326172	70.226418
29632.854255	-1739.736667	737.124023	76.930321
29632.854255	-1739.736667	735.919922	125.238495
29632.854255	-1739.736667	734.716797	215.129288
29632.854255	-1739.736667	733.513672	73.807648
29632.854255	-1739.736667	732.309570	103.549263
29632.854255	-1739.736667	731.105469	24.662861
29632.854255	-1739.736667	729.900391	121.362099
29632.854255	-1739.736667	728.696289	137.168320
29632.854255	-1739.736667	727.491211	122.931236
29632.854255	-1739.736667	726.286133	-32.146355
29632.854255	-1739.736667	725.080078	-9.444580
29632.854255	-1739.736667	723.874023	45.538723
29632.854255	-1739.736667	722.668945	33.574326
29632.854255	-1739.736667	721.461914	83.877731
29632.854255	-1739.736667	720.255859	-24.987284
29632.854255	-1739.736667	719.048828	-30.063761
29632.854255	-1739.736667	717.841797	66.278458
29632.854255	-1739.736667	716.634766	51.932438
29632.854255	-1739.736667	715.427734	-84.554451
29632.854255	-1739.736667	714.219727	-27.477478
29632.854255	-1739.736667	713.011719	-32.632206
29632.854255	-1739.736667	711.803711	-47.013256
29632.854255	-1739.736667	710.594727	85.948326
29632.854255	-1739.736667	709.385742	2.456532
29632.854255	-1739.736667	708.176758	-14.274754
29632.854255	-1739.736667	706.967773	-49.423737
29632.854255	-1739.736667	705.758789	69.557938
29632.854255	-1739.736667	704.548828	-133.527435
29632.854255	-1739.736667	703.338867	-14.612985
29632.854255	-1739.736667	702.127930	-42.903763
29632.854255	-1739.736667	700.917969	-78.093628
29632.854255	-1739.736667	699.707031	36.087971
29632.854255	-1739.736667	698.496094	14.647397
29632.854255	-1739.736667	697.285156	78.192108
29632.854255	-1739.736667	696.073242	-78.782806
29632.854255	-1739.736667	694.861328	140.857498
29632.854255	-1739.736667	693.649414	100.980721
29632.854255	-1739.736667	692.436523	-26.113379
29632.854255	-1739.736667	691.224609	-15.488064
29632.854255	-1739.736667	690.011719	11.174877
29632.854255	-1739.736667	688.798828	1.110441
29632.854255	-1739.736667	687.584961	94.228210
29632.854255	-1739.736667	686.372070	56.605152
29632.854255	-1739.736667	685.158203	44.195145
29632.854255	-1739.736667	683.943359	130.319489
29632.854255	-1739.736667	682.729492	193.480530
29632.854255	-1739.736667	681.514648	190.162842
29632.854255	-1739.736667	680.299805	212.024857
29632.854255	-1739.736667	679.084961	98.759506
29632.854255	-1739.736667	677.869141	77.099533
29632.854255	-1739.736667	676.653320	82.899719
29632.854255	-1739.736667	675.437500	10.875465
29632.854255	-1739.736667	674.221680	89.870102
29632.854255	-1739.736667	673.004883	61.303345
29632.854255	-1739.736667	671.789063	275.153839
29632.854255	-1739.736667	670.571289	150.494568
29632.854255	-1739.736667	669.354492	92.168724
29632.854255	-1739.736667	668.136719	77.275406
29632.854255	-1739.736667	666.919922	-115.858994
29632.854255	-1739.736667	665.701172	42.892567
29632.854255	-1739.736667	664.483398	210.699615
29632.854255	-1739.736667	663.264648	15.327196
29632.854255	-1739.736667	662.045898	123.676605
29632.854255	-1739.736667	660.827148	21.962803
29632.854255	-1739.736667	659.608398	2.434905
29632.854255	-1739.736667	658.388672	87.855797
29632.854255	-1739.736667	657.168945	47.760632
29632.854255	-1739.736667	655.949219	165.036743
29632.854255	-1739.736667	654.728516	79.306824
29632.854255	-1739.736667	653.507813	55.151505
29632.854255	-1739.736667	652.287109	69.740334
29632.854255	-1739.736667	651.066406	68.357109
29632.854255	-1739.736667	649.844727	62.402367
29632.854255	-1739.736667	648.623047	-16.453888
29632.854255	-1739.736667	647.401367	29.962790
29632.854255	-1739.736667	646.179688	115.052429
29632.854255	-1739.736667	644.957031	79.443550
29632.854255	-1739.736667	643.734375	43.836002
29632.854255	-1739.736667	642.511719	37.810486
29632.854255	-1739.736667	641.289063	34.049267
29632.854255	-1739.736667	640.065430	-15.213697
29632.854255	-1739.736667	638.841797	76.516411
29632.854255	-1739.736667	637.618164	-56.879398
29632.854255	-1739.736667	636.393555	-62.945026
29632.854255	-1739.736667	635.168945	-37.205639
29632.854255	-1739.736667	633.944336	-131.907669
29632.854255	-1739.736667	632.719727	61.906563
29632.854255	-1739.736667	631.494141	78.480240
29632.854255	-1739.736667	630.269531	-116.128136
29632.854255	-1739.736667	629.042969	-49.606789
29632.854255	-1739.736667	627.817383	-26.245686
29632.854255	-1739.736667	626.590820	53.820274
29632.854255	-1739.736667	625.365234	22.678476
29632.854255	-1739.736667	624.137695	-3.929223
29632.854255	-1739.736667	622.911133	139.543747
29632.854255	-1739.736667	621.683594	56.220230
29632.854255	-1739.736667	620.456055	77.191895
29632.854255	-1739.736667	619.228516	-1.571855
29632.854255	-1739.736667	618.000977	-39.528362
29632.854255	-1739.736667	616.772461	-115.990654
29632.854255	-1739.736667	615.543945	-67.865585
29632.854255	-1739.736667	614.314453	-153.369019
29632.854255	-1739.736667	613.085938	-87.164879
29632.854255	-1739.736667	611.856445	-45.897488
29632.854255	-1739.736667	610.626953	-72.543976
29632.854255	-1739.736667	609.397461	22.982267
29632.854255	-1739.736667	608.166992	-76.069809
29632.854255	-1739.736667	606.936523	-156.997131
29632.854255	-1739.736667	605.706055	-68.324913
29632.854255	-1739.736667	604.474609	67.769524
29632.854255	-1739.736667	603.244141	-103.562218
29632.854255	-1739.736667	602.012695	-143.778503
29632.854255	-1739.736667	600.780273	-5.521733
29632.854255	-1739.736667	599.548828	-84.152969
29632.854255	-1739.736667	598.316406	90.146744
29632.854255	-1739.736667	597.083984	-40.413136
29632.854255	-1739.736667	595.851563	-42.268448
29632.854255	-1739.736667	594.618164	-109.574585
29632.854255	-1739.736667	593.384766	-57.281239
29632.854255	-1739.736667	592.151367	58.142532
29632.854255	-1739.736667	590.917969	-81.328453
29632.854255	-1739.736667	589.683594	20.507803
29632.854255	-1739.736667	588.449219	-145.960968
29632.854255	-1739.736667	587.214844	-68.957230
29632.854255	-1739.736667	585.979492	-3.260425
29632.854255	-1739.736667	584.745117	-11.937564
29632.854255	-1739.736667	583.509766	-49.898796
29632.854255	-1739.736667	582.273438	-27.051168
29632.854255	-1739.736667	581.038086	-143.801025
29632.854255	-1739.736667	579.801758	-71.433060
29632.854255	-1739.736667	578.565430	-8.101509
29632.854255	-1739.736667	577.329102	-59.548382
29632.854255	-1739.736667	576.091797	-41.246506
29632.854255	-1739.736667	574.854492	102.986298
29632.854255	-1739.736667	573.617188	-2.428887
29632.854255	-1739.736667	572.378906	-42.612358
29632.854255	-1739.736667	571.141602	-53.562244
29632.854255	-1739.736667	569.903320	-39.795200
29632.854255	-1739.736667	568.664063	144.700668
29632.854255	-1739.736667	567.425781	34.878399
29632.854255	-1739.736667	566.186523	-68.164902
29632.854255	-1739.736667	564.947266	127.436043
29632.854255	-1739.736667	563.708008	19.923092
29632.854255	-1739.736667	562.467773	-47.153660
29632.854255	-1739.736667	561.227539	-40.161366
29632.854255	-1739.736667	559.987305	-33.174576
29632.854255	-1739.736667	558.747070	-73.289330
29632.854255	-1739.736667	557.505859	72.716316
29632.854255	-1739.736667	556.264648	113.294548
29632.854255	-1739.736667	555.023438	77.650085
29632.854255	-1739.736667	553.781250	-49.856464
29632.854255	-1739.736667	552.539063	19.840839
29632.854255	-1739.736667	551.296875	2.152761
29632.854255	-1739.736667	550.054688	24.780109
29632.854255	-1739.736667	548.811523	116.801254
29632.854255	-1739.736667	547.569336	29.710682
29632.854255	-1739.736667	546.325195	170.922958
29632.854255	-1739.736667	545.082031	45.817657
29632.854255	-1739.736667	543.837891	139.988907
29632.854255	-1739.736667	542.593750	200.571426
29632.854255	-1739.736667	541.349609	77.774292
29632.854255	-1739.736667	540.105469	122.695229
29632.854255	-1739.736667	538.860352	-15.680692
29632.854255	-1739.736667	537.615234	-19.921412
29632.854255	-1739.736667	536.369141	31.690062
29632.854255	-1739.736667	535.124023	-37.333805
29632.854255	-1739.736667	533.877930	150.482407
29632.854255	-1739.736667	532.631836	43.505291
29632.854255	-1739.736667	531.384766	139.702301
29632.854255	-1739.736667	530.138672	106.420822
29632.854255	-1739.736667	528.891602	39.683125
29632.854255	-1739.736667	527.643555	57.741169
29632.854255	-1739.736667	526.396484	-29.029390
29632.854255	-1739.736667	525.148438	73.769203
29632.854255	-1739.736667	523.900391	40.534706
29632.854255	-1739.736667	522.652344	-72.923347
29632.854255	-1739.736667	521.403320	72.155884
29632.854255	-1739.736667	520.154297	7.751687
29632.854255	-1739.736667	518.905273	-23.214148
29632.854255	-1739.736667	517.656250	-43.031742
29632.854255	-1739.736667	516.406250	-109.598495
29632.854255	-1739.736667	515.156250	-42.578243
29632.854255	-1739.736667	513.906250	-35.675709
29632.854255	-1739.736667	512.655273	80.247330
29632.854255	-1739.736667	511.404297	-68.600945
29632.854255	-1739.736667	510.153320	-88.389641
29632.854255	-1739.736667	508.902344	-88.158981
29632.854255	-1739.736667	507.650391	16.554884
29632.854255	-1739.736667	506.398438	103.441040
29632.854255	-1739.736667	505.146484	74.736076
29632.854255	-1739.736667	503.893555	-42.827164
29632.854255	-1739.736667	502.641602	32.904541
29632.854255	-1739.736667	501.388672	-100.148819
29632.854255	-1739.736667	500.134766	-46.649151
29632.854255	-1739.736667	498.881836	91.177811
29632.854255	-1739.736667	497.627930	62.493694
29632.854255	-1739.736667	496.374023	89.288239
29632.854255	-1739.736667	495.119141	85.009003
29632.854255	-1739.736667	493.865234	111.779305
29632.854255	-1739.736667	492.610352	-25.555223
29632.854255	-1739.736667	491.355469	49.987267
29632.854255	-1739.736667	490.099609	118.840088
29632.854255	-1739.736667	488.843750	65.779968
29632.854255	-1739.736667	487.587891	158.957321
29632.854255	-1739.736667	486.332031	176.777878
29632.854255	-1739.736667	485.075195	121.502022
29632.854255	-1739.736667	483.818359	61.814110
29632.854255	-1739.736667	482.561523	92.898636
29632.854255	-1739.736667	481.304688	170.436172
29632.854255	-1739.736667	480.046875	210.312943
29632.854255	-1739.736667	478.789063	93.101418
29632.854255	-1739.736667	477.531250	190.459625
29632.854255	-1739.736667	476.272461	106.445076
29632.854255	-1739.736667	475.013672	216.995926
29632.854255	-1739.736667	473.754883	292.122162
29632.854255	-1739.736667	472.496094	86.564224
29632.854255	-1739.736667	471.236328	119.678322
29632.854255	-1739.736667	469.976563	55.576336
29632.854255	-1739.736667	468.716797	168.149994
29632.854255	-1739.736667	467.456055	190.133804
29632.854255	-1739.736667	466.196289	73.028725
29632.854255	-1739.736667	464.935547	298.019409
29632.854255	-1739.736667	463.673828	191.929031
29632.854255	-1739.736667	462.413086	74.835747
29632.854255	-1739.736667	461.151367	242.271652
29632.854255	-1739.736667	459.889648	244.238602
29632.854255	-1739.736667	458.626953	294.676361
29632.854255	-1739.736667	457.364258	256.905579
29632.854255	-1739.736667	456.101563	311.673126
29632.854255	-1739.736667	454.838867	355.373322
29632.854255	-1739.736667	453.575195	416.643402
29632.854255	-1739.736667	452.312500	469.050293
29632.854255	-1739.736667	451.047852	272.611084
29632.854255	-1739.736667	449.784180	199.491074
29632.854255	-1739.736667	448.519531	212.192245
29632.854255	-1739.736667	447.254883	246.854034
29632.854255	-1739.736667	445.990234	230.868011
29632.854255	-1739.736667	444.725586	401.787323
29632.854255	-1739.736667	443.459961	460.450378
29632.854255	-1739.736667	442.194336	453.096100
29632.854255	-1739.736667	440.927734	386.355682
29632.854255	-1739.736667	439.662109	475.613586
29632.854255	-1739.736667	438.395508	395.621460
29632.854255	-1739.736667	437.127930	451.789063
29632.854255	-1739.736667	435.861328	319.032623
29632.854255	-1739.736667	434.593750	223.599594
29632.854255	-1739.736667	433.326172	209.367004
29632.854255	-1739.736667	432.058594	256.529633
29632.854255	-1739.736667	430.790039	332.130585
29632.854255	-1739.736667	429.521484	197.055634
29632.854255	-1739.736667	428.252930	434.799255
29632.854255	-1739.736667	426.984375	439.956909
29632.854255	-1739.736667	425.714844	466.961884
29632.854255	-1739.736667	424.445313	474.158936
29632.854255	-1739.736667	423.174805	509.760925
29632.854255	-1739.736667	421.905273	556.229492
29632.854255	-1739.736667	420.634766	341.957367
29632.854255	-1739.736667	419.364258	508.715088
29632.854255	-1739.736667	418.092773	441.059753
29632.854255	-1739.736667	416.822266	329.575287
29632.854255	-1739.736667	415.550781	493.775818
29632.854255	-1739.736667	414.278320	557.167603
29632.854255	-1739.736667	413.006836	270.459290
29632.854255	-1739.736667	411.734375	357.734711
29632.854255	-1739.736667	410.461914	283.075378
29632.854255	-1739.736667	409.188477	228.013596
29632.854255	-1739.736667	407.916016	203.469208
29632.854255	-1739.736667	406.642578	285.885986
29632.854255	-1739.736667	405.368164	254.552963
29632.854255	-1739.736667	404.094727	196.911270
29632.854255	-1739.736667	402.820313	239.614410
29632.854255	-1739.736667	401.545898	175.202026
29632.854255	-1739.736667	400.270508	178.346329
29632.854255	-1739.736667	398.996094	142.083664
29632.854255	-1739.736667	397.720703	147.148026
29632.854255	-1739.736667	396.444336	191.327316
29632.854255	-1739.736667	395.168945	248.433640
29632.854255	-1739.736667	393.892578	178.906662
29632.854255	-1739.736667	392.616211	133.235855
29632.854255	-1739.736667	391.339844	135.374115
29632.854255	-1739.736667	390.062500	189.637695
29632.854255	-1739.736667	388.785156	128.259308
29632.854255	-1739.736667	387.507813	142.964554
29632.854255	-1739.736667	386.229492	42.080238
29632.854255	-1739.736667	384.951172	154.403137
29632.854255	-1739.736667	383.672852	159.845627
29632.854255	-1739.736667	382.394531	265.194977
29632.854255	-1739.736667	381.115234	124.462593
29632.854255	-1739.736667	379.835938	159.773560
29632.854255	-1739.736667	378.556641	88.310349
29632.854255	-1739.736667	377.277344	62.326672
29632.854255	-1739.736667	375.997070	1.354904
29632.854255	-1739.736667	374.716797	72.753700
29632.854255	-1739.736667	373.435547	52.635471
29632.854255	-1739.736667	372.155273	62.714005
29632.854255	-1739.736667	370.874023	122.494026
29632.854255	-1739.736667	369.591797	-0.390087
29632.854255	-1739.736667	368.310547	-73.532410
29632.854255	-1739.736667	367.028320	-62.263111
29632.854255	-1739.736667	365.746094	29.025438
29632.854255	-1739.736667	364.463867	-29.680729
29632.854255	-1739.736667	363.180664	15.463757
29632.854255	-1739.736667	361.897461	-4.745738
29632.854255	-1739.736667	360.614258	-31.737108
29632.854255	-1739.736667	359.330078	-113.207985
29632.854255	-1739.736667	358.045898	-43.252869
29632.854255	-1739.736667	356.761719	-14.800512
29632.854255	-1739.736667	355.477539	-14.835449
29632.854255	-1739.736667	354.192383	25.942774
29632.854255	-1739.736667	352.907227	-18.067762
29632.854255	-1739.736667	351.622070	89.129951
29632.854255	-1739.736667	350.336914	-16.156145
29632.854255	-1739.736667	349.050781	72.973427
29632.854255	-1739.736667	347.764648	-39.480255
29632.854255	-1739.736667	346.477539	-28.988644
29632.854255	-1739.736667	345.191406	30.865557
29632.854255	-1739.736667	343.904297	88.132622
29632.854255	-1739.736667	342.616211	-49.557987
29632.854255	-1739.736667	341.329102	-105.465401
29632.854255	-1739.736667	340.041016	-1.903855
29632.854255	-1739.736667	338.752930	90.390404
29632.854255	-1739.736667	337.463867	33.193264
29632.854255	-1739.736667	336.175781	-138.833069
29632.854255	-1739.736667	334.886719	-207.639771
29632.854255	-1739.736667	333.596680	81.346748
29632.854255	-1739.736667	332.307617	63.373234
29632.854255	-1739.736667	331.017578	-32.745941
29632.854255	-1739.736667	329.727539	45.375252
29632.854255	-1739.736667	328.436523	146.662460
29632.854255	-1739.736667	327.146484	-32.833115
29632.854255	-1739.736667	325.855469	76.012314
29632.854255	-1739.736667	324.563477	-52.766586
29632.854255	-1739.736667	323.272461	-222.947830
29632.854255	-1739.736667	321.980469	-31.785543
29632.854255	-1739.736667	320.688477	-106.138847
29632.854255	-1739.736667	319.395508	-200.434311
29632.854255	-1739.736667	318.103516	46.974560
29632.854255	-1739.736667	316.810547	-24.837004
29632.854255	-1739.736667	315.516602	57.652538
29632.854255	-1739.736667	314.223633	-45.488781
29632.854255	-1739.736667	312.929688	-0.859912
29632.854255	-1739.736667	311.635742	64.596313
29632.854255	-1739.736667	310.340820	58.396484
29632.854255	-1739.736667	309.045898	253.537277
29632.854255	-1739.736667	307.750977	117.004280
29632.854255	-1739.736667	306.456055	198.939117
29632.854255	-1739.736667	305.160156	119.012726
29632.854255	-1739.736667	303.865234	25.527067
29632.854255	-1739.736667	302.568359	154.545853
29632.854255	-1739.736667	301.272461	158.282806
29632.854255	-1739.736667	299.975586	244.899979
29632.854255	-1739.736667	298.678711	268.467896
