#X		#Y		#Wave		#Intensity
29974.843085	-1626.375000	1999.980469	86.615929
29974.843085	-1626.375000	1999.016602	-62.088139
29974.843085	-1626.375000	1998.052734	-27.880085
29974.843085	-1626.375000	1997.087891	50.891251
29974.843085	-1626.375000	1996.123047	-51.266281
29974.843085	-1626.375000	1995.158203	37.330708
29974.843085	-1626.375000	1994.193359	-77.226219
29974.843085	-1626.375000	1993.228516	13.764841
29974.843085	-1626.375000	1992.262695	82.413795
29974.843085	-1626.375000	1991.297852	-7.411163
29974.843085	-1626.375000	1990.332031	-30.404316
29974.843085	-1626.375000	1989.366211	45.566261
29974.843085	-1626.375000	1988.399414	34.896439
29974.843085	-1626.375000	1987.433594	36.576843
29974.843085	-1626.375000	1986.466797	-23.590736
29974.843085	-1626.375000	1985.500977	-2.159326
29974.843085	-1626.375000	1984.534180	1.940082
29974.843085	-1626.375000	1983.567383	52.981770
29974.843085	-1626.375000	1982.599609	150.940491
29974.843085	-1626.375000	1981.632813	122.836510
29974.843085	-1626.375000	1980.665039	104.608040
29974.843085	-1626.375000	1979.697266	-2.544135
29974.843085	-1626.375000	1978.729492	65.656563
29974.843085	-1626.375000	1977.761719	-9.380995
29974.843085	-1626.375000	1976.792969	31.614878
29974.843085	-1626.375000	1975.825195	23.222404
29974.843085	-1626.375000	1974.856445	-27.128069
29974.843085	-1626.375000	1973.887695	-45.398842
29974.843085	-1626.375000	1972.918945	10.326216
29974.843085	-1626.375000	1971.949219	19.161903
29974.843085	-1626.375000	1970.980469	-1.603795
29974.843085	-1626.375000	1970.010742	-32.232372
29974.843085	-1626.375000	1969.041016	6.156632
29974.843085	-1626.375000	1968.071289	22.344011
29974.843085	-1626.375000	1967.101563	-35.399460
29974.843085	-1626.375000	1966.130859	-19.225471
29974.843085	-1626.375000	1965.161133	11.714030
29974.843085	-1626.375000	1964.190430	22.935211
29974.843085	-1626.375000	1963.219727	31.684456
29974.843085	-1626.375000	1962.249023	62.579884
29974.843085	-1626.375000	1961.277344	120.530991
29974.843085	-1626.375000	1960.306641	-15.939132
29974.843085	-1626.375000	1959.334961	-7.208477
29974.843085	-1626.375000	1958.363281	122.044991
29974.843085	-1626.375000	1957.391602	-63.547501
29974.843085	-1626.375000	1956.419922	82.874283
29974.843085	-1626.375000	1955.447266	7.980741
29974.843085	-1626.375000	1954.474609	21.599480
29974.843085	-1626.375000	1953.501953	-87.664185
29974.843085	-1626.375000	1952.529297	43.902214
29974.843085	-1626.375000	1951.556641	104.176933
29974.843085	-1626.375000	1950.583984	-71.360260
29974.843085	-1626.375000	1949.610352	30.657755
29974.843085	-1626.375000	1948.636719	-44.138500
29974.843085	-1626.375000	1947.663086	-28.080547
29974.843085	-1626.375000	1946.689453	-7.120031
29974.843085	-1626.375000	1945.715820	114.440804
29974.843085	-1626.375000	1944.741211	-14.289787
29974.843085	-1626.375000	1943.767578	77.793419
29974.843085	-1626.375000	1942.792969	118.340538
29974.843085	-1626.375000	1941.818359	33.820641
29974.843085	-1626.375000	1940.842773	-6.538893
29974.843085	-1626.375000	1939.868164	53.614662
29974.843085	-1626.375000	1938.892578	50.029781
29974.843085	-1626.375000	1937.916992	-22.157499
29974.843085	-1626.375000	1936.941406	79.616211
29974.843085	-1626.375000	1935.965820	61.339108
29974.843085	-1626.375000	1934.990234	175.307968
29974.843085	-1626.375000	1934.013672	137.437363
29974.843085	-1626.375000	1933.037109	6.562749
29974.843085	-1626.375000	1932.060547	-99.785721
29974.843085	-1626.375000	1931.083984	-27.460236
29974.843085	-1626.375000	1930.107422	13.036142
29974.843085	-1626.375000	1929.129883	-22.308784
29974.843085	-1626.375000	1928.153320	18.177862
29974.843085	-1626.375000	1927.175781	56.207176
29974.843085	-1626.375000	1926.198242	6.215602
29974.843085	-1626.375000	1925.219727	-41.310287
29974.843085	-1626.375000	1924.242188	77.365067
29974.843085	-1626.375000	1923.263672	81.161507
29974.843085	-1626.375000	1922.285156	109.388977
29974.843085	-1626.375000	1921.306641	-1.609476
29974.843085	-1626.375000	1920.328125	129.194031
29974.843085	-1626.375000	1919.349609	-25.707067
29974.843085	-1626.375000	1918.370117	144.116653
29974.843085	-1626.375000	1917.391602	-18.043661
29974.843085	-1626.375000	1916.412109	-16.648550
29974.843085	-1626.375000	1915.431641	45.741959
29974.843085	-1626.375000	1914.452148	71.524666
29974.843085	-1626.375000	1913.472656	-29.516043
29974.843085	-1626.375000	1912.492188	-69.556702
29974.843085	-1626.375000	1911.511719	68.387314
29974.843085	-1626.375000	1910.531250	47.850178
29974.843085	-1626.375000	1909.550781	-11.666915
29974.843085	-1626.375000	1908.569336	45.794750
29974.843085	-1626.375000	1907.588867	52.081585
29974.843085	-1626.375000	1906.607422	-4.956588
29974.843085	-1626.375000	1905.625977	47.612564
29974.843085	-1626.375000	1904.644531	90.426933
29974.843085	-1626.375000	1903.662109	101.583183
29974.843085	-1626.375000	1902.680664	-16.251789
29974.843085	-1626.375000	1901.698242	-7.505974
29974.843085	-1626.375000	1900.715820	96.122551
29974.843085	-1626.375000	1899.733398	31.877871
29974.843085	-1626.375000	1898.750000	-32.339661
29974.843085	-1626.375000	1897.767578	-55.193752
29974.843085	-1626.375000	1896.784180	-48.863605
29974.843085	-1626.375000	1895.800781	35.247108
29974.843085	-1626.375000	1894.817383	68.296021
29974.843085	-1626.375000	1893.833984	94.046234
29974.843085	-1626.375000	1892.850586	8.044290
29974.843085	-1626.375000	1891.866211	2.227177
29974.843085	-1626.375000	1890.881836	-10.869853
29974.843085	-1626.375000	1889.897461	-9.392402
29974.843085	-1626.375000	1888.913086	40.635998
29974.843085	-1626.375000	1887.927734	25.119123
29974.843085	-1626.375000	1886.943359	29.023045
29974.843085	-1626.375000	1885.958008	96.005272
29974.843085	-1626.375000	1884.972656	136.282669
29974.843085	-1626.375000	1883.987305	-5.340188
29974.843085	-1626.375000	1883.001953	51.917843
29974.843085	-1626.375000	1882.015625	109.156105
29974.843085	-1626.375000	1881.029297	103.355591
29974.843085	-1626.375000	1880.042969	27.281818
29974.843085	-1626.375000	1879.056641	79.651459
29974.843085	-1626.375000	1878.070313	22.992970
29974.843085	-1626.375000	1877.083984	138.317688
29974.843085	-1626.375000	1876.096680	59.877796
29974.843085	-1626.375000	1875.109375	-40.321804
29974.843085	-1626.375000	1874.122070	-24.292957
29974.843085	-1626.375000	1873.134766	76.436623
29974.843085	-1626.375000	1872.146484	-6.769806
29974.843085	-1626.375000	1871.159180	72.146500
29974.843085	-1626.375000	1870.170898	63.955883
29974.843085	-1626.375000	1869.182617	77.533836
29974.843085	-1626.375000	1868.194336	35.494980
29974.843085	-1626.375000	1867.205078	65.994797
29974.843085	-1626.375000	1866.216797	84.398422
29974.843085	-1626.375000	1865.227539	59.296753
29974.843085	-1626.375000	1864.238281	-91.432526
29974.843085	-1626.375000	1863.249023	-46.439693
29974.843085	-1626.375000	1862.259766	34.763393
29974.843085	-1626.375000	1861.269531	9.686704
29974.843085	-1626.375000	1860.279297	-15.381667
29974.843085	-1626.375000	1859.290039	0.593687
29974.843085	-1626.375000	1858.298828	88.962044
29974.843085	-1626.375000	1857.308594	-71.234314
29974.843085	-1626.375000	1856.318359	19.524117
29974.843085	-1626.375000	1855.327148	33.061989
29974.843085	-1626.375000	1854.335938	118.939613
29974.843085	-1626.375000	1853.344727	-12.216190
29974.843085	-1626.375000	1852.353516	126.667671
29974.843085	-1626.375000	1851.362305	24.477543
29974.843085	-1626.375000	1850.370117	139.199936
29974.843085	-1626.375000	1849.377930	20.175442
29974.843085	-1626.375000	1848.385742	105.943962
29974.843085	-1626.375000	1847.393555	-56.385998
29974.843085	-1626.375000	1846.401367	-6.759891
29974.843085	-1626.375000	1845.408203	-111.234909
29974.843085	-1626.375000	1844.415039	15.400882
29974.843085	-1626.375000	1843.421875	72.194717
29974.843085	-1626.375000	1842.428711	68.810768
29974.843085	-1626.375000	1841.435547	67.830185
29974.843085	-1626.375000	1840.441406	90.897675
29974.843085	-1626.375000	1839.448242	70.667282
29974.843085	-1626.375000	1838.454102	88.908752
29974.843085	-1626.375000	1837.459961	83.100906
29974.843085	-1626.375000	1836.464844	50.852772
29974.843085	-1626.375000	1835.470703	52.253986
29974.843085	-1626.375000	1834.475586	58.454391
29974.843085	-1626.375000	1833.480469	74.256065
29974.843085	-1626.375000	1832.485352	-61.253471
29974.843085	-1626.375000	1831.490234	7.379990
29974.843085	-1626.375000	1830.495117	-5.641281
29974.843085	-1626.375000	1829.499023	-6.661884
29974.843085	-1626.375000	1828.502930	45.107586
29974.843085	-1626.375000	1827.506836	111.247818
29974.843085	-1626.375000	1826.510742	119.784569
29974.843085	-1626.375000	1825.513672	56.358566
29974.843085	-1626.375000	1824.517578	57.696766
29974.843085	-1626.375000	1823.520508	-10.500546
29974.843085	-1626.375000	1822.523438	0.424973
29974.843085	-1626.375000	1821.526367	8.943666
29974.843085	-1626.375000	1820.529297	84.545158
29974.843085	-1626.375000	1819.531250	102.614067
29974.843085	-1626.375000	1818.533203	-46.999119
29974.843085	-1626.375000	1817.535156	54.892761
29974.843085	-1626.375000	1816.537109	113.640663
29974.843085	-1626.375000	1815.539063	95.754242
29974.843085	-1626.375000	1814.540039	-56.166588
29974.843085	-1626.375000	1813.541992	-23.775343
29974.843085	-1626.375000	1812.542969	-8.152131
29974.843085	-1626.375000	1811.543945	0.281397
29974.843085	-1626.375000	1810.543945	18.270147
29974.843085	-1626.375000	1809.544922	38.636250
29974.843085	-1626.375000	1808.544922	-15.126963
29974.843085	-1626.375000	1807.544922	2.831107
29974.843085	-1626.375000	1806.544922	30.333849
29974.843085	-1626.375000	1805.544922	110.384590
29974.843085	-1626.375000	1804.544922	106.784019
29974.843085	-1626.375000	1803.543945	86.456688
29974.843085	-1626.375000	1802.542969	99.561104
29974.843085	-1626.375000	1801.541992	76.838150
29974.843085	-1626.375000	1800.541016	30.244282
29974.843085	-1626.375000	1799.539063	69.578781
29974.843085	-1626.375000	1798.538086	68.324615
29974.843085	-1626.375000	1797.536133	7.417100
29974.843085	-1626.375000	1796.534180	-24.852388
29974.843085	-1626.375000	1795.532227	-88.122108
29974.843085	-1626.375000	1794.529297	-148.992966
29974.843085	-1626.375000	1793.527344	-33.435738
29974.843085	-1626.375000	1792.524414	98.752617
29974.843085	-1626.375000	1791.521484	192.752457
29974.843085	-1626.375000	1790.518555	131.837372
29974.843085	-1626.375000	1789.514648	137.635727
29974.843085	-1626.375000	1788.511719	-54.259270
29974.843085	-1626.375000	1787.507813	-46.065498
29974.843085	-1626.375000	1786.503906	35.920376
29974.843085	-1626.375000	1785.500000	82.159973
29974.843085	-1626.375000	1784.496094	95.053864
29974.843085	-1626.375000	1783.491211	48.445660
29974.843085	-1626.375000	1782.486328	66.078300
29974.843085	-1626.375000	1781.481445	-32.854897
29974.843085	-1626.375000	1780.476563	72.756363
29974.843085	-1626.375000	1779.471680	114.121025
29974.843085	-1626.375000	1778.465820	96.028946
29974.843085	-1626.375000	1777.460938	-14.758913
29974.843085	-1626.375000	1776.455078	50.330376
29974.843085	-1626.375000	1775.449219	48.861122
29974.843085	-1626.375000	1774.442383	68.759628
29974.843085	-1626.375000	1773.436523	15.017887
29974.843085	-1626.375000	1772.429688	-43.463593
29974.843085	-1626.375000	1771.422852	90.364151
29974.843085	-1626.375000	1770.416016	43.737419
29974.843085	-1626.375000	1769.409180	23.222595
29974.843085	-1626.375000	1768.402344	54.904373
29974.843085	-1626.375000	1767.394531	131.635284
29974.843085	-1626.375000	1766.386719	99.223854
29974.843085	-1626.375000	1765.378906	-35.153152
29974.843085	-1626.375000	1764.371094	1.213955
29974.843085	-1626.375000	1763.362305	68.371521
29974.843085	-1626.375000	1762.354492	163.933609
29974.843085	-1626.375000	1761.345703	8.277069
29974.843085	-1626.375000	1760.336914	16.135832
29974.843085	-1626.375000	1759.328125	14.506224
29974.843085	-1626.375000	1758.318359	119.434059
29974.843085	-1626.375000	1757.308594	82.247040
29974.843085	-1626.375000	1756.299805	54.533634
29974.843085	-1626.375000	1755.290039	41.019981
29974.843085	-1626.375000	1754.279297	77.193604
29974.843085	-1626.375000	1753.269531	37.634331
29974.843085	-1626.375000	1752.258789	92.697144
29974.843085	-1626.375000	1751.249023	90.968742
29974.843085	-1626.375000	1750.238281	-59.739128
29974.843085	-1626.375000	1749.226563	-7.086645
29974.843085	-1626.375000	1748.215820	-34.828587
29974.843085	-1626.375000	1747.204102	138.302292
29974.843085	-1626.375000	1746.193359	84.531235
29974.843085	-1626.375000	1745.181641	-4.666293
29974.843085	-1626.375000	1744.168945	-44.241959
29974.843085	-1626.375000	1743.157227	60.234627
29974.843085	-1626.375000	1742.144531	39.528175
29974.843085	-1626.375000	1741.132813	51.867458
29974.843085	-1626.375000	1740.120117	90.150948
29974.843085	-1626.375000	1739.106445	24.584707
29974.843085	-1626.375000	1738.093750	-12.655663
29974.843085	-1626.375000	1737.080078	-64.046005
29974.843085	-1626.375000	1736.067383	16.637667
29974.843085	-1626.375000	1735.053711	85.489296
29974.843085	-1626.375000	1734.040039	-3.639462
29974.843085	-1626.375000	1733.025391	48.669563
29974.843085	-1626.375000	1732.011719	67.958801
29974.843085	-1626.375000	1730.997070	16.548450
29974.843085	-1626.375000	1729.982422	28.747965
29974.843085	-1626.375000	1728.967773	-60.337379
29974.843085	-1626.375000	1727.952148	-8.120251
29974.843085	-1626.375000	1726.937500	27.588854
29974.843085	-1626.375000	1725.921875	44.442814
29974.843085	-1626.375000	1724.906250	63.633457
29974.843085	-1626.375000	1723.890625	59.278278
29974.843085	-1626.375000	1722.875000	-1.543313
29974.843085	-1626.375000	1721.858398	111.692986
29974.843085	-1626.375000	1720.841797	36.754478
29974.843085	-1626.375000	1719.825195	-87.537468
29974.843085	-1626.375000	1718.808594	9.166827
29974.843085	-1626.375000	1717.791992	-84.539314
29974.843085	-1626.375000	1716.774414	-32.537865
29974.843085	-1626.375000	1715.756836	-18.153997
29974.843085	-1626.375000	1714.739258	-57.808041
29974.843085	-1626.375000	1713.721680	97.458572
29974.843085	-1626.375000	1712.704102	-33.789864
29974.843085	-1626.375000	1711.685547	-101.616768
29974.843085	-1626.375000	1710.667969	37.112251
29974.843085	-1626.375000	1709.649414	46.716564
29974.843085	-1626.375000	1708.630859	65.692368
29974.843085	-1626.375000	1707.611328	-25.595797
29974.843085	-1626.375000	1706.592773	89.523140
29974.843085	-1626.375000	1705.573242	42.798443
29974.843085	-1626.375000	1704.553711	108.610611
29974.843085	-1626.375000	1703.534180	10.317888
29974.843085	-1626.375000	1702.513672	94.839722
29974.843085	-1626.375000	1701.494141	137.149033
29974.843085	-1626.375000	1700.473633	43.565788
29974.843085	-1626.375000	1699.453125	15.588233
29974.843085	-1626.375000	1698.432617	-54.535736
29974.843085	-1626.375000	1697.412109	25.194471
29974.843085	-1626.375000	1696.390625	-5.129620
29974.843085	-1626.375000	1695.369141	37.098652
29974.843085	-1626.375000	1694.347656	-47.047611
29974.843085	-1626.375000	1693.326172	70.017387
29974.843085	-1626.375000	1692.304688	-30.490423
29974.843085	-1626.375000	1691.282227	-23.398487
29974.843085	-1626.375000	1690.260742	-44.371426
29974.843085	-1626.375000	1689.238281	-2.230739
29974.843085	-1626.375000	1688.214844	-48.925552
29974.843085	-1626.375000	1687.192383	-48.874111
29974.843085	-1626.375000	1686.168945	-102.564697
29974.843085	-1626.375000	1685.146484	16.608156
29974.843085	-1626.375000	1684.123047	65.666649
29974.843085	-1626.375000	1683.099609	-81.429939
29974.843085	-1626.375000	1682.075195	-55.730282
29974.843085	-1626.375000	1681.051758	21.302530
29974.843085	-1626.375000	1680.027344	98.297836
29974.843085	-1626.375000	1679.002930	4.942244
29974.843085	-1626.375000	1677.978516	51.574738
29974.843085	-1626.375000	1676.953125	58.534569
29974.843085	-1626.375000	1675.928711	79.478081
29974.843085	-1626.375000	1674.903320	42.124161
29974.843085	-1626.375000	1673.877930	23.425812
29974.843085	-1626.375000	1672.852539	58.328224
29974.843085	-1626.375000	1671.826172	107.189674
29974.843085	-1626.375000	1670.800781	2.282759
29974.843085	-1626.375000	1669.774414	81.403732
29974.843085	-1626.375000	1668.748047	116.246094
29974.843085	-1626.375000	1667.721680	116.148102
29974.843085	-1626.375000	1666.694336	197.512939
29974.843085	-1626.375000	1665.667969	243.935028
29974.843085	-1626.375000	1664.640625	11.118066
29974.843085	-1626.375000	1663.613281	141.296326
29974.843085	-1626.375000	1662.585938	317.937988
29974.843085	-1626.375000	1661.557617	150.339981
29974.843085	-1626.375000	1660.530273	140.904160
29974.843085	-1626.375000	1659.501953	147.738464
29974.843085	-1626.375000	1658.473633	75.547455
29974.843085	-1626.375000	1657.444336	12.673464
29974.843085	-1626.375000	1656.416016	63.658989
29974.843085	-1626.375000	1655.386719	170.366119
29974.843085	-1626.375000	1654.358398	100.535576
29974.843085	-1626.375000	1653.328125	121.278160
29974.843085	-1626.375000	1652.298828	90.940643
29974.843085	-1626.375000	1651.269531	223.078995
29974.843085	-1626.375000	1650.239258	246.098328
29974.843085	-1626.375000	1649.208984	252.866043
29974.843085	-1626.375000	1648.178711	268.907410
29974.843085	-1626.375000	1647.148438	254.791443
29974.843085	-1626.375000	1646.117188	217.490112
29974.843085	-1626.375000	1645.086914	277.570129
29974.843085	-1626.375000	1644.055664	247.228973
29974.843085	-1626.375000	1643.024414	383.747894
29974.843085	-1626.375000	1641.992188	358.027100
29974.843085	-1626.375000	1640.960938	353.164795
29974.843085	-1626.375000	1639.928711	427.046204
29974.843085	-1626.375000	1638.896484	412.906433
29974.843085	-1626.375000	1637.864258	343.208740
29974.843085	-1626.375000	1636.832031	329.089539
29974.843085	-1626.375000	1635.798828	245.546906
29974.843085	-1626.375000	1634.766602	282.354095
29974.843085	-1626.375000	1633.733398	254.371979
29974.843085	-1626.375000	1632.699219	217.147537
29974.843085	-1626.375000	1631.666016	256.249420
29974.843085	-1626.375000	1630.632813	258.344727
29974.843085	-1626.375000	1629.598633	241.945480
29974.843085	-1626.375000	1628.564453	151.599030
29974.843085	-1626.375000	1627.530273	220.721252
29974.843085	-1626.375000	1626.495117	232.061554
29974.843085	-1626.375000	1625.460938	164.869431
29974.843085	-1626.375000	1624.425781	169.290207
29974.843085	-1626.375000	1623.390625	305.314056
29974.843085	-1626.375000	1622.355469	228.915497
29974.843085	-1626.375000	1621.319336	240.247696
29974.843085	-1626.375000	1620.284180	251.578979
29974.843085	-1626.375000	1619.248047	177.545868
29974.843085	-1626.375000	1618.211914	235.018677
29974.843085	-1626.375000	1617.174805	327.061951
29974.843085	-1626.375000	1616.138672	363.736755
29974.843085	-1626.375000	1615.101563	275.915161
29974.843085	-1626.375000	1614.065430	317.200226
29974.843085	-1626.375000	1613.027344	273.207916
29974.843085	-1626.375000	1611.990234	362.863342
29974.843085	-1626.375000	1610.953125	358.045471
29974.843085	-1626.375000	1609.915039	286.444122
29974.843085	-1626.375000	1608.876953	332.303894
29974.843085	-1626.375000	1607.838867	260.742340
29974.843085	-1626.375000	1606.800781	352.629456
29974.843085	-1626.375000	1605.761719	281.097504
29974.843085	-1626.375000	1604.723633	228.005264
29974.843085	-1626.375000	1603.684570	223.242279
29974.843085	-1626.375000	1602.644531	239.182480
29974.843085	-1626.375000	1601.605469	252.823059
29974.843085	-1626.375000	1600.566406	215.885849
29974.843085	-1626.375000	1599.526367	172.070480
29974.843085	-1626.375000	1598.486328	250.074112
29974.843085	-1626.375000	1597.446289	100.588760
29974.843085	-1626.375000	1596.405273	178.584595
29974.843085	-1626.375000	1595.365234	95.786514
29974.843085	-1626.375000	1594.324219	226.577576
29974.843085	-1626.375000	1593.283203	182.840668
29974.843085	-1626.375000	1592.242188	334.233154
29974.843085	-1626.375000	1591.200195	189.525803
29974.843085	-1626.375000	1590.159180	288.096710
29974.843085	-1626.375000	1589.117188	232.933777
29974.843085	-1626.375000	1588.075195	221.376633
29974.843085	-1626.375000	1587.032227	319.898895
29974.843085	-1626.375000	1585.990234	163.903610
29974.843085	-1626.375000	1584.947266	115.708977
29974.843085	-1626.375000	1583.904297	138.585281
29974.843085	-1626.375000	1582.861328	113.341743
29974.843085	-1626.375000	1581.818359	241.604233
29974.843085	-1626.375000	1580.775391	30.839180
29974.843085	-1626.375000	1579.731445	202.590591
29974.843085	-1626.375000	1578.687500	94.958282
29974.843085	-1626.375000	1577.643555	140.744888
29974.843085	-1626.375000	1576.598633	271.199493
29974.843085	-1626.375000	1575.554688	154.487411
29974.843085	-1626.375000	1574.509766	127.049797
29974.843085	-1626.375000	1573.464844	108.780151
29974.843085	-1626.375000	1572.419922	154.557999
29974.843085	-1626.375000	1571.374023	223.188629
29974.843085	-1626.375000	1570.329102	134.071594
29974.843085	-1626.375000	1569.283203	97.563477
29974.843085	-1626.375000	1568.237305	109.064529
29974.843085	-1626.375000	1567.191406	56.601013
29974.843085	-1626.375000	1566.144531	93.247780
29974.843085	-1626.375000	1565.098633	54.528580
29974.843085	-1626.375000	1564.051758	173.377441
29974.843085	-1626.375000	1563.004883	216.856445
29974.843085	-1626.375000	1561.957031	116.537094
29974.843085	-1626.375000	1560.910156	210.231613
29974.843085	-1626.375000	1559.862305	112.253998
29974.843085	-1626.375000	1558.814453	155.748322
29974.843085	-1626.375000	1557.766602	187.832626
29974.843085	-1626.375000	1556.718750	105.908379
29974.843085	-1626.375000	1555.669922	149.407471
29974.843085	-1626.375000	1554.621094	163.269852
29974.843085	-1626.375000	1553.573242	145.235703
29974.843085	-1626.375000	1552.523438	122.659828
29974.843085	-1626.375000	1551.474609	168.441544
29974.843085	-1626.375000	1550.424805	145.891846
29974.843085	-1626.375000	1549.375000	250.873199
29974.843085	-1626.375000	1548.325195	257.933350
29974.843085	-1626.375000	1547.275391	189.890747
29974.843085	-1626.375000	1546.225586	158.296494
29974.843085	-1626.375000	1545.174805	181.329422
29974.843085	-1626.375000	1544.124023	45.132725
29974.843085	-1626.375000	1543.073242	256.968933
29974.843085	-1626.375000	1542.022461	109.465118
29974.843085	-1626.375000	1540.970703	48.419491
29974.843085	-1626.375000	1539.919922	132.879944
29974.843085	-1626.375000	1538.868164	112.782692
29974.843085	-1626.375000	1537.815430	26.814867
29974.843085	-1626.375000	1536.763672	118.079704
29974.843085	-1626.375000	1535.710938	70.779114
29974.843085	-1626.375000	1534.659180	71.195709
29974.843085	-1626.375000	1533.606445	110.217972
29974.843085	-1626.375000	1532.552734	108.379715
29974.843085	-1626.375000	1531.500000	124.711044
29974.843085	-1626.375000	1530.446289	141.047775
29974.843085	-1626.375000	1529.393555	75.726830
29974.843085	-1626.375000	1528.338867	112.503944
29974.843085	-1626.375000	1527.285156	101.661392
29974.843085	-1626.375000	1526.231445	20.555384
29974.843085	-1626.375000	1525.176758	16.560974
29974.843085	-1626.375000	1524.122070	132.691711
29974.843085	-1626.375000	1523.067383	-2.711987
29974.843085	-1626.375000	1522.012695	106.607750
29974.843085	-1626.375000	1520.957031	111.712074
29974.843085	-1626.375000	1519.901367	112.299042
29974.843085	-1626.375000	1518.845703	-16.147873
29974.843085	-1626.375000	1517.790039	-29.089302
29974.843085	-1626.375000	1516.734375	-23.906769
29974.843085	-1626.375000	1515.677734	65.004875
29974.843085	-1626.375000	1514.621094	-38.391727
29974.843085	-1626.375000	1513.564453	86.703766
29974.843085	-1626.375000	1512.507813	-27.934153
29974.843085	-1626.375000	1511.450195	-45.296486
29974.843085	-1626.375000	1510.393555	34.560860
29974.843085	-1626.375000	1509.335938	37.561855
29974.843085	-1626.375000	1508.278320	8.942733
29974.843085	-1626.375000	1507.219727	-39.982769
29974.843085	-1626.375000	1506.162109	-14.339026
29974.843085	-1626.375000	1505.103516	92.602722
29974.843085	-1626.375000	1504.044922	25.672146
29974.843085	-1626.375000	1502.986328	53.588539
29974.843085	-1626.375000	1501.926758	31.858086
29974.843085	-1626.375000	1500.868164	23.690002
29974.843085	-1626.375000	1499.808594	2.003860
29974.843085	-1626.375000	1498.749023	34.473248
29974.843085	-1626.375000	1497.688477	-52.572842
29974.843085	-1626.375000	1496.628906	40.798809
29974.843085	-1626.375000	1495.568359	-77.741386
29974.843085	-1626.375000	1494.507813	-56.490364
29974.843085	-1626.375000	1493.447266	48.137852
29974.843085	-1626.375000	1492.386719	6.308094
29974.843085	-1626.375000	1491.325195	-12.966726
29974.843085	-1626.375000	1490.263672	-27.714561
29974.843085	-1626.375000	1489.202148	-10.920730
29974.843085	-1626.375000	1488.140625	21.639162
29974.843085	-1626.375000	1487.079102	36.197319
29974.843085	-1626.375000	1486.016602	-5.487911
29974.843085	-1626.375000	1484.954102	119.334244
29974.843085	-1626.375000	1483.891602	-10.039080
29974.843085	-1626.375000	1482.829102	-11.165466
29974.843085	-1626.375000	1481.765625	-21.269434
29974.843085	-1626.375000	1480.702148	0.117990
29974.843085	-1626.375000	1479.638672	-27.929201
29974.843085	-1626.375000	1478.575195	81.101456
29974.843085	-1626.375000	1477.511719	17.130400
29974.843085	-1626.375000	1476.447266	56.517159
29974.843085	-1626.375000	1475.382813	82.442291
29974.843085	-1626.375000	1474.318359	72.425346
29974.843085	-1626.375000	1473.253906	123.038597
29974.843085	-1626.375000	1472.189453	-48.425953
29974.843085	-1626.375000	1471.124023	-6.789121
29974.843085	-1626.375000	1470.058594	-135.593079
29974.843085	-1626.375000	1468.993164	-66.881538
29974.843085	-1626.375000	1467.927734	-60.958431
29974.843085	-1626.375000	1466.861328	-21.591305
29974.843085	-1626.375000	1465.794922	13.521834
29974.843085	-1626.375000	1464.728516	-18.848503
29974.843085	-1626.375000	1463.662109	-53.171074
29974.843085	-1626.375000	1462.594727	-13.768284
29974.843085	-1626.375000	1461.528320	117.423149
29974.843085	-1626.375000	1460.460938	-21.804577
29974.843085	-1626.375000	1459.393555	39.880466
29974.843085	-1626.375000	1458.326172	58.907471
29974.843085	-1626.375000	1457.257813	31.494616
29974.843085	-1626.375000	1456.189453	88.856834
29974.843085	-1626.375000	1455.121094	56.730682
29974.843085	-1626.375000	1454.052734	18.299740
29974.843085	-1626.375000	1452.984375	37.789093
29974.843085	-1626.375000	1451.915039	32.548824
29974.843085	-1626.375000	1450.845703	123.534508
29974.843085	-1626.375000	1449.776367	62.281036
29974.843085	-1626.375000	1448.707031	75.720512
29974.843085	-1626.375000	1447.636719	74.743370
29974.843085	-1626.375000	1446.567383	80.927338
29974.843085	-1626.375000	1445.497070	57.529629
29974.843085	-1626.375000	1444.425781	6.684533
29974.843085	-1626.375000	1443.355469	88.058563
29974.843085	-1626.375000	1442.285156	89.449631
29974.843085	-1626.375000	1441.213867	26.624966
29974.843085	-1626.375000	1440.142578	-66.068680
29974.843085	-1626.375000	1439.070313	120.721397
29974.843085	-1626.375000	1437.999023	114.261162
29974.843085	-1626.375000	1436.926758	47.569263
29974.843085	-1626.375000	1435.854492	-81.880394
29974.843085	-1626.375000	1434.782227	90.760063
29974.843085	-1626.375000	1433.709961	-8.768213
29974.843085	-1626.375000	1432.636719	5.840199
29974.843085	-1626.375000	1431.563477	99.473923
29974.843085	-1626.375000	1430.490234	97.005478
29974.843085	-1626.375000	1429.416992	148.752197
29974.843085	-1626.375000	1428.343750	5.441586
29974.843085	-1626.375000	1427.269531	118.276077
29974.843085	-1626.375000	1426.195313	38.687439
29974.843085	-1626.375000	1425.121094	-101.393959
29974.843085	-1626.375000	1424.046875	-31.654448
29974.843085	-1626.375000	1422.971680	9.056474
29974.843085	-1626.375000	1421.896484	-78.590729
29974.843085	-1626.375000	1420.821289	2.420011
29974.843085	-1626.375000	1419.746094	86.031502
29974.843085	-1626.375000	1418.669922	66.364998
29974.843085	-1626.375000	1417.594727	71.381203
29974.843085	-1626.375000	1416.518555	133.867371
29974.843085	-1626.375000	1415.442383	12.731916
29974.843085	-1626.375000	1414.365234	49.063187
29974.843085	-1626.375000	1413.289063	73.872543
29974.843085	-1626.375000	1412.211914	-10.143950
29974.843085	-1626.375000	1411.134766	78.146172
29974.843085	-1626.375000	1410.057617	142.267258
29974.843085	-1626.375000	1408.979492	44.377548
29974.843085	-1626.375000	1407.902344	48.588600
29974.843085	-1626.375000	1406.824219	183.044357
29974.843085	-1626.375000	1405.746094	98.006851
29974.843085	-1626.375000	1404.666992	105.043068
29974.843085	-1626.375000	1403.588867	112.887985
29974.843085	-1626.375000	1402.509766	78.884872
29974.843085	-1626.375000	1401.430664	75.537643
29974.843085	-1626.375000	1400.351563	135.029587
29974.843085	-1626.375000	1399.271484	155.401352
29974.843085	-1626.375000	1398.192383	120.065773
29974.843085	-1626.375000	1397.112305	163.470245
29974.843085	-1626.375000	1396.031250	133.769760
29974.843085	-1626.375000	1394.951172	168.191025
29974.843085	-1626.375000	1393.871094	173.914627
29974.843085	-1626.375000	1392.790039	154.165619
29974.843085	-1626.375000	1391.708984	212.677795
29974.843085	-1626.375000	1390.626953	74.156700
29974.843085	-1626.375000	1389.545898	97.231506
29974.843085	-1626.375000	1388.463867	153.050232
29974.843085	-1626.375000	1387.381836	170.627625
29974.843085	-1626.375000	1386.299805	171.746536
29974.843085	-1626.375000	1385.217773	145.517975
29974.843085	-1626.375000	1384.134766	201.163422
29974.843085	-1626.375000	1383.051758	100.412903
29974.843085	-1626.375000	1381.968750	174.813660
29974.843085	-1626.375000	1380.885742	109.005768
29974.843085	-1626.375000	1379.802734	158.736664
29974.843085	-1626.375000	1378.718750	168.968399
29974.843085	-1626.375000	1377.634766	127.274155
29974.843085	-1626.375000	1376.550781	162.770065
29974.843085	-1626.375000	1375.465820	91.073936
29974.843085	-1626.375000	1374.381836	226.195465
29974.843085	-1626.375000	1373.296875	149.862823
29974.843085	-1626.375000	1372.211914	98.114235
29974.843085	-1626.375000	1371.126953	58.377342
29974.843085	-1626.375000	1370.041016	130.439453
29974.843085	-1626.375000	1368.955078	73.857300
29974.843085	-1626.375000	1367.869141	107.615669
29974.843085	-1626.375000	1366.783203	131.420990
29974.843085	-1626.375000	1365.697266	160.569534
29974.843085	-1626.375000	1364.610352	175.829132
29974.843085	-1626.375000	1363.523438	166.350723
29974.843085	-1626.375000	1362.436523	174.822922
29974.843085	-1626.375000	1361.349609	166.647217
29974.843085	-1626.375000	1360.261719	83.079262
29974.843085	-1626.375000	1359.174805	121.075714
29974.843085	-1626.375000	1358.086914	147.533966
29974.843085	-1626.375000	1356.998047	97.211761
29974.843085	-1626.375000	1355.910156	169.699463
29974.843085	-1626.375000	1354.821289	194.494644
29974.843085	-1626.375000	1353.732422	163.694901
29974.843085	-1626.375000	1352.643555	293.713470
29974.843085	-1626.375000	1351.554688	158.992599
29974.843085	-1626.375000	1350.464844	315.254578
29974.843085	-1626.375000	1349.375000	266.818695
29974.843085	-1626.375000	1348.285156	209.827850
29974.843085	-1626.375000	1347.195313	315.962891
29974.843085	-1626.375000	1346.105469	331.989746
29974.843085	-1626.375000	1345.014648	338.277039
29974.843085	-1626.375000	1343.923828	305.639069
29974.843085	-1626.375000	1342.833008	213.106750
29974.843085	-1626.375000	1341.741211	306.324524
29974.843085	-1626.375000	1340.650391	243.370300
29974.843085	-1626.375000	1339.558594	250.565125
29974.843085	-1626.375000	1338.466797	275.015503
29974.843085	-1626.375000	1337.374023	241.216064
29974.843085	-1626.375000	1336.282227	146.513672
29974.843085	-1626.375000	1335.189453	153.765305
29974.843085	-1626.375000	1334.096680	52.104568
29974.843085	-1626.375000	1333.003906	134.668533
29974.843085	-1626.375000	1331.910156	146.489685
29974.843085	-1626.375000	1330.817383	82.530792
29974.843085	-1626.375000	1329.723633	119.345695
29974.843085	-1626.375000	1328.629883	113.785217
29974.843085	-1626.375000	1327.535156	119.264687
29974.843085	-1626.375000	1326.441406	72.294167
29974.843085	-1626.375000	1325.346680	79.901688
29974.843085	-1626.375000	1324.251953	211.420700
29974.843085	-1626.375000	1323.156250	48.875450
29974.843085	-1626.375000	1322.061523	117.725655
29974.843085	-1626.375000	1320.965820	57.531364
29974.843085	-1626.375000	1319.870117	21.069141
29974.843085	-1626.375000	1318.774414	36.894764
29974.843085	-1626.375000	1317.678711	68.605278
29974.843085	-1626.375000	1316.582031	40.035240
29974.843085	-1626.375000	1315.485352	-38.909176
29974.843085	-1626.375000	1314.388672	-9.217357
29974.843085	-1626.375000	1313.291016	18.476282
29974.843085	-1626.375000	1312.194336	8.007096
29974.843085	-1626.375000	1311.096680	90.220642
29974.843085	-1626.375000	1309.999023	20.921495
29974.843085	-1626.375000	1308.901367	58.858063
29974.843085	-1626.375000	1307.802734	107.059044
29974.843085	-1626.375000	1306.705078	-18.436892
29974.843085	-1626.375000	1305.606445	-36.343952
29974.843085	-1626.375000	1304.506836	74.485214
29974.843085	-1626.375000	1303.408203	59.116108
29974.843085	-1626.375000	1302.308594	56.533516
29974.843085	-1626.375000	1301.208984	4.516592
29974.843085	-1626.375000	1300.109375	144.120377
29974.843085	-1626.375000	1299.009766	7.667505
29974.843085	-1626.375000	1297.909180	101.175476
29974.843085	-1626.375000	1296.808594	28.431725
29974.843085	-1626.375000	1295.708008	55.438072
29974.843085	-1626.375000	1294.607422	78.709770
29974.843085	-1626.375000	1293.506836	47.393185
29974.843085	-1626.375000	1292.405273	18.032692
29974.843085	-1626.375000	1291.303711	34.985523
29974.843085	-1626.375000	1290.202148	120.457367
29974.843085	-1626.375000	1289.099609	69.870285
29974.843085	-1626.375000	1287.998047	33.830215
29974.843085	-1626.375000	1286.895508	-72.139381
29974.843085	-1626.375000	1285.792969	43.408077
29974.843085	-1626.375000	1284.689453	74.318016
29974.843085	-1626.375000	1283.586914	0.923858
29974.843085	-1626.375000	1282.483398	51.746185
29974.843085	-1626.375000	1281.379883	23.051622
29974.843085	-1626.375000	1280.276367	44.178669
29974.843085	-1626.375000	1279.171875	58.312611
29974.843085	-1626.375000	1278.067383	9.343360
29974.843085	-1626.375000	1276.962891	-0.875448
29974.843085	-1626.375000	1275.858398	-26.299257
29974.843085	-1626.375000	1274.753906	-52.429169
29974.843085	-1626.375000	1273.648438	17.065380
29974.843085	-1626.375000	1272.542969	-20.601004
29974.843085	-1626.375000	1271.437500	-57.461887
29974.843085	-1626.375000	1270.331055	-56.974064
29974.843085	-1626.375000	1269.225586	-71.828316
29974.843085	-1626.375000	1268.119141	-54.093616
29974.843085	-1626.375000	1267.012695	46.230282
29974.843085	-1626.375000	1265.906250	-45.122120
29974.843085	-1626.375000	1264.798828	-18.498724
29974.843085	-1626.375000	1263.691406	-15.240343
29974.843085	-1626.375000	1262.583984	-22.078783
29974.843085	-1626.375000	1261.476563	-10.154547
29974.843085	-1626.375000	1260.368164	-39.485447
29974.843085	-1626.375000	1259.260742	-5.015943
29974.843085	-1626.375000	1258.152344	-50.401665
29974.843085	-1626.375000	1257.043945	-14.620388
29974.843085	-1626.375000	1255.934570	0.737313
29974.843085	-1626.375000	1254.825195	-86.764587
29974.843085	-1626.375000	1253.716797	0.454726
29974.843085	-1626.375000	1252.606445	-41.560307
29974.843085	-1626.375000	1251.497070	32.032372
29974.843085	-1626.375000	1250.387695	-20.769438
29974.843085	-1626.375000	1249.277344	-70.142723
29974.843085	-1626.375000	1248.166992	-27.920238
29974.843085	-1626.375000	1247.055664	26.987131
29974.843085	-1626.375000	1245.945313	50.889343
29974.843085	-1626.375000	1244.833984	9.810691
29974.843085	-1626.375000	1243.722656	15.147187
29974.843085	-1626.375000	1242.611328	-38.272907
29974.843085	-1626.375000	1241.499023	-32.346809
29974.843085	-1626.375000	1240.387695	10.779154
29974.843085	-1626.375000	1239.275391	-30.244513
29974.843085	-1626.375000	1238.162109	-28.458202
29974.843085	-1626.375000	1237.049805	-41.429867
29974.843085	-1626.375000	1235.936523	-2.697969
29974.843085	-1626.375000	1234.823242	-29.828400
29974.843085	-1626.375000	1233.709961	-75.556366
29974.843085	-1626.375000	1232.596680	-37.432026
29974.843085	-1626.375000	1231.482422	6.740417
29974.843085	-1626.375000	1230.369141	-24.736351
29974.843085	-1626.375000	1229.253906	32.525780
29974.843085	-1626.375000	1228.139648	5.416821
29974.843085	-1626.375000	1227.025391	-50.053230
29974.843085	-1626.375000	1225.910156	-1.077265
29974.843085	-1626.375000	1224.794922	-57.605415
29974.843085	-1626.375000	1223.679688	-22.529139
29974.843085	-1626.375000	1222.563477	-86.701973
29974.843085	-1626.375000	1221.447266	-87.393867
29974.843085	-1626.375000	1220.331055	-31.758976
29974.843085	-1626.375000	1219.214844	-46.875511
29974.843085	-1626.375000	1218.098633	26.673420
29974.843085	-1626.375000	1216.981445	-44.074375
29974.843085	-1626.375000	1215.864258	-15.756256
29974.843085	-1626.375000	1214.747070	27.239500
29974.843085	-1626.375000	1213.629883	-26.475872
29974.843085	-1626.375000	1212.511719	-73.967354
29974.843085	-1626.375000	1211.393555	-75.988998
29974.843085	-1626.375000	1210.275391	7.510378
29974.843085	-1626.375000	1209.157227	3.377128
29974.843085	-1626.375000	1208.038086	29.166853
29974.843085	-1626.375000	1206.918945	20.923866
29974.843085	-1626.375000	1205.799805	-4.859240
29974.843085	-1626.375000	1204.680664	-32.772148
29974.843085	-1626.375000	1203.560547	14.175790
29974.843085	-1626.375000	1202.441406	-19.528227
29974.843085	-1626.375000	1201.321289	33.714859
29974.843085	-1626.375000	1200.200195	5.900068
29974.843085	-1626.375000	1199.080078	-27.957293
29974.843085	-1626.375000	1197.958984	-7.304337
29974.843085	-1626.375000	1196.837891	20.600807
29974.843085	-1626.375000	1195.716797	34.605965
29974.843085	-1626.375000	1194.594727	-132.555573
29974.843085	-1626.375000	1193.473633	-29.212198
29974.843085	-1626.375000	1192.351563	-29.405544
29974.843085	-1626.375000	1191.229492	50.486408
29974.843085	-1626.375000	1190.106445	-42.930740
29974.843085	-1626.375000	1188.984375	45.985111
29974.843085	-1626.375000	1187.861328	50.335854
29974.843085	-1626.375000	1186.738281	10.244259
29974.843085	-1626.375000	1185.614258	-10.944100
29974.843085	-1626.375000	1184.491211	2.766199
29974.843085	-1626.375000	1183.367188	37.597851
29974.843085	-1626.375000	1182.243164	-58.296307
29974.843085	-1626.375000	1181.119141	81.626381
29974.843085	-1626.375000	1179.994141	44.428261
29974.843085	-1626.375000	1178.869141	23.926491
29974.843085	-1626.375000	1177.744141	4.674236
29974.843085	-1626.375000	1176.619141	-8.240187
29974.843085	-1626.375000	1175.493164	41.991638
29974.843085	-1626.375000	1174.368164	42.261490
29974.843085	-1626.375000	1173.242188	69.729469
29974.843085	-1626.375000	1172.115234	46.041489
29974.843085	-1626.375000	1170.989258	51.386005
29974.843085	-1626.375000	1169.862305	100.671860
29974.843085	-1626.375000	1168.735352	-18.813263
29974.843085	-1626.375000	1167.608398	31.133463
29974.843085	-1626.375000	1166.481445	38.719753
29974.843085	-1626.375000	1165.353516	16.675119
29974.843085	-1626.375000	1164.225586	89.017982
29974.843085	-1626.375000	1163.097656	29.039808
29974.843085	-1626.375000	1161.968750	-24.054817
29974.843085	-1626.375000	1160.840820	-45.269218
29974.843085	-1626.375000	1159.711914	-37.895824
29974.843085	-1626.375000	1158.583008	10.747885
29974.843085	-1626.375000	1157.453125	3.982697
29974.843085	-1626.375000	1156.324219	-17.793783
29974.843085	-1626.375000	1155.194336	-117.759285
29974.843085	-1626.375000	1154.064453	29.935007
29974.843085	-1626.375000	1152.933594	-8.738050
29974.843085	-1626.375000	1151.803711	12.105048
29974.843085	-1626.375000	1150.672852	31.392725
29974.843085	-1626.375000	1149.541992	-49.300591
29974.843085	-1626.375000	1148.411133	14.980390
29974.843085	-1626.375000	1147.279297	35.815678
29974.843085	-1626.375000	1146.147461	7.985290
29974.843085	-1626.375000	1145.015625	-4.308408
29974.843085	-1626.375000	1143.883789	54.287090
29974.843085	-1626.375000	1142.750977	50.327850
29974.843085	-1626.375000	1141.619141	-2.160650
29974.843085	-1626.375000	1140.486328	31.165915
29974.843085	-1626.375000	1139.352539	-62.567989
29974.843085	-1626.375000	1138.219727	3.138751
29974.843085	-1626.375000	1137.085938	-25.953810
29974.843085	-1626.375000	1135.952148	7.486424
29974.843085	-1626.375000	1134.818359	12.718219
29974.843085	-1626.375000	1133.683594	50.072491
29974.843085	-1626.375000	1132.549805	67.638077
29974.843085	-1626.375000	1131.415039	-12.024985
29974.843085	-1626.375000	1130.279297	-7.562973
29974.843085	-1626.375000	1129.144531	57.772907
29974.843085	-1626.375000	1128.008789	76.121758
29974.843085	-1626.375000	1126.873047	69.220032
29974.843085	-1626.375000	1125.737305	21.904633
29974.843085	-1626.375000	1124.601563	44.571056
29974.843085	-1626.375000	1123.464844	46.495720
29974.843085	-1626.375000	1122.328125	51.580395
29974.843085	-1626.375000	1121.191406	44.679081
29974.843085	-1626.375000	1120.054688	43.917496
29974.843085	-1626.375000	1118.916992	58.053726
29974.843085	-1626.375000	1117.779297	71.075516
29974.843085	-1626.375000	1116.641602	52.431095
29974.843085	-1626.375000	1115.503906	78.817001
29974.843085	-1626.375000	1114.365234	0.899248
29974.843085	-1626.375000	1113.226563	66.333824
29974.843085	-1626.375000	1112.087891	27.062136
29974.843085	-1626.375000	1110.949219	-6.663865
29974.843085	-1626.375000	1109.809570	-5.086389
29974.843085	-1626.375000	1108.669922	39.410305
29974.843085	-1626.375000	1107.530273	71.448769
29974.843085	-1626.375000	1106.390625	53.438694
29974.843085	-1626.375000	1105.250000	-41.450066
29974.843085	-1626.375000	1104.109375	23.133865
29974.843085	-1626.375000	1102.968750	-46.569027
29974.843085	-1626.375000	1101.828125	78.059669
29974.843085	-1626.375000	1100.686523	37.036980
29974.843085	-1626.375000	1099.544922	107.437195
29974.843085	-1626.375000	1098.403320	131.874832
29974.843085	-1626.375000	1097.261719	151.187546
29974.843085	-1626.375000	1096.120117	21.391478
29974.843085	-1626.375000	1094.977539	100.571465
29974.843085	-1626.375000	1093.834961	59.598736
29974.843085	-1626.375000	1092.691406	26.564959
29974.843085	-1626.375000	1091.548828	28.638145
29974.843085	-1626.375000	1090.405273	111.070480
29974.843085	-1626.375000	1089.261719	161.523483
29974.843085	-1626.375000	1088.118164	56.103638
29974.843085	-1626.375000	1086.973633	68.862045
29974.843085	-1626.375000	1085.829102	-63.754322
29974.843085	-1626.375000	1084.684570	94.940582
29974.843085	-1626.375000	1083.540039	-12.244129
29974.843085	-1626.375000	1082.395508	100.708412
29974.843085	-1626.375000	1081.250000	3.620044
29974.843085	-1626.375000	1080.104492	21.632835
29974.843085	-1626.375000	1078.958984	4.804428
29974.843085	-1626.375000	1077.812500	32.297955
29974.843085	-1626.375000	1076.666016	23.857552
29974.843085	-1626.375000	1075.519531	5.052100
29974.843085	-1626.375000	1074.373047	-6.095665
29974.843085	-1626.375000	1073.226563	18.017801
29974.843085	-1626.375000	1072.079102	-12.733706
29974.843085	-1626.375000	1070.931641	69.229195
29974.843085	-1626.375000	1069.784180	-7.234814
29974.843085	-1626.375000	1068.635742	61.245106
29974.843085	-1626.375000	1067.487305	34.112137
29974.843085	-1626.375000	1066.338867	0.794287
29974.843085	-1626.375000	1065.190430	12.940035
29974.843085	-1626.375000	1064.041992	61.332623
29974.843085	-1626.375000	1062.892578	-37.744049
29974.843085	-1626.375000	1061.743164	54.561432
29974.843085	-1626.375000	1060.593750	41.021576
29974.843085	-1626.375000	1059.443359	27.564547
29974.843085	-1626.375000	1058.292969	18.123817
29974.843085	-1626.375000	1057.142578	29.997036
29974.843085	-1626.375000	1055.992188	-25.033281
29974.843085	-1626.375000	1054.841797	125.627144
29974.843085	-1626.375000	1053.690430	-12.422888
29974.843085	-1626.375000	1052.539063	24.557257
29974.843085	-1626.375000	1051.387695	-59.147709
29974.843085	-1626.375000	1050.235352	-4.662638
29974.843085	-1626.375000	1049.083984	-1.123923
29974.843085	-1626.375000	1047.931641	70.197441
29974.843085	-1626.375000	1046.778320	-19.914824
29974.843085	-1626.375000	1045.625977	1.144381
29974.843085	-1626.375000	1044.472656	-2.391823
29974.843085	-1626.375000	1043.319336	-18.281527
29974.843085	-1626.375000	1042.166016	79.472878
29974.843085	-1626.375000	1041.012695	15.299666
29974.843085	-1626.375000	1039.858398	59.235802
29974.843085	-1626.375000	1038.704102	-59.870579
29974.843085	-1626.375000	1037.549805	45.759636
29974.843085	-1626.375000	1036.394531	-58.692818
29974.843085	-1626.375000	1035.239258	-18.561171
29974.843085	-1626.375000	1034.083984	-3.794591
29974.843085	-1626.375000	1032.928711	22.026899
29974.843085	-1626.375000	1031.773438	72.742706
29974.843085	-1626.375000	1030.617188	-43.340706
29974.843085	-1626.375000	1029.460938	96.533531
29974.843085	-1626.375000	1028.304688	52.270996
29974.843085	-1626.375000	1027.147461	47.029449
29974.843085	-1626.375000	1025.991211	117.257454
29974.843085	-1626.375000	1024.833984	28.557323
29974.843085	-1626.375000	1023.675781	40.794834
29974.843085	-1626.375000	1022.518555	15.006959
29974.843085	-1626.375000	1021.360352	86.931000
29974.843085	-1626.375000	1020.202148	30.275534
29974.843085	-1626.375000	1019.043945	-91.000633
29974.843085	-1626.375000	1017.884766	-1.060333
29974.843085	-1626.375000	1016.726563	-41.332607
29974.843085	-1626.375000	1015.567383	-130.490601
29974.843085	-1626.375000	1014.407227	46.628319
29974.843085	-1626.375000	1013.248047	78.632271
29974.843085	-1626.375000	1012.087891	-70.802315
29974.843085	-1626.375000	1010.927734	-31.506367
29974.843085	-1626.375000	1009.767578	-4.766685
29974.843085	-1626.375000	1008.606445	-27.490528
29974.843085	-1626.375000	1007.446289	2.198325
29974.843085	-1626.375000	1006.285156	-40.833065
29974.843085	-1626.375000	1005.123047	44.536934
29974.843085	-1626.375000	1003.961914	2.751460
29974.843085	-1626.375000	1002.799805	-40.761902
29974.843085	-1626.375000	1001.637695	4.926951
29974.843085	-1626.375000	1000.475586	-72.922401
29974.843085	-1626.375000	999.312500	-59.284622
29974.843085	-1626.375000	998.149414	12.767219
29974.843085	-1626.375000	996.986328	36.808384
29974.843085	-1626.375000	995.823242	-3.552416
29974.843085	-1626.375000	994.659180	45.952560
29974.843085	-1626.375000	993.496094	-78.969559
29974.843085	-1626.375000	992.332031	34.754013
29974.843085	-1626.375000	991.166992	96.254662
29974.843085	-1626.375000	990.002930	-26.430368
29974.843085	-1626.375000	988.837891	31.030945
29974.843085	-1626.375000	987.672852	-1.895355
29974.843085	-1626.375000	986.506836	33.939796
29974.843085	-1626.375000	985.341797	73.986015
29974.843085	-1626.375000	984.175781	-4.080462
29974.843085	-1626.375000	983.009766	-126.290405
29974.843085	-1626.375000	981.843750	-54.968945
29974.843085	-1626.375000	980.676758	12.615489
29974.843085	-1626.375000	979.509766	83.727051
29974.843085	-1626.375000	978.342773	43.692226
29974.843085	-1626.375000	977.175781	-2.501621
29974.843085	-1626.375000	976.007813	-22.615120
29974.843085	-1626.375000	974.839844	0.598081
29974.843085	-1626.375000	973.671875	55.795025
29974.843085	-1626.375000	972.503906	-18.072805
29974.843085	-1626.375000	971.334961	17.122372
29974.843085	-1626.375000	970.166016	-34.400913
29974.843085	-1626.375000	968.997070	1.629129
29974.843085	-1626.375000	967.828125	3.304117
29974.843085	-1626.375000	966.658203	14.565543
29974.843085	-1626.375000	965.488281	-24.310192
29974.843085	-1626.375000	964.318359	121.400848
29974.843085	-1626.375000	963.148438	-13.613031
29974.843085	-1626.375000	961.977539	-35.724079
29974.843085	-1626.375000	960.806641	12.835569
29974.843085	-1626.375000	959.635742	37.841373
29974.843085	-1626.375000	958.463867	-0.850649
29974.843085	-1626.375000	957.292969	30.232452
29974.843085	-1626.375000	956.121094	36.452808
29974.843085	-1626.375000	954.948242	0.791429
29974.843085	-1626.375000	953.776367	42.958820
29974.843085	-1626.375000	952.603516	18.251921
29974.843085	-1626.375000	951.430664	-38.694454
29974.843085	-1626.375000	950.257813	16.997448
29974.843085	-1626.375000	949.084961	39.319870
29974.843085	-1626.375000	947.911133	-26.173922
29974.843085	-1626.375000	946.737305	18.568878
29974.843085	-1626.375000	945.563477	6.881085
29974.843085	-1626.375000	944.388672	-24.587111
29974.843085	-1626.375000	943.213867	28.796926
29974.843085	-1626.375000	942.039063	-43.299511
29974.843085	-1626.375000	940.864258	88.698097
29974.843085	-1626.375000	939.688477	16.605457
29974.843085	-1626.375000	938.513672	-12.722844
29974.843085	-1626.375000	937.337891	96.792549
29974.843085	-1626.375000	936.161133	-17.862967
29974.843085	-1626.375000	934.985352	19.880299
29974.843085	-1626.375000	933.808594	80.125366
29974.843085	-1626.375000	932.631836	86.559090
29974.843085	-1626.375000	931.454102	-77.366135
29974.843085	-1626.375000	930.277344	-3.739532
29974.843085	-1626.375000	929.099609	110.260162
29974.843085	-1626.375000	927.921875	-46.927517
29974.843085	-1626.375000	926.743164	-49.481754
29974.843085	-1626.375000	925.565430	-4.995690
29974.843085	-1626.375000	924.386719	41.713509
29974.843085	-1626.375000	923.208008	21.234056
29974.843085	-1626.375000	922.028320	-82.078812
29974.843085	-1626.375000	920.849609	31.776739
29974.843085	-1626.375000	919.669922	32.021374
29974.843085	-1626.375000	919.474609	114.296112
29974.843085	-1626.375000	918.309570	136.323227
29974.843085	-1626.375000	917.143555	124.783737
29974.843085	-1626.375000	915.977539	68.515114
29974.843085	-1626.375000	914.810547	30.158224
29974.843085	-1626.375000	913.644531	67.830879
29974.843085	-1626.375000	912.477539	22.782049
29974.843085	-1626.375000	911.310547	-20.014549
29974.843085	-1626.375000	910.143555	-4.700726
29974.843085	-1626.375000	908.975586	-31.838015
29974.843085	-1626.375000	907.807617	54.941833
29974.843085	-1626.375000	906.639648	83.627136
29974.843085	-1626.375000	905.471680	5.137353
29974.843085	-1626.375000	904.303711	78.462273
29974.843085	-1626.375000	903.134766	-84.798264
29974.843085	-1626.375000	901.965820	-40.491600
29974.843085	-1626.375000	900.796875	81.872536
29974.843085	-1626.375000	899.626953	-94.671936
29974.843085	-1626.375000	898.457031	-32.552917
29974.843085	-1626.375000	897.287109	-10.588249
29974.843085	-1626.375000	896.117188	-10.922192
29974.843085	-1626.375000	894.947266	11.028048
29974.843085	-1626.375000	893.776367	4.005363
29974.843085	-1626.375000	892.605469	10.350408
29974.843085	-1626.375000	891.434570	54.553200
29974.843085	-1626.375000	890.262695	14.125425
29974.843085	-1626.375000	889.091797	-32.965012
29974.843085	-1626.375000	887.919922	35.702221
29974.843085	-1626.375000	886.748047	-46.978035
29974.843085	-1626.375000	885.575195	23.888725
29974.843085	-1626.375000	884.403320	61.360485
29974.843085	-1626.375000	883.230469	16.531889
29974.843085	-1626.375000	882.057617	-70.524239
29974.843085	-1626.375000	880.883789	4.735027
29974.843085	-1626.375000	879.710938	-2.271238
29974.843085	-1626.375000	878.537109	-29.273350
29974.843085	-1626.375000	877.362305	-34.048149
29974.843085	-1626.375000	876.188477	92.229675
29974.843085	-1626.375000	875.013672	51.900120
29974.843085	-1626.375000	873.839844	-37.259350
29974.843085	-1626.375000	872.664063	35.665905
29974.843085	-1626.375000	871.489258	70.831825
29974.843085	-1626.375000	870.313477	-2.744115
29974.843085	-1626.375000	869.138672	-56.323765
29974.843085	-1626.375000	867.962891	32.072029
29974.843085	-1626.375000	866.786133	-30.362635
29974.843085	-1626.375000	865.610352	-26.258509
29974.843085	-1626.375000	864.433594	-24.372528
29974.843085	-1626.375000	863.256836	-18.054979
29974.843085	-1626.375000	862.079102	-22.818361
29974.843085	-1626.375000	860.902344	34.448269
29974.843085	-1626.375000	859.724609	-12.405826
29974.843085	-1626.375000	858.546875	4.976584
29974.843085	-1626.375000	857.368164	-52.921642
29974.843085	-1626.375000	856.190430	-17.830147
29974.843085	-1626.375000	855.011719	-51.356453
29974.843085	-1626.375000	853.833008	118.686989
29974.843085	-1626.375000	852.654297	-25.459114
29974.843085	-1626.375000	851.474609	111.334587
29974.843085	-1626.375000	850.294922	4.839856
29974.843085	-1626.375000	849.115234	17.769335
29974.843085	-1626.375000	847.935547	39.534634
29974.843085	-1626.375000	846.754883	-82.348434
29974.843085	-1626.375000	845.575195	27.804049
29974.843085	-1626.375000	844.393555	-14.504898
29974.843085	-1626.375000	843.212891	-23.669428
29974.843085	-1626.375000	842.032227	-59.326569
29974.843085	-1626.375000	840.850586	57.353451
29974.843085	-1626.375000	839.668945	-46.726021
29974.843085	-1626.375000	838.486328	41.216698
29974.843085	-1626.375000	837.304688	65.143105
29974.843085	-1626.375000	836.122070	-107.252586
29974.843085	-1626.375000	834.939453	31.369999
29974.843085	-1626.375000	833.756836	28.825039
29974.843085	-1626.375000	832.573242	13.054848
29974.843085	-1626.375000	831.389648	76.632690
29974.843085	-1626.375000	830.206055	47.637653
29974.843085	-1626.375000	829.022461	150.836060
29974.843085	-1626.375000	827.838867	128.444931
29974.843085	-1626.375000	826.654297	37.796940
29974.843085	-1626.375000	825.469727	59.471222
29974.843085	-1626.375000	824.284180	78.934982
29974.843085	-1626.375000	823.099609	25.765198
29974.843085	-1626.375000	821.914063	-11.980895
29974.843085	-1626.375000	820.728516	80.079292
29974.843085	-1626.375000	819.542969	55.533127
29974.843085	-1626.375000	818.356445	20.001617
29974.843085	-1626.375000	817.169922	-118.844566
29974.843085	-1626.375000	815.983398	30.308758
29974.843085	-1626.375000	814.796875	34.359249
29974.843085	-1626.375000	813.609375	-40.689030
29974.843085	-1626.375000	812.422852	86.386887
29974.843085	-1626.375000	811.235352	79.440132
29974.843085	-1626.375000	810.046875	76.887154
29974.843085	-1626.375000	808.859375	80.920174
29974.843085	-1626.375000	807.670898	54.222866
29974.843085	-1626.375000	806.482422	67.034752
29974.843085	-1626.375000	805.293945	49.125072
29974.843085	-1626.375000	804.104492	24.641674
29974.843085	-1626.375000	802.915039	15.518404
29974.843085	-1626.375000	801.725586	135.760834
29974.843085	-1626.375000	800.536133	-15.873029
29974.843085	-1626.375000	799.345703	29.806648
29974.843085	-1626.375000	798.155273	108.334541
29974.843085	-1626.375000	796.964844	75.099037
29974.843085	-1626.375000	795.774414	24.353008
29974.843085	-1626.375000	794.583008	45.892723
29974.843085	-1626.375000	793.392578	78.368896
29974.843085	-1626.375000	792.200195	-16.129368
29974.843085	-1626.375000	791.008789	197.989624
29974.843085	-1626.375000	789.816406	42.236675
29974.843085	-1626.375000	788.625000	-4.073437
29974.843085	-1626.375000	787.432617	74.301765
29974.843085	-1626.375000	786.239258	-55.093349
29974.843085	-1626.375000	785.046875	45.118515
29974.843085	-1626.375000	783.853516	38.183479
29974.843085	-1626.375000	782.660156	-43.051998
29974.843085	-1626.375000	781.465820	-28.121023
29974.843085	-1626.375000	780.272461	45.781197
29974.843085	-1626.375000	779.078125	97.810928
29974.843085	-1626.375000	777.883789	25.355885
29974.843085	-1626.375000	776.688477	20.604153
29974.843085	-1626.375000	775.494141	-32.165840
29974.843085	-1626.375000	774.298828	-4.176255
29974.843085	-1626.375000	773.103516	45.616386
29974.843085	-1626.375000	771.907227	-35.489250
29974.843085	-1626.375000	770.711914	75.346321
29974.843085	-1626.375000	769.515625	-1.376437
29974.843085	-1626.375000	768.318359	41.824100
29974.843085	-1626.375000	767.122070	-17.430109
29974.843085	-1626.375000	765.924805	-2.576837
29974.843085	-1626.375000	764.727539	-35.660484
29974.843085	-1626.375000	763.530273	107.691437
29974.843085	-1626.375000	762.333008	152.987167
29974.843085	-1626.375000	761.134766	50.212830
29974.843085	-1626.375000	759.936523	134.676346
29974.843085	-1626.375000	758.738281	97.230171
29974.843085	-1626.375000	757.540039	72.851051
29974.843085	-1626.375000	756.340820	26.725065
29974.843085	-1626.375000	755.141602	-12.860632
29974.843085	-1626.375000	753.942383	-52.433208
29974.843085	-1626.375000	752.742188	1.489056
29974.843085	-1626.375000	751.541992	72.773651
29974.843085	-1626.375000	750.341797	17.984720
29974.843085	-1626.375000	749.141602	71.847038
29974.843085	-1626.375000	747.941406	34.450859
29974.843085	-1626.375000	746.740234	1.409730
29974.843085	-1626.375000	745.539063	96.483978
29974.843085	-1626.375000	744.337891	87.314392
29974.843085	-1626.375000	743.135742	8.692245
29974.843085	-1626.375000	741.933594	-30.843081
29974.843085	-1626.375000	740.731445	48.954922
29974.843085	-1626.375000	739.529297	63.644527
29974.843085	-1626.375000	738.326172	58.806053
29974.843085	-1626.375000	737.124023	-6.742362
29974.843085	-1626.375000	735.919922	181.348526
29974.843085	-1626.375000	734.716797	111.457832
29974.843085	-1626.375000	733.513672	95.760361
29974.843085	-1626.375000	732.309570	127.723114
29974.843085	-1626.375000	731.105469	144.506363
29974.843085	-1626.375000	729.900391	107.142311
29974.843085	-1626.375000	728.696289	45.974285
29974.843085	-1626.375000	727.491211	67.077248
29974.843085	-1626.375000	726.286133	133.610733
29974.843085	-1626.375000	725.080078	76.786385
29974.843085	-1626.375000	723.874023	28.632635
29974.843085	-1626.375000	722.668945	21.584217
29974.843085	-1626.375000	721.461914	8.046371
29974.843085	-1626.375000	720.255859	-11.976873
29974.843085	-1626.375000	719.048828	-36.320293
29974.843085	-1626.375000	717.841797	6.327304
29974.843085	-1626.375000	716.634766	92.159447
29974.843085	-1626.375000	715.427734	41.871616
29974.843085	-1626.375000	714.219727	47.745697
29974.843085	-1626.375000	713.011719	-24.115099
29974.843085	-1626.375000	711.803711	-9.607824
29974.843085	-1626.375000	710.594727	-27.485760
29974.843085	-1626.375000	709.385742	-49.677910
29974.843085	-1626.375000	708.176758	-61.081326
29974.843085	-1626.375000	706.967773	26.726288
29974.843085	-1626.375000	705.758789	-66.643089
29974.843085	-1626.375000	704.548828	-0.443976
29974.843085	-1626.375000	703.338867	42.010609
29974.843085	-1626.375000	702.127930	-1.759453
29974.843085	-1626.375000	700.917969	-21.818312
29974.843085	-1626.375000	699.707031	16.284258
29974.843085	-1626.375000	698.496094	-92.083580
29974.843085	-1626.375000	697.285156	62.275120
29974.843085	-1626.375000	696.073242	46.495689
29974.843085	-1626.375000	694.861328	4.887966
29974.843085	-1626.375000	693.649414	12.782197
29974.843085	-1626.375000	692.436523	22.816628
29974.843085	-1626.375000	691.224609	73.706749
29974.843085	-1626.375000	690.011719	-23.814835
29974.843085	-1626.375000	688.798828	-11.652370
29974.843085	-1626.375000	687.584961	-27.447666
29974.843085	-1626.375000	686.372070	-13.156324
29974.843085	-1626.375000	685.158203	-26.811897
29974.843085	-1626.375000	683.943359	-59.804119
29974.843085	-1626.375000	682.729492	-2.584640
29974.843085	-1626.375000	681.514648	11.656206
29974.843085	-1626.375000	680.299805	32.323307
29974.843085	-1626.375000	679.084961	33.655365
29974.843085	-1626.375000	677.869141	-29.400112
29974.843085	-1626.375000	676.653320	8.400891
29974.843085	-1626.375000	675.437500	67.627647
29974.843085	-1626.375000	674.221680	92.507156
29974.843085	-1626.375000	673.004883	78.772789
29974.843085	-1626.375000	671.789063	116.483986
29974.843085	-1626.375000	670.571289	49.151508
29974.843085	-1626.375000	669.354492	63.264252
29974.843085	-1626.375000	668.136719	36.657627
29974.843085	-1626.375000	666.919922	-41.351761
29974.843085	-1626.375000	665.701172	-29.398033
29974.843085	-1626.375000	664.483398	132.410645
29974.843085	-1626.375000	663.264648	-26.937798
29974.843085	-1626.375000	662.045898	2.098374
29974.843085	-1626.375000	660.827148	28.973211
29974.843085	-1626.375000	659.608398	45.131489
29974.843085	-1626.375000	658.388672	116.879990
29974.843085	-1626.375000	657.168945	107.334442
29974.843085	-1626.375000	655.949219	69.991623
29974.843085	-1626.375000	654.728516	7.006440
29974.843085	-1626.375000	653.507813	29.514666
29974.843085	-1626.375000	652.287109	-99.685402
29974.843085	-1626.375000	651.066406	78.745316
29974.843085	-1626.375000	649.844727	54.212189
29974.843085	-1626.375000	648.623047	-77.075989
29974.843085	-1626.375000	647.401367	-3.391219
29974.843085	-1626.375000	646.179688	76.655136
29974.843085	-1626.375000	644.957031	30.765545
29974.843085	-1626.375000	643.734375	68.084389
29974.843085	-1626.375000	642.511719	86.181458
29974.843085	-1626.375000	641.289063	-0.226715
29974.843085	-1626.375000	640.065430	79.683395
29974.843085	-1626.375000	638.841797	-25.891050
29974.843085	-1626.375000	637.618164	49.708366
29974.843085	-1626.375000	636.393555	29.387926
29974.843085	-1626.375000	635.168945	213.560135
29974.843085	-1626.375000	633.944336	88.838020
29974.843085	-1626.375000	632.719727	53.587032
29974.843085	-1626.375000	631.494141	-9.334421
29974.843085	-1626.375000	630.269531	44.819935
29974.843085	-1626.375000	629.042969	-118.104912
29974.843085	-1626.375000	627.817383	44.527714
29974.843085	-1626.375000	626.590820	-11.999242
29974.843085	-1626.375000	625.365234	-45.120338
29974.843085	-1626.375000	624.137695	66.334999
29974.843085	-1626.375000	622.911133	28.938616
29974.843085	-1626.375000	621.683594	57.427982
29974.843085	-1626.375000	620.456055	56.148338
29974.843085	-1626.375000	619.228516	-8.869555
29974.843085	-1626.375000	618.000977	55.683384
29974.843085	-1626.375000	616.772461	73.483345
29974.843085	-1626.375000	615.543945	-8.512328
29974.843085	-1626.375000	614.314453	53.844219
29974.843085	-1626.375000	613.085938	31.283154
29974.843085	-1626.375000	611.856445	-23.102942
29974.843085	-1626.375000	610.626953	34.943115
29974.843085	-1626.375000	609.397461	95.074898
29974.843085	-1626.375000	608.166992	-5.967481
29974.843085	-1626.375000	606.936523	54.125675
29974.843085	-1626.375000	605.706055	46.364395
29974.843085	-1626.375000	604.474609	-75.823982
29974.843085	-1626.375000	603.244141	39.293297
29974.843085	-1626.375000	602.012695	-27.795551
29974.843085	-1626.375000	600.780273	13.126997
29974.843085	-1626.375000	599.548828	-5.255821
29974.843085	-1626.375000	598.316406	50.439922
29974.843085	-1626.375000	597.083984	-58.959881
29974.843085	-1626.375000	595.851563	70.752800
29974.843085	-1626.375000	594.618164	-72.470581
29974.843085	-1626.375000	593.384766	59.283314
29974.843085	-1626.375000	592.151367	57.765232
29974.843085	-1626.375000	590.917969	9.731308
29974.843085	-1626.375000	589.683594	-15.045238
29974.843085	-1626.375000	588.449219	21.456369
29974.843085	-1626.375000	587.214844	43.143879
29974.843085	-1626.375000	585.979492	41.578079
29974.843085	-1626.375000	584.745117	-78.250206
29974.843085	-1626.375000	583.509766	-136.813187
29974.843085	-1626.375000	582.273438	-127.817146
29974.843085	-1626.375000	581.038086	71.094505
29974.843085	-1626.375000	579.801758	-44.460388
29974.843085	-1626.375000	578.565430	-8.097699
29974.843085	-1626.375000	577.329102	36.675533
29974.843085	-1626.375000	576.091797	-68.286491
29974.843085	-1626.375000	574.854492	54.458244
29974.843085	-1626.375000	573.617188	35.930050
29974.843085	-1626.375000	572.378906	-35.280567
29974.843085	-1626.375000	571.141602	53.641354
29974.843085	-1626.375000	569.903320	117.239334
29974.843085	-1626.375000	568.664063	-21.359407
29974.843085	-1626.375000	567.425781	46.418686
29974.843085	-1626.375000	566.186523	65.744041
29974.843085	-1626.375000	564.947266	7.185935
29974.843085	-1626.375000	563.708008	43.324497
29974.843085	-1626.375000	562.467773	54.194035
29974.843085	-1626.375000	561.227539	29.296461
29974.843085	-1626.375000	559.987305	-25.037601
29974.843085	-1626.375000	558.747070	-3.677485
29974.843085	-1626.375000	557.505859	-18.067181
29974.843085	-1626.375000	556.264648	45.289398
29974.843085	-1626.375000	555.023438	9.867890
29974.843085	-1626.375000	553.781250	31.163252
29974.843085	-1626.375000	552.539063	-67.258583
29974.843085	-1626.375000	551.296875	-24.979111
29974.843085	-1626.375000	550.054688	115.930199
29974.843085	-1626.375000	548.811523	19.623693
29974.843085	-1626.375000	547.569336	15.670510
29974.843085	-1626.375000	546.325195	15.903454
29974.843085	-1626.375000	545.082031	-50.984539
29974.843085	-1626.375000	543.837891	70.861298
29974.843085	-1626.375000	542.593750	-33.763565
29974.843085	-1626.375000	541.349609	12.555230
29974.843085	-1626.375000	540.105469	0.171744
29974.843085	-1626.375000	538.860352	2.449012
29974.843085	-1626.375000	537.615234	-39.269615
29974.843085	-1626.375000	536.369141	-16.061785
29974.843085	-1626.375000	535.124023	0.847814
29974.843085	-1626.375000	533.877930	67.978386
29974.843085	-1626.375000	532.631836	40.895962
29974.843085	-1626.375000	531.384766	-7.107999
29974.843085	-1626.375000	530.138672	24.393473
29974.843085	-1626.375000	528.891602	-44.517479
29974.843085	-1626.375000	527.643555	-23.495377
29974.843085	-1626.375000	526.396484	74.861389
29974.843085	-1626.375000	525.148438	-60.925621
29974.843085	-1626.375000	523.900391	-6.503493
29974.843085	-1626.375000	522.652344	79.224983
29974.843085	-1626.375000	521.403320	8.250423
29974.843085	-1626.375000	520.154297	96.009995
29974.843085	-1626.375000	518.905273	-27.150324
29974.843085	-1626.375000	517.656250	-47.982708
29974.843085	-1626.375000	516.406250	77.272232
29974.843085	-1626.375000	515.156250	139.869781
29974.843085	-1626.375000	513.906250	118.989662
29974.843085	-1626.375000	512.655273	54.311390
29974.843085	-1626.375000	511.404297	70.974304
29974.843085	-1626.375000	510.153320	81.368065
29974.843085	-1626.375000	508.902344	85.496330
29974.843085	-1626.375000	507.650391	79.194611
29974.843085	-1626.375000	506.398438	-114.616997
29974.843085	-1626.375000	505.146484	-47.986584
29974.843085	-1626.375000	503.893555	-45.951004
29974.843085	-1626.375000	502.641602	-18.938797
29974.843085	-1626.375000	501.388672	5.970971
29974.843085	-1626.375000	500.134766	22.535833
29974.843085	-1626.375000	498.881836	-131.530167
29974.843085	-1626.375000	497.627930	-92.076393
29974.843085	-1626.375000	496.374023	15.985481
29974.843085	-1626.375000	495.119141	-94.340446
29974.843085	-1626.375000	493.865234	-23.761484
29974.843085	-1626.375000	492.610352	32.228153
29974.843085	-1626.375000	491.355469	42.469238
29974.843085	-1626.375000	490.099609	-51.182365
29974.843085	-1626.375000	488.843750	21.367283
29974.843085	-1626.375000	487.587891	-24.493216
29974.843085	-1626.375000	486.332031	-8.056180
29974.843085	-1626.375000	485.075195	10.439478
29974.843085	-1626.375000	483.818359	35.143852
29974.843085	-1626.375000	482.561523	-10.717082
29974.843085	-1626.375000	481.304688	-6.781132
29974.843085	-1626.375000	480.046875	-0.783600
29974.843085	-1626.375000	478.789063	94.363838
29974.843085	-1626.375000	477.531250	38.125156
29974.843085	-1626.375000	476.272461	25.425169
29974.843085	-1626.375000	475.013672	-8.001078
29974.843085	-1626.375000	473.754883	99.455635
29974.843085	-1626.375000	472.496094	68.078583
29974.843085	-1626.375000	471.236328	-87.547813
29974.843085	-1626.375000	469.976563	38.457722
29974.843085	-1626.375000	468.716797	-40.528294
29974.843085	-1626.375000	467.456055	12.956429
29974.843085	-1626.375000	466.196289	53.993763
29974.843085	-1626.375000	464.935547	39.147865
29974.843085	-1626.375000	463.673828	28.431419
29974.843085	-1626.375000	462.413086	94.214890
29974.843085	-1626.375000	461.151367	122.745461
29974.843085	-1626.375000	459.889648	43.775478
29974.843085	-1626.375000	458.626953	76.410408
29974.843085	-1626.375000	457.364258	55.303726
29974.843085	-1626.375000	456.101563	48.650917
29974.843085	-1626.375000	454.838867	44.052505
29974.843085	-1626.375000	453.575195	132.347504
29974.843085	-1626.375000	452.312500	59.587337
29974.843085	-1626.375000	451.047852	108.599472
29974.843085	-1626.375000	449.784180	81.236137
29974.843085	-1626.375000	448.519531	82.746628
29974.843085	-1626.375000	447.254883	73.928917
29974.843085	-1626.375000	445.990234	141.389526
29974.843085	-1626.375000	444.725586	223.234711
29974.843085	-1626.375000	443.459961	222.584061
29974.843085	-1626.375000	442.194336	182.764572
29974.843085	-1626.375000	440.927734	219.167953
29974.843085	-1626.375000	439.662109	144.314499
29974.843085	-1626.375000	438.395508	221.856979
29974.843085	-1626.375000	437.127930	169.639771
29974.843085	-1626.375000	435.861328	166.826996
29974.843085	-1626.375000	434.593750	110.486809
29974.843085	-1626.375000	433.326172	113.816071
29974.843085	-1626.375000	432.058594	145.919876
29974.843085	-1626.375000	430.790039	91.608894
29974.843085	-1626.375000	429.521484	152.441284
29974.843085	-1626.375000	428.252930	141.274063
29974.843085	-1626.375000	426.984375	181.467865
29974.843085	-1626.375000	425.714844	268.876892
29974.843085	-1626.375000	424.445313	187.765121
29974.843085	-1626.375000	423.174805	104.605309
29974.843085	-1626.375000	421.905273	191.892746
29974.843085	-1626.375000	420.634766	199.044128
29974.843085	-1626.375000	419.364258	165.111221
29974.843085	-1626.375000	418.092773	106.535141
29974.843085	-1626.375000	416.822266	218.244614
29974.843085	-1626.375000	415.550781	132.952652
29974.843085	-1626.375000	414.278320	226.081375
29974.843085	-1626.375000	413.006836	132.555923
29974.843085	-1626.375000	411.734375	94.381096
29974.843085	-1626.375000	410.461914	93.076912
29974.843085	-1626.375000	409.188477	120.420059
29974.843085	-1626.375000	407.916016	26.849680
29974.843085	-1626.375000	406.642578	56.165657
29974.843085	-1626.375000	405.368164	79.283058
29974.843085	-1626.375000	404.094727	34.792000
29974.843085	-1626.375000	402.820313	41.444973
29974.843085	-1626.375000	401.545898	13.262989
29974.843085	-1626.375000	400.270508	77.110916
29974.843085	-1626.375000	398.996094	34.523094
29974.843085	-1626.375000	397.720703	57.343666
29974.843085	-1626.375000	396.444336	-9.858482
29974.843085	-1626.375000	395.168945	94.626396
29974.843085	-1626.375000	393.892578	49.822548
29974.843085	-1626.375000	392.616211	86.713875
29974.843085	-1626.375000	391.339844	64.292816
29974.843085	-1626.375000	390.062500	-25.575119
29974.843085	-1626.375000	388.785156	37.680408
29974.843085	-1626.375000	387.507813	45.728729
29974.843085	-1626.375000	386.229492	49.627239
29974.843085	-1626.375000	384.951172	120.799568
29974.843085	-1626.375000	383.672852	-10.096788
29974.843085	-1626.375000	382.394531	28.290688
29974.843085	-1626.375000	381.115234	-23.136971
29974.843085	-1626.375000	379.835938	-41.991993
29974.843085	-1626.375000	378.556641	65.466690
29974.843085	-1626.375000	377.277344	-22.835075
29974.843085	-1626.375000	375.997070	80.343681
29974.843085	-1626.375000	374.716797	-18.266220
29974.843085	-1626.375000	373.435547	25.643618
29974.843085	-1626.375000	372.155273	-75.110809
29974.843085	-1626.375000	370.874023	23.588177
29974.843085	-1626.375000	369.591797	-16.243473
29974.843085	-1626.375000	368.310547	-43.934788
29974.843085	-1626.375000	367.028320	15.768335
29974.843085	-1626.375000	365.746094	16.367325
29974.843085	-1626.375000	364.463867	29.070511
29974.843085	-1626.375000	363.180664	11.169724
29974.843085	-1626.375000	361.897461	25.696230
29974.843085	-1626.375000	360.614258	-39.141312
29974.843085	-1626.375000	359.330078	-28.888622
29974.843085	-1626.375000	358.045898	54.375271
29974.843085	-1626.375000	356.761719	84.689186
29974.843085	-1626.375000	355.477539	33.659271
29974.843085	-1626.375000	354.192383	-102.728050
29974.843085	-1626.375000	352.907227	12.480035
29974.843085	-1626.375000	351.622070	149.833344
29974.843085	-1626.375000	350.336914	-31.491901
29974.843085	-1626.375000	349.050781	18.337524
29974.843085	-1626.375000	347.764648	17.318739
29974.843085	-1626.375000	346.477539	-105.478546
29974.843085	-1626.375000	345.191406	-3.378217
29974.843085	-1626.375000	343.904297	-14.949345
29974.843085	-1626.375000	342.616211	9.799257
29974.843085	-1626.375000	341.329102	-30.424841
29974.843085	-1626.375000	340.041016	-30.289478
29974.843085	-1626.375000	338.752930	-68.780434
29974.843085	-1626.375000	337.463867	54.513268
29974.843085	-1626.375000	336.175781	1.527142
29974.843085	-1626.375000	334.886719	23.251053
29974.843085	-1626.375000	333.596680	-26.014297
29974.843085	-1626.375000	332.307617	-0.600199
29974.843085	-1626.375000	331.017578	-36.044392
29974.843085	-1626.375000	329.727539	-67.616257
29974.843085	-1626.375000	328.436523	50.189922
29974.843085	-1626.375000	327.146484	-12.081607
29974.843085	-1626.375000	325.855469	-32.107464
29974.843085	-1626.375000	324.563477	111.266197
29974.843085	-1626.375000	323.272461	26.191208
29974.843085	-1626.375000	321.980469	51.972206
29974.843085	-1626.375000	320.688477	0.822669
29974.843085	-1626.375000	319.395508	-26.319038
29974.843085	-1626.375000	318.103516	-17.352644
29974.843085	-1626.375000	316.810547	-89.316467
29974.843085	-1626.375000	315.516602	3.873338
29974.843085	-1626.375000	314.223633	-18.139238
29974.843085	-1626.375000	312.929688	-28.304482
29974.843085	-1626.375000	311.635742	-10.504576
29974.843085	-1626.375000	310.340820	-13.130946
29974.843085	-1626.375000	309.045898	60.528637
29974.843085	-1626.375000	307.750977	-3.070708
29974.843085	-1626.375000	306.456055	86.114433
29974.843085	-1626.375000	305.160156	58.203621
29974.843085	-1626.375000	303.865234	46.127621
29974.843085	-1626.375000	302.568359	108.195259
29974.843085	-1626.375000	301.272461	190.062469
29974.843085	-1626.375000	299.975586	138.821991
29974.843085	-1626.375000	298.678711	63.157082
