#X		#Y		#Wave		#Intensity
29646.340426	-1125.405000	1999.980469	199.662048
29646.340426	-1125.405000	1999.016602	32.720966
29646.340426	-1125.405000	1998.052734	60.246223
29646.340426	-1125.405000	1997.087891	-8.862608
29646.340426	-1125.405000	1996.123047	-48.186604
29646.340426	-1125.405000	1995.158203	-5.720860
29646.340426	-1125.405000	1994.193359	-32.593288
29646.340426	-1125.405000	1993.228516	133.721985
29646.340426	-1125.405000	1992.262695	205.918106
29646.340426	-1125.405000	1991.297852	0.875882
29646.340426	-1125.405000	1990.332031	40.949860
29646.340426	-1125.405000	1989.366211	-15.467691
29646.340426	-1125.405000	1988.399414	-190.592255
29646.340426	-1125.405000	1987.433594	-29.221024
29646.340426	-1125.405000	1986.466797	-159.708725
29646.340426	-1125.405000	1985.500977	-5.767248
29646.340426	-1125.405000	1984.534180	158.029541
29646.340426	-1125.405000	1983.567383	-29.189034
29646.340426	-1125.405000	1982.599609	142.015472
29646.340426	-1125.405000	1981.632813	85.873810
29646.340426	-1125.405000	1980.665039	17.425056
29646.340426	-1125.405000	1979.697266	-90.490158
29646.340426	-1125.405000	1978.729492	-89.684975
29646.340426	-1125.405000	1977.761719	-51.820175
29646.340426	-1125.405000	1976.792969	104.541801
29646.340426	-1125.405000	1975.825195	-22.950230
29646.340426	-1125.405000	1974.856445	88.983345
29646.340426	-1125.405000	1973.887695	-33.475765
29646.340426	-1125.405000	1972.918945	-17.731071
29646.340426	-1125.405000	1971.949219	25.158514
29646.340426	-1125.405000	1970.980469	33.538757
29646.340426	-1125.405000	1970.010742	17.285692
29646.340426	-1125.405000	1969.041016	-75.346878
29646.340426	-1125.405000	1968.071289	-10.200970
29646.340426	-1125.405000	1967.101563	45.089386
29646.340426	-1125.405000	1966.130859	38.794003
29646.340426	-1125.405000	1965.161133	57.156731
29646.340426	-1125.405000	1964.190430	55.833172
29646.340426	-1125.405000	1963.219727	-157.205292
29646.340426	-1125.405000	1962.249023	28.641174
29646.340426	-1125.405000	1961.277344	150.448135
29646.340426	-1125.405000	1960.306641	36.007011
29646.340426	-1125.405000	1959.334961	52.021473
29646.340426	-1125.405000	1958.363281	23.775251
29646.340426	-1125.405000	1957.391602	-9.357924
29646.340426	-1125.405000	1956.419922	82.945862
29646.340426	-1125.405000	1955.447266	108.856522
29646.340426	-1125.405000	1954.474609	151.983841
29646.340426	-1125.405000	1953.501953	77.155144
29646.340426	-1125.405000	1952.529297	-68.879890
29646.340426	-1125.405000	1951.556641	-57.619144
29646.340426	-1125.405000	1950.583984	98.568398
29646.340426	-1125.405000	1949.610352	-0.675099
29646.340426	-1125.405000	1948.636719	37.629150
29646.340426	-1125.405000	1947.663086	105.394867
29646.340426	-1125.405000	1946.689453	160.881943
29646.340426	-1125.405000	1945.715820	54.412315
29646.340426	-1125.405000	1944.741211	36.319618
29646.340426	-1125.405000	1943.767578	18.252888
29646.340426	-1125.405000	1942.792969	63.972076
29646.340426	-1125.405000	1941.818359	-98.731705
29646.340426	-1125.405000	1940.842773	116.180824
29646.340426	-1125.405000	1939.868164	-4.771344
29646.340426	-1125.405000	1938.892578	63.035145
29646.340426	-1125.405000	1937.916992	47.525116
29646.340426	-1125.405000	1936.941406	0.188419
29646.340426	-1125.405000	1935.965820	114.536392
29646.340426	-1125.405000	1934.990234	-62.554893
29646.340426	-1125.405000	1934.013672	161.964188
29646.340426	-1125.405000	1933.037109	166.100388
29646.340426	-1125.405000	1932.060547	-116.105186
29646.340426	-1125.405000	1931.083984	-116.787682
29646.340426	-1125.405000	1930.107422	-90.546150
29646.340426	-1125.405000	1929.129883	-78.981300
29646.340426	-1125.405000	1928.153320	30.417667
29646.340426	-1125.405000	1927.175781	29.751471
29646.340426	-1125.405000	1926.198242	148.887604
29646.340426	-1125.405000	1925.219727	33.337685
29646.340426	-1125.405000	1924.242188	-89.489632
29646.340426	-1125.405000	1923.263672	-75.435440
29646.340426	-1125.405000	1922.285156	-127.336395
29646.340426	-1125.405000	1921.306641	-186.536667
29646.340426	-1125.405000	1920.328125	-43.022018
29646.340426	-1125.405000	1919.349609	24.758896
29646.340426	-1125.405000	1918.370117	-2.681764
29646.340426	-1125.405000	1917.391602	116.333069
29646.340426	-1125.405000	1916.412109	-18.469215
29646.340426	-1125.405000	1915.431641	-16.593409
29646.340426	-1125.405000	1914.452148	165.794250
29646.340426	-1125.405000	1913.472656	106.677109
29646.340426	-1125.405000	1912.492188	1.256848
29646.340426	-1125.405000	1911.511719	-1.729088
29646.340426	-1125.405000	1910.531250	-51.020863
29646.340426	-1125.405000	1909.550781	80.045166
29646.340426	-1125.405000	1908.569336	-149.542221
29646.340426	-1125.405000	1907.588867	-169.537231
29646.340426	-1125.405000	1906.607422	-1.982395
29646.340426	-1125.405000	1905.625977	102.197617
29646.340426	-1125.405000	1904.644531	74.865662
29646.340426	-1125.405000	1903.662109	-108.248749
29646.340426	-1125.405000	1902.680664	10.497627
29646.340426	-1125.405000	1901.698242	17.264915
29646.340426	-1125.405000	1900.715820	36.192883
29646.340426	-1125.405000	1899.733398	35.654160
29646.340426	-1125.405000	1898.750000	117.799652
29646.340426	-1125.405000	1897.767578	75.906868
29646.340426	-1125.405000	1896.784180	123.975304
29646.340426	-1125.405000	1895.800781	33.478218
29646.340426	-1125.405000	1894.817383	86.391769
29646.340426	-1125.405000	1893.833984	166.008514
29646.340426	-1125.405000	1892.850586	-9.479588
29646.340426	-1125.405000	1891.866211	16.682875
29646.340426	-1125.405000	1890.881836	-61.588444
29646.340426	-1125.405000	1889.897461	-45.147465
29646.340426	-1125.405000	1888.913086	146.057159
29646.340426	-1125.405000	1887.927734	70.214912
29646.340426	-1125.405000	1886.943359	-49.280918
29646.340426	-1125.405000	1885.958008	-83.827866
29646.340426	-1125.405000	1884.972656	-1.938935
29646.340426	-1125.405000	1883.987305	99.312721
29646.340426	-1125.405000	1883.001953	-204.407272
29646.340426	-1125.405000	1882.015625	-28.021311
29646.340426	-1125.405000	1881.029297	-81.970581
29646.340426	-1125.405000	1880.042969	-5.048442
29646.340426	-1125.405000	1879.056641	243.860931
29646.340426	-1125.405000	1878.070313	-6.354669
29646.340426	-1125.405000	1877.083984	210.955765
29646.340426	-1125.405000	1876.096680	244.136383
29646.340426	-1125.405000	1875.109375	90.871078
29646.340426	-1125.405000	1874.122070	22.373329
29646.340426	-1125.405000	1873.134766	19.234070
29646.340426	-1125.405000	1872.146484	-25.052641
29646.340426	-1125.405000	1871.159180	78.241264
29646.340426	-1125.405000	1870.170898	200.832275
29646.340426	-1125.405000	1869.182617	-92.592728
29646.340426	-1125.405000	1868.194336	10.614317
29646.340426	-1125.405000	1867.205078	58.165684
29646.340426	-1125.405000	1866.216797	96.019066
29646.340426	-1125.405000	1865.227539	97.593498
29646.340426	-1125.405000	1864.238281	232.037323
29646.340426	-1125.405000	1863.249023	28.226191
29646.340426	-1125.405000	1862.259766	53.918549
29646.340426	-1125.405000	1861.269531	103.729919
29646.340426	-1125.405000	1860.279297	66.592911
29646.340426	-1125.405000	1859.290039	29.454844
29646.340426	-1125.405000	1858.298828	144.351837
29646.340426	-1125.405000	1857.308594	-47.249447
29646.340426	-1125.405000	1856.318359	69.997932
29646.340426	-1125.405000	1855.327148	44.873493
29646.340426	-1125.405000	1854.335938	36.620499
29646.340426	-1125.405000	1853.344727	-27.103642
29646.340426	-1125.405000	1852.353516	63.459068
29646.340426	-1125.405000	1851.362305	91.302956
29646.340426	-1125.405000	1850.370117	37.184025
29646.340426	-1125.405000	1849.377930	74.618111
29646.340426	-1125.405000	1848.385742	-49.374088
29646.340426	-1125.405000	1847.393555	180.692017
29646.340426	-1125.405000	1846.401367	148.186234
29646.340426	-1125.405000	1845.408203	-72.113991
29646.340426	-1125.405000	1844.415039	136.097794
29646.340426	-1125.405000	1843.421875	-16.775843
29646.340426	-1125.405000	1842.428711	135.962585
29646.340426	-1125.405000	1841.435547	-9.681341
29646.340426	-1125.405000	1840.441406	311.316315
29646.340426	-1125.405000	1839.448242	76.673027
29646.340426	-1125.405000	1838.454102	-109.821426
29646.340426	-1125.405000	1837.459961	-15.018118
29646.340426	-1125.405000	1836.464844	149.422699
29646.340426	-1125.405000	1835.470703	66.275864
29646.340426	-1125.405000	1834.475586	148.906158
29646.340426	-1125.405000	1833.480469	-61.568642
29646.340426	-1125.405000	1832.485352	-130.294739
29646.340426	-1125.405000	1831.490234	-81.364174
29646.340426	-1125.405000	1830.495117	221.996292
29646.340426	-1125.405000	1829.499023	-7.637889
29646.340426	-1125.405000	1828.502930	2.767220
29646.340426	-1125.405000	1827.506836	164.300278
29646.340426	-1125.405000	1826.510742	220.195953
29646.340426	-1125.405000	1825.513672	98.557945
29646.340426	-1125.405000	1824.517578	99.238785
29646.340426	-1125.405000	1823.520508	243.741470
29646.340426	-1125.405000	1822.523438	213.176773
29646.340426	-1125.405000	1821.526367	57.972233
29646.340426	-1125.405000	1820.529297	72.927002
29646.340426	-1125.405000	1819.531250	6.391240
29646.340426	-1125.405000	1818.533203	-40.984623
29646.340426	-1125.405000	1817.535156	28.975527
29646.340426	-1125.405000	1816.537109	118.035683
29646.340426	-1125.405000	1815.539063	257.306549
29646.340426	-1125.405000	1814.540039	13.540508
29646.340426	-1125.405000	1813.541992	37.857311
29646.340426	-1125.405000	1812.542969	62.133461
29646.340426	-1125.405000	1811.543945	-30.840748
29646.340426	-1125.405000	1810.543945	-25.754902
29646.340426	-1125.405000	1809.544922	192.119858
29646.340426	-1125.405000	1808.544922	56.049492
29646.340426	-1125.405000	1807.544922	-113.462692
29646.340426	-1125.405000	1806.544922	254.774109
29646.340426	-1125.405000	1805.544922	133.016632
29646.340426	-1125.405000	1804.544922	183.279434
29646.340426	-1125.405000	1803.543945	109.288757
29646.340426	-1125.405000	1802.542969	-2.912358
29646.340426	-1125.405000	1801.541992	66.354706
29646.340426	-1125.405000	1800.541016	-7.662090
29646.340426	-1125.405000	1799.539063	-53.044178
29646.340426	-1125.405000	1798.538086	159.276337
29646.340426	-1125.405000	1797.536133	240.265030
29646.340426	-1125.405000	1796.534180	34.953434
29646.340426	-1125.405000	1795.532227	27.633453
29646.340426	-1125.405000	1794.529297	25.050692
29646.340426	-1125.405000	1793.527344	165.479889
29646.340426	-1125.405000	1792.524414	248.616852
29646.340426	-1125.405000	1791.521484	167.260315
29646.340426	-1125.405000	1790.518555	-42.758190
29646.340426	-1125.405000	1789.514648	37.892735
29646.340426	-1125.405000	1788.511719	56.560894
29646.340426	-1125.405000	1787.507813	13.274352
29646.340426	-1125.405000	1786.503906	222.338379
29646.340426	-1125.405000	1785.500000	107.563972
29646.340426	-1125.405000	1784.496094	161.774887
29646.340426	-1125.405000	1783.491211	8.917596
29646.340426	-1125.405000	1782.486328	-29.720558
29646.340426	-1125.405000	1781.481445	-58.861744
29646.340426	-1125.405000	1780.476563	-152.231537
29646.340426	-1125.405000	1779.471680	30.210123
29646.340426	-1125.405000	1778.465820	184.021423
29646.340426	-1125.405000	1777.460938	-33.026779
29646.340426	-1125.405000	1776.455078	27.999733
29646.340426	-1125.405000	1775.449219	174.502289
29646.340426	-1125.405000	1774.442383	-54.399479
29646.340426	-1125.405000	1773.436523	61.125572
29646.340426	-1125.405000	1772.429688	155.201889
29646.340426	-1125.405000	1771.422852	-99.773933
29646.340426	-1125.405000	1770.416016	129.528702
29646.340426	-1125.405000	1769.409180	26.473146
29646.340426	-1125.405000	1768.402344	-52.847271
29646.340426	-1125.405000	1767.394531	14.906632
29646.340426	-1125.405000	1766.386719	61.257088
29646.340426	-1125.405000	1765.378906	36.418526
29646.340426	-1125.405000	1764.371094	-61.938564
29646.340426	-1125.405000	1763.362305	-89.180649
29646.340426	-1125.405000	1762.354492	-97.478844
29646.340426	-1125.405000	1761.345703	-67.896278
29646.340426	-1125.405000	1760.336914	84.836533
29646.340426	-1125.405000	1759.328125	119.049286
29646.340426	-1125.405000	1758.318359	112.954987
29646.340426	-1125.405000	1757.308594	9.755349
29646.340426	-1125.405000	1756.299805	249.825058
29646.340426	-1125.405000	1755.290039	56.638752
29646.340426	-1125.405000	1754.279297	116.693558
29646.340426	-1125.405000	1753.269531	98.624557
29646.340426	-1125.405000	1752.258789	-56.669430
29646.340426	-1125.405000	1751.249023	-1.441885
29646.340426	-1125.405000	1750.238281	77.375351
29646.340426	-1125.405000	1749.226563	73.384888
29646.340426	-1125.405000	1748.215820	-34.630939
29646.340426	-1125.405000	1747.204102	58.234749
29646.340426	-1125.405000	1746.193359	-66.335205
29646.340426	-1125.405000	1745.181641	50.066463
29646.340426	-1125.405000	1744.168945	-128.844818
29646.340426	-1125.405000	1743.157227	-99.906052
29646.340426	-1125.405000	1742.144531	-49.763340
29646.340426	-1125.405000	1741.132813	-110.607590
29646.340426	-1125.405000	1740.120117	-44.017605
29646.340426	-1125.405000	1739.106445	10.716204
29646.340426	-1125.405000	1738.093750	34.735607
29646.340426	-1125.405000	1737.080078	-96.961182
29646.340426	-1125.405000	1736.067383	-162.599472
29646.340426	-1125.405000	1735.053711	78.271980
29646.340426	-1125.405000	1734.040039	33.783318
29646.340426	-1125.405000	1733.025391	-109.712372
29646.340426	-1125.405000	1732.011719	199.267807
29646.340426	-1125.405000	1730.997070	81.658348
29646.340426	-1125.405000	1729.982422	-28.865601
29646.340426	-1125.405000	1728.967773	-0.420992
29646.340426	-1125.405000	1727.952148	-49.722702
29646.340426	-1125.405000	1726.937500	-51.941883
29646.340426	-1125.405000	1725.921875	77.619408
29646.340426	-1125.405000	1724.906250	-136.477798
29646.340426	-1125.405000	1723.890625	-82.291832
29646.340426	-1125.405000	1722.875000	2.430465
29646.340426	-1125.405000	1721.858398	-25.804211
29646.340426	-1125.405000	1720.841797	18.844585
29646.340426	-1125.405000	1719.825195	136.335114
29646.340426	-1125.405000	1718.808594	-101.186852
29646.340426	-1125.405000	1717.791992	-49.570660
29646.340426	-1125.405000	1716.774414	20.794781
29646.340426	-1125.405000	1715.756836	41.775433
29646.340426	-1125.405000	1714.739258	-127.529800
29646.340426	-1125.405000	1713.721680	27.282673
29646.340426	-1125.405000	1712.704102	137.402588
29646.340426	-1125.405000	1711.685547	36.180218
29646.340426	-1125.405000	1710.667969	-13.384942
29646.340426	-1125.405000	1709.649414	120.074356
29646.340426	-1125.405000	1708.630859	72.809975
29646.340426	-1125.405000	1707.611328	-35.450912
29646.340426	-1125.405000	1706.592773	-19.388361
29646.340426	-1125.405000	1705.573242	55.260273
29646.340426	-1125.405000	1704.553711	162.681503
29646.340426	-1125.405000	1703.534180	37.997684
29646.340426	-1125.405000	1702.513672	91.436913
29646.340426	-1125.405000	1701.494141	-101.169930
29646.340426	-1125.405000	1700.473633	-54.790840
29646.340426	-1125.405000	1699.453125	87.577202
29646.340426	-1125.405000	1698.432617	-11.315485
29646.340426	-1125.405000	1697.412109	34.965008
29646.340426	-1125.405000	1696.390625	-108.395302
29646.340426	-1125.405000	1695.369141	38.475803
29646.340426	-1125.405000	1694.347656	126.778854
29646.340426	-1125.405000	1693.326172	-297.292938
29646.340426	-1125.405000	1692.304688	-10.185080
29646.340426	-1125.405000	1691.282227	-57.611473
29646.340426	-1125.405000	1690.260742	-58.268742
29646.340426	-1125.405000	1689.238281	179.485199
29646.340426	-1125.405000	1688.214844	66.557884
29646.340426	-1125.405000	1687.192383	203.688828
29646.340426	-1125.405000	1686.168945	76.753426
29646.340426	-1125.405000	1685.146484	40.953175
29646.340426	-1125.405000	1684.123047	187.303085
29646.340426	-1125.405000	1683.099609	179.480255
29646.340426	-1125.405000	1682.075195	-85.144852
29646.340426	-1125.405000	1681.051758	58.770905
29646.340426	-1125.405000	1680.027344	209.613586
29646.340426	-1125.405000	1679.002930	52.418736
29646.340426	-1125.405000	1677.978516	65.555847
29646.340426	-1125.405000	1676.953125	13.367994
29646.340426	-1125.405000	1675.928711	98.767776
29646.340426	-1125.405000	1674.903320	65.223206
29646.340426	-1125.405000	1673.877930	297.395844
29646.340426	-1125.405000	1672.852539	147.286057
29646.340426	-1125.405000	1671.826172	146.333588
29646.340426	-1125.405000	1670.800781	103.448166
29646.340426	-1125.405000	1669.774414	130.434662
29646.340426	-1125.405000	1668.748047	180.689056
29646.340426	-1125.405000	1667.721680	116.836731
29646.340426	-1125.405000	1666.694336	201.966812
29646.340426	-1125.405000	1665.667969	259.136566
29646.340426	-1125.405000	1664.640625	153.394943
29646.340426	-1125.405000	1663.613281	222.164337
29646.340426	-1125.405000	1662.585938	125.761528
29646.340426	-1125.405000	1661.557617	-12.473369
29646.340426	-1125.405000	1660.530273	19.069670
29646.340426	-1125.405000	1659.501953	162.168106
29646.340426	-1125.405000	1658.473633	107.657417
29646.340426	-1125.405000	1657.444336	36.892357
29646.340426	-1125.405000	1656.416016	140.397034
29646.340426	-1125.405000	1655.386719	260.111023
29646.340426	-1125.405000	1654.358398	140.584793
29646.340426	-1125.405000	1653.328125	151.113235
29646.340426	-1125.405000	1652.298828	156.998947
29646.340426	-1125.405000	1651.269531	109.498032
29646.340426	-1125.405000	1650.239258	229.084381
29646.340426	-1125.405000	1649.208984	214.059326
29646.340426	-1125.405000	1648.178711	257.030670
29646.340426	-1125.405000	1647.148438	279.112122
29646.340426	-1125.405000	1646.117188	182.924072
29646.340426	-1125.405000	1645.086914	65.916374
29646.340426	-1125.405000	1644.055664	201.590164
29646.340426	-1125.405000	1643.024414	239.882507
29646.340426	-1125.405000	1641.992188	169.261459
29646.340426	-1125.405000	1640.960938	304.840942
29646.340426	-1125.405000	1639.928711	285.191437
29646.340426	-1125.405000	1638.896484	216.924820
29646.340426	-1125.405000	1637.864258	241.293427
29646.340426	-1125.405000	1636.832031	244.824036
29646.340426	-1125.405000	1635.798828	139.583374
29646.340426	-1125.405000	1634.766602	258.828857
29646.340426	-1125.405000	1633.733398	343.327362
29646.340426	-1125.405000	1632.699219	228.885910
29646.340426	-1125.405000	1631.666016	380.428894
29646.340426	-1125.405000	1630.632813	483.367767
29646.340426	-1125.405000	1629.598633	181.750763
29646.340426	-1125.405000	1628.564453	404.871307
29646.340426	-1125.405000	1627.530273	373.743500
29646.340426	-1125.405000	1626.495117	245.603073
29646.340426	-1125.405000	1625.460938	207.605713
29646.340426	-1125.405000	1624.425781	245.831924
29646.340426	-1125.405000	1623.390625	198.624893
29646.340426	-1125.405000	1622.355469	398.443024
29646.340426	-1125.405000	1621.319336	448.172516
29646.340426	-1125.405000	1620.284180	334.066620
29646.340426	-1125.405000	1619.248047	349.203979
29646.340426	-1125.405000	1618.211914	468.142548
29646.340426	-1125.405000	1617.174805	312.611359
29646.340426	-1125.405000	1616.138672	698.994446
29646.340426	-1125.405000	1615.101563	467.429077
29646.340426	-1125.405000	1614.065430	413.440857
29646.340426	-1125.405000	1613.027344	456.259125
29646.340426	-1125.405000	1611.990234	370.060577
29646.340426	-1125.405000	1610.953125	606.392700
29646.340426	-1125.405000	1609.915039	200.104645
29646.340426	-1125.405000	1608.876953	461.728943
29646.340426	-1125.405000	1607.838867	447.014954
29646.340426	-1125.405000	1606.800781	634.867371
29646.340426	-1125.405000	1605.761719	675.379700
29646.340426	-1125.405000	1604.723633	708.996094
29646.340426	-1125.405000	1603.684570	620.694092
29646.340426	-1125.405000	1602.644531	592.234863
29646.340426	-1125.405000	1601.605469	715.571289
29646.340426	-1125.405000	1600.566406	517.022461
29646.340426	-1125.405000	1599.526367	757.580322
29646.340426	-1125.405000	1598.486328	487.892456
29646.340426	-1125.405000	1597.446289	528.507019
29646.340426	-1125.405000	1596.405273	681.681702
29646.340426	-1125.405000	1595.365234	644.194275
29646.340426	-1125.405000	1594.324219	638.884094
29646.340426	-1125.405000	1593.283203	785.121033
29646.340426	-1125.405000	1592.242188	467.656586
29646.340426	-1125.405000	1591.200195	565.714294
29646.340426	-1125.405000	1590.159180	666.055115
29646.340426	-1125.405000	1589.117188	541.559509
29646.340426	-1125.405000	1588.075195	596.033936
29646.340426	-1125.405000	1587.032227	485.400360
29646.340426	-1125.405000	1585.990234	801.276917
29646.340426	-1125.405000	1584.947266	548.575562
29646.340426	-1125.405000	1583.904297	671.849670
29646.340426	-1125.405000	1582.861328	616.376038
29646.340426	-1125.405000	1581.818359	675.493774
29646.340426	-1125.405000	1580.775391	503.279480
29646.340426	-1125.405000	1579.731445	736.481445
29646.340426	-1125.405000	1578.687500	598.713501
29646.340426	-1125.405000	1577.643555	575.479919
29646.340426	-1125.405000	1576.598633	511.082733
29646.340426	-1125.405000	1575.554688	554.288086
29646.340426	-1125.405000	1574.509766	583.772949
29646.340426	-1125.405000	1573.464844	713.914734
29646.340426	-1125.405000	1572.419922	528.450073
29646.340426	-1125.405000	1571.374023	423.105042
29646.340426	-1125.405000	1570.329102	605.866150
29646.340426	-1125.405000	1569.283203	516.604980
29646.340426	-1125.405000	1568.237305	523.381470
29646.340426	-1125.405000	1567.191406	550.747620
29646.340426	-1125.405000	1566.144531	475.341705
29646.340426	-1125.405000	1565.098633	438.823822
29646.340426	-1125.405000	1564.051758	463.995544
29646.340426	-1125.405000	1563.004883	425.270081
29646.340426	-1125.405000	1561.957031	420.822937
29646.340426	-1125.405000	1560.910156	436.951538
29646.340426	-1125.405000	1559.862305	450.821106
29646.340426	-1125.405000	1558.814453	391.726440
29646.340426	-1125.405000	1557.766602	592.672791
29646.340426	-1125.405000	1556.718750	278.265900
29646.340426	-1125.405000	1555.669922	301.405121
29646.340426	-1125.405000	1554.621094	253.913513
29646.340426	-1125.405000	1553.573242	188.249664
29646.340426	-1125.405000	1552.523438	227.442276
29646.340426	-1125.405000	1551.474609	305.382202
29646.340426	-1125.405000	1550.424805	276.284088
29646.340426	-1125.405000	1549.375000	285.942444
29646.340426	-1125.405000	1548.325195	165.871216
29646.340426	-1125.405000	1547.275391	321.290466
29646.340426	-1125.405000	1546.225586	244.570572
29646.340426	-1125.405000	1545.174805	277.123932
29646.340426	-1125.405000	1544.124023	296.053406
29646.340426	-1125.405000	1543.073242	433.277313
29646.340426	-1125.405000	1542.022461	411.316406
29646.340426	-1125.405000	1540.970703	123.410332
29646.340426	-1125.405000	1539.919922	267.522064
29646.340426	-1125.405000	1538.868164	227.539841
29646.340426	-1125.405000	1537.815430	355.741394
29646.340426	-1125.405000	1536.763672	354.453705
29646.340426	-1125.405000	1535.710938	394.084747
29646.340426	-1125.405000	1534.659180	554.092224
29646.340426	-1125.405000	1533.606445	464.344208
29646.340426	-1125.405000	1532.552734	567.603821
29646.340426	-1125.405000	1531.500000	546.052063
29646.340426	-1125.405000	1530.446289	660.682373
29646.340426	-1125.405000	1529.393555	480.410858
29646.340426	-1125.405000	1528.338867	654.058899
29646.340426	-1125.405000	1527.285156	641.742126
29646.340426	-1125.405000	1526.231445	411.828583
29646.340426	-1125.405000	1525.176758	397.379791
29646.340426	-1125.405000	1524.122070	240.207779
29646.340426	-1125.405000	1523.067383	225.886032
29646.340426	-1125.405000	1522.012695	186.695068
29646.340426	-1125.405000	1520.957031	172.473862
29646.340426	-1125.405000	1519.901367	49.609528
29646.340426	-1125.405000	1518.845703	21.926483
29646.340426	-1125.405000	1517.790039	46.360485
29646.340426	-1125.405000	1516.734375	64.040642
29646.340426	-1125.405000	1515.677734	258.242676
29646.340426	-1125.405000	1514.621094	219.407196
29646.340426	-1125.405000	1513.564453	58.497246
29646.340426	-1125.405000	1512.507813	110.260101
29646.340426	-1125.405000	1511.450195	87.437477
29646.340426	-1125.405000	1510.393555	12.683258
29646.340426	-1125.405000	1509.335938	-46.176495
29646.340426	-1125.405000	1508.278320	8.008467
29646.340426	-1125.405000	1507.219727	-98.177200
29646.340426	-1125.405000	1506.162109	1.263759
29646.340426	-1125.405000	1505.103516	5.866743
29646.340426	-1125.405000	1504.044922	-122.689880
29646.340426	-1125.405000	1502.986328	60.356754
29646.340426	-1125.405000	1501.926758	-266.667297
29646.340426	-1125.405000	1500.868164	-42.953690
29646.340426	-1125.405000	1499.808594	-20.061346
29646.340426	-1125.405000	1498.749023	-6.150021
29646.340426	-1125.405000	1497.688477	55.157314
29646.340426	-1125.405000	1496.628906	-70.639999
29646.340426	-1125.405000	1495.568359	-0.229416
29646.340426	-1125.405000	1494.507813	167.110947
29646.340426	-1125.405000	1493.447266	37.006203
29646.340426	-1125.405000	1492.386719	-115.524956
29646.340426	-1125.405000	1491.325195	178.017792
29646.340426	-1125.405000	1490.263672	-77.971008
29646.340426	-1125.405000	1489.202148	26.425735
29646.340426	-1125.405000	1488.140625	43.041138
29646.340426	-1125.405000	1487.079102	199.234680
29646.340426	-1125.405000	1486.016602	-18.102451
29646.340426	-1125.405000	1484.954102	18.909359
29646.340426	-1125.405000	1483.891602	67.202820
29646.340426	-1125.405000	1482.829102	93.041702
29646.340426	-1125.405000	1481.765625	80.700180
29646.340426	-1125.405000	1480.702148	25.711946
29646.340426	-1125.405000	1479.638672	-38.187553
29646.340426	-1125.405000	1478.575195	-234.564651
29646.340426	-1125.405000	1477.511719	-82.637054
29646.340426	-1125.405000	1476.447266	143.417496
29646.340426	-1125.405000	1475.382813	75.239853
29646.340426	-1125.405000	1474.318359	-100.507797
29646.340426	-1125.405000	1473.253906	78.418739
29646.340426	-1125.405000	1472.189453	66.555649
29646.340426	-1125.405000	1471.124023	99.568176
29646.340426	-1125.405000	1470.058594	47.543213
29646.340426	-1125.405000	1468.993164	-53.938129
29646.340426	-1125.405000	1467.927734	-166.223480
29646.340426	-1125.405000	1466.861328	-52.174755
29646.340426	-1125.405000	1465.794922	52.747868
29646.340426	-1125.405000	1464.728516	142.124481
29646.340426	-1125.405000	1463.662109	47.868210
29646.340426	-1125.405000	1462.594727	148.700317
29646.340426	-1125.405000	1461.528320	285.116821
29646.340426	-1125.405000	1460.460938	262.691193
29646.340426	-1125.405000	1459.393555	215.574219
29646.340426	-1125.405000	1458.326172	213.698532
29646.340426	-1125.405000	1457.257813	117.721176
29646.340426	-1125.405000	1456.189453	99.880722
29646.340426	-1125.405000	1455.121094	399.655670
29646.340426	-1125.405000	1454.052734	212.669037
29646.340426	-1125.405000	1452.984375	257.455017
29646.340426	-1125.405000	1451.915039	414.314423
29646.340426	-1125.405000	1450.845703	307.916199
29646.340426	-1125.405000	1449.776367	483.926392
29646.340426	-1125.405000	1448.707031	127.010918
29646.340426	-1125.405000	1447.636719	332.595825
29646.340426	-1125.405000	1446.567383	285.785095
29646.340426	-1125.405000	1445.497070	352.991333
29646.340426	-1125.405000	1444.425781	362.493011
29646.340426	-1125.405000	1443.355469	164.002182
29646.340426	-1125.405000	1442.285156	122.244743
29646.340426	-1125.405000	1441.213867	196.534668
29646.340426	-1125.405000	1440.142578	159.562851
29646.340426	-1125.405000	1439.070313	195.490997
29646.340426	-1125.405000	1437.999023	226.305115
29646.340426	-1125.405000	1436.926758	229.870728
29646.340426	-1125.405000	1435.854492	129.527939
29646.340426	-1125.405000	1434.782227	199.372360
29646.340426	-1125.405000	1433.709961	200.375610
29646.340426	-1125.405000	1432.636719	348.837372
29646.340426	-1125.405000	1431.563477	182.765488
29646.340426	-1125.405000	1430.490234	182.336639
29646.340426	-1125.405000	1429.416992	295.785095
29646.340426	-1125.405000	1428.343750	195.632233
29646.340426	-1125.405000	1427.269531	204.358658
29646.340426	-1125.405000	1426.195313	57.259041
29646.340426	-1125.405000	1425.121094	-105.433311
29646.340426	-1125.405000	1424.046875	-78.010506
29646.340426	-1125.405000	1422.971680	4.353905
29646.340426	-1125.405000	1421.896484	163.166336
29646.340426	-1125.405000	1420.821289	-69.681725
29646.340426	-1125.405000	1419.746094	180.064468
29646.340426	-1125.405000	1418.669922	103.246185
29646.340426	-1125.405000	1417.594727	269.917847
29646.340426	-1125.405000	1416.518555	173.097122
29646.340426	-1125.405000	1415.442383	-27.238194
29646.340426	-1125.405000	1414.365234	-53.385315
29646.340426	-1125.405000	1413.289063	141.611130
29646.340426	-1125.405000	1412.211914	163.131485
29646.340426	-1125.405000	1411.134766	33.965851
29646.340426	-1125.405000	1410.057617	146.912888
29646.340426	-1125.405000	1408.979492	11.906075
29646.340426	-1125.405000	1407.902344	108.705956
29646.340426	-1125.405000	1406.824219	143.033173
29646.340426	-1125.405000	1405.746094	119.302582
29646.340426	-1125.405000	1404.666992	50.571827
29646.340426	-1125.405000	1403.588867	174.540543
29646.340426	-1125.405000	1402.509766	74.923866
29646.340426	-1125.405000	1401.430664	231.640335
29646.340426	-1125.405000	1400.351563	135.052094
29646.340426	-1125.405000	1399.271484	285.867371
29646.340426	-1125.405000	1398.192383	251.651550
29646.340426	-1125.405000	1397.112305	155.170013
29646.340426	-1125.405000	1396.031250	184.511581
29646.340426	-1125.405000	1394.951172	162.435638
29646.340426	-1125.405000	1393.871094	157.736496
29646.340426	-1125.405000	1392.790039	148.312088
29646.340426	-1125.405000	1391.708984	230.216293
29646.340426	-1125.405000	1390.626953	105.402802
29646.340426	-1125.405000	1389.545898	219.887421
29646.340426	-1125.405000	1388.463867	353.869812
29646.340426	-1125.405000	1387.381836	150.025726
29646.340426	-1125.405000	1386.299805	104.432060
29646.340426	-1125.405000	1385.217773	194.739960
29646.340426	-1125.405000	1384.134766	378.813538
29646.340426	-1125.405000	1383.051758	395.282410
29646.340426	-1125.405000	1381.968750	329.972565
29646.340426	-1125.405000	1380.885742	349.892487
29646.340426	-1125.405000	1379.802734	246.351563
29646.340426	-1125.405000	1378.718750	387.658386
29646.340426	-1125.405000	1377.634766	407.294952
29646.340426	-1125.405000	1376.550781	376.778564
29646.340426	-1125.405000	1375.465820	351.261719
29646.340426	-1125.405000	1374.381836	379.644745
29646.340426	-1125.405000	1373.296875	400.998566
29646.340426	-1125.405000	1372.211914	400.759033
29646.340426	-1125.405000	1371.126953	426.774475
29646.340426	-1125.405000	1370.041016	414.515991
29646.340426	-1125.405000	1368.955078	404.907562
29646.340426	-1125.405000	1367.869141	419.706696
29646.340426	-1125.405000	1366.783203	377.652435
29646.340426	-1125.405000	1365.697266	612.127258
29646.340426	-1125.405000	1364.610352	503.041840
29646.340426	-1125.405000	1363.523438	560.890320
29646.340426	-1125.405000	1362.436523	412.744690
29646.340426	-1125.405000	1361.349609	531.135864
29646.340426	-1125.405000	1360.261719	618.301819
29646.340426	-1125.405000	1359.174805	564.095886
29646.340426	-1125.405000	1358.086914	502.872223
29646.340426	-1125.405000	1356.998047	418.472473
29646.340426	-1125.405000	1355.910156	567.969421
29646.340426	-1125.405000	1354.821289	572.552368
29646.340426	-1125.405000	1353.732422	446.440765
29646.340426	-1125.405000	1352.643555	290.353973
29646.340426	-1125.405000	1351.554688	434.917633
29646.340426	-1125.405000	1350.464844	420.338776
29646.340426	-1125.405000	1349.375000	392.700867
29646.340426	-1125.405000	1348.285156	320.819977
29646.340426	-1125.405000	1347.195313	337.105011
29646.340426	-1125.405000	1346.105469	590.122986
29646.340426	-1125.405000	1345.014648	622.876953
29646.340426	-1125.405000	1343.923828	656.713867
29646.340426	-1125.405000	1342.833008	671.735962
29646.340426	-1125.405000	1341.741211	1026.503052
29646.340426	-1125.405000	1340.650391	935.659241
29646.340426	-1125.405000	1339.558594	839.370300
29646.340426	-1125.405000	1338.466797	912.073914
29646.340426	-1125.405000	1337.374023	566.863098
29646.340426	-1125.405000	1336.282227	586.308594
29646.340426	-1125.405000	1335.189453	525.205261
29646.340426	-1125.405000	1334.096680	194.379288
29646.340426	-1125.405000	1333.003906	382.414307
29646.340426	-1125.405000	1331.910156	467.224884
29646.340426	-1125.405000	1330.817383	211.278763
29646.340426	-1125.405000	1329.723633	210.486465
29646.340426	-1125.405000	1328.629883	258.001099
29646.340426	-1125.405000	1327.535156	93.382858
29646.340426	-1125.405000	1326.441406	258.588470
29646.340426	-1125.405000	1325.346680	236.649826
29646.340426	-1125.405000	1324.251953	136.046051
29646.340426	-1125.405000	1323.156250	240.492722
29646.340426	-1125.405000	1322.061523	323.420959
29646.340426	-1125.405000	1320.965820	141.812088
29646.340426	-1125.405000	1319.870117	30.285734
29646.340426	-1125.405000	1318.774414	153.763428
29646.340426	-1125.405000	1317.678711	120.103210
29646.340426	-1125.405000	1316.582031	189.413361
29646.340426	-1125.405000	1315.485352	246.098602
29646.340426	-1125.405000	1314.388672	229.045273
29646.340426	-1125.405000	1313.291016	192.005295
29646.340426	-1125.405000	1312.194336	103.897591
29646.340426	-1125.405000	1311.096680	185.386536
29646.340426	-1125.405000	1309.999023	82.042725
29646.340426	-1125.405000	1308.901367	237.417542
29646.340426	-1125.405000	1307.802734	222.834290
29646.340426	-1125.405000	1306.705078	179.462662
29646.340426	-1125.405000	1305.606445	225.532669
29646.340426	-1125.405000	1304.506836	149.009811
29646.340426	-1125.405000	1303.408203	164.630035
29646.340426	-1125.405000	1302.308594	226.100067
29646.340426	-1125.405000	1301.208984	195.921951
29646.340426	-1125.405000	1300.109375	141.866791
29646.340426	-1125.405000	1299.009766	196.745728
29646.340426	-1125.405000	1297.909180	154.476974
29646.340426	-1125.405000	1296.808594	137.210968
29646.340426	-1125.405000	1295.708008	203.849625
29646.340426	-1125.405000	1294.607422	208.089874
29646.340426	-1125.405000	1293.506836	78.992828
29646.340426	-1125.405000	1292.405273	58.639904
29646.340426	-1125.405000	1291.303711	62.525143
29646.340426	-1125.405000	1290.202148	-4.915308
29646.340426	-1125.405000	1289.099609	16.666603
29646.340426	-1125.405000	1287.998047	22.627352
29646.340426	-1125.405000	1286.895508	11.764030
29646.340426	-1125.405000	1285.792969	-172.746796
29646.340426	-1125.405000	1284.689453	156.235001
29646.340426	-1125.405000	1283.586914	62.595055
29646.340426	-1125.405000	1282.483398	72.469444
29646.340426	-1125.405000	1281.379883	-112.567856
29646.340426	-1125.405000	1280.276367	2.223000
29646.340426	-1125.405000	1279.171875	21.032009
29646.340426	-1125.405000	1278.067383	23.839338
29646.340426	-1125.405000	1276.962891	18.852617
29646.340426	-1125.405000	1275.858398	16.921068
29646.340426	-1125.405000	1274.753906	-186.282837
29646.340426	-1125.405000	1273.648438	19.604782
29646.340426	-1125.405000	1272.542969	80.823799
29646.340426	-1125.405000	1271.437500	63.481251
29646.340426	-1125.405000	1270.331055	-20.257187
29646.340426	-1125.405000	1269.225586	-36.817749
29646.340426	-1125.405000	1268.119141	63.327602
29646.340426	-1125.405000	1267.012695	100.519257
29646.340426	-1125.405000	1265.906250	-33.567379
29646.340426	-1125.405000	1264.798828	-13.438450
29646.340426	-1125.405000	1263.691406	-75.645195
29646.340426	-1125.405000	1262.583984	-39.468266
29646.340426	-1125.405000	1261.476563	46.925945
29646.340426	-1125.405000	1260.368164	-79.528244
29646.340426	-1125.405000	1259.260742	-115.049232
29646.340426	-1125.405000	1258.152344	-100.773849
29646.340426	-1125.405000	1257.043945	40.705597
29646.340426	-1125.405000	1255.934570	-157.104263
29646.340426	-1125.405000	1254.825195	-146.206879
29646.340426	-1125.405000	1253.716797	-133.894821
29646.340426	-1125.405000	1252.606445	-15.603440
29646.340426	-1125.405000	1251.497070	-126.077812
29646.340426	-1125.405000	1250.387695	-18.373777
29646.340426	-1125.405000	1249.277344	-88.549133
29646.340426	-1125.405000	1248.166992	38.423878
29646.340426	-1125.405000	1247.055664	-69.245911
29646.340426	-1125.405000	1245.945313	-63.838585
29646.340426	-1125.405000	1244.833984	-66.498619
29646.340426	-1125.405000	1243.722656	-85.038109
29646.340426	-1125.405000	1242.611328	-141.253326
29646.340426	-1125.405000	1241.499023	-68.268425
29646.340426	-1125.405000	1240.387695	-99.348869
29646.340426	-1125.405000	1239.275391	38.443905
29646.340426	-1125.405000	1238.162109	-80.463692
29646.340426	-1125.405000	1237.049805	-57.730690
29646.340426	-1125.405000	1235.936523	-91.656784
29646.340426	-1125.405000	1234.823242	-128.761124
29646.340426	-1125.405000	1233.709961	-15.762804
29646.340426	-1125.405000	1232.596680	-17.656336
29646.340426	-1125.405000	1231.482422	-13.685965
29646.340426	-1125.405000	1230.369141	-108.381821
29646.340426	-1125.405000	1229.253906	-78.115608
29646.340426	-1125.405000	1228.139648	59.024693
29646.340426	-1125.405000	1227.025391	-26.672941
29646.340426	-1125.405000	1225.910156	12.467163
29646.340426	-1125.405000	1224.794922	70.389732
29646.340426	-1125.405000	1223.679688	-49.591125
29646.340426	-1125.405000	1222.563477	-10.399348
29646.340426	-1125.405000	1221.447266	10.009412
29646.340426	-1125.405000	1220.331055	101.250046
29646.340426	-1125.405000	1219.214844	-13.823284
29646.340426	-1125.405000	1218.098633	74.957047
29646.340426	-1125.405000	1216.981445	-21.748917
29646.340426	-1125.405000	1215.864258	143.687180
29646.340426	-1125.405000	1214.747070	94.631195
29646.340426	-1125.405000	1213.629883	174.191223
29646.340426	-1125.405000	1212.511719	147.582947
29646.340426	-1125.405000	1211.393555	162.893738
29646.340426	-1125.405000	1210.275391	150.235550
29646.340426	-1125.405000	1209.157227	213.887375
29646.340426	-1125.405000	1208.038086	223.032669
29646.340426	-1125.405000	1206.918945	119.967781
29646.340426	-1125.405000	1205.799805	94.595734
29646.340426	-1125.405000	1204.680664	41.725784
29646.340426	-1125.405000	1203.560547	-39.152004
29646.340426	-1125.405000	1202.441406	67.560394
29646.340426	-1125.405000	1201.321289	114.392250
29646.340426	-1125.405000	1200.200195	52.019024
29646.340426	-1125.405000	1199.080078	45.676479
29646.340426	-1125.405000	1197.958984	339.680969
29646.340426	-1125.405000	1196.837891	151.762527
29646.340426	-1125.405000	1195.716797	96.983353
29646.340426	-1125.405000	1194.594727	130.155746
29646.340426	-1125.405000	1193.473633	-12.252005
29646.340426	-1125.405000	1192.351563	-37.842587
29646.340426	-1125.405000	1191.229492	50.206875
29646.340426	-1125.405000	1190.106445	-103.964211
29646.340426	-1125.405000	1188.984375	23.511936
29646.340426	-1125.405000	1187.861328	-27.838520
29646.340426	-1125.405000	1186.738281	97.765350
29646.340426	-1125.405000	1185.614258	-59.091774
29646.340426	-1125.405000	1184.491211	39.595684
29646.340426	-1125.405000	1183.367188	-16.335644
29646.340426	-1125.405000	1182.243164	159.690140
29646.340426	-1125.405000	1181.119141	125.849541
29646.340426	-1125.405000	1179.994141	41.131477
29646.340426	-1125.405000	1178.869141	55.235920
29646.340426	-1125.405000	1177.744141	76.787613
29646.340426	-1125.405000	1176.619141	13.884930
29646.340426	-1125.405000	1175.493164	-93.810387
29646.340426	-1125.405000	1174.368164	-37.272007
29646.340426	-1125.405000	1173.242188	44.515202
29646.340426	-1125.405000	1172.115234	-8.153149
29646.340426	-1125.405000	1170.989258	-59.514313
29646.340426	-1125.405000	1169.862305	-39.200691
29646.340426	-1125.405000	1168.735352	-63.854950
29646.340426	-1125.405000	1167.608398	55.079323
29646.340426	-1125.405000	1166.481445	-37.653488
29646.340426	-1125.405000	1165.353516	-25.833145
29646.340426	-1125.405000	1164.225586	63.896778
29646.340426	-1125.405000	1163.097656	-18.517170
29646.340426	-1125.405000	1161.968750	-54.426086
29646.340426	-1125.405000	1160.840820	31.428675
29646.340426	-1125.405000	1159.711914	123.923744
29646.340426	-1125.405000	1158.583008	202.740829
29646.340426	-1125.405000	1157.453125	-19.293489
29646.340426	-1125.405000	1156.324219	149.955063
29646.340426	-1125.405000	1155.194336	-135.254181
29646.340426	-1125.405000	1154.064453	-154.910828
29646.340426	-1125.405000	1152.933594	-27.972048
29646.340426	-1125.405000	1151.803711	-103.309280
29646.340426	-1125.405000	1150.672852	-55.373768
29646.340426	-1125.405000	1149.541992	56.874744
29646.340426	-1125.405000	1148.411133	-56.965782
29646.340426	-1125.405000	1147.279297	6.566841
29646.340426	-1125.405000	1146.147461	113.262459
29646.340426	-1125.405000	1145.015625	129.980743
29646.340426	-1125.405000	1143.883789	192.952011
29646.340426	-1125.405000	1142.750977	119.552422
29646.340426	-1125.405000	1141.619141	137.046158
29646.340426	-1125.405000	1140.486328	-0.567670
29646.340426	-1125.405000	1139.352539	154.423141
29646.340426	-1125.405000	1138.219727	39.393692
29646.340426	-1125.405000	1137.085938	64.743408
29646.340426	-1125.405000	1135.952148	77.355103
29646.340426	-1125.405000	1134.818359	98.329193
29646.340426	-1125.405000	1133.683594	27.557859
29646.340426	-1125.405000	1132.549805	76.331474
29646.340426	-1125.405000	1131.415039	35.691357
29646.340426	-1125.405000	1130.279297	170.099228
29646.340426	-1125.405000	1129.144531	113.319199
29646.340426	-1125.405000	1128.008789	2.015055
29646.340426	-1125.405000	1126.873047	62.008263
29646.340426	-1125.405000	1125.737305	38.388523
29646.340426	-1125.405000	1124.601563	197.661087
29646.340426	-1125.405000	1123.464844	109.550491
29646.340426	-1125.405000	1122.328125	-11.642715
29646.340426	-1125.405000	1121.191406	124.534485
29646.340426	-1125.405000	1120.054688	157.594666
29646.340426	-1125.405000	1118.916992	129.498627
29646.340426	-1125.405000	1117.779297	92.083138
29646.340426	-1125.405000	1116.641602	64.628372
29646.340426	-1125.405000	1115.503906	-45.450722
29646.340426	-1125.405000	1114.365234	186.368073
29646.340426	-1125.405000	1113.226563	158.513947
29646.340426	-1125.405000	1112.087891	90.034164
29646.340426	-1125.405000	1110.949219	8.802643
29646.340426	-1125.405000	1109.809570	51.478271
29646.340426	-1125.405000	1108.669922	65.263763
29646.340426	-1125.405000	1107.530273	85.911469
29646.340426	-1125.405000	1106.390625	51.674236
29646.340426	-1125.405000	1105.250000	95.956474
29646.340426	-1125.405000	1104.109375	146.749084
29646.340426	-1125.405000	1102.968750	6.203351
29646.340426	-1125.405000	1101.828125	88.496948
29646.340426	-1125.405000	1100.686523	-0.541002
29646.340426	-1125.405000	1099.544922	47.789982
29646.340426	-1125.405000	1098.403320	145.180756
29646.340426	-1125.405000	1097.261719	105.764542
29646.340426	-1125.405000	1096.120117	-93.515327
29646.340426	-1125.405000	1094.977539	174.844955
29646.340426	-1125.405000	1093.834961	179.288208
29646.340426	-1125.405000	1092.691406	278.581879
29646.340426	-1125.405000	1091.548828	41.371040
29646.340426	-1125.405000	1090.405273	259.480713
29646.340426	-1125.405000	1089.261719	47.333752
29646.340426	-1125.405000	1088.118164	105.639603
29646.340426	-1125.405000	1086.973633	-1.218152
29646.340426	-1125.405000	1085.829102	80.330887
29646.340426	-1125.405000	1084.684570	-36.538498
29646.340426	-1125.405000	1083.540039	42.471516
29646.340426	-1125.405000	1082.395508	-70.163513
29646.340426	-1125.405000	1081.250000	-86.531296
29646.340426	-1125.405000	1080.104492	-49.289810
29646.340426	-1125.405000	1078.958984	77.406143
29646.340426	-1125.405000	1077.812500	39.567909
29646.340426	-1125.405000	1076.666016	13.256333
29646.340426	-1125.405000	1075.519531	109.867409
29646.340426	-1125.405000	1074.373047	-22.073479
29646.340426	-1125.405000	1073.226563	-62.848072
29646.340426	-1125.405000	1072.079102	86.163757
29646.340426	-1125.405000	1070.931641	52.845737
29646.340426	-1125.405000	1069.784180	92.737427
29646.340426	-1125.405000	1068.635742	-32.521084
29646.340426	-1125.405000	1067.487305	124.111725
29646.340426	-1125.405000	1066.338867	18.653933
29646.340426	-1125.405000	1065.190430	100.759369
29646.340426	-1125.405000	1064.041992	57.354801
29646.340426	-1125.405000	1062.892578	151.924454
29646.340426	-1125.405000	1061.743164	150.667679
29646.340426	-1125.405000	1060.593750	101.541557
29646.340426	-1125.405000	1059.443359	109.109825
29646.340426	-1125.405000	1058.292969	88.853661
29646.340426	-1125.405000	1057.142578	-71.606773
29646.340426	-1125.405000	1055.992188	-116.644501
29646.340426	-1125.405000	1054.841797	-13.618371
29646.340426	-1125.405000	1053.690430	-12.556052
29646.340426	-1125.405000	1052.539063	38.712738
29646.340426	-1125.405000	1051.387695	12.831593
29646.340426	-1125.405000	1050.235352	13.049637
29646.340426	-1125.405000	1049.083984	107.102142
29646.340426	-1125.405000	1047.931641	-24.612820
29646.340426	-1125.405000	1046.778320	-48.435589
29646.340426	-1125.405000	1045.625977	-21.979876
29646.340426	-1125.405000	1044.472656	-118.324783
29646.340426	-1125.405000	1043.319336	39.234848
29646.340426	-1125.405000	1042.166016	-1.651516
29646.340426	-1125.405000	1041.012695	193.151932
29646.340426	-1125.405000	1039.858398	-26.757736
29646.340426	-1125.405000	1038.704102	197.169464
29646.340426	-1125.405000	1037.549805	118.879890
29646.340426	-1125.405000	1036.394531	96.078468
29646.340426	-1125.405000	1035.239258	81.864555
29646.340426	-1125.405000	1034.083984	67.975548
29646.340426	-1125.405000	1032.928711	68.256233
29646.340426	-1125.405000	1031.773438	154.030426
29646.340426	-1125.405000	1030.617188	22.377447
29646.340426	-1125.405000	1029.460938	-15.543626
29646.340426	-1125.405000	1028.304688	156.869827
29646.340426	-1125.405000	1027.147461	93.377235
29646.340426	-1125.405000	1025.991211	154.709473
29646.340426	-1125.405000	1024.833984	47.564503
29646.340426	-1125.405000	1023.675781	367.111328
29646.340426	-1125.405000	1022.518555	134.389969
29646.340426	-1125.405000	1021.360352	116.490410
29646.340426	-1125.405000	1020.202148	257.342896
29646.340426	-1125.405000	1019.043945	75.902115
29646.340426	-1125.405000	1017.884766	40.646095
29646.340426	-1125.405000	1016.726563	56.588757
29646.340426	-1125.405000	1015.567383	113.034691
29646.340426	-1125.405000	1014.407227	135.978577
29646.340426	-1125.405000	1013.248047	-2.933722
29646.340426	-1125.405000	1012.087891	50.639877
29646.340426	-1125.405000	1010.927734	42.677166
29646.340426	-1125.405000	1009.767578	-88.626442
29646.340426	-1125.405000	1008.606445	22.915922
29646.340426	-1125.405000	1007.446289	83.181801
29646.340426	-1125.405000	1006.285156	214.395386
29646.340426	-1125.405000	1005.123047	34.681717
29646.340426	-1125.405000	1003.961914	-159.387665
29646.340426	-1125.405000	1002.799805	54.834133
29646.340426	-1125.405000	1001.637695	-39.745209
29646.340426	-1125.405000	1000.475586	-110.314552
29646.340426	-1125.405000	999.312500	119.937805
29646.340426	-1125.405000	998.149414	-24.241541
29646.340426	-1125.405000	996.986328	-23.269468
29646.340426	-1125.405000	995.823242	-17.735214
29646.340426	-1125.405000	994.659180	-77.090828
29646.340426	-1125.405000	993.496094	30.438725
29646.340426	-1125.405000	992.332031	2.323728
29646.340426	-1125.405000	991.166992	64.231728
29646.340426	-1125.405000	990.002930	6.795770
29646.340426	-1125.405000	988.837891	-0.327438
29646.340426	-1125.405000	987.672852	46.111317
29646.340426	-1125.405000	986.506836	-49.385059
29646.340426	-1125.405000	985.341797	25.171619
29646.340426	-1125.405000	984.175781	13.411540
29646.340426	-1125.405000	983.009766	-80.564934
29646.340426	-1125.405000	981.843750	-145.172226
29646.340426	-1125.405000	980.676758	-51.786430
29646.340426	-1125.405000	979.509766	-112.598625
29646.340426	-1125.405000	978.342773	125.195023
29646.340426	-1125.405000	977.175781	-107.314529
29646.340426	-1125.405000	976.007813	-8.448291
29646.340426	-1125.405000	974.839844	42.707729
29646.340426	-1125.405000	973.671875	-145.617828
29646.340426	-1125.405000	972.503906	-187.804718
29646.340426	-1125.405000	971.334961	-43.496773
29646.340426	-1125.405000	970.166016	76.122910
29646.340426	-1125.405000	968.997070	97.288826
29646.340426	-1125.405000	967.828125	-74.230347
29646.340426	-1125.405000	966.658203	-39.714729
29646.340426	-1125.405000	965.488281	-62.704777
29646.340426	-1125.405000	964.318359	-48.169121
29646.340426	-1125.405000	963.148438	9.257596
29646.340426	-1125.405000	961.977539	60.466091
29646.340426	-1125.405000	960.806641	208.026306
29646.340426	-1125.405000	959.635742	21.084873
29646.340426	-1125.405000	958.463867	-140.538361
29646.340426	-1125.405000	957.292969	-90.156601
29646.340426	-1125.405000	956.121094	131.779907
29646.340426	-1125.405000	954.948242	246.059799
29646.340426	-1125.405000	953.776367	205.703964
29646.340426	-1125.405000	952.603516	183.905106
29646.340426	-1125.405000	951.430664	85.995041
29646.340426	-1125.405000	950.257813	36.758060
29646.340426	-1125.405000	949.084961	-164.901428
29646.340426	-1125.405000	947.911133	-6.610969
29646.340426	-1125.405000	946.737305	-116.250618
29646.340426	-1125.405000	945.563477	-20.657164
29646.340426	-1125.405000	944.388672	63.225864
29646.340426	-1125.405000	943.213867	27.829987
29646.340426	-1125.405000	942.039063	139.072800
29646.340426	-1125.405000	940.864258	48.971027
29646.340426	-1125.405000	939.688477	26.772480
29646.340426	-1125.405000	938.513672	47.510658
29646.340426	-1125.405000	937.337891	43.410072
29646.340426	-1125.405000	936.161133	204.392181
29646.340426	-1125.405000	934.985352	-23.730150
29646.340426	-1125.405000	933.808594	53.524837
29646.340426	-1125.405000	932.631836	-36.540115
29646.340426	-1125.405000	931.454102	-79.260315
29646.340426	-1125.405000	930.277344	-83.486343
29646.340426	-1125.405000	929.099609	68.225349
29646.340426	-1125.405000	927.921875	136.267380
29646.340426	-1125.405000	926.743164	3.173065
29646.340426	-1125.405000	925.565430	-44.015503
29646.340426	-1125.405000	924.386719	-149.963791
29646.340426	-1125.405000	923.208008	62.558292
29646.340426	-1125.405000	922.028320	53.702633
29646.340426	-1125.405000	920.849609	-31.915802
29646.340426	-1125.405000	919.669922	-30.259964
29646.340426	-1125.405000	919.474609	40.758511
29646.340426	-1125.405000	918.309570	86.012489
29646.340426	-1125.405000	917.143555	7.140893
29646.340426	-1125.405000	915.977539	-40.133911
29646.340426	-1125.405000	914.810547	149.404800
29646.340426	-1125.405000	913.644531	5.129471
29646.340426	-1125.405000	912.477539	0.671704
29646.340426	-1125.405000	911.310547	43.532711
29646.340426	-1125.405000	910.143555	-102.931969
29646.340426	-1125.405000	908.975586	-64.602837
29646.340426	-1125.405000	907.807617	54.787460
29646.340426	-1125.405000	906.639648	-82.626724
29646.340426	-1125.405000	905.471680	-134.437607
29646.340426	-1125.405000	904.303711	9.610749
29646.340426	-1125.405000	903.134766	5.038631
29646.340426	-1125.405000	901.965820	-15.299141
29646.340426	-1125.405000	900.796875	-208.879547
29646.340426	-1125.405000	899.626953	65.471947
29646.340426	-1125.405000	898.457031	-110.083649
29646.340426	-1125.405000	897.287109	-85.471565
29646.340426	-1125.405000	896.117188	-45.148285
29646.340426	-1125.405000	894.947266	89.539566
29646.340426	-1125.405000	893.776367	-117.395157
29646.340426	-1125.405000	892.605469	-113.078995
29646.340426	-1125.405000	891.434570	-191.887390
29646.340426	-1125.405000	890.262695	-117.969635
29646.340426	-1125.405000	889.091797	32.239597
29646.340426	-1125.405000	887.919922	43.198486
29646.340426	-1125.405000	886.748047	-24.413311
29646.340426	-1125.405000	885.575195	-0.012233
29646.340426	-1125.405000	884.403320	22.119480
29646.340426	-1125.405000	883.230469	37.499470
29646.340426	-1125.405000	882.057617	-7.687677
29646.340426	-1125.405000	880.883789	54.747005
29646.340426	-1125.405000	879.710938	-30.802845
29646.340426	-1125.405000	878.537109	-31.168819
29646.340426	-1125.405000	877.362305	-105.489594
29646.340426	-1125.405000	876.188477	48.704205
29646.340426	-1125.405000	875.013672	-14.432749
29646.340426	-1125.405000	873.839844	-99.952034
29646.340426	-1125.405000	872.664063	-75.746994
29646.340426	-1125.405000	871.489258	-58.281670
29646.340426	-1125.405000	870.313477	-83.357552
29646.340426	-1125.405000	869.138672	-88.301521
29646.340426	-1125.405000	867.962891	-48.517174
29646.340426	-1125.405000	866.786133	-28.891253
29646.340426	-1125.405000	865.610352	120.403236
29646.340426	-1125.405000	864.433594	88.538795
29646.340426	-1125.405000	863.256836	-37.203640
29646.340426	-1125.405000	862.079102	-107.040604
29646.340426	-1125.405000	860.902344	-2.594231
29646.340426	-1125.405000	859.724609	148.705338
29646.340426	-1125.405000	858.546875	78.829498
29646.340426	-1125.405000	857.368164	96.049950
29646.340426	-1125.405000	856.190430	113.248550
29646.340426	-1125.405000	855.011719	110.338310
29646.340426	-1125.405000	853.833008	36.007465
29646.340426	-1125.405000	852.654297	73.243797
29646.340426	-1125.405000	851.474609	76.992264
29646.340426	-1125.405000	850.294922	78.494362
29646.340426	-1125.405000	849.115234	24.239799
29646.340426	-1125.405000	847.935547	-14.402790
29646.340426	-1125.405000	846.754883	38.334740
29646.340426	-1125.405000	845.575195	13.044888
29646.340426	-1125.405000	844.393555	54.586819
29646.340426	-1125.405000	843.212891	174.053436
29646.340426	-1125.405000	842.032227	157.615234
29646.340426	-1125.405000	840.850586	-79.249763
29646.340426	-1125.405000	839.668945	-66.720879
29646.340426	-1125.405000	838.486328	221.753632
29646.340426	-1125.405000	837.304688	102.905594
29646.340426	-1125.405000	836.122070	101.996223
29646.340426	-1125.405000	834.939453	150.002975
29646.340426	-1125.405000	833.756836	33.420921
29646.340426	-1125.405000	832.573242	88.061485
29646.340426	-1125.405000	831.389648	222.684387
29646.340426	-1125.405000	830.206055	210.562515
29646.340426	-1125.405000	829.022461	145.104980
29646.340426	-1125.405000	827.838867	126.308807
29646.340426	-1125.405000	826.654297	71.969215
29646.340426	-1125.405000	825.469727	-140.019241
29646.340426	-1125.405000	824.284180	76.531219
29646.340426	-1125.405000	823.099609	-102.109215
29646.340426	-1125.405000	821.914063	-36.587860
29646.340426	-1125.405000	820.728516	-19.921263
29646.340426	-1125.405000	819.542969	5.595572
29646.340426	-1125.405000	818.356445	-57.624538
29646.340426	-1125.405000	817.169922	29.940947
29646.340426	-1125.405000	815.983398	17.695749
29646.340426	-1125.405000	814.796875	-38.888535
29646.340426	-1125.405000	813.609375	84.023209
29646.340426	-1125.405000	812.422852	100.524628
29646.340426	-1125.405000	811.235352	-11.467385
29646.340426	-1125.405000	810.046875	171.104645
29646.340426	-1125.405000	808.859375	10.399386
29646.340426	-1125.405000	807.670898	0.270649
29646.340426	-1125.405000	806.482422	105.213737
29646.340426	-1125.405000	805.293945	59.630890
29646.340426	-1125.405000	804.104492	93.690605
29646.340426	-1125.405000	802.915039	-104.520958
29646.340426	-1125.405000	801.725586	24.610344
29646.340426	-1125.405000	800.536133	113.874451
29646.340426	-1125.405000	799.345703	-29.011869
29646.340426	-1125.405000	798.155273	-112.187996
29646.340426	-1125.405000	796.964844	-73.824936
29646.340426	-1125.405000	795.774414	90.419975
29646.340426	-1125.405000	794.583008	77.890388
29646.340426	-1125.405000	793.392578	5.726768
29646.340426	-1125.405000	792.200195	66.035446
29646.340426	-1125.405000	791.008789	26.974997
29646.340426	-1125.405000	789.816406	122.523773
29646.340426	-1125.405000	788.625000	94.460533
29646.340426	-1125.405000	787.432617	205.358307
29646.340426	-1125.405000	786.239258	38.309692
29646.340426	-1125.405000	785.046875	149.133575
29646.340426	-1125.405000	783.853516	70.305733
29646.340426	-1125.405000	782.660156	-235.523499
29646.340426	-1125.405000	781.465820	-21.204971
29646.340426	-1125.405000	780.272461	14.552976
29646.340426	-1125.405000	779.078125	-55.452248
29646.340426	-1125.405000	777.883789	19.895592
29646.340426	-1125.405000	776.688477	-65.535194
29646.340426	-1125.405000	775.494141	-117.932304
29646.340426	-1125.405000	774.298828	-20.672785
29646.340426	-1125.405000	773.103516	91.927544
29646.340426	-1125.405000	771.907227	233.058685
29646.340426	-1125.405000	770.711914	90.380249
29646.340426	-1125.405000	769.515625	180.832443
29646.340426	-1125.405000	768.318359	115.128937
29646.340426	-1125.405000	767.122070	234.069595
29646.340426	-1125.405000	765.924805	177.128677
29646.340426	-1125.405000	764.727539	76.245850
29646.340426	-1125.405000	763.530273	-11.436922
29646.340426	-1125.405000	762.333008	50.238914
29646.340426	-1125.405000	761.134766	61.362637
29646.340426	-1125.405000	759.936523	107.584908
29646.340426	-1125.405000	758.738281	138.400238
29646.340426	-1125.405000	757.540039	116.513565
29646.340426	-1125.405000	756.340820	11.241632
29646.340426	-1125.405000	755.141602	63.922684
29646.340426	-1125.405000	753.942383	55.152779
29646.340426	-1125.405000	752.742188	92.406326
29646.340426	-1125.405000	751.541992	149.350220
29646.340426	-1125.405000	750.341797	158.029282
29646.340426	-1125.405000	749.141602	197.357422
29646.340426	-1125.405000	747.941406	170.921951
29646.340426	-1125.405000	746.740234	50.289429
29646.340426	-1125.405000	745.539063	10.706477
29646.340426	-1125.405000	744.337891	179.108521
29646.340426	-1125.405000	743.135742	38.774002
29646.340426	-1125.405000	741.933594	172.033569
29646.340426	-1125.405000	740.731445	-112.700768
29646.340426	-1125.405000	739.529297	33.609913
29646.340426	-1125.405000	738.326172	-10.445935
29646.340426	-1125.405000	737.124023	146.664902
29646.340426	-1125.405000	735.919922	47.896854
29646.340426	-1125.405000	734.716797	228.920273
29646.340426	-1125.405000	733.513672	64.567223
29646.340426	-1125.405000	732.309570	-66.972382
29646.340426	-1125.405000	731.105469	109.514137
29646.340426	-1125.405000	729.900391	183.255219
29646.340426	-1125.405000	728.696289	217.637878
29646.340426	-1125.405000	727.491211	-73.289108
29646.340426	-1125.405000	726.286133	116.039574
29646.340426	-1125.405000	725.080078	169.971420
29646.340426	-1125.405000	723.874023	138.770050
29646.340426	-1125.405000	722.668945	-3.684202
29646.340426	-1125.405000	721.461914	56.698658
29646.340426	-1125.405000	720.255859	86.506706
29646.340426	-1125.405000	719.048828	118.453484
29646.340426	-1125.405000	717.841797	-6.553747
29646.340426	-1125.405000	716.634766	23.165112
29646.340426	-1125.405000	715.427734	44.130497
29646.340426	-1125.405000	714.219727	221.872864
29646.340426	-1125.405000	713.011719	227.488525
29646.340426	-1125.405000	711.803711	-43.414177
29646.340426	-1125.405000	710.594727	-13.860022
29646.340426	-1125.405000	709.385742	-32.221363
29646.340426	-1125.405000	708.176758	16.843054
29646.340426	-1125.405000	706.967773	72.384941
29646.340426	-1125.405000	705.758789	110.476997
29646.340426	-1125.405000	704.548828	91.990356
29646.340426	-1125.405000	703.338867	56.092335
29646.340426	-1125.405000	702.127930	-14.595488
29646.340426	-1125.405000	700.917969	110.286156
29646.340426	-1125.405000	699.707031	258.982880
29646.340426	-1125.405000	698.496094	5.759268
29646.340426	-1125.405000	697.285156	56.636799
29646.340426	-1125.405000	696.073242	87.922012
29646.340426	-1125.405000	694.861328	80.093452
29646.340426	-1125.405000	693.649414	195.942123
29646.340426	-1125.405000	692.436523	142.469833
29646.340426	-1125.405000	691.224609	67.299416
29646.340426	-1125.405000	690.011719	217.691299
29646.340426	-1125.405000	688.798828	125.130516
29646.340426	-1125.405000	687.584961	164.822403
29646.340426	-1125.405000	686.372070	156.785980
29646.340426	-1125.405000	685.158203	231.069626
29646.340426	-1125.405000	683.943359	199.129349
29646.340426	-1125.405000	682.729492	186.670349
29646.340426	-1125.405000	681.514648	295.463043
29646.340426	-1125.405000	680.299805	278.599121
29646.340426	-1125.405000	679.084961	192.441360
29646.340426	-1125.405000	677.869141	182.039764
29646.340426	-1125.405000	676.653320	80.732605
29646.340426	-1125.405000	675.437500	156.837372
29646.340426	-1125.405000	674.221680	120.408791
29646.340426	-1125.405000	673.004883	27.740406
29646.340426	-1125.405000	671.789063	125.343040
29646.340426	-1125.405000	670.571289	-43.001083
29646.340426	-1125.405000	669.354492	56.677460
29646.340426	-1125.405000	668.136719	147.641342
29646.340426	-1125.405000	666.919922	-27.163849
29646.340426	-1125.405000	665.701172	-68.023506
29646.340426	-1125.405000	664.483398	197.726898
29646.340426	-1125.405000	663.264648	-108.755081
29646.340426	-1125.405000	662.045898	210.793503
29646.340426	-1125.405000	660.827148	66.226326
29646.340426	-1125.405000	659.608398	-132.243591
29646.340426	-1125.405000	658.388672	18.776205
29646.340426	-1125.405000	657.168945	-22.228048
29646.340426	-1125.405000	655.949219	234.299469
29646.340426	-1125.405000	654.728516	5.669146
29646.340426	-1125.405000	653.507813	132.714935
29646.340426	-1125.405000	652.287109	164.872101
29646.340426	-1125.405000	651.066406	31.109541
29646.340426	-1125.405000	649.844727	-10.010425
29646.340426	-1125.405000	648.623047	-38.219170
29646.340426	-1125.405000	647.401367	-70.747940
29646.340426	-1125.405000	646.179688	66.756027
29646.340426	-1125.405000	644.957031	-51.915043
29646.340426	-1125.405000	643.734375	-112.468987
29646.340426	-1125.405000	642.511719	-89.130180
29646.340426	-1125.405000	641.289063	136.334045
29646.340426	-1125.405000	640.065430	200.411667
29646.340426	-1125.405000	638.841797	165.550232
29646.340426	-1125.405000	637.618164	10.320314
29646.340426	-1125.405000	636.393555	-0.899521
29646.340426	-1125.405000	635.168945	-35.770535
29646.340426	-1125.405000	633.944336	-53.466763
29646.340426	-1125.405000	632.719727	98.470093
29646.340426	-1125.405000	631.494141	-33.086815
29646.340426	-1125.405000	630.269531	-201.099228
29646.340426	-1125.405000	629.042969	-109.391174
29646.340426	-1125.405000	627.817383	76.666191
29646.340426	-1125.405000	626.590820	-54.865734
29646.340426	-1125.405000	625.365234	4.519235
29646.340426	-1125.405000	624.137695	-13.340495
29646.340426	-1125.405000	622.911133	15.952694
29646.340426	-1125.405000	621.683594	-36.237164
29646.340426	-1125.405000	620.456055	87.293205
29646.340426	-1125.405000	619.228516	37.213104
29646.340426	-1125.405000	618.000977	-27.859425
29646.340426	-1125.405000	616.772461	59.123486
29646.340426	-1125.405000	615.543945	45.419872
29646.340426	-1125.405000	614.314453	-109.581100
29646.340426	-1125.405000	613.085938	43.654430
29646.340426	-1125.405000	611.856445	19.207138
29646.340426	-1125.405000	610.626953	5.449882
29646.340426	-1125.405000	609.397461	160.647720
29646.340426	-1125.405000	608.166992	57.018894
29646.340426	-1125.405000	606.936523	-95.753143
29646.340426	-1125.405000	605.706055	-43.281235
29646.340426	-1125.405000	604.474609	4.876951
29646.340426	-1125.405000	603.244141	-224.747894
29646.340426	-1125.405000	602.012695	-118.926323
29646.340426	-1125.405000	600.780273	-32.387398
29646.340426	-1125.405000	599.548828	62.645245
29646.340426	-1125.405000	598.316406	-30.234228
29646.340426	-1125.405000	597.083984	58.326225
29646.340426	-1125.405000	595.851563	-166.833557
29646.340426	-1125.405000	594.618164	-88.974899
29646.340426	-1125.405000	593.384766	44.295315
29646.340426	-1125.405000	592.151367	11.166535
29646.340426	-1125.405000	590.917969	16.418056
29646.340426	-1125.405000	589.683594	-61.475590
29646.340426	-1125.405000	588.449219	-141.476242
29646.340426	-1125.405000	587.214844	-74.437401
29646.340426	-1125.405000	585.979492	-41.521263
29646.340426	-1125.405000	584.745117	-70.385818
29646.340426	-1125.405000	583.509766	68.964363
29646.340426	-1125.405000	582.273438	69.872543
29646.340426	-1125.405000	581.038086	15.439076
29646.340426	-1125.405000	579.801758	90.823433
29646.340426	-1125.405000	578.565430	-99.761848
29646.340426	-1125.405000	577.329102	-47.792324
29646.340426	-1125.405000	576.091797	50.932617
29646.340426	-1125.405000	574.854492	234.655792
29646.340426	-1125.405000	573.617188	156.843567
29646.340426	-1125.405000	572.378906	55.681374
29646.340426	-1125.405000	571.141602	62.925377
29646.340426	-1125.405000	569.903320	-33.928055
29646.340426	-1125.405000	568.664063	119.867706
29646.340426	-1125.405000	567.425781	44.275818
29646.340426	-1125.405000	566.186523	-94.974411
29646.340426	-1125.405000	564.947266	-113.183617
29646.340426	-1125.405000	563.708008	-29.526564
29646.340426	-1125.405000	562.467773	-37.134186
29646.340426	-1125.405000	561.227539	27.381351
29646.340426	-1125.405000	559.987305	-1.436459
29646.340426	-1125.405000	558.747070	133.016891
29646.340426	-1125.405000	557.505859	53.318993
29646.340426	-1125.405000	556.264648	62.669647
29646.340426	-1125.405000	555.023438	65.664581
29646.340426	-1125.405000	553.781250	34.766628
29646.340426	-1125.405000	552.539063	-19.409868
29646.340426	-1125.405000	551.296875	66.197586
29646.340426	-1125.405000	550.054688	-49.343132
29646.340426	-1125.405000	548.811523	118.791649
29646.340426	-1125.405000	547.569336	115.458931
29646.340426	-1125.405000	546.325195	-27.504501
29646.340426	-1125.405000	545.082031	94.007874
29646.340426	-1125.405000	543.837891	-86.937637
29646.340426	-1125.405000	542.593750	-208.595428
29646.340426	-1125.405000	541.349609	1.685775
29646.340426	-1125.405000	540.105469	-62.856285
29646.340426	-1125.405000	538.860352	-4.811016
29646.340426	-1125.405000	537.615234	-69.304504
29646.340426	-1125.405000	536.369141	64.771606
29646.340426	-1125.405000	535.124023	184.023529
29646.340426	-1125.405000	533.877930	-45.104870
29646.340426	-1125.405000	532.631836	25.596151
29646.340426	-1125.405000	531.384766	1.316480
29646.340426	-1125.405000	530.138672	46.686615
29646.340426	-1125.405000	528.891602	-74.589317
29646.340426	-1125.405000	527.643555	74.135010
29646.340426	-1125.405000	526.396484	-15.439737
29646.340426	-1125.405000	525.148438	65.781723
29646.340426	-1125.405000	523.900391	31.069489
29646.340426	-1125.405000	522.652344	91.205521
29646.340426	-1125.405000	521.403320	-8.775131
29646.340426	-1125.405000	520.154297	93.495209
29646.340426	-1125.405000	518.905273	8.328212
29646.340426	-1125.405000	517.656250	49.529663
29646.340426	-1125.405000	516.406250	183.338699
29646.340426	-1125.405000	515.156250	81.417259
29646.340426	-1125.405000	513.906250	158.388458
29646.340426	-1125.405000	512.655273	-8.661457
29646.340426	-1125.405000	511.404297	-45.236652
29646.340426	-1125.405000	510.153320	46.475338
29646.340426	-1125.405000	508.902344	-19.493322
29646.340426	-1125.405000	507.650391	-58.098904
29646.340426	-1125.405000	506.398438	50.411560
29646.340426	-1125.405000	505.146484	45.451488
29646.340426	-1125.405000	503.893555	120.316994
29646.340426	-1125.405000	502.641602	-10.615970
29646.340426	-1125.405000	501.388672	106.248367
29646.340426	-1125.405000	500.134766	168.502029
29646.340426	-1125.405000	498.881836	83.851845
29646.340426	-1125.405000	497.627930	198.563477
29646.340426	-1125.405000	496.374023	250.311340
29646.340426	-1125.405000	495.119141	148.957809
29646.340426	-1125.405000	493.865234	169.270477
29646.340426	-1125.405000	492.610352	153.948502
29646.340426	-1125.405000	491.355469	50.621685
29646.340426	-1125.405000	490.099609	209.264542
29646.340426	-1125.405000	488.843750	300.813904
29646.340426	-1125.405000	487.587891	308.556122
29646.340426	-1125.405000	486.332031	209.511414
29646.340426	-1125.405000	485.075195	271.716675
29646.340426	-1125.405000	483.818359	283.668488
29646.340426	-1125.405000	482.561523	320.733154
29646.340426	-1125.405000	481.304688	274.100067
29646.340426	-1125.405000	480.046875	300.699951
29646.340426	-1125.405000	478.789063	306.378784
29646.340426	-1125.405000	477.531250	268.150024
29646.340426	-1125.405000	476.272461	188.129303
29646.340426	-1125.405000	475.013672	306.684326
29646.340426	-1125.405000	473.754883	383.397278
29646.340426	-1125.405000	472.496094	201.036713
29646.340426	-1125.405000	471.236328	304.880096
29646.340426	-1125.405000	469.976563	406.585388
29646.340426	-1125.405000	468.716797	439.346313
29646.340426	-1125.405000	467.456055	353.109009
29646.340426	-1125.405000	466.196289	408.800171
29646.340426	-1125.405000	464.935547	324.669159
29646.340426	-1125.405000	463.673828	303.132904
29646.340426	-1125.405000	462.413086	371.263489
29646.340426	-1125.405000	461.151367	262.121429
29646.340426	-1125.405000	459.889648	371.878784
29646.340426	-1125.405000	458.626953	348.183197
29646.340426	-1125.405000	457.364258	436.985901
29646.340426	-1125.405000	456.101563	436.145721
29646.340426	-1125.405000	454.838867	297.816406
29646.340426	-1125.405000	453.575195	411.463470
29646.340426	-1125.405000	452.312500	364.727905
29646.340426	-1125.405000	451.047852	432.442902
29646.340426	-1125.405000	449.784180	529.221680
29646.340426	-1125.405000	448.519531	471.956268
29646.340426	-1125.405000	447.254883	514.506531
29646.340426	-1125.405000	445.990234	390.623077
29646.340426	-1125.405000	444.725586	705.428528
29646.340426	-1125.405000	443.459961	577.282837
29646.340426	-1125.405000	442.194336	534.335449
29646.340426	-1125.405000	440.927734	591.070984
29646.340426	-1125.405000	439.662109	649.791199
29646.340426	-1125.405000	438.395508	623.257690
29646.340426	-1125.405000	437.127930	617.417419
29646.340426	-1125.405000	435.861328	744.362122
29646.340426	-1125.405000	434.593750	499.645599
29646.340426	-1125.405000	433.326172	601.477478
29646.340426	-1125.405000	432.058594	628.483887
29646.340426	-1125.405000	430.790039	493.588379
29646.340426	-1125.405000	429.521484	580.532471
29646.340426	-1125.405000	428.252930	702.573730
29646.340426	-1125.405000	426.984375	677.275452
29646.340426	-1125.405000	425.714844	595.907715
29646.340426	-1125.405000	424.445313	526.878784
29646.340426	-1125.405000	423.174805	575.816711
29646.340426	-1125.405000	421.905273	512.762573
29646.340426	-1125.405000	420.634766	669.066650
29646.340426	-1125.405000	419.364258	636.770630
29646.340426	-1125.405000	418.092773	716.087402
29646.340426	-1125.405000	416.822266	590.356201
29646.340426	-1125.405000	415.550781	553.460693
29646.340426	-1125.405000	414.278320	532.944397
29646.340426	-1125.405000	413.006836	568.089172
29646.340426	-1125.405000	411.734375	650.570313
29646.340426	-1125.405000	410.461914	561.255371
29646.340426	-1125.405000	409.188477	531.695740
29646.340426	-1125.405000	407.916016	495.738037
29646.340426	-1125.405000	406.642578	573.175781
29646.340426	-1125.405000	405.368164	443.822388
29646.340426	-1125.405000	404.094727	551.734009
29646.340426	-1125.405000	402.820313	481.812714
29646.340426	-1125.405000	401.545898	595.343628
29646.340426	-1125.405000	400.270508	448.561981
29646.340426	-1125.405000	398.996094	600.699280
29646.340426	-1125.405000	397.720703	628.725342
29646.340426	-1125.405000	396.444336	507.965759
29646.340426	-1125.405000	395.168945	457.051117
29646.340426	-1125.405000	393.892578	576.908142
29646.340426	-1125.405000	392.616211	562.436157
29646.340426	-1125.405000	391.339844	469.340271
29646.340426	-1125.405000	390.062500	398.582123
29646.340426	-1125.405000	388.785156	624.038574
29646.340426	-1125.405000	387.507813	394.000793
29646.340426	-1125.405000	386.229492	425.090973
29646.340426	-1125.405000	384.951172	636.872437
29646.340426	-1125.405000	383.672852	500.419678
29646.340426	-1125.405000	382.394531	482.912476
29646.340426	-1125.405000	381.115234	320.997009
29646.340426	-1125.405000	379.835938	493.863525
29646.340426	-1125.405000	378.556641	534.617737
29646.340426	-1125.405000	377.277344	428.943939
29646.340426	-1125.405000	375.997070	409.114655
29646.340426	-1125.405000	374.716797	542.866211
29646.340426	-1125.405000	373.435547	474.729279
29646.340426	-1125.405000	372.155273	377.344482
29646.340426	-1125.405000	370.874023	293.802643
29646.340426	-1125.405000	369.591797	468.344482
29646.340426	-1125.405000	368.310547	414.438232
29646.340426	-1125.405000	367.028320	312.744324
29646.340426	-1125.405000	365.746094	286.368744
29646.340426	-1125.405000	364.463867	277.819672
29646.340426	-1125.405000	363.180664	274.750366
29646.340426	-1125.405000	361.897461	391.950653
29646.340426	-1125.405000	360.614258	405.926636
29646.340426	-1125.405000	359.330078	318.756622
29646.340426	-1125.405000	358.045898	378.389954
29646.340426	-1125.405000	356.761719	394.228027
29646.340426	-1125.405000	355.477539	480.953156
29646.340426	-1125.405000	354.192383	333.430725
29646.340426	-1125.405000	352.907227	199.481735
29646.340426	-1125.405000	351.622070	109.769676
29646.340426	-1125.405000	350.336914	299.530823
29646.340426	-1125.405000	349.050781	322.613586
29646.340426	-1125.405000	347.764648	187.306473
29646.340426	-1125.405000	346.477539	63.369671
29646.340426	-1125.405000	345.191406	130.706329
29646.340426	-1125.405000	343.904297	45.771015
29646.340426	-1125.405000	342.616211	176.426895
29646.340426	-1125.405000	341.329102	226.349655
29646.340426	-1125.405000	340.041016	124.027931
29646.340426	-1125.405000	338.752930	-1.795916
29646.340426	-1125.405000	337.463867	187.725128
29646.340426	-1125.405000	336.175781	78.060242
29646.340426	-1125.405000	334.886719	-36.836891
29646.340426	-1125.405000	333.596680	16.420332
29646.340426	-1125.405000	332.307617	101.095734
29646.340426	-1125.405000	331.017578	-109.211609
29646.340426	-1125.405000	329.727539	-155.567673
29646.340426	-1125.405000	328.436523	143.266693
29646.340426	-1125.405000	327.146484	65.677879
29646.340426	-1125.405000	325.855469	-82.570221
29646.340426	-1125.405000	324.563477	-42.762390
29646.340426	-1125.405000	323.272461	-49.185570
29646.340426	-1125.405000	321.980469	42.642597
29646.340426	-1125.405000	320.688477	27.057436
29646.340426	-1125.405000	319.395508	-4.364071
29646.340426	-1125.405000	318.103516	127.504852
29646.340426	-1125.405000	316.810547	182.374207
29646.340426	-1125.405000	315.516602	-37.037861
29646.340426	-1125.405000	314.223633	18.548182
29646.340426	-1125.405000	312.929688	-234.668045
29646.340426	-1125.405000	311.635742	-125.716690
29646.340426	-1125.405000	310.340820	-34.942524
29646.340426	-1125.405000	309.045898	-29.368687
29646.340426	-1125.405000	307.750977	-129.295044
29646.340426	-1125.405000	306.456055	154.735657
29646.340426	-1125.405000	305.160156	-3.996159
29646.340426	-1125.405000	303.865234	119.561203
29646.340426	-1125.405000	302.568359	115.039810
29646.340426	-1125.405000	301.272461	71.935661
29646.340426	-1125.405000	299.975586	245.709473
29646.340426	-1125.405000	298.678711	398.937500
