#X		#Y		#Wave		#Intensity
29600.548404	-1105.818333	1999.980469	103.379189
29600.548404	-1105.818333	1999.016602	-98.894051
29600.548404	-1105.818333	1998.052734	-28.054525
29600.548404	-1105.818333	1997.087891	-163.235123
29600.548404	-1105.818333	1996.123047	-48.428604
29600.548404	-1105.818333	1995.158203	-72.686516
29600.548404	-1105.818333	1994.193359	-10.539064
29600.548404	-1105.818333	1993.228516	68.637650
29600.548404	-1105.818333	1992.262695	28.677206
29600.548404	-1105.818333	1991.297852	-6.586887
29600.548404	-1105.818333	1990.332031	76.705589
29600.548404	-1105.818333	1989.366211	48.367474
29600.548404	-1105.818333	1988.399414	-27.203871
29600.548404	-1105.818333	1987.433594	28.112629
29600.548404	-1105.818333	1986.466797	-15.737530
29600.548404	-1105.818333	1985.500977	63.838051
29600.548404	-1105.818333	1984.534180	4.733850
29600.548404	-1105.818333	1983.567383	-96.572670
29600.548404	-1105.818333	1982.599609	4.603693
29600.548404	-1105.818333	1981.632813	24.013676
29600.548404	-1105.818333	1980.665039	16.059317
29600.548404	-1105.818333	1979.697266	-130.383224
29600.548404	-1105.818333	1978.729492	83.589928
29600.548404	-1105.818333	1977.761719	230.655930
29600.548404	-1105.818333	1976.792969	88.694412
29600.548404	-1105.818333	1975.825195	116.925171
29600.548404	-1105.818333	1974.856445	41.359688
29600.548404	-1105.818333	1973.887695	-44.189117
29600.548404	-1105.818333	1972.918945	-26.244925
29600.548404	-1105.818333	1971.949219	45.817604
29600.548404	-1105.818333	1970.980469	-15.422525
29600.548404	-1105.818333	1970.010742	179.627167
29600.548404	-1105.818333	1969.041016	160.047256
29600.548404	-1105.818333	1968.071289	236.474594
29600.548404	-1105.818333	1967.101563	182.178696
29600.548404	-1105.818333	1966.130859	48.970039
29600.548404	-1105.818333	1965.161133	-10.395928
29600.548404	-1105.818333	1964.190430	-32.896130
29600.548404	-1105.818333	1963.219727	153.800980
29600.548404	-1105.818333	1962.249023	177.876450
29600.548404	-1105.818333	1961.277344	76.341957
29600.548404	-1105.818333	1960.306641	124.873169
29600.548404	-1105.818333	1959.334961	89.664650
29600.548404	-1105.818333	1958.363281	152.792953
29600.548404	-1105.818333	1957.391602	245.343918
29600.548404	-1105.818333	1956.419922	-80.209053
29600.548404	-1105.818333	1955.447266	-19.728378
29600.548404	-1105.818333	1954.474609	-3.567312
29600.548404	-1105.818333	1953.501953	-125.083778
29600.548404	-1105.818333	1952.529297	-57.409237
29600.548404	-1105.818333	1951.556641	88.806206
29600.548404	-1105.818333	1950.583984	99.839104
29600.548404	-1105.818333	1949.610352	69.081093
29600.548404	-1105.818333	1948.636719	-45.177784
29600.548404	-1105.818333	1947.663086	105.687393
29600.548404	-1105.818333	1946.689453	116.571983
29600.548404	-1105.818333	1945.715820	4.732555
29600.548404	-1105.818333	1944.741211	96.539680
29600.548404	-1105.818333	1943.767578	180.933746
29600.548404	-1105.818333	1942.792969	100.958763
29600.548404	-1105.818333	1941.818359	-23.139555
29600.548404	-1105.818333	1940.842773	-193.789856
29600.548404	-1105.818333	1939.868164	79.265457
29600.548404	-1105.818333	1938.892578	-106.066757
29600.548404	-1105.818333	1937.916992	-110.024422
29600.548404	-1105.818333	1936.941406	77.092682
29600.548404	-1105.818333	1935.965820	29.005213
29600.548404	-1105.818333	1934.990234	186.632965
29600.548404	-1105.818333	1934.013672	30.807476
29600.548404	-1105.818333	1933.037109	-56.417500
29600.548404	-1105.818333	1932.060547	-40.814747
29600.548404	-1105.818333	1931.083984	-198.951080
29600.548404	-1105.818333	1930.107422	-70.777138
29600.548404	-1105.818333	1929.129883	28.000231
29600.548404	-1105.818333	1928.153320	63.164173
29600.548404	-1105.818333	1927.175781	29.858057
29600.548404	-1105.818333	1926.198242	255.715225
29600.548404	-1105.818333	1925.219727	63.527672
29600.548404	-1105.818333	1924.242188	-25.932537
29600.548404	-1105.818333	1923.263672	-59.151070
29600.548404	-1105.818333	1922.285156	-182.729233
29600.548404	-1105.818333	1921.306641	-81.540108
29600.548404	-1105.818333	1920.328125	-29.210703
29600.548404	-1105.818333	1919.349609	-89.195259
29600.548404	-1105.818333	1918.370117	146.230560
29600.548404	-1105.818333	1917.391602	-4.028961
29600.548404	-1105.818333	1916.412109	82.482750
29600.548404	-1105.818333	1915.431641	-21.317577
29600.548404	-1105.818333	1914.452148	-51.877506
29600.548404	-1105.818333	1913.472656	-82.404549
29600.548404	-1105.818333	1912.492188	-95.830772
29600.548404	-1105.818333	1911.511719	41.919487
29600.548404	-1105.818333	1910.531250	4.146441
29600.548404	-1105.818333	1909.550781	-84.764771
29600.548404	-1105.818333	1908.569336	91.960739
29600.548404	-1105.818333	1907.588867	-11.502207
29600.548404	-1105.818333	1906.607422	-56.448940
29600.548404	-1105.818333	1905.625977	-13.687994
29600.548404	-1105.818333	1904.644531	114.296425
29600.548404	-1105.818333	1903.662109	-42.550953
29600.548404	-1105.818333	1902.680664	-53.284260
29600.548404	-1105.818333	1901.698242	23.609825
29600.548404	-1105.818333	1900.715820	163.756042
29600.548404	-1105.818333	1899.733398	80.091896
29600.548404	-1105.818333	1898.750000	-22.974075
29600.548404	-1105.818333	1897.767578	0.465470
29600.548404	-1105.818333	1896.784180	74.971802
29600.548404	-1105.818333	1895.800781	40.098080
29600.548404	-1105.818333	1894.817383	-50.630482
29600.548404	-1105.818333	1893.833984	28.778091
29600.548404	-1105.818333	1892.850586	88.747398
29600.548404	-1105.818333	1891.866211	-28.585529
29600.548404	-1105.818333	1890.881836	-36.574055
29600.548404	-1105.818333	1889.897461	40.439709
29600.548404	-1105.818333	1888.913086	56.762047
29600.548404	-1105.818333	1887.927734	-303.081329
29600.548404	-1105.818333	1886.943359	-97.386116
29600.548404	-1105.818333	1885.958008	52.454128
29600.548404	-1105.818333	1884.972656	190.131638
29600.548404	-1105.818333	1883.987305	119.214310
29600.548404	-1105.818333	1883.001953	24.098133
29600.548404	-1105.818333	1882.015625	4.188683
29600.548404	-1105.818333	1881.029297	-10.846397
29600.548404	-1105.818333	1880.042969	63.807770
29600.548404	-1105.818333	1879.056641	7.616434
29600.548404	-1105.818333	1878.070313	62.896385
29600.548404	-1105.818333	1877.083984	183.566940
29600.548404	-1105.818333	1876.096680	151.651840
29600.548404	-1105.818333	1875.109375	47.132938
29600.548404	-1105.818333	1874.122070	-13.759944
29600.548404	-1105.818333	1873.134766	-11.690576
29600.548404	-1105.818333	1872.146484	-14.447717
29600.548404	-1105.818333	1871.159180	-97.025246
29600.548404	-1105.818333	1870.170898	-249.705093
29600.548404	-1105.818333	1869.182617	129.721939
29600.548404	-1105.818333	1868.194336	88.303963
29600.548404	-1105.818333	1867.205078	42.076408
29600.548404	-1105.818333	1866.216797	0.711222
29600.548404	-1105.818333	1865.227539	-67.212135
29600.548404	-1105.818333	1864.238281	31.609175
29600.548404	-1105.818333	1863.249023	-103.916466
29600.548404	-1105.818333	1862.259766	-150.022293
29600.548404	-1105.818333	1861.269531	-210.594757
29600.548404	-1105.818333	1860.279297	-20.053724
29600.548404	-1105.818333	1859.290039	83.522667
29600.548404	-1105.818333	1858.298828	22.953318
29600.548404	-1105.818333	1857.308594	-37.589207
29600.548404	-1105.818333	1856.318359	15.278157
29600.548404	-1105.818333	1855.327148	-35.590816
29600.548404	-1105.818333	1854.335938	-18.916868
29600.548404	-1105.818333	1853.344727	212.337204
29600.548404	-1105.818333	1852.353516	192.796494
29600.548404	-1105.818333	1851.362305	74.441559
29600.548404	-1105.818333	1850.370117	228.427902
29600.548404	-1105.818333	1849.377930	134.194901
29600.548404	-1105.818333	1848.385742	78.534637
29600.548404	-1105.818333	1847.393555	68.647369
29600.548404	-1105.818333	1846.401367	111.731415
29600.548404	-1105.818333	1845.408203	229.421722
29600.548404	-1105.818333	1844.415039	118.392052
29600.548404	-1105.818333	1843.421875	-93.681747
29600.548404	-1105.818333	1842.428711	9.514855
29600.548404	-1105.818333	1841.435547	-82.198753
29600.548404	-1105.818333	1840.441406	213.349442
29600.548404	-1105.818333	1839.448242	-133.298660
29600.548404	-1105.818333	1838.454102	-78.310837
29600.548404	-1105.818333	1837.459961	72.794350
29600.548404	-1105.818333	1836.464844	70.007225
29600.548404	-1105.818333	1835.470703	115.264336
29600.548404	-1105.818333	1834.475586	146.070633
29600.548404	-1105.818333	1833.480469	217.680084
29600.548404	-1105.818333	1832.485352	97.116203
29600.548404	-1105.818333	1831.490234	-225.119949
29600.548404	-1105.818333	1830.495117	-263.974609
29600.548404	-1105.818333	1829.499023	-26.811050
29600.548404	-1105.818333	1828.502930	159.843506
29600.548404	-1105.818333	1827.506836	-1.500089
29600.548404	-1105.818333	1826.510742	278.585999
29600.548404	-1105.818333	1825.513672	-86.638618
29600.548404	-1105.818333	1824.517578	20.649864
29600.548404	-1105.818333	1823.520508	137.458878
29600.548404	-1105.818333	1822.523438	88.796562
29600.548404	-1105.818333	1821.526367	138.384735
29600.548404	-1105.818333	1820.529297	70.510620
29600.548404	-1105.818333	1819.531250	31.378061
29600.548404	-1105.818333	1818.533203	145.524628
29600.548404	-1105.818333	1817.535156	-85.258499
29600.548404	-1105.818333	1816.537109	141.334473
29600.548404	-1105.818333	1815.539063	200.233383
29600.548404	-1105.818333	1814.540039	134.612671
29600.548404	-1105.818333	1813.541992	183.845642
29600.548404	-1105.818333	1812.542969	-42.122375
29600.548404	-1105.818333	1811.543945	-52.754520
29600.548404	-1105.818333	1810.543945	-6.023944
29600.548404	-1105.818333	1809.544922	-76.517952
29600.548404	-1105.818333	1808.544922	84.874542
29600.548404	-1105.818333	1807.544922	-2.425632
29600.548404	-1105.818333	1806.544922	-53.887966
29600.548404	-1105.818333	1805.544922	16.484846
29600.548404	-1105.818333	1804.544922	58.120785
29600.548404	-1105.818333	1803.543945	80.585533
29600.548404	-1105.818333	1802.542969	-221.776001
29600.548404	-1105.818333	1801.541992	139.679031
29600.548404	-1105.818333	1800.541016	119.009529
29600.548404	-1105.818333	1799.539063	79.203865
29600.548404	-1105.818333	1798.538086	70.388641
29600.548404	-1105.818333	1797.536133	166.500290
29600.548404	-1105.818333	1796.534180	174.268814
29600.548404	-1105.818333	1795.532227	81.818565
29600.548404	-1105.818333	1794.529297	25.117245
29600.548404	-1105.818333	1793.527344	228.240219
29600.548404	-1105.818333	1792.524414	204.797318
29600.548404	-1105.818333	1791.521484	81.221954
29600.548404	-1105.818333	1790.518555	74.387566
29600.548404	-1105.818333	1789.514648	-11.112370
29600.548404	-1105.818333	1788.511719	196.318573
29600.548404	-1105.818333	1787.507813	105.954826
29600.548404	-1105.818333	1786.503906	77.471313
29600.548404	-1105.818333	1785.500000	163.198547
29600.548404	-1105.818333	1784.496094	72.722946
29600.548404	-1105.818333	1783.491211	203.511734
29600.548404	-1105.818333	1782.486328	170.039932
29600.548404	-1105.818333	1781.481445	-41.868736
29600.548404	-1105.818333	1780.476563	72.043068
29600.548404	-1105.818333	1779.471680	88.368637
29600.548404	-1105.818333	1778.465820	-28.498245
29600.548404	-1105.818333	1777.460938	187.366348
29600.548404	-1105.818333	1776.455078	172.583435
29600.548404	-1105.818333	1775.449219	114.980011
29600.548404	-1105.818333	1774.442383	64.458496
29600.548404	-1105.818333	1773.436523	104.144493
29600.548404	-1105.818333	1772.429688	127.128311
29600.548404	-1105.818333	1771.422852	-28.013708
29600.548404	-1105.818333	1770.416016	51.825500
29600.548404	-1105.818333	1769.409180	8.166110
29600.548404	-1105.818333	1768.402344	-23.676771
29600.548404	-1105.818333	1767.394531	157.924500
29600.548404	-1105.818333	1766.386719	-4.517829
29600.548404	-1105.818333	1765.378906	-64.995255
29600.548404	-1105.818333	1764.371094	54.670662
29600.548404	-1105.818333	1763.362305	-65.193413
29600.548404	-1105.818333	1762.354492	21.115776
29600.548404	-1105.818333	1761.345703	242.383621
29600.548404	-1105.818333	1760.336914	-48.221905
29600.548404	-1105.818333	1759.328125	30.722813
29600.548404	-1105.818333	1758.318359	33.783447
29600.548404	-1105.818333	1757.308594	233.298111
29600.548404	-1105.818333	1756.299805	-83.395782
29600.548404	-1105.818333	1755.290039	11.787256
29600.548404	-1105.818333	1754.279297	-11.457798
29600.548404	-1105.818333	1753.269531	-136.492844
29600.548404	-1105.818333	1752.258789	5.745789
29600.548404	-1105.818333	1751.249023	204.625977
29600.548404	-1105.818333	1750.238281	110.148636
29600.548404	-1105.818333	1749.226563	15.633831
29600.548404	-1105.818333	1748.215820	20.364885
29600.548404	-1105.818333	1747.204102	-45.877338
29600.548404	-1105.818333	1746.193359	36.696640
29600.548404	-1105.818333	1745.181641	45.931904
29600.548404	-1105.818333	1744.168945	208.610474
29600.548404	-1105.818333	1743.157227	135.019302
29600.548404	-1105.818333	1742.144531	146.377167
29600.548404	-1105.818333	1741.132813	-64.223007
29600.548404	-1105.818333	1740.120117	-107.253136
29600.548404	-1105.818333	1739.106445	-22.923336
29600.548404	-1105.818333	1738.093750	-11.823843
29600.548404	-1105.818333	1737.080078	-52.695473
29600.548404	-1105.818333	1736.067383	-58.242443
29600.548404	-1105.818333	1735.053711	61.101810
29600.548404	-1105.818333	1734.040039	34.174248
29600.548404	-1105.818333	1733.025391	-63.526184
29600.548404	-1105.818333	1732.011719	-213.095718
29600.548404	-1105.818333	1730.997070	-230.746567
29600.548404	-1105.818333	1729.982422	-104.769394
29600.548404	-1105.818333	1728.967773	-164.964828
29600.548404	-1105.818333	1727.952148	-53.321484
29600.548404	-1105.818333	1726.937500	13.486015
29600.548404	-1105.818333	1725.921875	-30.434816
29600.548404	-1105.818333	1724.906250	-41.460209
29600.548404	-1105.818333	1723.890625	-26.669037
29600.548404	-1105.818333	1722.875000	-148.392120
29600.548404	-1105.818333	1721.858398	35.613071
29600.548404	-1105.818333	1720.841797	-161.466904
29600.548404	-1105.818333	1719.825195	-15.283120
29600.548404	-1105.818333	1718.808594	-14.960315
29600.548404	-1105.818333	1717.791992	154.506699
29600.548404	-1105.818333	1716.774414	81.813316
29600.548404	-1105.818333	1715.756836	6.732414
29600.548404	-1105.818333	1714.739258	-75.432945
29600.548404	-1105.818333	1713.721680	-28.472467
29600.548404	-1105.818333	1712.704102	72.407173
29600.548404	-1105.818333	1711.685547	-92.090088
29600.548404	-1105.818333	1710.667969	76.695305
29600.548404	-1105.818333	1709.649414	-198.158264
29600.548404	-1105.818333	1708.630859	-137.476044
29600.548404	-1105.818333	1707.611328	77.926163
29600.548404	-1105.818333	1706.592773	96.190857
29600.548404	-1105.818333	1705.573242	13.551271
29600.548404	-1105.818333	1704.553711	22.309372
29600.548404	-1105.818333	1703.534180	77.879662
29600.548404	-1105.818333	1702.513672	70.085785
29600.548404	-1105.818333	1701.494141	15.380404
29600.548404	-1105.818333	1700.473633	16.847811
29600.548404	-1105.818333	1699.453125	-44.982159
29600.548404	-1105.818333	1698.432617	-158.363892
29600.548404	-1105.818333	1697.412109	-180.457062
29600.548404	-1105.818333	1696.390625	22.099821
29600.548404	-1105.818333	1695.369141	39.637608
29600.548404	-1105.818333	1694.347656	164.742767
29600.548404	-1105.818333	1693.326172	144.700027
29600.548404	-1105.818333	1692.304688	-81.217621
29600.548404	-1105.818333	1691.282227	15.595221
29600.548404	-1105.818333	1690.260742	44.519249
29600.548404	-1105.818333	1689.238281	215.960938
29600.548404	-1105.818333	1688.214844	247.044739
29600.548404	-1105.818333	1687.192383	240.682938
29600.548404	-1105.818333	1686.168945	194.544418
29600.548404	-1105.818333	1685.146484	54.946934
29600.548404	-1105.818333	1684.123047	95.162735
29600.548404	-1105.818333	1683.099609	207.690399
29600.548404	-1105.818333	1682.075195	350.462097
29600.548404	-1105.818333	1681.051758	374.102631
29600.548404	-1105.818333	1680.027344	166.655396
29600.548404	-1105.818333	1679.002930	211.210007
29600.548404	-1105.818333	1677.978516	369.996613
29600.548404	-1105.818333	1676.953125	150.849533
29600.548404	-1105.818333	1675.928711	267.518097
29600.548404	-1105.818333	1674.903320	281.508209
29600.548404	-1105.818333	1673.877930	260.483887
29600.548404	-1105.818333	1672.852539	234.759369
29600.548404	-1105.818333	1671.826172	248.599457
29600.548404	-1105.818333	1670.800781	218.136734
29600.548404	-1105.818333	1669.774414	259.833710
29600.548404	-1105.818333	1668.748047	201.341080
29600.548404	-1105.818333	1667.721680	303.469116
29600.548404	-1105.818333	1666.694336	272.828186
29600.548404	-1105.818333	1665.667969	207.257370
29600.548404	-1105.818333	1664.640625	334.786194
29600.548404	-1105.818333	1663.613281	583.194458
29600.548404	-1105.818333	1662.585938	310.468292
29600.548404	-1105.818333	1661.557617	179.650528
29600.548404	-1105.818333	1660.530273	369.703613
29600.548404	-1105.818333	1659.501953	229.552353
29600.548404	-1105.818333	1658.473633	52.232552
29600.548404	-1105.818333	1657.444336	414.021362
29600.548404	-1105.818333	1656.416016	290.097321
29600.548404	-1105.818333	1655.386719	556.398621
29600.548404	-1105.818333	1654.358398	448.683075
29600.548404	-1105.818333	1653.328125	331.669922
29600.548404	-1105.818333	1652.298828	486.283081
29600.548404	-1105.818333	1651.269531	610.633667
29600.548404	-1105.818333	1650.239258	635.114868
29600.548404	-1105.818333	1649.208984	439.150482
29600.548404	-1105.818333	1648.178711	528.546021
29600.548404	-1105.818333	1647.148438	893.858032
29600.548404	-1105.818333	1646.117188	929.734497
29600.548404	-1105.818333	1645.086914	884.442444
29600.548404	-1105.818333	1644.055664	727.878540
29600.548404	-1105.818333	1643.024414	1150.689453
29600.548404	-1105.818333	1641.992188	1010.293762
29600.548404	-1105.818333	1640.960938	1120.116699
29600.548404	-1105.818333	1639.928711	1308.609619
29600.548404	-1105.818333	1638.896484	1237.665283
29600.548404	-1105.818333	1637.864258	1185.249390
29600.548404	-1105.818333	1636.832031	1345.782837
29600.548404	-1105.818333	1635.798828	1050.324585
29600.548404	-1105.818333	1634.766602	1018.742493
29600.548404	-1105.818333	1633.733398	1114.377441
29600.548404	-1105.818333	1632.699219	1244.643433
29600.548404	-1105.818333	1631.666016	1062.676025
29600.548404	-1105.818333	1630.632813	1246.056519
29600.548404	-1105.818333	1629.598633	1175.073486
29600.548404	-1105.818333	1628.564453	1265.881714
29600.548404	-1105.818333	1627.530273	1199.520142
29600.548404	-1105.818333	1626.495117	1428.864868
29600.548404	-1105.818333	1625.460938	1360.167114
29600.548404	-1105.818333	1624.425781	1700.217651
29600.548404	-1105.818333	1623.390625	1465.229858
29600.548404	-1105.818333	1622.355469	1537.340210
29600.548404	-1105.818333	1621.319336	1404.000366
29600.548404	-1105.818333	1620.284180	1575.304077
29600.548404	-1105.818333	1619.248047	1635.788086
29600.548404	-1105.818333	1618.211914	1617.821289
29600.548404	-1105.818333	1617.174805	1373.846191
29600.548404	-1105.818333	1616.138672	1683.340576
29600.548404	-1105.818333	1615.101563	1614.642944
29600.548404	-1105.818333	1614.065430	1873.262085
29600.548404	-1105.818333	1613.027344	1581.022583
29600.548404	-1105.818333	1611.990234	1970.861572
29600.548404	-1105.818333	1610.953125	1839.971558
29600.548404	-1105.818333	1609.915039	1633.127563
29600.548404	-1105.818333	1608.876953	1764.842529
29600.548404	-1105.818333	1607.838867	1668.602905
29600.548404	-1105.818333	1606.800781	1719.713135
29600.548404	-1105.818333	1605.761719	1621.220703
29600.548404	-1105.818333	1604.723633	1568.800903
29600.548404	-1105.818333	1603.684570	1755.630859
29600.548404	-1105.818333	1602.644531	1671.004272
29600.548404	-1105.818333	1601.605469	1579.533325
29600.548404	-1105.818333	1600.566406	1540.984863
29600.548404	-1105.818333	1599.526367	1596.692627
29600.548404	-1105.818333	1598.486328	1521.401978
29600.548404	-1105.818333	1597.446289	1508.190918
29600.548404	-1105.818333	1596.405273	1605.253418
29600.548404	-1105.818333	1595.365234	1491.005005
29600.548404	-1105.818333	1594.324219	1549.028931
29600.548404	-1105.818333	1593.283203	1643.780518
29600.548404	-1105.818333	1592.242188	1570.951172
29600.548404	-1105.818333	1591.200195	1440.786499
29600.548404	-1105.818333	1590.159180	1519.499756
29600.548404	-1105.818333	1589.117188	1458.258423
29600.548404	-1105.818333	1588.075195	1374.127197
29600.548404	-1105.818333	1587.032227	1507.887817
29600.548404	-1105.818333	1585.990234	1465.094238
29600.548404	-1105.818333	1584.947266	1770.751099
29600.548404	-1105.818333	1583.904297	1725.670776
29600.548404	-1105.818333	1582.861328	1685.217529
29600.548404	-1105.818333	1581.818359	1594.406616
29600.548404	-1105.818333	1580.775391	1666.281006
29600.548404	-1105.818333	1579.731445	1619.067261
29600.548404	-1105.818333	1578.687500	1633.719360
29600.548404	-1105.818333	1577.643555	1575.145142
29600.548404	-1105.818333	1576.598633	1873.643555
29600.548404	-1105.818333	1575.554688	1684.682007
29600.548404	-1105.818333	1574.509766	1667.398315
29600.548404	-1105.818333	1573.464844	1615.845947
29600.548404	-1105.818333	1572.419922	1729.002075
29600.548404	-1105.818333	1571.374023	1656.941406
29600.548404	-1105.818333	1570.329102	1671.820923
29600.548404	-1105.818333	1569.283203	1538.165039
29600.548404	-1105.818333	1568.237305	1617.109619
29600.548404	-1105.818333	1567.191406	1638.947632
29600.548404	-1105.818333	1566.144531	1475.789673
29600.548404	-1105.818333	1565.098633	1333.299561
29600.548404	-1105.818333	1564.051758	1371.275146
29600.548404	-1105.818333	1563.004883	1231.218628
29600.548404	-1105.818333	1561.957031	1303.510376
29600.548404	-1105.818333	1560.910156	992.465027
29600.548404	-1105.818333	1559.862305	1293.010864
29600.548404	-1105.818333	1558.814453	1030.072632
29600.548404	-1105.818333	1557.766602	999.901917
29600.548404	-1105.818333	1556.718750	860.343323
29600.548404	-1105.818333	1555.669922	1062.830322
29600.548404	-1105.818333	1554.621094	1133.091187
29600.548404	-1105.818333	1553.573242	1223.891968
29600.548404	-1105.818333	1552.523438	1059.515259
29600.548404	-1105.818333	1551.474609	1193.666382
29600.548404	-1105.818333	1550.424805	1143.335815
29600.548404	-1105.818333	1549.375000	1236.526733
29600.548404	-1105.818333	1548.325195	1304.692261
29600.548404	-1105.818333	1547.275391	972.291931
29600.548404	-1105.818333	1546.225586	1115.686890
29600.548404	-1105.818333	1545.174805	1165.789429
29600.548404	-1105.818333	1544.124023	1015.751099
29600.548404	-1105.818333	1543.073242	1022.754272
29600.548404	-1105.818333	1542.022461	1045.729248
29600.548404	-1105.818333	1540.970703	941.434509
29600.548404	-1105.818333	1539.919922	1112.274170
29600.548404	-1105.818333	1538.868164	821.780945
29600.548404	-1105.818333	1537.815430	1104.012329
29600.548404	-1105.818333	1536.763672	977.310730
29600.548404	-1105.818333	1535.710938	887.051880
29600.548404	-1105.818333	1534.659180	844.583740
29600.548404	-1105.818333	1533.606445	1303.916260
29600.548404	-1105.818333	1532.552734	1109.416260
29600.548404	-1105.818333	1531.500000	1262.277100
29600.548404	-1105.818333	1530.446289	1081.603760
29600.548404	-1105.818333	1529.393555	1379.723022
29600.548404	-1105.818333	1528.338867	1246.850952
29600.548404	-1105.818333	1527.285156	1209.342896
29600.548404	-1105.818333	1526.231445	1004.150269
29600.548404	-1105.818333	1525.176758	862.566284
29600.548404	-1105.818333	1524.122070	576.067505
29600.548404	-1105.818333	1523.067383	860.728577
29600.548404	-1105.818333	1522.012695	753.443665
29600.548404	-1105.818333	1520.957031	734.596252
29600.548404	-1105.818333	1519.901367	586.753235
29600.548404	-1105.818333	1518.845703	407.343842
29600.548404	-1105.818333	1517.790039	549.501404
29600.548404	-1105.818333	1516.734375	363.526245
29600.548404	-1105.818333	1515.677734	566.867554
29600.548404	-1105.818333	1514.621094	679.712952
29600.548404	-1105.818333	1513.564453	582.245605
29600.548404	-1105.818333	1512.507813	367.302856
29600.548404	-1105.818333	1511.450195	401.209137
29600.548404	-1105.818333	1510.393555	295.038727
29600.548404	-1105.818333	1509.335938	471.475250
29600.548404	-1105.818333	1508.278320	196.016464
29600.548404	-1105.818333	1507.219727	173.753693
29600.548404	-1105.818333	1506.162109	176.427505
29600.548404	-1105.818333	1505.103516	192.722153
29600.548404	-1105.818333	1504.044922	105.233665
29600.548404	-1105.818333	1502.986328	114.922417
29600.548404	-1105.818333	1501.926758	235.265808
29600.548404	-1105.818333	1500.868164	125.495811
29600.548404	-1105.818333	1499.808594	54.195835
29600.548404	-1105.818333	1498.749023	-7.973078
29600.548404	-1105.818333	1497.688477	139.677689
29600.548404	-1105.818333	1496.628906	12.297462
29600.548404	-1105.818333	1495.568359	-114.955589
29600.548404	-1105.818333	1494.507813	95.978683
29600.548404	-1105.818333	1493.447266	-35.582024
29600.548404	-1105.818333	1492.386719	-115.191086
29600.548404	-1105.818333	1491.325195	86.853233
29600.548404	-1105.818333	1490.263672	2.910525
29600.548404	-1105.818333	1489.202148	-58.399773
29600.548404	-1105.818333	1488.140625	125.758568
29600.548404	-1105.818333	1487.079102	213.155365
29600.548404	-1105.818333	1486.016602	37.335491
29600.548404	-1105.818333	1484.954102	158.627823
29600.548404	-1105.818333	1483.891602	-192.378510
29600.548404	-1105.818333	1482.829102	16.786469
29600.548404	-1105.818333	1481.765625	14.608361
29600.548404	-1105.818333	1480.702148	104.682281
29600.548404	-1105.818333	1479.638672	-99.600914
29600.548404	-1105.818333	1478.575195	82.765831
29600.548404	-1105.818333	1477.511719	58.442879
29600.548404	-1105.818333	1476.447266	41.014843
29600.548404	-1105.818333	1475.382813	252.668182
29600.548404	-1105.818333	1474.318359	329.663818
29600.548404	-1105.818333	1473.253906	9.431637
29600.548404	-1105.818333	1472.189453	259.346802
29600.548404	-1105.818333	1471.124023	246.811661
29600.548404	-1105.818333	1470.058594	330.714386
29600.548404	-1105.818333	1468.993164	455.075623
29600.548404	-1105.818333	1467.927734	212.010757
29600.548404	-1105.818333	1466.861328	318.428314
29600.548404	-1105.818333	1465.794922	485.643829
29600.548404	-1105.818333	1464.728516	399.741364
29600.548404	-1105.818333	1463.662109	381.221039
29600.548404	-1105.818333	1462.594727	391.737823
29600.548404	-1105.818333	1461.528320	539.174500
29600.548404	-1105.818333	1460.460938	547.423096
29600.548404	-1105.818333	1459.393555	502.271088
29600.548404	-1105.818333	1458.326172	464.062378
29600.548404	-1105.818333	1457.257813	595.442505
29600.548404	-1105.818333	1456.189453	519.514160
29600.548404	-1105.818333	1455.121094	577.637878
29600.548404	-1105.818333	1454.052734	814.086975
29600.548404	-1105.818333	1452.984375	823.526611
29600.548404	-1105.818333	1451.915039	966.421082
29600.548404	-1105.818333	1450.845703	927.942017
29600.548404	-1105.818333	1449.776367	1036.594238
29600.548404	-1105.818333	1448.707031	1070.263550
29600.548404	-1105.818333	1447.636719	1050.915649
29600.548404	-1105.818333	1446.567383	957.721680
29600.548404	-1105.818333	1445.497070	659.781982
29600.548404	-1105.818333	1444.425781	490.038239
29600.548404	-1105.818333	1443.355469	921.169983
29600.548404	-1105.818333	1442.285156	676.563904
29600.548404	-1105.818333	1441.213867	599.833435
29600.548404	-1105.818333	1440.142578	812.555664
29600.548404	-1105.818333	1439.070313	611.595154
29600.548404	-1105.818333	1437.999023	677.971497
29600.548404	-1105.818333	1436.926758	692.594788
29600.548404	-1105.818333	1435.854492	418.614838
29600.548404	-1105.818333	1434.782227	700.014954
29600.548404	-1105.818333	1433.709961	683.510864
29600.548404	-1105.818333	1432.636719	469.275299
29600.548404	-1105.818333	1431.563477	624.881470
29600.548404	-1105.818333	1430.490234	750.007996
29600.548404	-1105.818333	1429.416992	762.206543
29600.548404	-1105.818333	1428.343750	459.296173
29600.548404	-1105.818333	1427.269531	512.142456
29600.548404	-1105.818333	1426.195313	522.955933
29600.548404	-1105.818333	1425.121094	563.062561
29600.548404	-1105.818333	1424.046875	464.424072
29600.548404	-1105.818333	1422.971680	411.957092
29600.548404	-1105.818333	1421.896484	612.026978
29600.548404	-1105.818333	1420.821289	506.823029
29600.548404	-1105.818333	1419.746094	632.010986
29600.548404	-1105.818333	1418.669922	595.758789
29600.548404	-1105.818333	1417.594727	792.131470
29600.548404	-1105.818333	1416.518555	742.444519
29600.548404	-1105.818333	1415.442383	784.896851
29600.548404	-1105.818333	1414.365234	468.032532
29600.548404	-1105.818333	1413.289063	586.942322
29600.548404	-1105.818333	1412.211914	687.636780
29600.548404	-1105.818333	1411.134766	674.462769
29600.548404	-1105.818333	1410.057617	894.240295
29600.548404	-1105.818333	1408.979492	919.997375
29600.548404	-1105.818333	1407.902344	1089.012329
29600.548404	-1105.818333	1406.824219	878.126404
29600.548404	-1105.818333	1405.746094	791.759460
29600.548404	-1105.818333	1404.666992	851.787354
29600.548404	-1105.818333	1403.588867	711.820740
29600.548404	-1105.818333	1402.509766	1023.618591
29600.548404	-1105.818333	1401.430664	905.533875
29600.548404	-1105.818333	1400.351563	1018.335754
29600.548404	-1105.818333	1399.271484	931.199402
29600.548404	-1105.818333	1398.192383	872.668213
29600.548404	-1105.818333	1397.112305	878.191345
29600.548404	-1105.818333	1396.031250	987.883911
29600.548404	-1105.818333	1394.951172	1046.778076
29600.548404	-1105.818333	1393.871094	1136.482788
29600.548404	-1105.818333	1392.790039	814.636292
29600.548404	-1105.818333	1391.708984	973.282288
29600.548404	-1105.818333	1390.626953	947.948914
29600.548404	-1105.818333	1389.545898	1161.527954
29600.548404	-1105.818333	1388.463867	947.824219
29600.548404	-1105.818333	1387.381836	1100.502075
29600.548404	-1105.818333	1386.299805	1280.139404
29600.548404	-1105.818333	1385.217773	1097.695557
29600.548404	-1105.818333	1384.134766	1093.289185
29600.548404	-1105.818333	1383.051758	1153.539185
29600.548404	-1105.818333	1381.968750	1409.422729
29600.548404	-1105.818333	1380.885742	1282.797974
29600.548404	-1105.818333	1379.802734	1293.389771
29600.548404	-1105.818333	1378.718750	1530.792603
29600.548404	-1105.818333	1377.634766	1175.694702
29600.548404	-1105.818333	1376.550781	1230.041626
29600.548404	-1105.818333	1375.465820	1029.071777
29600.548404	-1105.818333	1374.381836	1167.675537
29600.548404	-1105.818333	1373.296875	1138.138306
29600.548404	-1105.818333	1372.211914	1170.299072
29600.548404	-1105.818333	1371.126953	904.817749
29600.548404	-1105.818333	1370.041016	1028.037109
29600.548404	-1105.818333	1368.955078	1377.249023
29600.548404	-1105.818333	1367.869141	1110.657227
29600.548404	-1105.818333	1366.783203	1175.811035
29600.548404	-1105.818333	1365.697266	931.865173
29600.548404	-1105.818333	1364.610352	1079.833740
29600.548404	-1105.818333	1363.523438	958.415649
29600.548404	-1105.818333	1362.436523	1085.243042
29600.548404	-1105.818333	1361.349609	891.725708
29600.548404	-1105.818333	1360.261719	929.403381
29600.548404	-1105.818333	1359.174805	853.107056
29600.548404	-1105.818333	1358.086914	825.222473
29600.548404	-1105.818333	1356.998047	1034.574707
29600.548404	-1105.818333	1355.910156	978.166931
29600.548404	-1105.818333	1354.821289	795.679443
29600.548404	-1105.818333	1353.732422	1090.021362
29600.548404	-1105.818333	1352.643555	1015.790771
29600.548404	-1105.818333	1351.554688	1053.803467
29600.548404	-1105.818333	1350.464844	1268.864380
29600.548404	-1105.818333	1349.375000	1150.307373
29600.548404	-1105.818333	1348.285156	1450.468506
29600.548404	-1105.818333	1347.195313	1365.695068
29600.548404	-1105.818333	1346.105469	1612.016602
29600.548404	-1105.818333	1345.014648	1660.116455
29600.548404	-1105.818333	1343.923828	1740.343384
29600.548404	-1105.818333	1342.833008	2213.359131
29600.548404	-1105.818333	1341.741211	2288.070557
29600.548404	-1105.818333	1340.650391	2259.988037
29600.548404	-1105.818333	1339.558594	2009.804443
29600.548404	-1105.818333	1338.466797	1923.098511
29600.548404	-1105.818333	1337.374023	1934.901733
29600.548404	-1105.818333	1336.282227	1536.818726
29600.548404	-1105.818333	1335.189453	1547.948608
29600.548404	-1105.818333	1334.096680	1483.285645
29600.548404	-1105.818333	1333.003906	1511.689209
29600.548404	-1105.818333	1331.910156	1340.933105
29600.548404	-1105.818333	1330.817383	1330.933105
29600.548404	-1105.818333	1329.723633	1265.906128
29600.548404	-1105.818333	1328.629883	1240.664063
29600.548404	-1105.818333	1327.535156	1009.062866
29600.548404	-1105.818333	1326.441406	953.867432
29600.548404	-1105.818333	1325.346680	1022.034363
29600.548404	-1105.818333	1324.251953	936.709473
29600.548404	-1105.818333	1323.156250	968.156982
29600.548404	-1105.818333	1322.061523	837.069153
29600.548404	-1105.818333	1320.965820	872.890198
29600.548404	-1105.818333	1319.870117	853.393677
29600.548404	-1105.818333	1318.774414	873.629761
29600.548404	-1105.818333	1317.678711	805.402405
29600.548404	-1105.818333	1316.582031	868.729065
29600.548404	-1105.818333	1315.485352	842.827515
29600.548404	-1105.818333	1314.388672	772.403076
29600.548404	-1105.818333	1313.291016	737.310242
29600.548404	-1105.818333	1312.194336	873.467957
29600.548404	-1105.818333	1311.096680	904.347717
29600.548404	-1105.818333	1309.999023	840.062378
29600.548404	-1105.818333	1308.901367	766.038025
29600.548404	-1105.818333	1307.802734	679.716370
29600.548404	-1105.818333	1306.705078	605.735596
29600.548404	-1105.818333	1305.606445	773.088074
29600.548404	-1105.818333	1304.506836	453.331848
29600.548404	-1105.818333	1303.408203	526.039490
29600.548404	-1105.818333	1302.308594	711.049255
29600.548404	-1105.818333	1301.208984	672.042114
29600.548404	-1105.818333	1300.109375	692.593628
29600.548404	-1105.818333	1299.009766	780.085876
29600.548404	-1105.818333	1297.909180	686.552612
29600.548404	-1105.818333	1296.808594	711.176636
29600.548404	-1105.818333	1295.708008	630.832214
29600.548404	-1105.818333	1294.607422	603.078308
29600.548404	-1105.818333	1293.506836	479.318512
29600.548404	-1105.818333	1292.405273	619.389465
29600.548404	-1105.818333	1291.303711	452.150604
29600.548404	-1105.818333	1290.202148	528.425354
29600.548404	-1105.818333	1289.099609	436.849335
29600.548404	-1105.818333	1287.998047	460.359436
29600.548404	-1105.818333	1286.895508	175.246979
29600.548404	-1105.818333	1285.792969	188.765671
29600.548404	-1105.818333	1284.689453	241.903748
29600.548404	-1105.818333	1283.586914	226.056839
29600.548404	-1105.818333	1282.483398	324.609283
29600.548404	-1105.818333	1281.379883	433.635010
29600.548404	-1105.818333	1280.276367	423.424347
29600.548404	-1105.818333	1279.171875	435.762543
29600.548404	-1105.818333	1278.067383	401.461731
29600.548404	-1105.818333	1276.962891	182.875732
29600.548404	-1105.818333	1275.858398	198.334946
29600.548404	-1105.818333	1274.753906	44.560368
29600.548404	-1105.818333	1273.648438	73.555115
29600.548404	-1105.818333	1272.542969	70.715195
29600.548404	-1105.818333	1271.437500	215.093658
29600.548404	-1105.818333	1270.331055	171.929031
29600.548404	-1105.818333	1269.225586	40.916145
29600.548404	-1105.818333	1268.119141	95.982910
29600.548404	-1105.818333	1267.012695	-54.136875
29600.548404	-1105.818333	1265.906250	-35.189945
29600.548404	-1105.818333	1264.798828	110.631638
29600.548404	-1105.818333	1263.691406	69.839943
29600.548404	-1105.818333	1262.583984	28.881599
29600.548404	-1105.818333	1261.476563	11.194431
29600.548404	-1105.818333	1260.368164	36.508320
29600.548404	-1105.818333	1259.260742	-188.735092
29600.548404	-1105.818333	1258.152344	-97.227737
29600.548404	-1105.818333	1257.043945	-40.677330
29600.548404	-1105.818333	1255.934570	-92.924248
29600.548404	-1105.818333	1254.825195	-101.822731
29600.548404	-1105.818333	1253.716797	-75.592300
29600.548404	-1105.818333	1252.606445	-154.794708
29600.548404	-1105.818333	1251.497070	-132.061844
29600.548404	-1105.818333	1250.387695	-57.112949
29600.548404	-1105.818333	1249.277344	-185.336182
29600.548404	-1105.818333	1248.166992	-152.829971
29600.548404	-1105.818333	1247.055664	-82.170929
29600.548404	-1105.818333	1245.945313	22.543291
29600.548404	-1105.818333	1244.833984	11.640568
29600.548404	-1105.818333	1243.722656	-24.631853
29600.548404	-1105.818333	1242.611328	93.719559
29600.548404	-1105.818333	1241.499023	-169.626877
29600.548404	-1105.818333	1240.387695	31.844404
29600.548404	-1105.818333	1239.275391	-255.065002
29600.548404	-1105.818333	1238.162109	-159.168198
29600.548404	-1105.818333	1237.049805	-3.088297
29600.548404	-1105.818333	1235.936523	67.843506
29600.548404	-1105.818333	1234.823242	-103.218330
29600.548404	-1105.818333	1233.709961	-71.870110
29600.548404	-1105.818333	1232.596680	-124.533318
29600.548404	-1105.818333	1231.482422	-168.743454
29600.548404	-1105.818333	1230.369141	-66.622658
29600.548404	-1105.818333	1229.253906	-13.001867
29600.548404	-1105.818333	1228.139648	-87.075722
29600.548404	-1105.818333	1227.025391	34.903484
29600.548404	-1105.818333	1225.910156	49.268433
29600.548404	-1105.818333	1224.794922	89.184326
29600.548404	-1105.818333	1223.679688	62.433819
29600.548404	-1105.818333	1222.563477	-51.855511
29600.548404	-1105.818333	1221.447266	214.225723
29600.548404	-1105.818333	1220.331055	181.934753
29600.548404	-1105.818333	1219.214844	-22.859798
29600.548404	-1105.818333	1218.098633	119.571976
29600.548404	-1105.818333	1216.981445	23.211180
29600.548404	-1105.818333	1215.864258	190.402771
29600.548404	-1105.818333	1214.747070	98.336632
29600.548404	-1105.818333	1213.629883	61.068886
29600.548404	-1105.818333	1212.511719	-13.853953
29600.548404	-1105.818333	1211.393555	-43.642559
29600.548404	-1105.818333	1210.275391	84.278725
29600.548404	-1105.818333	1209.157227	16.293163
29600.548404	-1105.818333	1208.038086	58.497063
29600.548404	-1105.818333	1206.918945	9.431751
29600.548404	-1105.818333	1205.799805	59.251022
29600.548404	-1105.818333	1204.680664	25.470976
29600.548404	-1105.818333	1203.560547	65.215225
29600.548404	-1105.818333	1202.441406	30.615910
29600.548404	-1105.818333	1201.321289	55.454922
29600.548404	-1105.818333	1200.200195	66.831352
29600.548404	-1105.818333	1199.080078	172.129379
29600.548404	-1105.818333	1197.958984	190.782181
29600.548404	-1105.818333	1196.837891	360.198456
29600.548404	-1105.818333	1195.716797	219.565186
29600.548404	-1105.818333	1194.594727	149.058685
29600.548404	-1105.818333	1193.473633	6.176545
29600.548404	-1105.818333	1192.351563	82.444626
29600.548404	-1105.818333	1191.229492	38.608597
29600.548404	-1105.818333	1190.106445	59.430614
29600.548404	-1105.818333	1188.984375	37.063702
29600.548404	-1105.818333	1187.861328	31.066820
29600.548404	-1105.818333	1186.738281	130.468903
29600.548404	-1105.818333	1185.614258	196.686371
29600.548404	-1105.818333	1184.491211	230.651688
29600.548404	-1105.818333	1183.367188	93.263535
29600.548404	-1105.818333	1182.243164	261.122223
29600.548404	-1105.818333	1181.119141	271.178528
29600.548404	-1105.818333	1179.994141	153.269684
29600.548404	-1105.818333	1178.869141	65.315407
29600.548404	-1105.818333	1177.744141	37.612171
29600.548404	-1105.818333	1176.619141	-94.331627
29600.548404	-1105.818333	1175.493164	-84.036232
29600.548404	-1105.818333	1174.368164	-77.448662
29600.548404	-1105.818333	1173.242188	-185.890289
29600.548404	-1105.818333	1172.115234	-174.749237
29600.548404	-1105.818333	1170.989258	13.352796
29600.548404	-1105.818333	1169.862305	-150.487701
29600.548404	-1105.818333	1168.735352	-47.011898
29600.548404	-1105.818333	1167.608398	-133.572708
29600.548404	-1105.818333	1166.481445	4.896911
29600.548404	-1105.818333	1165.353516	-6.665450
29600.548404	-1105.818333	1164.225586	-6.098516
29600.548404	-1105.818333	1163.097656	248.826874
29600.548404	-1105.818333	1161.968750	240.811905
29600.548404	-1105.818333	1160.840820	389.612335
29600.548404	-1105.818333	1159.711914	389.358459
29600.548404	-1105.818333	1158.583008	314.945068
29600.548404	-1105.818333	1157.453125	124.476585
29600.548404	-1105.818333	1156.324219	123.773476
29600.548404	-1105.818333	1155.194336	28.672827
29600.548404	-1105.818333	1154.064453	-13.194081
29600.548404	-1105.818333	1152.933594	-102.553955
29600.548404	-1105.818333	1151.803711	-94.318558
29600.548404	-1105.818333	1150.672852	-2.031831
29600.548404	-1105.818333	1149.541992	-191.364136
29600.548404	-1105.818333	1148.411133	-41.798187
29600.548404	-1105.818333	1147.279297	54.367928
29600.548404	-1105.818333	1146.147461	221.846756
29600.548404	-1105.818333	1145.015625	129.831390
29600.548404	-1105.818333	1143.883789	229.231720
29600.548404	-1105.818333	1142.750977	40.138226
29600.548404	-1105.818333	1141.619141	89.400429
29600.548404	-1105.818333	1140.486328	21.174122
29600.548404	-1105.818333	1139.352539	0.952134
29600.548404	-1105.818333	1138.219727	-81.949997
29600.548404	-1105.818333	1137.085938	-106.278999
29600.548404	-1105.818333	1135.952148	-154.363037
29600.548404	-1105.818333	1134.818359	48.907059
29600.548404	-1105.818333	1133.683594	52.968220
29600.548404	-1105.818333	1132.549805	107.037682
29600.548404	-1105.818333	1131.415039	183.288361
29600.548404	-1105.818333	1130.279297	227.840088
29600.548404	-1105.818333	1129.144531	329.406372
29600.548404	-1105.818333	1128.008789	307.646301
29600.548404	-1105.818333	1126.873047	213.857941
29600.548404	-1105.818333	1125.737305	237.306763
29600.548404	-1105.818333	1124.601563	214.435959
29600.548404	-1105.818333	1123.464844	344.248596
29600.548404	-1105.818333	1122.328125	251.729492
29600.548404	-1105.818333	1121.191406	117.778831
29600.548404	-1105.818333	1120.054688	120.240227
29600.548404	-1105.818333	1118.916992	94.205536
29600.548404	-1105.818333	1117.779297	251.972168
29600.548404	-1105.818333	1116.641602	-30.349659
29600.548404	-1105.818333	1115.503906	70.868813
29600.548404	-1105.818333	1114.365234	104.649025
29600.548404	-1105.818333	1113.226563	1.100055
29600.548404	-1105.818333	1112.087891	131.016708
29600.548404	-1105.818333	1110.949219	-4.612862
29600.548404	-1105.818333	1109.809570	171.385010
29600.548404	-1105.818333	1108.669922	21.552181
29600.548404	-1105.818333	1107.530273	87.753777
29600.548404	-1105.818333	1106.390625	75.891052
29600.548404	-1105.818333	1105.250000	90.699081
29600.548404	-1105.818333	1104.109375	168.604645
29600.548404	-1105.818333	1102.968750	-6.921654
29600.548404	-1105.818333	1101.828125	88.869125
29600.548404	-1105.818333	1100.686523	344.246094
29600.548404	-1105.818333	1099.544922	30.290508
29600.548404	-1105.818333	1098.403320	89.615555
29600.548404	-1105.818333	1097.261719	191.270966
29600.548404	-1105.818333	1096.120117	86.297699
29600.548404	-1105.818333	1094.977539	245.019409
29600.548404	-1105.818333	1093.834961	245.989197
29600.548404	-1105.818333	1092.691406	154.344147
29600.548404	-1105.818333	1091.548828	93.306000
29600.548404	-1105.818333	1090.405273	77.707535
29600.548404	-1105.818333	1089.261719	97.892044
29600.548404	-1105.818333	1088.118164	88.563583
29600.548404	-1105.818333	1086.973633	230.840530
29600.548404	-1105.818333	1085.829102	73.141487
29600.548404	-1105.818333	1084.684570	-11.128297
29600.548404	-1105.818333	1083.540039	-60.623142
29600.548404	-1105.818333	1082.395508	55.610058
29600.548404	-1105.818333	1081.250000	-119.323181
29600.548404	-1105.818333	1080.104492	-146.496246
29600.548404	-1105.818333	1078.958984	-40.768524
29600.548404	-1105.818333	1077.812500	15.876542
29600.548404	-1105.818333	1076.666016	54.735802
29600.548404	-1105.818333	1075.519531	71.441101
29600.548404	-1105.818333	1074.373047	-16.324949
29600.548404	-1105.818333	1073.226563	-87.349442
29600.548404	-1105.818333	1072.079102	88.494370
29600.548404	-1105.818333	1070.931641	89.071892
29600.548404	-1105.818333	1069.784180	18.910480
29600.548404	-1105.818333	1068.635742	154.654358
29600.548404	-1105.818333	1067.487305	353.757935
29600.548404	-1105.818333	1066.338867	355.690948
29600.548404	-1105.818333	1065.190430	359.313782
29600.548404	-1105.818333	1064.041992	445.995636
29600.548404	-1105.818333	1062.892578	388.476257
29600.548404	-1105.818333	1061.743164	170.289352
29600.548404	-1105.818333	1060.593750	317.723022
29600.548404	-1105.818333	1059.443359	305.660522
29600.548404	-1105.818333	1058.292969	-24.374130
29600.548404	-1105.818333	1057.142578	281.774384
29600.548404	-1105.818333	1055.992188	167.213593
29600.548404	-1105.818333	1054.841797	-21.204939
29600.548404	-1105.818333	1053.690430	120.483917
29600.548404	-1105.818333	1052.539063	222.325867
29600.548404	-1105.818333	1051.387695	69.248718
29600.548404	-1105.818333	1050.235352	106.142265
29600.548404	-1105.818333	1049.083984	112.046432
29600.548404	-1105.818333	1047.931641	-125.199715
29600.548404	-1105.818333	1046.778320	98.224129
29600.548404	-1105.818333	1045.625977	66.569992
29600.548404	-1105.818333	1044.472656	44.222664
29600.548404	-1105.818333	1043.319336	-190.544312
29600.548404	-1105.818333	1042.166016	-62.439842
29600.548404	-1105.818333	1041.012695	-25.066351
29600.548404	-1105.818333	1039.858398	-197.964996
29600.548404	-1105.818333	1038.704102	52.175999
29600.548404	-1105.818333	1037.549805	-26.653023
29600.548404	-1105.818333	1036.394531	-15.715962
29600.548404	-1105.818333	1035.239258	-38.134525
29600.548404	-1105.818333	1034.083984	-71.126373
29600.548404	-1105.818333	1032.928711	80.083992
29600.548404	-1105.818333	1031.773438	17.528902
29600.548404	-1105.818333	1030.617188	22.640594
29600.548404	-1105.818333	1029.460938	119.840515
29600.548404	-1105.818333	1028.304688	-42.628059
29600.548404	-1105.818333	1027.147461	-3.774396
29600.548404	-1105.818333	1025.991211	13.699668
29600.548404	-1105.818333	1024.833984	130.089890
29600.548404	-1105.818333	1023.675781	47.110180
29600.548404	-1105.818333	1022.518555	28.423141
29600.548404	-1105.818333	1021.360352	-19.283068
29600.548404	-1105.818333	1020.202148	90.492378
29600.548404	-1105.818333	1019.043945	-9.054094
29600.548404	-1105.818333	1017.884766	-8.662482
29600.548404	-1105.818333	1016.726563	-51.582909
29600.548404	-1105.818333	1015.567383	102.287491
29600.548404	-1105.818333	1014.407227	143.307159
29600.548404	-1105.818333	1013.248047	214.879486
29600.548404	-1105.818333	1012.087891	64.779022
29600.548404	-1105.818333	1010.927734	7.586946
29600.548404	-1105.818333	1009.767578	134.437195
29600.548404	-1105.818333	1008.606445	10.038736
29600.548404	-1105.818333	1007.446289	198.603897
29600.548404	-1105.818333	1006.285156	193.324875
29600.548404	-1105.818333	1005.123047	5.565005
29600.548404	-1105.818333	1003.961914	167.324875
29600.548404	-1105.818333	1002.799805	126.287727
29600.548404	-1105.818333	1001.637695	111.913895
29600.548404	-1105.818333	1000.475586	267.033600
29600.548404	-1105.818333	999.312500	118.143692
29600.548404	-1105.818333	998.149414	94.435051
29600.548404	-1105.818333	996.986328	84.765274
29600.548404	-1105.818333	995.823242	211.741913
29600.548404	-1105.818333	994.659180	7.257193
29600.548404	-1105.818333	993.496094	-199.717041
29600.548404	-1105.818333	992.332031	-20.330126
29600.548404	-1105.818333	991.166992	53.986355
29600.548404	-1105.818333	990.002930	-13.915685
29600.548404	-1105.818333	988.837891	-77.072487
29600.548404	-1105.818333	987.672852	52.020615
29600.548404	-1105.818333	986.506836	8.962659
29600.548404	-1105.818333	985.341797	122.794273
29600.548404	-1105.818333	984.175781	5.367646
29600.548404	-1105.818333	983.009766	54.727608
29600.548404	-1105.818333	981.843750	9.487583
29600.548404	-1105.818333	980.676758	-36.358021
29600.548404	-1105.818333	979.509766	-90.232071
29600.548404	-1105.818333	978.342773	-173.145157
29600.548404	-1105.818333	977.175781	-196.741669
29600.548404	-1105.818333	976.007813	103.515663
29600.548404	-1105.818333	974.839844	-105.874046
29600.548404	-1105.818333	973.671875	-200.738770
29600.548404	-1105.818333	972.503906	-205.808838
29600.548404	-1105.818333	971.334961	-19.910368
29600.548404	-1105.818333	970.166016	-155.210159
29600.548404	-1105.818333	968.997070	-31.721725
29600.548404	-1105.818333	967.828125	-34.125591
29600.548404	-1105.818333	966.658203	25.970745
29600.548404	-1105.818333	965.488281	-124.391380
29600.548404	-1105.818333	964.318359	54.492271
29600.548404	-1105.818333	963.148438	-93.544167
29600.548404	-1105.818333	961.977539	-16.756737
29600.548404	-1105.818333	960.806641	84.562981
29600.548404	-1105.818333	959.635742	-10.404200
29600.548404	-1105.818333	958.463867	-56.145859
29600.548404	-1105.818333	957.292969	-104.993095
29600.548404	-1105.818333	956.121094	157.332687
29600.548404	-1105.818333	954.948242	86.980957
29600.548404	-1105.818333	953.776367	117.012375
29600.548404	-1105.818333	952.603516	119.942665
29600.548404	-1105.818333	951.430664	-72.866203
29600.548404	-1105.818333	950.257813	24.950142
29600.548404	-1105.818333	949.084961	-42.766357
29600.548404	-1105.818333	947.911133	42.849987
29600.548404	-1105.818333	946.737305	-109.461815
29600.548404	-1105.818333	945.563477	153.361832
29600.548404	-1105.818333	944.388672	24.330111
29600.548404	-1105.818333	943.213867	-83.058144
29600.548404	-1105.818333	942.039063	89.839767
29600.548404	-1105.818333	940.864258	-70.365677
29600.548404	-1105.818333	939.688477	-85.927139
29600.548404	-1105.818333	938.513672	153.421783
29600.548404	-1105.818333	937.337891	144.552567
29600.548404	-1105.818333	936.161133	-74.596268
29600.548404	-1105.818333	934.985352	48.798454
29600.548404	-1105.818333	933.808594	162.814133
29600.548404	-1105.818333	932.631836	118.491798
29600.548404	-1105.818333	931.454102	189.796402
29600.548404	-1105.818333	930.277344	286.996613
29600.548404	-1105.818333	929.099609	150.531906
29600.548404	-1105.818333	927.921875	169.740326
29600.548404	-1105.818333	926.743164	222.035889
29600.548404	-1105.818333	925.565430	153.975571
29600.548404	-1105.818333	924.386719	-46.183968
29600.548404	-1105.818333	923.208008	-17.576303
29600.548404	-1105.818333	922.028320	164.225204
29600.548404	-1105.818333	920.849609	232.795258
29600.548404	-1105.818333	919.669922	234.858109
29600.548404	-1105.818333	919.474609	106.055305
29600.548404	-1105.818333	918.309570	4.887204
29600.548404	-1105.818333	917.143555	113.382607
29600.548404	-1105.818333	915.977539	165.283081
29600.548404	-1105.818333	914.810547	26.411564
29600.548404	-1105.818333	913.644531	59.421177
29600.548404	-1105.818333	912.477539	82.976295
29600.548404	-1105.818333	911.310547	5.306844
29600.548404	-1105.818333	910.143555	-62.946495
29600.548404	-1105.818333	908.975586	-20.642519
29600.548404	-1105.818333	907.807617	-81.860817
29600.548404	-1105.818333	906.639648	-133.676529
29600.548404	-1105.818333	905.471680	-44.448971
29600.548404	-1105.818333	904.303711	77.619774
29600.548404	-1105.818333	903.134766	178.464722
29600.548404	-1105.818333	901.965820	-117.803192
29600.548404	-1105.818333	900.796875	-176.738602
29600.548404	-1105.818333	899.626953	-54.846981
29600.548404	-1105.818333	898.457031	81.055901
29600.548404	-1105.818333	897.287109	29.078484
29600.548404	-1105.818333	896.117188	26.382925
29600.548404	-1105.818333	894.947266	47.126488
29600.548404	-1105.818333	893.776367	70.182472
29600.548404	-1105.818333	892.605469	229.244003
29600.548404	-1105.818333	891.434570	-106.597076
29600.548404	-1105.818333	890.262695	-128.150162
29600.548404	-1105.818333	889.091797	77.655724
29600.548404	-1105.818333	887.919922	203.669525
29600.548404	-1105.818333	886.748047	-40.614727
29600.548404	-1105.818333	885.575195	-3.702834
29600.548404	-1105.818333	884.403320	42.533993
29600.548404	-1105.818333	883.230469	-28.359215
29600.548404	-1105.818333	882.057617	127.850899
29600.548404	-1105.818333	880.883789	24.145760
29600.548404	-1105.818333	879.710938	-163.794907
29600.548404	-1105.818333	878.537109	69.480980
29600.548404	-1105.818333	877.362305	28.933315
29600.548404	-1105.818333	876.188477	7.085703
29600.548404	-1105.818333	875.013672	-96.621635
29600.548404	-1105.818333	873.839844	-244.734360
29600.548404	-1105.818333	872.664063	-296.978516
29600.548404	-1105.818333	871.489258	-244.066559
29600.548404	-1105.818333	870.313477	-305.688324
29600.548404	-1105.818333	869.138672	-280.881470
29600.548404	-1105.818333	867.962891	19.477537
29600.548404	-1105.818333	866.786133	27.809496
29600.548404	-1105.818333	865.610352	94.473351
29600.548404	-1105.818333	864.433594	-154.014923
29600.548404	-1105.818333	863.256836	-8.052511
29600.548404	-1105.818333	862.079102	-230.807800
29600.548404	-1105.818333	860.902344	-14.964653
29600.548404	-1105.818333	859.724609	-20.792433
29600.548404	-1105.818333	858.546875	-73.278099
29600.548404	-1105.818333	857.368164	-144.419220
29600.548404	-1105.818333	856.190430	-133.983490
29600.548404	-1105.818333	855.011719	60.509544
29600.548404	-1105.818333	853.833008	-50.303944
29600.548404	-1105.818333	852.654297	22.913891
29600.548404	-1105.818333	851.474609	-45.983093
29600.548404	-1105.818333	850.294922	264.638397
29600.548404	-1105.818333	849.115234	86.254913
29600.548404	-1105.818333	847.935547	45.232567
29600.548404	-1105.818333	846.754883	-26.051422
29600.548404	-1105.818333	845.575195	-97.334061
29600.548404	-1105.818333	844.393555	119.801430
29600.548404	-1105.818333	843.212891	-105.018875
29600.548404	-1105.818333	842.032227	135.221832
29600.548404	-1105.818333	840.850586	54.552971
29600.548404	-1105.818333	839.668945	164.459595
29600.548404	-1105.818333	838.486328	-23.122673
29600.548404	-1105.818333	837.304688	168.004028
29600.548404	-1105.818333	836.122070	124.442444
29600.548404	-1105.818333	834.939453	97.123001
29600.548404	-1105.818333	833.756836	-23.078388
29600.548404	-1105.818333	832.573242	21.542326
29600.548404	-1105.818333	831.389648	98.604134
29600.548404	-1105.818333	830.206055	-21.611788
29600.548404	-1105.818333	829.022461	138.878845
29600.548404	-1105.818333	827.838867	27.922647
29600.548404	-1105.818333	826.654297	-152.581161
29600.548404	-1105.818333	825.469727	214.075394
29600.548404	-1105.818333	824.284180	-45.258308
29600.548404	-1105.818333	823.099609	96.384712
29600.548404	-1105.818333	821.914063	219.402481
29600.548404	-1105.818333	820.728516	-169.578964
29600.548404	-1105.818333	819.542969	-2.614395
29600.548404	-1105.818333	818.356445	110.995041
29600.548404	-1105.818333	817.169922	104.150833
29600.548404	-1105.818333	815.983398	99.592148
29600.548404	-1105.818333	814.796875	166.738815
29600.548404	-1105.818333	813.609375	-6.778766
29600.548404	-1105.818333	812.422852	-62.291046
29600.548404	-1105.818333	811.235352	164.319290
29600.548404	-1105.818333	810.046875	-20.744808
29600.548404	-1105.818333	808.859375	173.338699
29600.548404	-1105.818333	807.670898	62.241680
29600.548404	-1105.818333	806.482422	140.631439
29600.548404	-1105.818333	805.293945	66.486412
29600.548404	-1105.818333	804.104492	-23.828844
29600.548404	-1105.818333	802.915039	56.743706
29600.548404	-1105.818333	801.725586	-17.435694
29600.548404	-1105.818333	800.536133	125.360397
29600.548404	-1105.818333	799.345703	143.443710
29600.548404	-1105.818333	798.155273	159.179016
29600.548404	-1105.818333	796.964844	177.182419
29600.548404	-1105.818333	795.774414	77.522186
29600.548404	-1105.818333	794.583008	289.161285
29600.548404	-1105.818333	793.392578	67.266220
29600.548404	-1105.818333	792.200195	149.678192
29600.548404	-1105.818333	791.008789	165.193466
29600.548404	-1105.818333	789.816406	148.412781
29600.548404	-1105.818333	788.625000	177.676666
29600.548404	-1105.818333	787.432617	197.680466
29600.548404	-1105.818333	786.239258	339.675995
29600.548404	-1105.818333	785.046875	205.332962
29600.548404	-1105.818333	783.853516	156.169876
29600.548404	-1105.818333	782.660156	194.432693
29600.548404	-1105.818333	781.465820	55.498169
29600.548404	-1105.818333	780.272461	165.002121
29600.548404	-1105.818333	779.078125	95.051659
29600.548404	-1105.818333	777.883789	303.296204
29600.548404	-1105.818333	776.688477	171.209061
29600.548404	-1105.818333	775.494141	73.617683
29600.548404	-1105.818333	774.298828	67.939514
29600.548404	-1105.818333	773.103516	87.498894
29600.548404	-1105.818333	771.907227	146.059067
29600.548404	-1105.818333	770.711914	46.114716
29600.548404	-1105.818333	769.515625	-44.642544
29600.548404	-1105.818333	768.318359	-158.351547
29600.548404	-1105.818333	767.122070	317.737427
29600.548404	-1105.818333	765.924805	130.506271
29600.548404	-1105.818333	764.727539	28.193581
29600.548404	-1105.818333	763.530273	113.949677
29600.548404	-1105.818333	762.333008	73.519600
29600.548404	-1105.818333	761.134766	301.292358
29600.548404	-1105.818333	759.936523	205.757645
29600.548404	-1105.818333	758.738281	334.797211
29600.548404	-1105.818333	757.540039	204.856339
29600.548404	-1105.818333	756.340820	171.135437
29600.548404	-1105.818333	755.141602	274.799103
29600.548404	-1105.818333	753.942383	291.375610
29600.548404	-1105.818333	752.742188	433.811432
29600.548404	-1105.818333	751.541992	397.632568
29600.548404	-1105.818333	750.341797	375.160278
29600.548404	-1105.818333	749.141602	437.306610
29600.548404	-1105.818333	747.941406	121.993416
29600.548404	-1105.818333	746.740234	53.743153
29600.548404	-1105.818333	745.539063	339.861328
29600.548404	-1105.818333	744.337891	253.232666
29600.548404	-1105.818333	743.135742	-7.085278
29600.548404	-1105.818333	741.933594	-2.287870
29600.548404	-1105.818333	740.731445	219.486191
29600.548404	-1105.818333	739.529297	128.234909
29600.548404	-1105.818333	738.326172	114.617317
29600.548404	-1105.818333	737.124023	295.022308
29600.548404	-1105.818333	735.919922	212.823410
29600.548404	-1105.818333	734.716797	180.827728
29600.548404	-1105.818333	733.513672	169.340775
29600.548404	-1105.818333	732.309570	98.510689
29600.548404	-1105.818333	731.105469	-1.975779
29600.548404	-1105.818333	729.900391	221.314621
29600.548404	-1105.818333	728.696289	111.650154
29600.548404	-1105.818333	727.491211	81.760574
29600.548404	-1105.818333	726.286133	92.862061
29600.548404	-1105.818333	725.080078	-92.005791
29600.548404	-1105.818333	723.874023	-12.620856
29600.548404	-1105.818333	722.668945	162.340652
29600.548404	-1105.818333	721.461914	173.258057
29600.548404	-1105.818333	720.255859	88.530449
29600.548404	-1105.818333	719.048828	37.936008
29600.548404	-1105.818333	717.841797	32.830826
29600.548404	-1105.818333	716.634766	136.881943
29600.548404	-1105.818333	715.427734	90.743713
29600.548404	-1105.818333	714.219727	-14.538618
29600.548404	-1105.818333	713.011719	-33.424282
29600.548404	-1105.818333	711.803711	152.225479
29600.548404	-1105.818333	710.594727	55.970455
29600.548404	-1105.818333	709.385742	-258.394531
29600.548404	-1105.818333	708.176758	-109.274704
29600.548404	-1105.818333	706.967773	-232.781265
29600.548404	-1105.818333	705.758789	25.182566
29600.548404	-1105.818333	704.548828	31.017296
29600.548404	-1105.818333	703.338867	-144.757507
29600.548404	-1105.818333	702.127930	-64.086090
29600.548404	-1105.818333	700.917969	-121.871605
29600.548404	-1105.818333	699.707031	-243.181412
29600.548404	-1105.818333	698.496094	148.024704
29600.548404	-1105.818333	697.285156	24.367012
29600.548404	-1105.818333	696.073242	36.726322
29600.548404	-1105.818333	694.861328	-123.192970
29600.548404	-1105.818333	693.649414	95.307518
29600.548404	-1105.818333	692.436523	107.531425
29600.548404	-1105.818333	691.224609	198.987213
29600.548404	-1105.818333	690.011719	140.915726
29600.548404	-1105.818333	688.798828	-55.264606
29600.548404	-1105.818333	687.584961	135.643280
29600.548404	-1105.818333	686.372070	125.035812
29600.548404	-1105.818333	685.158203	318.016937
29600.548404	-1105.818333	683.943359	307.298645
29600.548404	-1105.818333	682.729492	371.182892
29600.548404	-1105.818333	681.514648	591.013611
29600.548404	-1105.818333	680.299805	430.941956
29600.548404	-1105.818333	679.084961	313.844055
29600.548404	-1105.818333	677.869141	280.363190
29600.548404	-1105.818333	676.653320	170.051895
29600.548404	-1105.818333	675.437500	-26.075937
29600.548404	-1105.818333	674.221680	44.312004
29600.548404	-1105.818333	673.004883	42.385231
29600.548404	-1105.818333	671.789063	166.835785
29600.548404	-1105.818333	670.571289	252.828827
29600.548404	-1105.818333	669.354492	22.875544
29600.548404	-1105.818333	668.136719	72.704247
29600.548404	-1105.818333	666.919922	156.313843
29600.548404	-1105.818333	665.701172	203.770584
29600.548404	-1105.818333	664.483398	239.907288
29600.548404	-1105.818333	663.264648	136.251892
29600.548404	-1105.818333	662.045898	183.588760
29600.548404	-1105.818333	660.827148	165.540283
29600.548404	-1105.818333	659.608398	70.884163
29600.548404	-1105.818333	658.388672	7.761385
29600.548404	-1105.818333	657.168945	3.176158
29600.548404	-1105.818333	655.949219	0.814386
29600.548404	-1105.818333	654.728516	65.938118
29600.548404	-1105.818333	653.507813	-33.252075
29600.548404	-1105.818333	652.287109	-31.194286
29600.548404	-1105.818333	651.066406	-24.668398
29600.548404	-1105.818333	649.844727	11.056332
29600.548404	-1105.818333	648.623047	8.520429
29600.548404	-1105.818333	647.401367	-196.338196
29600.548404	-1105.818333	646.179688	198.881256
29600.548404	-1105.818333	644.957031	115.339180
29600.548404	-1105.818333	643.734375	54.269554
29600.548404	-1105.818333	642.511719	-80.911171
29600.548404	-1105.818333	641.289063	24.192957
29600.548404	-1105.818333	640.065430	68.613365
29600.548404	-1105.818333	638.841797	59.124176
29600.548404	-1105.818333	637.618164	58.592064
29600.548404	-1105.818333	636.393555	87.197845
29600.548404	-1105.818333	635.168945	50.722538
29600.548404	-1105.818333	633.944336	-46.307003
29600.548404	-1105.818333	632.719727	114.515953
29600.548404	-1105.818333	631.494141	118.337021
29600.548404	-1105.818333	630.269531	54.907433
29600.548404	-1105.818333	629.042969	152.799774
29600.548404	-1105.818333	627.817383	31.102606
29600.548404	-1105.818333	626.590820	28.134977
29600.548404	-1105.818333	625.365234	-140.545120
29600.548404	-1105.818333	624.137695	216.915024
29600.548404	-1105.818333	622.911133	122.087578
29600.548404	-1105.818333	621.683594	-77.895042
29600.548404	-1105.818333	620.456055	57.782612
29600.548404	-1105.818333	619.228516	7.731417
29600.548404	-1105.818333	618.000977	-15.477763
29600.548404	-1105.818333	616.772461	-9.631034
29600.548404	-1105.818333	615.543945	-97.687309
29600.548404	-1105.818333	614.314453	77.995033
29600.548404	-1105.818333	613.085938	74.838509
29600.548404	-1105.818333	611.856445	-109.283371
29600.548404	-1105.818333	610.626953	26.047482
29600.548404	-1105.818333	609.397461	125.581627
29600.548404	-1105.818333	608.166992	53.152088
29600.548404	-1105.818333	606.936523	-59.433380
29600.548404	-1105.818333	605.706055	-98.339233
29600.548404	-1105.818333	604.474609	-266.647522
29600.548404	-1105.818333	603.244141	-198.440445
29600.548404	-1105.818333	602.012695	-163.727448
29600.548404	-1105.818333	600.780273	-240.526459
29600.548404	-1105.818333	599.548828	-2.976370
29600.548404	-1105.818333	598.316406	-162.253555
29600.548404	-1105.818333	597.083984	-96.414444
29600.548404	-1105.818333	595.851563	22.858929
29600.548404	-1105.818333	594.618164	222.255020
29600.548404	-1105.818333	593.384766	-90.612694
29600.548404	-1105.818333	592.151367	-182.938904
29600.548404	-1105.818333	590.917969	-204.001373
29600.548404	-1105.818333	589.683594	-127.142891
29600.548404	-1105.818333	588.449219	114.327187
29600.548404	-1105.818333	587.214844	59.837189
29600.548404	-1105.818333	585.979492	-219.257446
29600.548404	-1105.818333	584.745117	-120.230331
29600.548404	-1105.818333	583.509766	-176.862350
29600.548404	-1105.818333	582.273438	-84.562126
29600.548404	-1105.818333	581.038086	-54.513424
29600.548404	-1105.818333	579.801758	48.833916
29600.548404	-1105.818333	578.565430	134.369720
29600.548404	-1105.818333	577.329102	213.210754
29600.548404	-1105.818333	576.091797	38.913635
29600.548404	-1105.818333	574.854492	-30.976547
29600.548404	-1105.818333	573.617188	174.356171
29600.548404	-1105.818333	572.378906	120.003571
29600.548404	-1105.818333	571.141602	52.374519
29600.548404	-1105.818333	569.903320	253.135437
29600.548404	-1105.818333	568.664063	358.466553
29600.548404	-1105.818333	567.425781	171.135056
29600.548404	-1105.818333	566.186523	258.722443
29600.548404	-1105.818333	564.947266	100.311768
29600.548404	-1105.818333	563.708008	181.248215
29600.548404	-1105.818333	562.467773	215.640198
29600.548404	-1105.818333	561.227539	-6.857038
29600.548404	-1105.818333	559.987305	271.127075
29600.548404	-1105.818333	558.747070	152.771713
29600.548404	-1105.818333	557.505859	36.688175
29600.548404	-1105.818333	556.264648	232.646866
29600.548404	-1105.818333	555.023438	92.284927
29600.548404	-1105.818333	553.781250	184.219513
29600.548404	-1105.818333	552.539063	368.998322
29600.548404	-1105.818333	551.296875	241.996704
29600.548404	-1105.818333	550.054688	88.540199
29600.548404	-1105.818333	548.811523	-49.372177
29600.548404	-1105.818333	547.569336	16.050623
29600.548404	-1105.818333	546.325195	59.362606
29600.548404	-1105.818333	545.082031	-96.077545
29600.548404	-1105.818333	543.837891	2.468093
29600.548404	-1105.818333	542.593750	-108.718666
29600.548404	-1105.818333	541.349609	67.062599
29600.548404	-1105.818333	540.105469	0.070872
29600.548404	-1105.818333	538.860352	195.636185
29600.548404	-1105.818333	537.615234	322.760925
29600.548404	-1105.818333	536.369141	229.337570
29600.548404	-1105.818333	535.124023	263.842285
29600.548404	-1105.818333	533.877930	311.568665
29600.548404	-1105.818333	532.631836	110.278732
29600.548404	-1105.818333	531.384766	257.191132
29600.548404	-1105.818333	530.138672	113.303215
29600.548404	-1105.818333	528.891602	275.601044
29600.548404	-1105.818333	527.643555	248.489929
29600.548404	-1105.818333	526.396484	212.606674
29600.548404	-1105.818333	525.148438	44.701992
29600.548404	-1105.818333	523.900391	123.325653
29600.548404	-1105.818333	522.652344	39.140575
29600.548404	-1105.818333	521.403320	47.378971
29600.548404	-1105.818333	520.154297	-14.735715
29600.548404	-1105.818333	518.905273	52.900742
29600.548404	-1105.818333	517.656250	-171.807663
29600.548404	-1105.818333	516.406250	60.673939
29600.548404	-1105.818333	515.156250	16.243587
29600.548404	-1105.818333	513.906250	167.341309
29600.548404	-1105.818333	512.655273	151.481369
29600.548404	-1105.818333	511.404297	-94.899277
29600.548404	-1105.818333	510.153320	-117.255257
29600.548404	-1105.818333	508.902344	-97.890869
29600.548404	-1105.818333	507.650391	50.932659
29600.548404	-1105.818333	506.398438	-52.576462
29600.548404	-1105.818333	505.146484	78.648438
29600.548404	-1105.818333	503.893555	40.976887
29600.548404	-1105.818333	502.641602	3.335488
29600.548404	-1105.818333	501.388672	24.894623
29600.548404	-1105.818333	500.134766	169.164154
29600.548404	-1105.818333	498.881836	26.374197
29600.548404	-1105.818333	497.627930	-87.878220
29600.548404	-1105.818333	496.374023	76.048233
29600.548404	-1105.818333	495.119141	1.249321
29600.548404	-1105.818333	493.865234	73.152161
29600.548404	-1105.818333	492.610352	-36.628819
29600.548404	-1105.818333	491.355469	149.028900
29600.548404	-1105.818333	490.099609	231.782364
29600.548404	-1105.818333	488.843750	174.519623
29600.548404	-1105.818333	487.587891	198.183502
29600.548404	-1105.818333	486.332031	333.327148
29600.548404	-1105.818333	485.075195	359.115204
29600.548404	-1105.818333	483.818359	192.578918
29600.548404	-1105.818333	482.561523	207.440231
29600.548404	-1105.818333	481.304688	191.702179
29600.548404	-1105.818333	480.046875	223.995865
29600.548404	-1105.818333	478.789063	27.004667
29600.548404	-1105.818333	477.531250	257.926758
29600.548404	-1105.818333	476.272461	259.569733
29600.548404	-1105.818333	475.013672	248.097198
29600.548404	-1105.818333	473.754883	380.581146
29600.548404	-1105.818333	472.496094	493.350281
29600.548404	-1105.818333	471.236328	505.731293
29600.548404	-1105.818333	469.976563	332.767456
29600.548404	-1105.818333	468.716797	401.778473
29600.548404	-1105.818333	467.456055	416.239075
29600.548404	-1105.818333	466.196289	280.328217
29600.548404	-1105.818333	464.935547	486.403229
29600.548404	-1105.818333	463.673828	417.945465
29600.548404	-1105.818333	462.413086	482.283081
29600.548404	-1105.818333	461.151367	407.220245
29600.548404	-1105.818333	459.889648	384.365173
29600.548404	-1105.818333	458.626953	330.993469
29600.548404	-1105.818333	457.364258	364.596008
29600.548404	-1105.818333	456.101563	515.560852
29600.548404	-1105.818333	454.838867	535.922363
29600.548404	-1105.818333	453.575195	619.241699
29600.548404	-1105.818333	452.312500	398.160431
29600.548404	-1105.818333	451.047852	433.500000
29600.548404	-1105.818333	449.784180	242.795090
29600.548404	-1105.818333	448.519531	486.493256
29600.548404	-1105.818333	447.254883	528.030212
29600.548404	-1105.818333	445.990234	606.357483
29600.548404	-1105.818333	444.725586	684.544739
29600.548404	-1105.818333	443.459961	660.584167
29600.548404	-1105.818333	442.194336	690.761963
29600.548404	-1105.818333	440.927734	636.200623
29600.548404	-1105.818333	439.662109	503.464935
29600.548404	-1105.818333	438.395508	520.264771
29600.548404	-1105.818333	437.127930	534.748718
29600.548404	-1105.818333	435.861328	650.956299
29600.548404	-1105.818333	434.593750	552.435181
29600.548404	-1105.818333	433.326172	507.963318
29600.548404	-1105.818333	432.058594	567.318970
29600.548404	-1105.818333	430.790039	565.842468
29600.548404	-1105.818333	429.521484	689.765808
29600.548404	-1105.818333	428.252930	306.945862
29600.548404	-1105.818333	426.984375	564.681641
29600.548404	-1105.818333	425.714844	573.287903
29600.548404	-1105.818333	424.445313	810.985840
29600.548404	-1105.818333	423.174805	719.637451
29600.548404	-1105.818333	421.905273	718.934631
29600.548404	-1105.818333	420.634766	711.517090
29600.548404	-1105.818333	419.364258	699.550354
29600.548404	-1105.818333	418.092773	734.881165
29600.548404	-1105.818333	416.822266	623.054871
29600.548404	-1105.818333	415.550781	888.995117
29600.548404	-1105.818333	414.278320	614.694031
29600.548404	-1105.818333	413.006836	560.462097
29600.548404	-1105.818333	411.734375	721.812073
29600.548404	-1105.818333	410.461914	615.210083
29600.548404	-1105.818333	409.188477	402.626312
29600.548404	-1105.818333	407.916016	498.296936
29600.548404	-1105.818333	406.642578	306.770264
29600.548404	-1105.818333	405.368164	658.335693
29600.548404	-1105.818333	404.094727	498.526184
29600.548404	-1105.818333	402.820313	696.191650
29600.548404	-1105.818333	401.545898	621.915527
29600.548404	-1105.818333	400.270508	480.507507
29600.548404	-1105.818333	398.996094	592.940247
29600.548404	-1105.818333	397.720703	597.252930
29600.548404	-1105.818333	396.444336	467.670868
29600.548404	-1105.818333	395.168945	703.649170
29600.548404	-1105.818333	393.892578	571.104431
29600.548404	-1105.818333	392.616211	702.807007
29600.548404	-1105.818333	391.339844	373.688202
29600.548404	-1105.818333	390.062500	622.725037
29600.548404	-1105.818333	388.785156	568.016296
29600.548404	-1105.818333	387.507813	456.950470
29600.548404	-1105.818333	386.229492	476.510498
29600.548404	-1105.818333	384.951172	529.920471
29600.548404	-1105.818333	383.672852	451.735016
29600.548404	-1105.818333	382.394531	489.012543
29600.548404	-1105.818333	381.115234	356.063354
29600.548404	-1105.818333	379.835938	443.712616
29600.548404	-1105.818333	378.556641	386.927948
29600.548404	-1105.818333	377.277344	439.000000
29600.548404	-1105.818333	375.997070	258.704926
29600.548404	-1105.818333	374.716797	386.716095
29600.548404	-1105.818333	373.435547	140.861816
29600.548404	-1105.818333	372.155273	181.755280
29600.548404	-1105.818333	370.874023	356.961426
29600.548404	-1105.818333	369.591797	334.203125
29600.548404	-1105.818333	368.310547	454.301666
29600.548404	-1105.818333	367.028320	528.599243
29600.548404	-1105.818333	365.746094	70.970734
29600.548404	-1105.818333	364.463867	38.857952
29600.548404	-1105.818333	363.180664	8.077387
29600.548404	-1105.818333	361.897461	171.252670
29600.548404	-1105.818333	360.614258	66.044350
29600.548404	-1105.818333	359.330078	114.027702
29600.548404	-1105.818333	358.045898	116.194313
29600.548404	-1105.818333	356.761719	327.020111
29600.548404	-1105.818333	355.477539	231.109573
29600.548404	-1105.818333	354.192383	228.317001
29600.548404	-1105.818333	352.907227	100.613708
29600.548404	-1105.818333	351.622070	-28.022924
29600.548404	-1105.818333	350.336914	177.747437
29600.548404	-1105.818333	349.050781	245.684723
29600.548404	-1105.818333	347.764648	178.021378
29600.548404	-1105.818333	346.477539	220.274719
29600.548404	-1105.818333	345.191406	116.309196
29600.548404	-1105.818333	343.904297	-25.048582
29600.548404	-1105.818333	342.616211	84.188126
29600.548404	-1105.818333	341.329102	-25.316460
29600.548404	-1105.818333	340.041016	21.774431
29600.548404	-1105.818333	338.752930	24.971512
29600.548404	-1105.818333	337.463867	-58.391861
29600.548404	-1105.818333	336.175781	117.005478
29600.548404	-1105.818333	334.886719	-5.168026
29600.548404	-1105.818333	333.596680	-62.646820
29600.548404	-1105.818333	332.307617	16.985632
29600.548404	-1105.818333	331.017578	18.487076
29600.548404	-1105.818333	329.727539	-198.565735
29600.548404	-1105.818333	328.436523	-36.096920
29600.548404	-1105.818333	327.146484	-126.216530
29600.548404	-1105.818333	325.855469	18.250395
29600.548404	-1105.818333	324.563477	-143.082748
29600.548404	-1105.818333	323.272461	-131.532608
29600.548404	-1105.818333	321.980469	-51.510746
29600.548404	-1105.818333	320.688477	5.562911
29600.548404	-1105.818333	319.395508	-138.877426
29600.548404	-1105.818333	318.103516	-91.603554
29600.548404	-1105.818333	316.810547	47.286160
29600.548404	-1105.818333	315.516602	-208.592148
29600.548404	-1105.818333	314.223633	-105.216919
29600.548404	-1105.818333	312.929688	-271.264496
29600.548404	-1105.818333	311.635742	-197.227707
29600.548404	-1105.818333	310.340820	-17.029490
29600.548404	-1105.818333	309.045898	114.436607
29600.548404	-1105.818333	307.750977	69.919182
29600.548404	-1105.818333	306.456055	163.293243
29600.548404	-1105.818333	305.160156	-16.882261
29600.548404	-1105.818333	303.865234	110.367638
29600.548404	-1105.818333	302.568359	332.698273
29600.548404	-1105.818333	301.272461	307.037079
29600.548404	-1105.818333	299.975586	499.305481
29600.548404	-1105.818333	298.678711	617.177917
