#X		#Y		#Wave		#Intensity
29962.792553	-1621.478333	1999.980469	43.521172
29962.792553	-1621.478333	1999.016602	-53.343178
29962.792553	-1621.478333	1998.052734	-131.343216
29962.792553	-1621.478333	1997.087891	-115.292313
29962.792553	-1621.478333	1996.123047	12.102753
29962.792553	-1621.478333	1995.158203	8.017742
29962.792553	-1621.478333	1994.193359	8.749933
29962.792553	-1621.478333	1993.228516	46.492527
29962.792553	-1621.478333	1992.262695	37.051239
29962.792553	-1621.478333	1991.297852	15.108678
29962.792553	-1621.478333	1990.332031	52.450569
29962.792553	-1621.478333	1989.366211	20.373573
29962.792553	-1621.478333	1988.399414	77.256882
29962.792553	-1621.478333	1987.433594	-26.775251
29962.792553	-1621.478333	1986.466797	-49.266438
29962.792553	-1621.478333	1985.500977	14.685246
29962.792553	-1621.478333	1984.534180	1.872532
29962.792553	-1621.478333	1983.567383	30.983040
29962.792553	-1621.478333	1982.599609	101.996040
29962.792553	-1621.478333	1981.632813	108.647041
29962.792553	-1621.478333	1980.665039	-8.312296
29962.792553	-1621.478333	1979.697266	-36.402180
29962.792553	-1621.478333	1978.729492	46.555004
29962.792553	-1621.478333	1977.761719	156.556168
29962.792553	-1621.478333	1976.792969	66.487411
29962.792553	-1621.478333	1975.825195	-18.689920
29962.792553	-1621.478333	1974.856445	95.960991
29962.792553	-1621.478333	1973.887695	55.068062
29962.792553	-1621.478333	1972.918945	9.185551
29962.792553	-1621.478333	1971.949219	-73.742470
29962.792553	-1621.478333	1970.980469	23.294149
29962.792553	-1621.478333	1970.010742	41.340633
29962.792553	-1621.478333	1969.041016	-46.668839
29962.792553	-1621.478333	1968.071289	10.692778
29962.792553	-1621.478333	1967.101563	100.005791
29962.792553	-1621.478333	1966.130859	-57.115471
29962.792553	-1621.478333	1965.161133	118.273163
29962.792553	-1621.478333	1964.190430	49.753517
29962.792553	-1621.478333	1963.219727	18.140707
29962.792553	-1621.478333	1962.249023	136.651047
29962.792553	-1621.478333	1961.277344	97.556572
29962.792553	-1621.478333	1960.306641	78.119125
29962.792553	-1621.478333	1959.334961	-22.542088
29962.792553	-1621.478333	1958.363281	-42.033318
29962.792553	-1621.478333	1957.391602	152.406448
29962.792553	-1621.478333	1956.419922	29.541592
29962.792553	-1621.478333	1955.447266	32.065559
29962.792553	-1621.478333	1954.474609	7.517110
29962.792553	-1621.478333	1953.501953	-76.034317
29962.792553	-1621.478333	1952.529297	19.779030
29962.792553	-1621.478333	1951.556641	41.829727
29962.792553	-1621.478333	1950.583984	-0.014556
29962.792553	-1621.478333	1949.610352	-14.858638
29962.792553	-1621.478333	1948.636719	80.762466
29962.792553	-1621.478333	1947.663086	-167.342773
29962.792553	-1621.478333	1946.689453	-7.962603
29962.792553	-1621.478333	1945.715820	109.621536
29962.792553	-1621.478333	1944.741211	23.508640
29962.792553	-1621.478333	1943.767578	69.869598
29962.792553	-1621.478333	1942.792969	42.619835
29962.792553	-1621.478333	1941.818359	52.143677
29962.792553	-1621.478333	1940.842773	-29.061144
29962.792553	-1621.478333	1939.868164	-39.165546
29962.792553	-1621.478333	1938.892578	-10.070755
29962.792553	-1621.478333	1937.916992	53.303288
29962.792553	-1621.478333	1936.941406	-20.542933
29962.792553	-1621.478333	1935.965820	77.078049
29962.792553	-1621.478333	1934.990234	-16.355314
29962.792553	-1621.478333	1934.013672	44.483028
29962.792553	-1621.478333	1933.037109	-19.552542
29962.792553	-1621.478333	1932.060547	99.988503
29962.792553	-1621.478333	1931.083984	35.953156
29962.792553	-1621.478333	1930.107422	18.420794
29962.792553	-1621.478333	1929.129883	-43.141087
29962.792553	-1621.478333	1928.153320	0.480717
29962.792553	-1621.478333	1927.175781	53.861507
29962.792553	-1621.478333	1926.198242	97.440956
29962.792553	-1621.478333	1925.219727	-130.313553
29962.792553	-1621.478333	1924.242188	-54.949146
29962.792553	-1621.478333	1923.263672	93.684547
29962.792553	-1621.478333	1922.285156	-33.784897
29962.792553	-1621.478333	1921.306641	112.347656
29962.792553	-1621.478333	1920.328125	45.973339
29962.792553	-1621.478333	1919.349609	74.845093
29962.792553	-1621.478333	1918.370117	-96.462425
29962.792553	-1621.478333	1917.391602	-131.026825
29962.792553	-1621.478333	1916.412109	58.917881
29962.792553	-1621.478333	1915.431641	36.537636
29962.792553	-1621.478333	1914.452148	43.442753
29962.792553	-1621.478333	1913.472656	8.889420
29962.792553	-1621.478333	1912.492188	-30.524862
29962.792553	-1621.478333	1911.511719	-84.547791
29962.792553	-1621.478333	1910.531250	-53.235207
29962.792553	-1621.478333	1909.550781	-109.660072
29962.792553	-1621.478333	1908.569336	-22.305502
29962.792553	-1621.478333	1907.588867	-47.035030
29962.792553	-1621.478333	1906.607422	18.366447
29962.792553	-1621.478333	1905.625977	27.740934
29962.792553	-1621.478333	1904.644531	29.814213
29962.792553	-1621.478333	1903.662109	51.365814
29962.792553	-1621.478333	1902.680664	82.652649
29962.792553	-1621.478333	1901.698242	23.899574
29962.792553	-1621.478333	1900.715820	-141.871338
29962.792553	-1621.478333	1899.733398	47.561691
29962.792553	-1621.478333	1898.750000	-13.564314
29962.792553	-1621.478333	1897.767578	-45.479904
29962.792553	-1621.478333	1896.784180	75.779037
29962.792553	-1621.478333	1895.800781	-53.352440
29962.792553	-1621.478333	1894.817383	109.190636
29962.792553	-1621.478333	1893.833984	53.007423
29962.792553	-1621.478333	1892.850586	-0.717974
29962.792553	-1621.478333	1891.866211	-3.412647
29962.792553	-1621.478333	1890.881836	3.614677
29962.792553	-1621.478333	1889.897461	0.935267
29962.792553	-1621.478333	1888.913086	148.765411
29962.792553	-1621.478333	1887.927734	48.994392
29962.792553	-1621.478333	1886.943359	174.936768
29962.792553	-1621.478333	1885.958008	111.604546
29962.792553	-1621.478333	1884.972656	-150.597244
29962.792553	-1621.478333	1883.987305	33.535900
29962.792553	-1621.478333	1883.001953	-107.303238
29962.792553	-1621.478333	1882.015625	33.129604
29962.792553	-1621.478333	1881.029297	-42.201546
29962.792553	-1621.478333	1880.042969	-13.293879
29962.792553	-1621.478333	1879.056641	95.565361
29962.792553	-1621.478333	1878.070313	175.321350
29962.792553	-1621.478333	1877.083984	5.589660
29962.792553	-1621.478333	1876.096680	-86.584671
29962.792553	-1621.478333	1875.109375	12.546470
29962.792553	-1621.478333	1874.122070	-57.796879
29962.792553	-1621.478333	1873.134766	-91.805321
29962.792553	-1621.478333	1872.146484	-7.231195
29962.792553	-1621.478333	1871.159180	86.995514
29962.792553	-1621.478333	1870.170898	40.899635
29962.792553	-1621.478333	1869.182617	11.755063
29962.792553	-1621.478333	1868.194336	6.804751
29962.792553	-1621.478333	1867.205078	1.859845
29962.792553	-1621.478333	1866.216797	6.590359
29962.792553	-1621.478333	1865.227539	35.487453
29962.792553	-1621.478333	1864.238281	112.699478
29962.792553	-1621.478333	1863.249023	-54.093136
29962.792553	-1621.478333	1862.259766	69.002426
29962.792553	-1621.478333	1861.269531	-32.516174
29962.792553	-1621.478333	1860.279297	-10.865848
29962.792553	-1621.478333	1859.290039	-18.185410
29962.792553	-1621.478333	1858.298828	-30.329006
29962.792553	-1621.478333	1857.308594	63.703457
29962.792553	-1621.478333	1856.318359	114.278290
29962.792553	-1621.478333	1855.327148	-18.477953
29962.792553	-1621.478333	1854.335938	24.859865
29962.792553	-1621.478333	1853.344727	-127.116257
29962.792553	-1621.478333	1852.353516	53.634899
29962.792553	-1621.478333	1851.362305	92.117439
29962.792553	-1621.478333	1850.370117	43.832920
29962.792553	-1621.478333	1849.377930	103.984764
29962.792553	-1621.478333	1848.385742	5.130777
29962.792553	-1621.478333	1847.393555	19.506994
29962.792553	-1621.478333	1846.401367	69.995926
29962.792553	-1621.478333	1845.408203	-55.283211
29962.792553	-1621.478333	1844.415039	113.140579
29962.792553	-1621.478333	1843.421875	158.764053
29962.792553	-1621.478333	1842.428711	103.311035
29962.792553	-1621.478333	1841.435547	40.659138
29962.792553	-1621.478333	1840.441406	71.829918
29962.792553	-1621.478333	1839.448242	-5.226526
29962.792553	-1621.478333	1838.454102	-26.959942
29962.792553	-1621.478333	1837.459961	42.657299
29962.792553	-1621.478333	1836.464844	-46.381584
29962.792553	-1621.478333	1835.470703	23.204586
29962.792553	-1621.478333	1834.475586	90.356171
29962.792553	-1621.478333	1833.480469	3.746308
29962.792553	-1621.478333	1832.485352	106.889832
29962.792553	-1621.478333	1831.490234	27.501759
29962.792553	-1621.478333	1830.495117	-13.450939
29962.792553	-1621.478333	1829.499023	-20.792942
29962.792553	-1621.478333	1828.502930	46.254387
29962.792553	-1621.478333	1827.506836	-37.887871
29962.792553	-1621.478333	1826.510742	79.499695
29962.792553	-1621.478333	1825.513672	-55.000874
29962.792553	-1621.478333	1824.517578	23.962997
29962.792553	-1621.478333	1823.520508	42.949238
29962.792553	-1621.478333	1822.523438	121.846390
29962.792553	-1621.478333	1821.526367	85.667824
29962.792553	-1621.478333	1820.529297	68.662743
29962.792553	-1621.478333	1819.531250	-13.031666
29962.792553	-1621.478333	1818.533203	87.335472
29962.792553	-1621.478333	1817.535156	67.914253
29962.792553	-1621.478333	1816.537109	-18.551964
29962.792553	-1621.478333	1815.539063	132.000488
29962.792553	-1621.478333	1814.540039	76.646263
29962.792553	-1621.478333	1813.541992	26.089684
29962.792553	-1621.478333	1812.542969	35.352875
29962.792553	-1621.478333	1811.543945	152.244904
29962.792553	-1621.478333	1810.543945	51.438999
29962.792553	-1621.478333	1809.544922	17.614220
29962.792553	-1621.478333	1808.544922	67.463982
29962.792553	-1621.478333	1807.544922	43.182667
29962.792553	-1621.478333	1806.544922	61.914532
29962.792553	-1621.478333	1805.544922	-38.843616
29962.792553	-1621.478333	1804.544922	-1.018798
29962.792553	-1621.478333	1803.543945	96.487450
29962.792553	-1621.478333	1802.542969	131.853943
29962.792553	-1621.478333	1801.541992	-54.852657
29962.792553	-1621.478333	1800.541016	116.566597
29962.792553	-1621.478333	1799.539063	-12.818177
29962.792553	-1621.478333	1798.538086	55.889652
29962.792553	-1621.478333	1797.536133	-9.049351
29962.792553	-1621.478333	1796.534180	16.662394
29962.792553	-1621.478333	1795.532227	-33.967049
29962.792553	-1621.478333	1794.529297	125.232956
29962.792553	-1621.478333	1793.527344	96.024933
29962.792553	-1621.478333	1792.524414	100.178108
29962.792553	-1621.478333	1791.521484	42.352940
29962.792553	-1621.478333	1790.518555	110.811424
29962.792553	-1621.478333	1789.514648	-42.317375
29962.792553	-1621.478333	1788.511719	14.187260
29962.792553	-1621.478333	1787.507813	80.175461
29962.792553	-1621.478333	1786.503906	58.030457
29962.792553	-1621.478333	1785.500000	-42.675694
29962.792553	-1621.478333	1784.496094	132.706238
29962.792553	-1621.478333	1783.491211	-32.261158
29962.792553	-1621.478333	1782.486328	74.021729
29962.792553	-1621.478333	1781.481445	-21.931618
29962.792553	-1621.478333	1780.476563	41.464581
29962.792553	-1621.478333	1779.471680	76.285835
29962.792553	-1621.478333	1778.465820	111.071716
29962.792553	-1621.478333	1777.460938	160.087296
29962.792553	-1621.478333	1776.455078	68.860619
29962.792553	-1621.478333	1775.449219	-126.889427
29962.792553	-1621.478333	1774.442383	33.721897
29962.792553	-1621.478333	1773.436523	-7.615853
29962.792553	-1621.478333	1772.429688	-10.969501
29962.792553	-1621.478333	1771.422852	-90.311951
29962.792553	-1621.478333	1770.416016	51.099350
29962.792553	-1621.478333	1769.409180	69.031853
29962.792553	-1621.478333	1768.402344	22.874115
29962.792553	-1621.478333	1767.394531	-16.173317
29962.792553	-1621.478333	1766.386719	-29.137423
29962.792553	-1621.478333	1765.378906	76.448486
29962.792553	-1621.478333	1764.371094	51.574066
29962.792553	-1621.478333	1763.362305	0.609719
29962.792553	-1621.478333	1762.354492	-21.915163
29962.792553	-1621.478333	1761.345703	123.781830
29962.792553	-1621.478333	1760.336914	179.375519
29962.792553	-1621.478333	1759.328125	-23.255264
29962.792553	-1621.478333	1758.318359	-90.847115
29962.792553	-1621.478333	1757.308594	49.924278
29962.792553	-1621.478333	1756.299805	3.607439
29962.792553	-1621.478333	1755.290039	2.253113
29962.792553	-1621.478333	1754.279297	-1.492814
29962.792553	-1621.478333	1753.269531	-14.720662
29962.792553	-1621.478333	1752.258789	121.056244
29962.792553	-1621.478333	1751.249023	-60.152714
29962.792553	-1621.478333	1750.238281	-54.516205
29962.792553	-1621.478333	1749.226563	64.570168
29962.792553	-1621.478333	1748.215820	18.134003
29962.792553	-1621.478333	1747.204102	101.667152
29962.792553	-1621.478333	1746.193359	52.833050
29962.792553	-1621.478333	1745.181641	8.716249
29962.792553	-1621.478333	1744.168945	89.769814
29962.792553	-1621.478333	1743.157227	47.978596
29962.792553	-1621.478333	1742.144531	22.703413
29962.792553	-1621.478333	1741.132813	-14.384267
29962.792553	-1621.478333	1740.120117	-63.284046
29962.792553	-1621.478333	1739.106445	93.095825
29962.792553	-1621.478333	1738.093750	-57.296669
29962.792553	-1621.478333	1737.080078	-99.156570
29962.792553	-1621.478333	1736.067383	116.031586
29962.792553	-1621.478333	1735.053711	26.952078
29962.792553	-1621.478333	1734.040039	-19.683468
29962.792553	-1621.478333	1733.025391	-59.256088
29962.792553	-1621.478333	1732.011719	-2.218421
29962.792553	-1621.478333	1730.997070	-20.621174
29962.792553	-1621.478333	1729.982422	-36.683784
29962.792553	-1621.478333	1728.967773	-48.053154
29962.792553	-1621.478333	1727.952148	-94.764206
29962.792553	-1621.478333	1726.937500	-35.536442
29962.792553	-1621.478333	1725.921875	-2.248385
29962.792553	-1621.478333	1724.906250	68.657021
29962.792553	-1621.478333	1723.890625	94.808769
29962.792553	-1621.478333	1722.875000	127.985283
29962.792553	-1621.478333	1721.858398	-15.274239
29962.792553	-1621.478333	1720.841797	-132.634811
29962.792553	-1621.478333	1719.825195	-12.513800
29962.792553	-1621.478333	1718.808594	62.877480
29962.792553	-1621.478333	1717.791992	27.759850
29962.792553	-1621.478333	1716.774414	-35.566334
29962.792553	-1621.478333	1715.756836	-63.650730
29962.792553	-1621.478333	1714.739258	2.206993
29962.792553	-1621.478333	1713.721680	28.095835
29962.792553	-1621.478333	1712.704102	-0.049009
29962.792553	-1621.478333	1711.685547	9.352045
29962.792553	-1621.478333	1710.667969	96.183708
29962.792553	-1621.478333	1709.649414	-35.273426
29962.792553	-1621.478333	1708.630859	49.142078
29962.792553	-1621.478333	1707.611328	46.711411
29962.792553	-1621.478333	1706.592773	-7.329971
29962.792553	-1621.478333	1705.573242	-23.858831
29962.792553	-1621.478333	1704.553711	-178.716080
29962.792553	-1621.478333	1703.534180	-38.205738
29962.792553	-1621.478333	1702.513672	24.893736
29962.792553	-1621.478333	1701.494141	-73.711784
29962.792553	-1621.478333	1700.473633	61.949905
29962.792553	-1621.478333	1699.453125	40.621006
29962.792553	-1621.478333	1698.432617	66.113724
29962.792553	-1621.478333	1697.412109	-46.551716
29962.792553	-1621.478333	1696.390625	-4.708539
29962.792553	-1621.478333	1695.369141	9.016892
29962.792553	-1621.478333	1694.347656	48.456821
29962.792553	-1621.478333	1693.326172	-54.838737
29962.792553	-1621.478333	1692.304688	87.474670
29962.792553	-1621.478333	1691.282227	-36.874214
29962.792553	-1621.478333	1690.260742	-30.259693
29962.792553	-1621.478333	1689.238281	-40.032146
29962.792553	-1621.478333	1688.214844	-91.889626
29962.792553	-1621.478333	1687.192383	-47.936798
29962.792553	-1621.478333	1686.168945	0.651171
29962.792553	-1621.478333	1685.146484	16.506983
29962.792553	-1621.478333	1684.123047	44.013531
29962.792553	-1621.478333	1683.099609	3.781489
29962.792553	-1621.478333	1682.075195	89.604927
29962.792553	-1621.478333	1681.051758	-226.061081
29962.792553	-1621.478333	1680.027344	30.090607
29962.792553	-1621.478333	1679.002930	76.151176
29962.792553	-1621.478333	1677.978516	-41.105179
29962.792553	-1621.478333	1676.953125	23.575527
29962.792553	-1621.478333	1675.928711	-0.384688
29962.792553	-1621.478333	1674.903320	57.241112
29962.792553	-1621.478333	1673.877930	-62.312241
29962.792553	-1621.478333	1672.852539	81.500458
29962.792553	-1621.478333	1671.826172	85.444374
29962.792553	-1621.478333	1670.800781	-31.755123
29962.792553	-1621.478333	1669.774414	4.789943
29962.792553	-1621.478333	1668.748047	4.051289
29962.792553	-1621.478333	1667.721680	-19.980560
29962.792553	-1621.478333	1666.694336	93.315002
29962.792553	-1621.478333	1665.667969	90.197144
29962.792553	-1621.478333	1664.640625	-113.039024
29962.792553	-1621.478333	1663.613281	46.701820
29962.792553	-1621.478333	1662.585938	-28.544868
29962.792553	-1621.478333	1661.557617	91.560242
29962.792553	-1621.478333	1660.530273	62.814003
29962.792553	-1621.478333	1659.501953	43.362541
29962.792553	-1621.478333	1658.473633	33.205521
29962.792553	-1621.478333	1657.444336	148.516235
29962.792553	-1621.478333	1656.416016	221.960251
29962.792553	-1621.478333	1655.386719	77.024971
29962.792553	-1621.478333	1654.358398	171.338394
29962.792553	-1621.478333	1653.328125	93.782013
29962.792553	-1621.478333	1652.298828	48.751842
29962.792553	-1621.478333	1651.269531	15.336677
29962.792553	-1621.478333	1650.239258	123.473946
29962.792553	-1621.478333	1649.208984	143.400696
29962.792553	-1621.478333	1648.178711	47.333073
29962.792553	-1621.478333	1647.148438	51.020916
29962.792553	-1621.478333	1646.117188	94.115028
29962.792553	-1621.478333	1645.086914	30.551613
29962.792553	-1621.478333	1644.055664	15.677350
29962.792553	-1621.478333	1643.024414	216.318665
29962.792553	-1621.478333	1641.992188	257.007233
29962.792553	-1621.478333	1640.960938	262.933167
29962.792553	-1621.478333	1639.928711	153.048111
29962.792553	-1621.478333	1638.896484	182.136536
29962.792553	-1621.478333	1637.864258	232.046432
29962.792553	-1621.478333	1636.832031	200.921204
29962.792553	-1621.478333	1635.798828	128.145538
29962.792553	-1621.478333	1634.766602	221.991623
29962.792553	-1621.478333	1633.733398	165.429672
29962.792553	-1621.478333	1632.699219	300.852081
29962.792553	-1621.478333	1631.666016	371.477875
29962.792553	-1621.478333	1630.632813	208.566696
29962.792553	-1621.478333	1629.598633	399.376801
29962.792553	-1621.478333	1628.564453	224.963623
29962.792553	-1621.478333	1627.530273	364.863678
29962.792553	-1621.478333	1626.495117	398.437714
29962.792553	-1621.478333	1625.460938	334.995514
29962.792553	-1621.478333	1624.425781	419.369110
29962.792553	-1621.478333	1623.390625	649.168152
29962.792553	-1621.478333	1622.355469	615.724121
29962.792553	-1621.478333	1621.319336	713.843994
29962.792553	-1621.478333	1620.284180	468.117889
29962.792553	-1621.478333	1619.248047	646.980835
29962.792553	-1621.478333	1618.211914	795.791992
29962.792553	-1621.478333	1617.174805	589.400024
29962.792553	-1621.478333	1616.138672	602.137512
29962.792553	-1621.478333	1615.101563	665.585205
29962.792553	-1621.478333	1614.065430	662.179138
29962.792553	-1621.478333	1613.027344	559.684326
29962.792553	-1621.478333	1611.990234	457.239349
29962.792553	-1621.478333	1610.953125	486.137177
29962.792553	-1621.478333	1609.915039	422.906128
29962.792553	-1621.478333	1608.876953	615.289124
29962.792553	-1621.478333	1607.838867	402.434937
29962.792553	-1621.478333	1606.800781	511.902527
29962.792553	-1621.478333	1605.761719	520.078186
29962.792553	-1621.478333	1604.723633	604.187927
29962.792553	-1621.478333	1603.684570	616.960083
29962.792553	-1621.478333	1602.644531	438.844177
29962.792553	-1621.478333	1601.605469	470.057007
29962.792553	-1621.478333	1600.566406	678.287537
29962.792553	-1621.478333	1599.526367	647.397278
29962.792553	-1621.478333	1598.486328	618.827759
29962.792553	-1621.478333	1597.446289	392.685669
29962.792553	-1621.478333	1596.405273	589.316956
29962.792553	-1621.478333	1595.365234	507.984558
29962.792553	-1621.478333	1594.324219	408.321228
29962.792553	-1621.478333	1593.283203	540.587280
29962.792553	-1621.478333	1592.242188	597.066772
29962.792553	-1621.478333	1591.200195	378.142181
29962.792553	-1621.478333	1590.159180	494.313690
29962.792553	-1621.478333	1589.117188	619.625854
29962.792553	-1621.478333	1588.075195	604.994568
29962.792553	-1621.478333	1587.032227	638.534973
29962.792553	-1621.478333	1585.990234	733.983276
29962.792553	-1621.478333	1584.947266	607.059021
29962.792553	-1621.478333	1583.904297	752.921692
29962.792553	-1621.478333	1582.861328	603.161133
29962.792553	-1621.478333	1581.818359	817.725708
29962.792553	-1621.478333	1580.775391	922.281982
29962.792553	-1621.478333	1579.731445	919.180237
29962.792553	-1621.478333	1578.687500	831.384338
29962.792553	-1621.478333	1577.643555	901.587341
29962.792553	-1621.478333	1576.598633	811.571472
29962.792553	-1621.478333	1575.554688	675.849121
29962.792553	-1621.478333	1574.509766	723.214172
29962.792553	-1621.478333	1573.464844	621.905212
29962.792553	-1621.478333	1572.419922	550.383972
29962.792553	-1621.478333	1571.374023	325.717865
29962.792553	-1621.478333	1570.329102	473.773468
29962.792553	-1621.478333	1569.283203	452.660004
29962.792553	-1621.478333	1568.237305	456.710510
29962.792553	-1621.478333	1567.191406	622.987854
29962.792553	-1621.478333	1566.144531	382.636658
29962.792553	-1621.478333	1565.098633	496.380249
29962.792553	-1621.478333	1564.051758	589.547729
29962.792553	-1621.478333	1563.004883	559.429138
29962.792553	-1621.478333	1561.957031	748.448059
29962.792553	-1621.478333	1560.910156	700.098999
29962.792553	-1621.478333	1559.862305	699.699585
29962.792553	-1621.478333	1558.814453	776.878601
29962.792553	-1621.478333	1557.766602	931.589905
29962.792553	-1621.478333	1556.718750	869.652710
29962.792553	-1621.478333	1555.669922	860.193298
29962.792553	-1621.478333	1554.621094	759.592773
29962.792553	-1621.478333	1553.573242	802.622864
29962.792553	-1621.478333	1552.523438	804.644958
29962.792553	-1621.478333	1551.474609	781.638000
29962.792553	-1621.478333	1550.424805	717.668518
29962.792553	-1621.478333	1549.375000	842.740051
29962.792553	-1621.478333	1548.325195	756.070618
29962.792553	-1621.478333	1547.275391	630.768494
29962.792553	-1621.478333	1546.225586	671.664368
29962.792553	-1621.478333	1545.174805	717.118774
29962.792553	-1621.478333	1544.124023	662.493530
29962.792553	-1621.478333	1543.073242	632.934814
29962.792553	-1621.478333	1542.022461	487.449310
29962.792553	-1621.478333	1540.970703	498.911194
29962.792553	-1621.478333	1539.919922	499.035217
29962.792553	-1621.478333	1538.868164	524.182373
29962.792553	-1621.478333	1537.815430	428.927277
29962.792553	-1621.478333	1536.763672	451.865265
29962.792553	-1621.478333	1535.710938	374.889771
29962.792553	-1621.478333	1534.659180	429.679108
29962.792553	-1621.478333	1533.606445	464.041290
29962.792553	-1621.478333	1532.552734	602.829773
29962.792553	-1621.478333	1531.500000	501.042847
29962.792553	-1621.478333	1530.446289	567.225159
29962.792553	-1621.478333	1529.393555	590.313538
29962.792553	-1621.478333	1528.338867	393.420715
29962.792553	-1621.478333	1527.285156	507.297638
29962.792553	-1621.478333	1526.231445	408.051666
29962.792553	-1621.478333	1525.176758	426.741577
29962.792553	-1621.478333	1524.122070	359.339844
29962.792553	-1621.478333	1523.067383	514.044006
29962.792553	-1621.478333	1522.012695	507.881012
29962.792553	-1621.478333	1520.957031	494.956177
29962.792553	-1621.478333	1519.901367	556.796082
29962.792553	-1621.478333	1518.845703	582.421326
29962.792553	-1621.478333	1517.790039	513.000671
29962.792553	-1621.478333	1516.734375	719.739807
29962.792553	-1621.478333	1515.677734	666.224121
29962.792553	-1621.478333	1514.621094	585.617188
29962.792553	-1621.478333	1513.564453	473.412354
29962.792553	-1621.478333	1512.507813	499.226013
29962.792553	-1621.478333	1511.450195	326.106537
29962.792553	-1621.478333	1510.393555	403.998779
29962.792553	-1621.478333	1509.335938	319.175995
29962.792553	-1621.478333	1508.278320	306.726471
29962.792553	-1621.478333	1507.219727	158.771881
29962.792553	-1621.478333	1506.162109	71.895958
29962.792553	-1621.478333	1505.103516	206.389877
29962.792553	-1621.478333	1504.044922	115.094109
29962.792553	-1621.478333	1502.986328	-55.133755
29962.792553	-1621.478333	1501.926758	54.586937
29962.792553	-1621.478333	1500.868164	71.791214
29962.792553	-1621.478333	1499.808594	55.185112
29962.792553	-1621.478333	1498.749023	54.410702
29962.792553	-1621.478333	1497.688477	6.316547
29962.792553	-1621.478333	1496.628906	-66.520142
29962.792553	-1621.478333	1495.568359	59.072762
29962.792553	-1621.478333	1494.507813	65.207390
29962.792553	-1621.478333	1493.447266	-39.031677
29962.792553	-1621.478333	1492.386719	46.043663
29962.792553	-1621.478333	1491.325195	144.635681
29962.792553	-1621.478333	1490.263672	189.181564
29962.792553	-1621.478333	1489.202148	10.853749
29962.792553	-1621.478333	1488.140625	8.213870
29962.792553	-1621.478333	1487.079102	124.892876
29962.792553	-1621.478333	1486.016602	-23.949762
29962.792553	-1621.478333	1484.954102	-19.717407
29962.792553	-1621.478333	1483.891602	148.744812
29962.792553	-1621.478333	1482.829102	94.551224
29962.792553	-1621.478333	1481.765625	-45.018929
29962.792553	-1621.478333	1480.702148	-45.126011
29962.792553	-1621.478333	1479.638672	8.738840
29962.792553	-1621.478333	1478.575195	4.190433
29962.792553	-1621.478333	1477.511719	-18.272636
29962.792553	-1621.478333	1476.447266	-103.538445
29962.792553	-1621.478333	1475.382813	-74.266579
29962.792553	-1621.478333	1474.318359	177.225632
29962.792553	-1621.478333	1473.253906	6.835695
29962.792553	-1621.478333	1472.189453	-55.813297
29962.792553	-1621.478333	1471.124023	-78.018433
29962.792553	-1621.478333	1470.058594	-3.732475
29962.792553	-1621.478333	1468.993164	-21.307922
29962.792553	-1621.478333	1467.927734	5.893436
29962.792553	-1621.478333	1466.861328	39.910587
29962.792553	-1621.478333	1465.794922	31.479570
29962.792553	-1621.478333	1464.728516	29.596016
29962.792553	-1621.478333	1463.662109	-59.355297
29962.792553	-1621.478333	1462.594727	-18.338173
29962.792553	-1621.478333	1461.528320	116.256226
29962.792553	-1621.478333	1460.460938	175.057434
29962.792553	-1621.478333	1459.393555	276.573212
29962.792553	-1621.478333	1458.326172	234.600449
29962.792553	-1621.478333	1457.257813	235.182327
29962.792553	-1621.478333	1456.189453	211.327972
29962.792553	-1621.478333	1455.121094	263.697510
29962.792553	-1621.478333	1454.052734	230.300720
29962.792553	-1621.478333	1452.984375	173.175659
29962.792553	-1621.478333	1451.915039	67.018509
29962.792553	-1621.478333	1450.845703	-38.458187
29962.792553	-1621.478333	1449.776367	27.580982
29962.792553	-1621.478333	1448.707031	-49.540771
29962.792553	-1621.478333	1447.636719	115.907066
29962.792553	-1621.478333	1446.567383	57.154312
29962.792553	-1621.478333	1445.497070	9.766070
29962.792553	-1621.478333	1444.425781	106.826393
29962.792553	-1621.478333	1443.355469	68.930573
29962.792553	-1621.478333	1442.285156	-34.375374
29962.792553	-1621.478333	1441.213867	18.306749
29962.792553	-1621.478333	1440.142578	115.498619
29962.792553	-1621.478333	1439.070313	122.881721
29962.792553	-1621.478333	1437.999023	47.209641
29962.792553	-1621.478333	1436.926758	70.080292
29962.792553	-1621.478333	1435.854492	147.077682
29962.792553	-1621.478333	1434.782227	69.952240
29962.792553	-1621.478333	1433.709961	108.620865
29962.792553	-1621.478333	1432.636719	114.150490
29962.792553	-1621.478333	1431.563477	107.444313
29962.792553	-1621.478333	1430.490234	102.836220
29962.792553	-1621.478333	1429.416992	16.915001
29962.792553	-1621.478333	1428.343750	297.619019
29962.792553	-1621.478333	1427.269531	223.725845
29962.792553	-1621.478333	1426.195313	331.786407
29962.792553	-1621.478333	1425.121094	318.524719
29962.792553	-1621.478333	1424.046875	414.611572
29962.792553	-1621.478333	1422.971680	267.200623
29962.792553	-1621.478333	1421.896484	383.262085
29962.792553	-1621.478333	1420.821289	414.618134
29962.792553	-1621.478333	1419.746094	358.496643
29962.792553	-1621.478333	1418.669922	407.760895
29962.792553	-1621.478333	1417.594727	335.687897
29962.792553	-1621.478333	1416.518555	433.235840
29962.792553	-1621.478333	1415.442383	305.164185
29962.792553	-1621.478333	1414.365234	289.956482
29962.792553	-1621.478333	1413.289063	257.622894
29962.792553	-1621.478333	1412.211914	262.072449
29962.792553	-1621.478333	1411.134766	203.473236
29962.792553	-1621.478333	1410.057617	123.573166
29962.792553	-1621.478333	1408.979492	209.966736
29962.792553	-1621.478333	1407.902344	-2.868484
29962.792553	-1621.478333	1406.824219	275.294769
29962.792553	-1621.478333	1405.746094	209.203003
29962.792553	-1621.478333	1404.666992	324.362488
29962.792553	-1621.478333	1403.588867	311.883728
29962.792553	-1621.478333	1402.509766	224.395233
29962.792553	-1621.478333	1401.430664	312.487549
29962.792553	-1621.478333	1400.351563	252.437820
29962.792553	-1621.478333	1399.271484	317.071838
29962.792553	-1621.478333	1398.192383	418.172638
29962.792553	-1621.478333	1397.112305	411.925629
29962.792553	-1621.478333	1396.031250	347.930328
29962.792553	-1621.478333	1394.951172	445.217163
29962.792553	-1621.478333	1393.871094	621.928345
29962.792553	-1621.478333	1392.790039	496.576324
29962.792553	-1621.478333	1391.708984	525.987671
29962.792553	-1621.478333	1390.626953	478.376068
29962.792553	-1621.478333	1389.545898	578.359985
29962.792553	-1621.478333	1388.463867	655.915833
29962.792553	-1621.478333	1387.381836	649.943359
29962.792553	-1621.478333	1386.299805	575.675659
29962.792553	-1621.478333	1385.217773	450.058380
29962.792553	-1621.478333	1384.134766	521.267761
29962.792553	-1621.478333	1383.051758	401.495850
29962.792553	-1621.478333	1381.968750	391.699951
29962.792553	-1621.478333	1380.885742	401.997986
29962.792553	-1621.478333	1379.802734	274.844360
29962.792553	-1621.478333	1378.718750	257.924225
29962.792553	-1621.478333	1377.634766	250.386505
29962.792553	-1621.478333	1376.550781	282.487793
29962.792553	-1621.478333	1375.465820	271.299133
29962.792553	-1621.478333	1374.381836	300.122620
29962.792553	-1621.478333	1373.296875	144.227524
29962.792553	-1621.478333	1372.211914	96.829453
29962.792553	-1621.478333	1371.126953	264.945251
29962.792553	-1621.478333	1370.041016	178.258408
29962.792553	-1621.478333	1368.955078	62.275940
29962.792553	-1621.478333	1367.869141	224.483932
29962.792553	-1621.478333	1366.783203	236.127747
29962.792553	-1621.478333	1365.697266	347.294525
29962.792553	-1621.478333	1364.610352	340.356354
29962.792553	-1621.478333	1363.523438	462.691193
29962.792553	-1621.478333	1362.436523	400.778290
29962.792553	-1621.478333	1361.349609	234.974304
29962.792553	-1621.478333	1360.261719	202.590393
29962.792553	-1621.478333	1359.174805	280.231079
29962.792553	-1621.478333	1358.086914	248.941772
29962.792553	-1621.478333	1356.998047	391.815491
29962.792553	-1621.478333	1355.910156	353.344849
29962.792553	-1621.478333	1354.821289	457.518738
29962.792553	-1621.478333	1353.732422	440.604980
29962.792553	-1621.478333	1352.643555	516.630188
29962.792553	-1621.478333	1351.554688	673.814819
29962.792553	-1621.478333	1350.464844	646.105408
29962.792553	-1621.478333	1349.375000	756.572021
29962.792553	-1621.478333	1348.285156	919.559082
29962.792553	-1621.478333	1347.195313	1021.881653
29962.792553	-1621.478333	1346.105469	1077.592407
29962.792553	-1621.478333	1345.014648	1340.296509
29962.792553	-1621.478333	1343.923828	1292.291504
29962.792553	-1621.478333	1342.833008	1488.656128
29962.792553	-1621.478333	1341.741211	1709.419678
29962.792553	-1621.478333	1340.650391	1898.733276
29962.792553	-1621.478333	1339.558594	1920.456665
29962.792553	-1621.478333	1338.466797	2117.656982
29962.792553	-1621.478333	1337.374023	1995.871338
29962.792553	-1621.478333	1336.282227	1952.208252
29962.792553	-1621.478333	1335.189453	2024.273193
29962.792553	-1621.478333	1334.096680	1912.296875
29962.792553	-1621.478333	1333.003906	1732.838135
29962.792553	-1621.478333	1331.910156	1617.748169
29962.792553	-1621.478333	1330.817383	1405.235840
29962.792553	-1621.478333	1329.723633	1269.705444
29962.792553	-1621.478333	1328.629883	1077.281860
29962.792553	-1621.478333	1327.535156	1011.489624
29962.792553	-1621.478333	1326.441406	904.951416
29962.792553	-1621.478333	1325.346680	636.626160
29962.792553	-1621.478333	1324.251953	928.522644
29962.792553	-1621.478333	1323.156250	562.462585
29962.792553	-1621.478333	1322.061523	572.923340
29962.792553	-1621.478333	1320.965820	449.812744
29962.792553	-1621.478333	1319.870117	331.968140
29962.792553	-1621.478333	1318.774414	333.633392
29962.792553	-1621.478333	1317.678711	316.007446
29962.792553	-1621.478333	1316.582031	247.597031
29962.792553	-1621.478333	1315.485352	234.096970
29962.792553	-1621.478333	1314.388672	203.572861
29962.792553	-1621.478333	1313.291016	282.289825
29962.792553	-1621.478333	1312.194336	193.719177
29962.792553	-1621.478333	1311.096680	272.879272
29962.792553	-1621.478333	1309.999023	260.129822
29962.792553	-1621.478333	1308.901367	272.232269
29962.792553	-1621.478333	1307.802734	330.380493
29962.792553	-1621.478333	1306.705078	395.024689
29962.792553	-1621.478333	1305.606445	505.041718
29962.792553	-1621.478333	1304.506836	410.493774
29962.792553	-1621.478333	1303.408203	468.552673
29962.792553	-1621.478333	1302.308594	499.968414
29962.792553	-1621.478333	1301.208984	491.118683
29962.792553	-1621.478333	1300.109375	532.334229
29962.792553	-1621.478333	1299.009766	537.077148
29962.792553	-1621.478333	1297.909180	504.138153
29962.792553	-1621.478333	1296.808594	407.852875
29962.792553	-1621.478333	1295.708008	525.868958
29962.792553	-1621.478333	1294.607422	470.451752
29962.792553	-1621.478333	1293.506836	445.980774
29962.792553	-1621.478333	1292.405273	315.406921
29962.792553	-1621.478333	1291.303711	379.979431
29962.792553	-1621.478333	1290.202148	429.742889
29962.792553	-1621.478333	1289.099609	393.053009
29962.792553	-1621.478333	1287.998047	307.750153
29962.792553	-1621.478333	1286.895508	367.157928
29962.792553	-1621.478333	1285.792969	370.456085
29962.792553	-1621.478333	1284.689453	274.809998
29962.792553	-1621.478333	1283.586914	349.290894
29962.792553	-1621.478333	1282.483398	174.935791
29962.792553	-1621.478333	1281.379883	210.538239
29962.792553	-1621.478333	1280.276367	189.167755
29962.792553	-1621.478333	1279.171875	189.589783
29962.792553	-1621.478333	1278.067383	99.939629
29962.792553	-1621.478333	1276.962891	106.314171
29962.792553	-1621.478333	1275.858398	66.720421
29962.792553	-1621.478333	1274.753906	89.638542
29962.792553	-1621.478333	1273.648438	210.956573
29962.792553	-1621.478333	1272.542969	89.718979
29962.792553	-1621.478333	1271.437500	119.130539
29962.792553	-1621.478333	1270.331055	155.143280
29962.792553	-1621.478333	1269.225586	81.175964
29962.792553	-1621.478333	1268.119141	57.128567
29962.792553	-1621.478333	1267.012695	92.961540
29962.792553	-1621.478333	1265.906250	18.380157
29962.792553	-1621.478333	1264.798828	28.376501
29962.792553	-1621.478333	1263.691406	-4.099726
29962.792553	-1621.478333	1262.583984	31.854012
29962.792553	-1621.478333	1261.476563	36.085560
29962.792553	-1621.478333	1260.368164	109.046989
29962.792553	-1621.478333	1259.260742	71.662865
29962.792553	-1621.478333	1258.152344	0.720439
29962.792553	-1621.478333	1257.043945	12.954554
29962.792553	-1621.478333	1255.934570	8.474511
29962.792553	-1621.478333	1254.825195	23.771015
29962.792553	-1621.478333	1253.716797	-81.098831
29962.792553	-1621.478333	1252.606445	-88.031616
29962.792553	-1621.478333	1251.497070	-205.066879
29962.792553	-1621.478333	1250.387695	-1.861907
29962.792553	-1621.478333	1249.277344	-47.524666
29962.792553	-1621.478333	1248.166992	-139.061035
29962.792553	-1621.478333	1247.055664	-152.396866
29962.792553	-1621.478333	1245.945313	-128.039230
29962.792553	-1621.478333	1244.833984	-56.590004
29962.792553	-1621.478333	1243.722656	4.032330
29962.792553	-1621.478333	1242.611328	-149.136368
29962.792553	-1621.478333	1241.499023	-49.036098
29962.792553	-1621.478333	1240.387695	-84.589935
29962.792553	-1621.478333	1239.275391	-42.395382
29962.792553	-1621.478333	1238.162109	-27.273020
29962.792553	-1621.478333	1237.049805	8.526449
29962.792553	-1621.478333	1235.936523	-1.236569
29962.792553	-1621.478333	1234.823242	-6.525932
29962.792553	-1621.478333	1233.709961	-77.728622
29962.792553	-1621.478333	1232.596680	-49.709171
29962.792553	-1621.478333	1231.482422	-9.922721
29962.792553	-1621.478333	1230.369141	-10.070604
29962.792553	-1621.478333	1229.253906	137.206863
29962.792553	-1621.478333	1228.139648	7.252593
29962.792553	-1621.478333	1227.025391	163.603149
29962.792553	-1621.478333	1225.910156	135.799957
29962.792553	-1621.478333	1224.794922	193.387985
29962.792553	-1621.478333	1223.679688	164.017853
29962.792553	-1621.478333	1222.563477	17.528843
29962.792553	-1621.478333	1221.447266	76.278923
29962.792553	-1621.478333	1220.331055	-3.598358
29962.792553	-1621.478333	1219.214844	112.571556
29962.792553	-1621.478333	1218.098633	74.023781
29962.792553	-1621.478333	1216.981445	21.981825
29962.792553	-1621.478333	1215.864258	66.511238
29962.792553	-1621.478333	1214.747070	63.671837
29962.792553	-1621.478333	1213.629883	189.791519
29962.792553	-1621.478333	1212.511719	113.118179
29962.792553	-1621.478333	1211.393555	232.939575
29962.792553	-1621.478333	1210.275391	227.273529
29962.792553	-1621.478333	1209.157227	255.249725
29962.792553	-1621.478333	1208.038086	243.961731
29962.792553	-1621.478333	1206.918945	247.497620
29962.792553	-1621.478333	1205.799805	234.672607
29962.792553	-1621.478333	1204.680664	237.581696
29962.792553	-1621.478333	1203.560547	259.436127
29962.792553	-1621.478333	1202.441406	287.833221
29962.792553	-1621.478333	1201.321289	276.664490
29962.792553	-1621.478333	1200.200195	348.725586
29962.792553	-1621.478333	1199.080078	362.692017
29962.792553	-1621.478333	1197.958984	409.307739
29962.792553	-1621.478333	1196.837891	411.174591
29962.792553	-1621.478333	1195.716797	362.662537
29962.792553	-1621.478333	1194.594727	420.479736
29962.792553	-1621.478333	1193.473633	516.836121
29962.792553	-1621.478333	1192.351563	516.976929
29962.792553	-1621.478333	1191.229492	536.367432
29962.792553	-1621.478333	1190.106445	417.554596
29962.792553	-1621.478333	1188.984375	647.463806
29962.792553	-1621.478333	1187.861328	561.496948
29962.792553	-1621.478333	1186.738281	624.519653
29962.792553	-1621.478333	1185.614258	560.535095
29962.792553	-1621.478333	1184.491211	743.346985
29962.792553	-1621.478333	1183.367188	651.891479
29962.792553	-1621.478333	1182.243164	602.696777
29962.792553	-1621.478333	1181.119141	528.447754
29962.792553	-1621.478333	1179.994141	529.186096
29962.792553	-1621.478333	1178.869141	649.786316
29962.792553	-1621.478333	1177.744141	584.840454
29962.792553	-1621.478333	1176.619141	548.750305
29962.792553	-1621.478333	1175.493164	571.621338
29962.792553	-1621.478333	1174.368164	472.151245
29962.792553	-1621.478333	1173.242188	568.042847
29962.792553	-1621.478333	1172.115234	578.442993
29962.792553	-1621.478333	1170.989258	544.083069
29962.792553	-1621.478333	1169.862305	611.167358
29962.792553	-1621.478333	1168.735352	507.252716
29962.792553	-1621.478333	1167.608398	664.236877
29962.792553	-1621.478333	1166.481445	626.868774
29962.792553	-1621.478333	1165.353516	549.315796
29962.792553	-1621.478333	1164.225586	532.641724
29962.792553	-1621.478333	1163.097656	576.607117
29962.792553	-1621.478333	1161.968750	573.515137
29962.792553	-1621.478333	1160.840820	590.996338
29962.792553	-1621.478333	1159.711914	567.223633
29962.792553	-1621.478333	1158.583008	500.158691
29962.792553	-1621.478333	1157.453125	706.161255
29962.792553	-1621.478333	1156.324219	753.455383
29962.792553	-1621.478333	1155.194336	873.713196
29962.792553	-1621.478333	1154.064453	926.410278
29962.792553	-1621.478333	1152.933594	878.534119
29962.792553	-1621.478333	1151.803711	1049.830933
29962.792553	-1621.478333	1150.672852	1072.049438
29962.792553	-1621.478333	1149.541992	1087.652588
29962.792553	-1621.478333	1148.411133	1085.683105
29962.792553	-1621.478333	1147.279297	931.691528
29962.792553	-1621.478333	1146.147461	987.774719
29962.792553	-1621.478333	1145.015625	791.107666
29962.792553	-1621.478333	1143.883789	689.642639
29962.792553	-1621.478333	1142.750977	779.264404
29962.792553	-1621.478333	1141.619141	587.030518
29962.792553	-1621.478333	1140.486328	509.506378
29962.792553	-1621.478333	1139.352539	456.179596
29962.792553	-1621.478333	1138.219727	405.583862
29962.792553	-1621.478333	1137.085938	371.089111
29962.792553	-1621.478333	1135.952148	263.314697
29962.792553	-1621.478333	1134.818359	194.136032
29962.792553	-1621.478333	1133.683594	289.494629
29962.792553	-1621.478333	1132.549805	139.756271
29962.792553	-1621.478333	1131.415039	119.717117
29962.792553	-1621.478333	1130.279297	266.747650
29962.792553	-1621.478333	1129.144531	206.595154
29962.792553	-1621.478333	1128.008789	215.390121
29962.792553	-1621.478333	1126.873047	374.164642
29962.792553	-1621.478333	1125.737305	189.696472
29962.792553	-1621.478333	1124.601563	225.441635
29962.792553	-1621.478333	1123.464844	243.052429
29962.792553	-1621.478333	1122.328125	245.759247
29962.792553	-1621.478333	1121.191406	329.131378
29962.792553	-1621.478333	1120.054688	96.524284
29962.792553	-1621.478333	1118.916992	181.379227
29962.792553	-1621.478333	1117.779297	137.601974
29962.792553	-1621.478333	1116.641602	120.547012
29962.792553	-1621.478333	1115.503906	126.534126
29962.792553	-1621.478333	1114.365234	166.097321
29962.792553	-1621.478333	1113.226563	40.934940
29962.792553	-1621.478333	1112.087891	30.073315
29962.792553	-1621.478333	1110.949219	32.758526
29962.792553	-1621.478333	1109.809570	-3.788458
29962.792553	-1621.478333	1108.669922	177.347565
29962.792553	-1621.478333	1107.530273	142.430252
29962.792553	-1621.478333	1106.390625	49.202267
29962.792553	-1621.478333	1105.250000	-8.481688
29962.792553	-1621.478333	1104.109375	58.495815
29962.792553	-1621.478333	1102.968750	20.340828
29962.792553	-1621.478333	1101.828125	77.808235
29962.792553	-1621.478333	1100.686523	12.828355
29962.792553	-1621.478333	1099.544922	-52.286480
29962.792553	-1621.478333	1098.403320	39.914421
29962.792553	-1621.478333	1097.261719	38.901283
29962.792553	-1621.478333	1096.120117	3.923636
29962.792553	-1621.478333	1094.977539	7.484955
29962.792553	-1621.478333	1093.834961	-13.965116
29962.792553	-1621.478333	1092.691406	70.955780
29962.792553	-1621.478333	1091.548828	-54.955017
29962.792553	-1621.478333	1090.405273	-44.544640
29962.792553	-1621.478333	1089.261719	-14.959071
29962.792553	-1621.478333	1088.118164	-66.068893
29962.792553	-1621.478333	1086.973633	119.349007
29962.792553	-1621.478333	1085.829102	-6.672113
29962.792553	-1621.478333	1084.684570	-14.239626
29962.792553	-1621.478333	1083.540039	70.526871
29962.792553	-1621.478333	1082.395508	-35.457050
29962.792553	-1621.478333	1081.250000	-53.204212
29962.792553	-1621.478333	1080.104492	-50.738369
29962.792553	-1621.478333	1078.958984	-49.323143
29962.792553	-1621.478333	1077.812500	-66.089073
29962.792553	-1621.478333	1076.666016	71.375694
29962.792553	-1621.478333	1075.519531	63.504795
29962.792553	-1621.478333	1074.373047	101.722115
29962.792553	-1621.478333	1073.226563	10.672251
29962.792553	-1621.478333	1072.079102	37.522919
29962.792553	-1621.478333	1070.931641	45.824249
29962.792553	-1621.478333	1069.784180	8.290174
29962.792553	-1621.478333	1068.635742	-17.676275
29962.792553	-1621.478333	1067.487305	38.211906
29962.792553	-1621.478333	1066.338867	-41.564259
29962.792553	-1621.478333	1065.190430	11.507995
29962.792553	-1621.478333	1064.041992	60.232937
29962.792553	-1621.478333	1062.892578	31.949074
29962.792553	-1621.478333	1061.743164	52.553364
29962.792553	-1621.478333	1060.593750	86.309067
29962.792553	-1621.478333	1059.443359	90.111778
29962.792553	-1621.478333	1058.292969	-60.683487
29962.792553	-1621.478333	1057.142578	113.990250
29962.792553	-1621.478333	1055.992188	43.456322
29962.792553	-1621.478333	1054.841797	43.699665
29962.792553	-1621.478333	1053.690430	11.038656
29962.792553	-1621.478333	1052.539063	85.842079
29962.792553	-1621.478333	1051.387695	-48.233246
29962.792553	-1621.478333	1050.235352	24.857582
29962.792553	-1621.478333	1049.083984	-0.220568
29962.792553	-1621.478333	1047.931641	96.846588
29962.792553	-1621.478333	1046.778320	73.122086
29962.792553	-1621.478333	1045.625977	47.044342
29962.792553	-1621.478333	1044.472656	59.998837
29962.792553	-1621.478333	1043.319336	122.447266
29962.792553	-1621.478333	1042.166016	-33.343174
29962.792553	-1621.478333	1041.012695	64.871758
29962.792553	-1621.478333	1039.858398	170.693466
29962.792553	-1621.478333	1038.704102	64.848839
29962.792553	-1621.478333	1037.549805	177.956161
29962.792553	-1621.478333	1036.394531	53.823345
29962.792553	-1621.478333	1035.239258	140.282791
29962.792553	-1621.478333	1034.083984	76.149567
29962.792553	-1621.478333	1032.928711	35.447704
29962.792553	-1621.478333	1031.773438	-28.179129
29962.792553	-1621.478333	1030.617188	-21.972414
29962.792553	-1621.478333	1029.460938	113.272423
29962.792553	-1621.478333	1028.304688	45.643875
29962.792553	-1621.478333	1027.147461	72.174355
29962.792553	-1621.478333	1025.991211	68.330627
29962.792553	-1621.478333	1024.833984	23.763327
29962.792553	-1621.478333	1023.675781	46.176136
29962.792553	-1621.478333	1022.518555	118.856720
29962.792553	-1621.478333	1021.360352	68.371155
29962.792553	-1621.478333	1020.202148	-38.036812
29962.792553	-1621.478333	1019.043945	57.701794
29962.792553	-1621.478333	1017.884766	71.022110
29962.792553	-1621.478333	1016.726563	64.274925
29962.792553	-1621.478333	1015.567383	73.933411
29962.792553	-1621.478333	1014.407227	-3.409087
29962.792553	-1621.478333	1013.248047	73.736977
29962.792553	-1621.478333	1012.087891	54.769009
29962.792553	-1621.478333	1010.927734	23.066616
29962.792553	-1621.478333	1009.767578	1.717823
29962.792553	-1621.478333	1008.606445	-33.119675
29962.792553	-1621.478333	1007.446289	11.384132
29962.792553	-1621.478333	1006.285156	77.904846
29962.792553	-1621.478333	1005.123047	128.576355
29962.792553	-1621.478333	1003.961914	-8.797641
29962.792553	-1621.478333	1002.799805	125.212807
29962.792553	-1621.478333	1001.637695	-100.542389
29962.792553	-1621.478333	1000.475586	42.923733
29962.792553	-1621.478333	999.312500	36.402561
29962.792553	-1621.478333	998.149414	-86.005936
29962.792553	-1621.478333	996.986328	55.572403
29962.792553	-1621.478333	995.823242	43.247089
29962.792553	-1621.478333	994.659180	10.352927
29962.792553	-1621.478333	993.496094	17.813967
29962.792553	-1621.478333	992.332031	17.184437
29962.792553	-1621.478333	991.166992	122.584068
29962.792553	-1621.478333	990.002930	-144.349152
29962.792553	-1621.478333	988.837891	-69.081070
29962.792553	-1621.478333	987.672852	56.336029
29962.792553	-1621.478333	986.506836	24.805729
29962.792553	-1621.478333	985.341797	-39.956753
29962.792553	-1621.478333	984.175781	70.754028
29962.792553	-1621.478333	983.009766	16.012806
29962.792553	-1621.478333	981.843750	92.224983
29962.792553	-1621.478333	980.676758	-4.200539
29962.792553	-1621.478333	979.509766	0.375939
29962.792553	-1621.478333	978.342773	42.912071
29962.792553	-1621.478333	977.175781	41.109657
29962.792553	-1621.478333	976.007813	52.444454
29962.792553	-1621.478333	974.839844	-5.404746
29962.792553	-1621.478333	973.671875	-123.194633
29962.792553	-1621.478333	972.503906	19.473841
29962.792553	-1621.478333	971.334961	-182.184341
29962.792553	-1621.478333	970.166016	116.001366
29962.792553	-1621.478333	968.997070	-39.330242
29962.792553	-1621.478333	967.828125	-33.573074
29962.792553	-1621.478333	966.658203	71.089371
29962.792553	-1621.478333	965.488281	31.191927
29962.792553	-1621.478333	964.318359	-19.923481
29962.792553	-1621.478333	963.148438	-49.169807
29962.792553	-1621.478333	961.977539	-33.782825
29962.792553	-1621.478333	960.806641	-0.302875
29962.792553	-1621.478333	959.635742	-40.247894
29962.792553	-1621.478333	958.463867	-56.773605
29962.792553	-1621.478333	957.292969	-45.347958
29962.792553	-1621.478333	956.121094	63.342461
29962.792553	-1621.478333	954.948242	-21.148539
29962.792553	-1621.478333	953.776367	12.869835
29962.792553	-1621.478333	952.603516	7.914557
29962.792553	-1621.478333	951.430664	-105.306610
29962.792553	-1621.478333	950.257813	-127.158768
29962.792553	-1621.478333	949.084961	12.030562
29962.792553	-1621.478333	947.911133	-100.790405
29962.792553	-1621.478333	946.737305	31.620300
29962.792553	-1621.478333	945.563477	-13.789938
29962.792553	-1621.478333	944.388672	-114.840996
29962.792553	-1621.478333	943.213867	-95.511108
29962.792553	-1621.478333	942.039063	-45.177101
29962.792553	-1621.478333	940.864258	38.998543
29962.792553	-1621.478333	939.688477	-90.673225
29962.792553	-1621.478333	938.513672	-13.843252
29962.792553	-1621.478333	937.337891	-54.783321
29962.792553	-1621.478333	936.161133	-148.281418
29962.792553	-1621.478333	934.985352	-59.505951
29962.792553	-1621.478333	933.808594	-23.604698
29962.792553	-1621.478333	932.631836	-30.799992
29962.792553	-1621.478333	931.454102	48.395340
29962.792553	-1621.478333	930.277344	-83.645065
29962.792553	-1621.478333	929.099609	53.082809
29962.792553	-1621.478333	927.921875	103.409378
29962.792553	-1621.478333	926.743164	-33.436008
29962.792553	-1621.478333	925.565430	16.887594
29962.792553	-1621.478333	924.386719	155.934937
29962.792553	-1621.478333	923.208008	28.730312
29962.792553	-1621.478333	922.028320	76.591896
29962.792553	-1621.478333	920.849609	210.721512
29962.792553	-1621.478333	919.669922	211.550827
29962.792553	-1621.478333	919.474609	189.154724
29962.792553	-1621.478333	918.309570	186.611038
29962.792553	-1621.478333	917.143555	66.679459
29962.792553	-1621.478333	915.977539	28.225138
29962.792553	-1621.478333	914.810547	66.409950
29962.792553	-1621.478333	913.644531	-122.869400
29962.792553	-1621.478333	912.477539	8.673168
29962.792553	-1621.478333	911.310547	10.926718
29962.792553	-1621.478333	910.143555	-10.752223
29962.792553	-1621.478333	908.975586	-68.309708
29962.792553	-1621.478333	907.807617	94.188751
29962.792553	-1621.478333	906.639648	50.971748
29962.792553	-1621.478333	905.471680	22.112106
29962.792553	-1621.478333	904.303711	88.869667
29962.792553	-1621.478333	903.134766	2.651870
29962.792553	-1621.478333	901.965820	-114.596046
29962.792553	-1621.478333	900.796875	-95.639160
29962.792553	-1621.478333	899.626953	-134.012909
29962.792553	-1621.478333	898.457031	-103.128983
29962.792553	-1621.478333	897.287109	-110.458519
29962.792553	-1621.478333	896.117188	56.450214
29962.792553	-1621.478333	894.947266	44.310654
29962.792553	-1621.478333	893.776367	-53.718342
29962.792553	-1621.478333	892.605469	-84.920525
29962.792553	-1621.478333	891.434570	15.054750
29962.792553	-1621.478333	890.262695	2.919549
29962.792553	-1621.478333	889.091797	98.061409
29962.792553	-1621.478333	887.919922	-52.332397
29962.792553	-1621.478333	886.748047	95.199982
29962.792553	-1621.478333	885.575195	9.188469
29962.792553	-1621.478333	884.403320	78.035759
29962.792553	-1621.478333	883.230469	1.581912
29962.792553	-1621.478333	882.057617	15.633523
29962.792553	-1621.478333	880.883789	-77.446495
29962.792553	-1621.478333	879.710938	62.750412
29962.792553	-1621.478333	878.537109	-23.169104
29962.792553	-1621.478333	877.362305	-80.507759
29962.792553	-1621.478333	876.188477	2.509235
29962.792553	-1621.478333	875.013672	-66.708282
29962.792553	-1621.478333	873.839844	-47.929470
29962.792553	-1621.478333	872.664063	-62.440720
29962.792553	-1621.478333	871.489258	10.985817
29962.792553	-1621.478333	870.313477	29.728216
29962.792553	-1621.478333	869.138672	3.322515
29962.792553	-1621.478333	867.962891	95.682411
29962.792553	-1621.478333	866.786133	152.382141
29962.792553	-1621.478333	865.610352	68.978249
29962.792553	-1621.478333	864.433594	130.401505
29962.792553	-1621.478333	863.256836	187.050323
29962.792553	-1621.478333	862.079102	274.518494
29962.792553	-1621.478333	860.902344	32.205822
29962.792553	-1621.478333	859.724609	27.165148
29962.792553	-1621.478333	858.546875	95.633240
29962.792553	-1621.478333	857.368164	-6.625707
29962.792553	-1621.478333	856.190430	-70.921333
29962.792553	-1621.478333	855.011719	14.104330
29962.792553	-1621.478333	853.833008	35.120674
29962.792553	-1621.478333	852.654297	271.689209
29962.792553	-1621.478333	851.474609	91.328529
29962.792553	-1621.478333	850.294922	176.239731
29962.792553	-1621.478333	849.115234	206.663055
29962.792553	-1621.478333	847.935547	215.768890
29962.792553	-1621.478333	846.754883	104.181259
29962.792553	-1621.478333	845.575195	184.275604
29962.792553	-1621.478333	844.393555	245.411285
29962.792553	-1621.478333	843.212891	152.796295
29962.792553	-1621.478333	842.032227	107.505295
29962.792553	-1621.478333	840.850586	22.043142
29962.792553	-1621.478333	839.668945	-9.027687
29962.792553	-1621.478333	838.486328	-2.279994
29962.792553	-1621.478333	837.304688	37.535721
29962.792553	-1621.478333	836.122070	-38.407265
29962.792553	-1621.478333	834.939453	206.847565
29962.792553	-1621.478333	833.756836	22.285530
29962.792553	-1621.478333	832.573242	54.969051
29962.792553	-1621.478333	831.389648	61.674484
29962.792553	-1621.478333	830.206055	-2.414633
29962.792553	-1621.478333	829.022461	49.115723
29962.792553	-1621.478333	827.838867	25.144894
29962.792553	-1621.478333	826.654297	-38.907776
29962.792553	-1621.478333	825.469727	161.118820
29962.792553	-1621.478333	824.284180	7.484856
29962.792553	-1621.478333	823.099609	82.508217
29962.792553	-1621.478333	821.914063	37.330357
29962.792553	-1621.478333	820.728516	100.529877
29962.792553	-1621.478333	819.542969	121.305443
29962.792553	-1621.478333	818.356445	24.331734
29962.792553	-1621.478333	817.169922	94.545265
29962.792553	-1621.478333	815.983398	296.536316
29962.792553	-1621.478333	814.796875	274.878021
29962.792553	-1621.478333	813.609375	323.808563
29962.792553	-1621.478333	812.422852	285.678070
29962.792553	-1621.478333	811.235352	341.632355
29962.792553	-1621.478333	810.046875	588.017029
29962.792553	-1621.478333	808.859375	498.123138
29962.792553	-1621.478333	807.670898	572.787415
29962.792553	-1621.478333	806.482422	591.018616
29962.792553	-1621.478333	805.293945	658.574524
29962.792553	-1621.478333	804.104492	596.908020
29962.792553	-1621.478333	802.915039	429.582092
29962.792553	-1621.478333	801.725586	417.284180
29962.792553	-1621.478333	800.536133	569.307190
29962.792553	-1621.478333	799.345703	420.851074
29962.792553	-1621.478333	798.155273	415.585327
29962.792553	-1621.478333	796.964844	454.890167
29962.792553	-1621.478333	795.774414	416.771393
29962.792553	-1621.478333	794.583008	308.311798
29962.792553	-1621.478333	793.392578	218.647278
29962.792553	-1621.478333	792.200195	234.496536
29962.792553	-1621.478333	791.008789	308.921448
29962.792553	-1621.478333	789.816406	111.512909
29962.792553	-1621.478333	788.625000	96.901512
29962.792553	-1621.478333	787.432617	26.079014
29962.792553	-1621.478333	786.239258	114.510132
29962.792553	-1621.478333	785.046875	67.111626
29962.792553	-1621.478333	783.853516	113.352257
29962.792553	-1621.478333	782.660156	119.783859
29962.792553	-1621.478333	781.465820	163.640503
29962.792553	-1621.478333	780.272461	57.763298
29962.792553	-1621.478333	779.078125	71.197128
29962.792553	-1621.478333	777.883789	-18.263968
29962.792553	-1621.478333	776.688477	11.529579
29962.792553	-1621.478333	775.494141	38.965794
29962.792553	-1621.478333	774.298828	192.568039
29962.792553	-1621.478333	773.103516	145.178207
29962.792553	-1621.478333	771.907227	142.180725
29962.792553	-1621.478333	770.711914	20.075451
29962.792553	-1621.478333	769.515625	12.418913
29962.792553	-1621.478333	768.318359	114.471222
29962.792553	-1621.478333	767.122070	41.433479
29962.792553	-1621.478333	765.924805	150.420258
29962.792553	-1621.478333	764.727539	65.724174
29962.792553	-1621.478333	763.530273	41.696194
29962.792553	-1621.478333	762.333008	180.903091
29962.792553	-1621.478333	761.134766	222.123245
29962.792553	-1621.478333	759.936523	265.647858
29962.792553	-1621.478333	758.738281	108.725807
29962.792553	-1621.478333	757.540039	173.206604
29962.792553	-1621.478333	756.340820	177.084396
29962.792553	-1621.478333	755.141602	201.911636
29962.792553	-1621.478333	753.942383	191.791245
29962.792553	-1621.478333	752.742188	53.623112
29962.792553	-1621.478333	751.541992	22.569580
29962.792553	-1621.478333	750.341797	200.953766
29962.792553	-1621.478333	749.141602	151.249191
29962.792553	-1621.478333	747.941406	157.380508
29962.792553	-1621.478333	746.740234	144.894104
29962.792553	-1621.478333	745.539063	216.106125
29962.792553	-1621.478333	744.337891	196.617065
29962.792553	-1621.478333	743.135742	200.366287
29962.792553	-1621.478333	741.933594	132.068939
29962.792553	-1621.478333	740.731445	89.344048
29962.792553	-1621.478333	739.529297	-2.151287
29962.792553	-1621.478333	738.326172	38.745914
29962.792553	-1621.478333	737.124023	137.657562
29962.792553	-1621.478333	735.919922	187.769577
29962.792553	-1621.478333	734.716797	230.886536
29962.792553	-1621.478333	733.513672	239.169434
29962.792553	-1621.478333	732.309570	259.035126
29962.792553	-1621.478333	731.105469	329.904877
29962.792553	-1621.478333	729.900391	222.183823
29962.792553	-1621.478333	728.696289	114.494965
29962.792553	-1621.478333	727.491211	233.987000
29962.792553	-1621.478333	726.286133	75.333206
29962.792553	-1621.478333	725.080078	-6.810854
29962.792553	-1621.478333	723.874023	6.038658
29962.792553	-1621.478333	722.668945	65.187897
29962.792553	-1621.478333	721.461914	33.996758
29962.792553	-1621.478333	720.255859	-1.824072
29962.792553	-1621.478333	719.048828	-116.335510
29962.792553	-1621.478333	717.841797	-36.439396
29962.792553	-1621.478333	716.634766	-14.427342
29962.792553	-1621.478333	715.427734	-1.691055
29962.792553	-1621.478333	714.219727	112.776497
29962.792553	-1621.478333	713.011719	32.971474
29962.792553	-1621.478333	711.803711	17.908903
29962.792553	-1621.478333	710.594727	21.326262
29962.792553	-1621.478333	709.385742	-86.180161
29962.792553	-1621.478333	708.176758	-4.228623
29962.792553	-1621.478333	706.967773	61.506458
29962.792553	-1621.478333	705.758789	-66.766998
29962.792553	-1621.478333	704.548828	63.565376
29962.792553	-1621.478333	703.338867	25.332853
29962.792553	-1621.478333	702.127930	86.330940
29962.792553	-1621.478333	700.917969	-32.672287
29962.792553	-1621.478333	699.707031	-13.239533
29962.792553	-1621.478333	698.496094	-125.284157
29962.792553	-1621.478333	697.285156	106.256256
29962.792553	-1621.478333	696.073242	5.727953
29962.792553	-1621.478333	694.861328	-99.383461
29962.792553	-1621.478333	693.649414	0.614323
29962.792553	-1621.478333	692.436523	-14.636103
29962.792553	-1621.478333	691.224609	-41.412338
29962.792553	-1621.478333	690.011719	81.490295
29962.792553	-1621.478333	688.798828	52.369991
29962.792553	-1621.478333	687.584961	129.131012
29962.792553	-1621.478333	686.372070	14.829365
29962.792553	-1621.478333	685.158203	114.542198
29962.792553	-1621.478333	683.943359	69.270401
29962.792553	-1621.478333	682.729492	118.298073
29962.792553	-1621.478333	681.514648	217.875641
29962.792553	-1621.478333	680.299805	225.436661
29962.792553	-1621.478333	679.084961	118.054329
29962.792553	-1621.478333	677.869141	22.189451
29962.792553	-1621.478333	676.653320	55.008549
29962.792553	-1621.478333	675.437500	7.401223
29962.792553	-1621.478333	674.221680	141.222916
29962.792553	-1621.478333	673.004883	24.701487
29962.792553	-1621.478333	671.789063	-45.876236
29962.792553	-1621.478333	670.571289	76.344795
29962.792553	-1621.478333	669.354492	173.256546
29962.792553	-1621.478333	668.136719	233.404587
29962.792553	-1621.478333	666.919922	-29.891912
29962.792553	-1621.478333	665.701172	60.049091
29962.792553	-1621.478333	664.483398	-31.185434
29962.792553	-1621.478333	663.264648	118.280067
29962.792553	-1621.478333	662.045898	100.371567
29962.792553	-1621.478333	660.827148	226.799026
29962.792553	-1621.478333	659.608398	121.792435
29962.792553	-1621.478333	658.388672	115.292915
29962.792553	-1621.478333	657.168945	145.414490
29962.792553	-1621.478333	655.949219	88.513634
29962.792553	-1621.478333	654.728516	17.885920
29962.792553	-1621.478333	653.507813	-91.630440
29962.792553	-1621.478333	652.287109	18.513395
29962.792553	-1621.478333	651.066406	103.432686
29962.792553	-1621.478333	649.844727	110.544579
29962.792553	-1621.478333	648.623047	-19.546562
29962.792553	-1621.478333	647.401367	-17.017939
29962.792553	-1621.478333	646.179688	-0.795298
29962.792553	-1621.478333	644.957031	-101.129021
29962.792553	-1621.478333	643.734375	-7.259875
29962.792553	-1621.478333	642.511719	20.318045
29962.792553	-1621.478333	641.289063	41.016415
29962.792553	-1621.478333	640.065430	121.045746
29962.792553	-1621.478333	638.841797	105.159004
29962.792553	-1621.478333	637.618164	29.928986
29962.792553	-1621.478333	636.393555	121.265900
29962.792553	-1621.478333	635.168945	-13.278423
29962.792553	-1621.478333	633.944336	20.980656
29962.792553	-1621.478333	632.719727	48.368408
29962.792553	-1621.478333	631.494141	105.361404
29962.792553	-1621.478333	630.269531	46.079498
29962.792553	-1621.478333	629.042969	87.064018
29962.792553	-1621.478333	627.817383	98.399796
29962.792553	-1621.478333	626.590820	82.381622
29962.792553	-1621.478333	625.365234	95.958092
29962.792553	-1621.478333	624.137695	13.888171
29962.792553	-1621.478333	622.911133	107.108406
29962.792553	-1621.478333	621.683594	59.175247
29962.792553	-1621.478333	620.456055	120.459557
29962.792553	-1621.478333	619.228516	133.931183
29962.792553	-1621.478333	618.000977	24.569252
29962.792553	-1621.478333	616.772461	-48.381706
29962.792553	-1621.478333	615.543945	15.082541
29962.792553	-1621.478333	614.314453	-114.688995
29962.792553	-1621.478333	613.085938	0.996680
29962.792553	-1621.478333	611.856445	-31.055618
29962.792553	-1621.478333	610.626953	39.103718
29962.792553	-1621.478333	609.397461	-99.706810
29962.792553	-1621.478333	608.166992	-86.354042
29962.792553	-1621.478333	606.936523	-152.470856
29962.792553	-1621.478333	605.706055	-2.973117
29962.792553	-1621.478333	604.474609	-64.570946
29962.792553	-1621.478333	603.244141	34.908833
29962.792553	-1621.478333	602.012695	-26.699326
29962.792553	-1621.478333	600.780273	-120.041771
29962.792553	-1621.478333	599.548828	-47.861267
29962.792553	-1621.478333	598.316406	26.540361
29962.792553	-1621.478333	597.083984	-28.270432
29962.792553	-1621.478333	595.851563	27.943844
29962.792553	-1621.478333	594.618164	188.316254
29962.792553	-1621.478333	593.384766	187.817612
29962.792553	-1621.478333	592.151367	105.795753
29962.792553	-1621.478333	590.917969	179.991577
29962.792553	-1621.478333	589.683594	179.456131
29962.792553	-1621.478333	588.449219	206.061127
29962.792553	-1621.478333	587.214844	216.807724
29962.792553	-1621.478333	585.979492	155.160034
29962.792553	-1621.478333	584.745117	116.141151
29962.792553	-1621.478333	583.509766	54.518414
29962.792553	-1621.478333	582.273438	6.471684
29962.792553	-1621.478333	581.038086	-9.926553
29962.792553	-1621.478333	579.801758	36.931808
29962.792553	-1621.478333	578.565430	104.089470
29962.792553	-1621.478333	577.329102	85.389915
29962.792553	-1621.478333	576.091797	-52.982605
29962.792553	-1621.478333	574.854492	102.159660
29962.792553	-1621.478333	573.617188	-38.434036
29962.792553	-1621.478333	572.378906	-9.743524
29962.792553	-1621.478333	571.141602	-21.680565
29962.792553	-1621.478333	569.903320	103.962456
29962.792553	-1621.478333	568.664063	-79.396286
29962.792553	-1621.478333	567.425781	91.279236
29962.792553	-1621.478333	566.186523	79.293282
29962.792553	-1621.478333	564.947266	42.514816
29962.792553	-1621.478333	563.708008	44.047092
29962.792553	-1621.478333	562.467773	34.306248
29962.792553	-1621.478333	561.227539	69.604622
29962.792553	-1621.478333	559.987305	75.609924
29962.792553	-1621.478333	558.747070	97.363388
29962.792553	-1621.478333	557.505859	22.319723
29962.792553	-1621.478333	556.264648	50.811295
29962.792553	-1621.478333	555.023438	54.537548
29962.792553	-1621.478333	553.781250	-11.472125
29962.792553	-1621.478333	552.539063	25.983305
29962.792553	-1621.478333	551.296875	160.093521
29962.792553	-1621.478333	550.054688	-16.055326
29962.792553	-1621.478333	548.811523	122.488503
29962.792553	-1621.478333	547.569336	193.564865
29962.792553	-1621.478333	546.325195	163.516800
29962.792553	-1621.478333	545.082031	396.246307
29962.792553	-1621.478333	543.837891	408.821198
29962.792553	-1621.478333	542.593750	219.344376
29962.792553	-1621.478333	541.349609	164.610443
29962.792553	-1621.478333	540.105469	20.138651
29962.792553	-1621.478333	538.860352	-86.137848
29962.792553	-1621.478333	537.615234	119.403854
29962.792553	-1621.478333	536.369141	13.143659
29962.792553	-1621.478333	535.124023	171.486877
29962.792553	-1621.478333	533.877930	-10.957285
29962.792553	-1621.478333	532.631836	73.360840
29962.792553	-1621.478333	531.384766	23.203951
29962.792553	-1621.478333	530.138672	58.191685
29962.792553	-1621.478333	528.891602	122.276016
29962.792553	-1621.478333	527.643555	47.501514
29962.792553	-1621.478333	526.396484	19.771515
29962.792553	-1621.478333	525.148438	5.478874
29962.792553	-1621.478333	523.900391	2.379757
29962.792553	-1621.478333	522.652344	-61.125320
29962.792553	-1621.478333	521.403320	7.362510
29962.792553	-1621.478333	520.154297	17.676540
29962.792553	-1621.478333	518.905273	-14.494653
29962.792553	-1621.478333	517.656250	-51.124123
29962.792553	-1621.478333	516.406250	-31.869671
29962.792553	-1621.478333	515.156250	-34.967384
29962.792553	-1621.478333	513.906250	20.015423
29962.792553	-1621.478333	512.655273	-0.962875
29962.792553	-1621.478333	511.404297	-26.398155
29962.792553	-1621.478333	510.153320	-54.056007
29962.792553	-1621.478333	508.902344	-25.904192
29962.792553	-1621.478333	507.650391	-95.951172
29962.792553	-1621.478333	506.398438	-0.875480
29962.792553	-1621.478333	505.146484	-1.752827
29962.792553	-1621.478333	503.893555	4.057215
29962.792553	-1621.478333	502.641602	-81.545151
29962.792553	-1621.478333	501.388672	-8.849882
29962.792553	-1621.478333	500.134766	50.440319
29962.792553	-1621.478333	498.881836	-30.665016
29962.792553	-1621.478333	497.627930	24.147144
29962.792553	-1621.478333	496.374023	-94.783302
29962.792553	-1621.478333	495.119141	-44.438602
29962.792553	-1621.478333	493.865234	-78.710655
29962.792553	-1621.478333	492.610352	40.603165
29962.792553	-1621.478333	491.355469	-2.578228
29962.792553	-1621.478333	490.099609	-130.285477
29962.792553	-1621.478333	488.843750	-4.372653
29962.792553	-1621.478333	487.587891	-16.392235
29962.792553	-1621.478333	486.332031	-61.759045
29962.792553	-1621.478333	485.075195	19.590908
29962.792553	-1621.478333	483.818359	-5.770732
29962.792553	-1621.478333	482.561523	-33.346737
29962.792553	-1621.478333	481.304688	56.818592
29962.792553	-1621.478333	480.046875	106.962982
29962.792553	-1621.478333	478.789063	130.435333
29962.792553	-1621.478333	477.531250	91.733253
29962.792553	-1621.478333	476.272461	44.162277
29962.792553	-1621.478333	475.013672	196.316818
29962.792553	-1621.478333	473.754883	35.586048
29962.792553	-1621.478333	472.496094	-0.871889
29962.792553	-1621.478333	471.236328	46.944683
29962.792553	-1621.478333	469.976563	50.389877
29962.792553	-1621.478333	468.716797	22.792179
29962.792553	-1621.478333	467.456055	-51.344406
29962.792553	-1621.478333	466.196289	98.324638
29962.792553	-1621.478333	464.935547	157.093536
29962.792553	-1621.478333	463.673828	171.529388
29962.792553	-1621.478333	462.413086	121.735954
29962.792553	-1621.478333	461.151367	187.062973
29962.792553	-1621.478333	459.889648	239.068436
29962.792553	-1621.478333	458.626953	220.225311
29962.792553	-1621.478333	457.364258	201.374268
29962.792553	-1621.478333	456.101563	184.725769
29962.792553	-1621.478333	454.838867	66.344284
29962.792553	-1621.478333	453.575195	23.162991
29962.792553	-1621.478333	452.312500	24.189812
29962.792553	-1621.478333	451.047852	49.500675
29962.792553	-1621.478333	449.784180	121.178047
29962.792553	-1621.478333	448.519531	119.903076
29962.792553	-1621.478333	447.254883	149.522552
29962.792553	-1621.478333	445.990234	196.767136
29962.792553	-1621.478333	444.725586	120.342041
29962.792553	-1621.478333	443.459961	96.888008
29962.792553	-1621.478333	442.194336	294.072021
29962.792553	-1621.478333	440.927734	197.725098
29962.792553	-1621.478333	439.662109	211.670029
29962.792553	-1621.478333	438.395508	192.494461
29962.792553	-1621.478333	437.127930	74.078560
29962.792553	-1621.478333	435.861328	228.997055
29962.792553	-1621.478333	434.593750	286.843140
29962.792553	-1621.478333	433.326172	258.695770
29962.792553	-1621.478333	432.058594	281.180511
29962.792553	-1621.478333	430.790039	255.157547
29962.792553	-1621.478333	429.521484	292.950317
29962.792553	-1621.478333	428.252930	233.818558
29962.792553	-1621.478333	426.984375	335.322693
29962.792553	-1621.478333	425.714844	260.696503
29962.792553	-1621.478333	424.445313	309.240906
29962.792553	-1621.478333	423.174805	128.963348
29962.792553	-1621.478333	421.905273	241.165283
29962.792553	-1621.478333	420.634766	278.504852
29962.792553	-1621.478333	419.364258	221.248688
29962.792553	-1621.478333	418.092773	234.267090
29962.792553	-1621.478333	416.822266	242.817169
29962.792553	-1621.478333	415.550781	121.690186
29962.792553	-1621.478333	414.278320	228.929123
29962.792553	-1621.478333	413.006836	206.504120
29962.792553	-1621.478333	411.734375	151.076462
29962.792553	-1621.478333	410.461914	121.923378
29962.792553	-1621.478333	409.188477	86.109047
29962.792553	-1621.478333	407.916016	109.451942
29962.792553	-1621.478333	406.642578	130.493362
29962.792553	-1621.478333	405.368164	-45.923992
29962.792553	-1621.478333	404.094727	-31.634794
29962.792553	-1621.478333	402.820313	81.170609
29962.792553	-1621.478333	401.545898	55.764477
29962.792553	-1621.478333	400.270508	49.971077
29962.792553	-1621.478333	398.996094	17.782692
29962.792553	-1621.478333	397.720703	162.866348
29962.792553	-1621.478333	396.444336	-57.874390
29962.792553	-1621.478333	395.168945	139.444611
29962.792553	-1621.478333	393.892578	65.171158
29962.792553	-1621.478333	392.616211	192.088226
29962.792553	-1621.478333	391.339844	185.370728
29962.792553	-1621.478333	390.062500	276.922913
29962.792553	-1621.478333	388.785156	188.986221
29962.792553	-1621.478333	387.507813	221.167892
29962.792553	-1621.478333	386.229492	135.147385
29962.792553	-1621.478333	384.951172	125.479630
29962.792553	-1621.478333	383.672852	117.830605
29962.792553	-1621.478333	382.394531	-16.673363
29962.792553	-1621.478333	381.115234	184.988022
29962.792553	-1621.478333	379.835938	-17.523825
29962.792553	-1621.478333	378.556641	107.276443
29962.792553	-1621.478333	377.277344	170.721237
29962.792553	-1621.478333	375.997070	72.475281
29962.792553	-1621.478333	374.716797	229.280167
29962.792553	-1621.478333	373.435547	52.123283
29962.792553	-1621.478333	372.155273	-22.692642
29962.792553	-1621.478333	370.874023	-108.608749
29962.792553	-1621.478333	369.591797	-16.013641
29962.792553	-1621.478333	368.310547	71.949242
29962.792553	-1621.478333	367.028320	174.870026
29962.792553	-1621.478333	365.746094	24.841093
29962.792553	-1621.478333	364.463867	46.643242
29962.792553	-1621.478333	363.180664	35.503998
29962.792553	-1621.478333	361.897461	156.866959
29962.792553	-1621.478333	360.614258	114.684837
29962.792553	-1621.478333	359.330078	76.573242
29962.792553	-1621.478333	358.045898	159.990082
29962.792553	-1621.478333	356.761719	-2.676815
29962.792553	-1621.478333	355.477539	43.138424
29962.792553	-1621.478333	354.192383	-26.606890
29962.792553	-1621.478333	352.907227	22.877941
29962.792553	-1621.478333	351.622070	2.471308
29962.792553	-1621.478333	350.336914	3.448902
29962.792553	-1621.478333	349.050781	-28.519308
29962.792553	-1621.478333	347.764648	45.557892
29962.792553	-1621.478333	346.477539	-34.918999
29962.792553	-1621.478333	345.191406	-46.280888
29962.792553	-1621.478333	343.904297	-55.874180
29962.792553	-1621.478333	342.616211	40.425453
29962.792553	-1621.478333	341.329102	-24.227785
29962.792553	-1621.478333	340.041016	56.002876
29962.792553	-1621.478333	338.752930	192.132324
29962.792553	-1621.478333	337.463867	117.485313
29962.792553	-1621.478333	336.175781	-74.597572
29962.792553	-1621.478333	334.886719	-13.579844
29962.792553	-1621.478333	333.596680	90.240921
29962.792553	-1621.478333	332.307617	52.768795
29962.792553	-1621.478333	331.017578	77.586845
29962.792553	-1621.478333	329.727539	-60.477566
29962.792553	-1621.478333	328.436523	-36.702332
29962.792553	-1621.478333	327.146484	18.996065
29962.792553	-1621.478333	325.855469	-68.678757
29962.792553	-1621.478333	324.563477	-79.033371
29962.792553	-1621.478333	323.272461	-221.850632
29962.792553	-1621.478333	321.980469	-174.964798
29962.792553	-1621.478333	320.688477	-59.537487
29962.792553	-1621.478333	319.395508	81.134621
29962.792553	-1621.478333	318.103516	69.894852
29962.792553	-1621.478333	316.810547	-0.326578
29962.792553	-1621.478333	315.516602	-32.326862
29962.792553	-1621.478333	314.223633	105.599327
29962.792553	-1621.478333	312.929688	-48.661030
29962.792553	-1621.478333	311.635742	118.003944
29962.792553	-1621.478333	310.340820	104.764481
29962.792553	-1621.478333	309.045898	67.062538
29962.792553	-1621.478333	307.750977	-42.550545
29962.792553	-1621.478333	306.456055	118.803482
29962.792553	-1621.478333	305.160156	-5.289566
29962.792553	-1621.478333	303.865234	44.472557
29962.792553	-1621.478333	302.568359	97.650513
29962.792553	-1621.478333	301.272461	-28.822559
29962.792553	-1621.478333	299.975586	35.573277
29962.792553	-1621.478333	298.678711	219.657837
