#X		#Y		#Wave		#Intensity
30252.005319	-1910.381667	1999.980469	66.068710
30252.005319	-1910.381667	1999.016602	89.607948
30252.005319	-1910.381667	1998.052734	79.778557
30252.005319	-1910.381667	1997.087891	15.418024
30252.005319	-1910.381667	1996.123047	8.052931
30252.005319	-1910.381667	1995.158203	-150.433014
30252.005319	-1910.381667	1994.193359	15.580192
30252.005319	-1910.381667	1993.228516	45.321960
30252.005319	-1910.381667	1992.262695	-179.971893
30252.005319	-1910.381667	1991.297852	-21.511139
30252.005319	-1910.381667	1990.332031	0.757000
30252.005319	-1910.381667	1989.366211	-11.636930
30252.005319	-1910.381667	1988.399414	-14.143690
30252.005319	-1910.381667	1987.433594	22.917133
30252.005319	-1910.381667	1986.466797	45.113358
30252.005319	-1910.381667	1985.500977	0.531192
30252.005319	-1910.381667	1984.534180	148.782837
30252.005319	-1910.381667	1983.567383	30.025812
30252.005319	-1910.381667	1982.599609	-135.652161
30252.005319	-1910.381667	1981.632813	-88.789345
30252.005319	-1910.381667	1980.665039	-153.118851
30252.005319	-1910.381667	1979.697266	59.192169
30252.005319	-1910.381667	1978.729492	61.516060
30252.005319	-1910.381667	1977.761719	81.113380
30252.005319	-1910.381667	1976.792969	-12.856473
30252.005319	-1910.381667	1975.825195	-15.480514
30252.005319	-1910.381667	1974.856445	48.512409
30252.005319	-1910.381667	1973.887695	3.920960
30252.005319	-1910.381667	1972.918945	124.605743
30252.005319	-1910.381667	1971.949219	-55.639118
30252.005319	-1910.381667	1970.980469	8.286390
30252.005319	-1910.381667	1970.010742	3.152848
30252.005319	-1910.381667	1969.041016	2.944949
30252.005319	-1910.381667	1968.071289	-34.234047
30252.005319	-1910.381667	1967.101563	24.687859
30252.005319	-1910.381667	1966.130859	2.287434
30252.005319	-1910.381667	1965.161133	90.726250
30252.005319	-1910.381667	1964.190430	-62.202759
30252.005319	-1910.381667	1963.219727	45.901119
30252.005319	-1910.381667	1962.249023	11.186029
30252.005319	-1910.381667	1961.277344	23.240406
30252.005319	-1910.381667	1960.306641	42.669674
30252.005319	-1910.381667	1959.334961	3.040151
30252.005319	-1910.381667	1958.363281	2.778898
30252.005319	-1910.381667	1957.391602	-19.620266
30252.005319	-1910.381667	1956.419922	98.141647
30252.005319	-1910.381667	1955.447266	33.931831
30252.005319	-1910.381667	1954.474609	-145.781647
30252.005319	-1910.381667	1953.501953	11.247454
30252.005319	-1910.381667	1952.529297	94.503639
30252.005319	-1910.381667	1951.556641	54.896721
30252.005319	-1910.381667	1950.583984	-73.119087
30252.005319	-1910.381667	1949.610352	93.589981
30252.005319	-1910.381667	1948.636719	147.294693
30252.005319	-1910.381667	1947.663086	198.522522
30252.005319	-1910.381667	1946.689453	136.831177
30252.005319	-1910.381667	1945.715820	102.152885
30252.005319	-1910.381667	1944.741211	-94.440155
30252.005319	-1910.381667	1943.767578	18.110094
30252.005319	-1910.381667	1942.792969	20.253094
30252.005319	-1910.381667	1941.818359	105.763016
30252.005319	-1910.381667	1940.842773	39.240349
30252.005319	-1910.381667	1939.868164	7.058055
30252.005319	-1910.381667	1938.892578	-93.733841
30252.005319	-1910.381667	1937.916992	-35.226421
30252.005319	-1910.381667	1936.941406	37.956345
30252.005319	-1910.381667	1935.965820	52.327690
30252.005319	-1910.381667	1934.990234	3.022913
30252.005319	-1910.381667	1934.013672	-2.195911
30252.005319	-1910.381667	1933.037109	-0.070276
30252.005319	-1910.381667	1932.060547	58.345161
30252.005319	-1910.381667	1931.083984	50.668591
30252.005319	-1910.381667	1930.107422	150.642212
30252.005319	-1910.381667	1929.129883	108.701927
30252.005319	-1910.381667	1928.153320	81.452072
30252.005319	-1910.381667	1927.175781	-43.597908
30252.005319	-1910.381667	1926.198242	2.528712
30252.005319	-1910.381667	1925.219727	55.967995
30252.005319	-1910.381667	1924.242188	124.050842
30252.005319	-1910.381667	1923.263672	65.050835
30252.005319	-1910.381667	1922.285156	20.729347
30252.005319	-1910.381667	1921.306641	32.599064
30252.005319	-1910.381667	1920.328125	7.833787
30252.005319	-1910.381667	1919.349609	-109.701759
30252.005319	-1910.381667	1918.370117	-24.586889
30252.005319	-1910.381667	1917.391602	-164.040527
30252.005319	-1910.381667	1916.412109	150.426208
30252.005319	-1910.381667	1915.431641	1.226840
30252.005319	-1910.381667	1914.452148	5.756687
30252.005319	-1910.381667	1913.472656	44.427151
30252.005319	-1910.381667	1912.492188	61.134480
30252.005319	-1910.381667	1911.511719	51.016979
30252.005319	-1910.381667	1910.531250	-229.653442
30252.005319	-1910.381667	1909.550781	23.478138
30252.005319	-1910.381667	1908.569336	-88.966957
30252.005319	-1910.381667	1907.588867	-6.485014
30252.005319	-1910.381667	1906.607422	-106.708313
30252.005319	-1910.381667	1905.625977	70.712379
30252.005319	-1910.381667	1904.644531	99.547478
30252.005319	-1910.381667	1903.662109	16.392420
30252.005319	-1910.381667	1902.680664	52.523849
30252.005319	-1910.381667	1901.698242	-6.262791
30252.005319	-1910.381667	1900.715820	-21.237438
30252.005319	-1910.381667	1899.733398	85.412315
30252.005319	-1910.381667	1898.750000	148.242325
30252.005319	-1910.381667	1897.767578	196.458435
30252.005319	-1910.381667	1896.784180	69.615334
30252.005319	-1910.381667	1895.800781	-137.393341
30252.005319	-1910.381667	1894.817383	-205.808929
30252.005319	-1910.381667	1893.833984	56.237625
30252.005319	-1910.381667	1892.850586	-126.369545
30252.005319	-1910.381667	1891.866211	135.555771
30252.005319	-1910.381667	1890.881836	20.986792
30252.005319	-1910.381667	1889.897461	-88.687447
30252.005319	-1910.381667	1888.913086	105.105194
30252.005319	-1910.381667	1887.927734	-116.194229
30252.005319	-1910.381667	1886.943359	-99.613739
30252.005319	-1910.381667	1885.958008	4.293365
30252.005319	-1910.381667	1884.972656	86.326477
30252.005319	-1910.381667	1883.987305	39.791119
30252.005319	-1910.381667	1883.001953	-38.253277
30252.005319	-1910.381667	1882.015625	65.544472
30252.005319	-1910.381667	1881.029297	77.194214
30252.005319	-1910.381667	1880.042969	30.673832
30252.005319	-1910.381667	1879.056641	-90.944069
30252.005319	-1910.381667	1878.070313	78.170921
30252.005319	-1910.381667	1877.083984	-43.420792
30252.005319	-1910.381667	1876.096680	2.110933
30252.005319	-1910.381667	1875.109375	25.829672
30252.005319	-1910.381667	1874.122070	-1.298910
30252.005319	-1910.381667	1873.134766	-16.323311
30252.005319	-1910.381667	1872.146484	-108.780602
30252.005319	-1910.381667	1871.159180	40.717812
30252.005319	-1910.381667	1870.170898	-5.771683
30252.005319	-1910.381667	1869.182617	-25.648380
30252.005319	-1910.381667	1868.194336	106.802887
30252.005319	-1910.381667	1867.205078	36.129490
30252.005319	-1910.381667	1866.216797	-82.862457
30252.005319	-1910.381667	1865.227539	30.169027
30252.005319	-1910.381667	1864.238281	-21.144089
30252.005319	-1910.381667	1863.249023	67.661407
30252.005319	-1910.381667	1862.259766	26.005270
30252.005319	-1910.381667	1861.269531	13.331790
30252.005319	-1910.381667	1860.279297	75.496605
30252.005319	-1910.381667	1859.290039	45.906651
30252.005319	-1910.381667	1858.298828	-22.298735
30252.005319	-1910.381667	1857.308594	1.204627
30252.005319	-1910.381667	1856.318359	51.227715
30252.005319	-1910.381667	1855.327148	-31.440016
30252.005319	-1910.381667	1854.335938	16.137682
30252.005319	-1910.381667	1853.344727	58.865906
30252.005319	-1910.381667	1852.353516	89.514984
30252.005319	-1910.381667	1851.362305	-67.853249
30252.005319	-1910.381667	1850.370117	66.404625
30252.005319	-1910.381667	1849.377930	22.313755
30252.005319	-1910.381667	1848.385742	-65.129944
30252.005319	-1910.381667	1847.393555	18.443962
30252.005319	-1910.381667	1846.401367	-81.027702
30252.005319	-1910.381667	1845.408203	122.866989
30252.005319	-1910.381667	1844.415039	73.935951
30252.005319	-1910.381667	1843.421875	-56.811718
30252.005319	-1910.381667	1842.428711	43.465599
30252.005319	-1910.381667	1841.435547	143.693497
30252.005319	-1910.381667	1840.441406	29.804859
30252.005319	-1910.381667	1839.448242	-74.431839
30252.005319	-1910.381667	1838.454102	61.787292
30252.005319	-1910.381667	1837.459961	32.075905
30252.005319	-1910.381667	1836.464844	122.530891
30252.005319	-1910.381667	1835.470703	18.302170
30252.005319	-1910.381667	1834.475586	101.491882
30252.005319	-1910.381667	1833.480469	110.173203
30252.005319	-1910.381667	1832.485352	-3.643304
30252.005319	-1910.381667	1831.490234	31.440138
30252.005319	-1910.381667	1830.495117	35.287125
30252.005319	-1910.381667	1829.499023	75.119949
30252.005319	-1910.381667	1828.502930	14.131966
30252.005319	-1910.381667	1827.506836	34.730225
30252.005319	-1910.381667	1826.510742	19.322765
30252.005319	-1910.381667	1825.513672	87.849113
30252.005319	-1910.381667	1824.517578	163.530273
30252.005319	-1910.381667	1823.520508	160.047226
30252.005319	-1910.381667	1822.523438	70.255508
30252.005319	-1910.381667	1821.526367	-153.728821
30252.005319	-1910.381667	1820.529297	-8.634460
30252.005319	-1910.381667	1819.531250	16.601103
30252.005319	-1910.381667	1818.533203	92.111298
30252.005319	-1910.381667	1817.535156	138.838852
30252.005319	-1910.381667	1816.537109	94.546761
30252.005319	-1910.381667	1815.539063	201.070831
30252.005319	-1910.381667	1814.540039	15.534515
30252.005319	-1910.381667	1813.541992	138.750458
30252.005319	-1910.381667	1812.542969	96.814377
30252.005319	-1910.381667	1811.543945	-24.062550
30252.005319	-1910.381667	1810.543945	-46.856033
30252.005319	-1910.381667	1809.544922	35.556274
30252.005319	-1910.381667	1808.544922	115.526306
30252.005319	-1910.381667	1807.544922	11.395690
30252.005319	-1910.381667	1806.544922	-11.458761
30252.005319	-1910.381667	1805.544922	-84.500572
30252.005319	-1910.381667	1804.544922	110.028427
30252.005319	-1910.381667	1803.543945	115.772034
30252.005319	-1910.381667	1802.542969	166.866898
30252.005319	-1910.381667	1801.541992	12.592175
30252.005319	-1910.381667	1800.541016	61.262684
30252.005319	-1910.381667	1799.539063	45.452343
30252.005319	-1910.381667	1798.538086	127.466995
30252.005319	-1910.381667	1797.536133	-21.992161
30252.005319	-1910.381667	1796.534180	105.283401
30252.005319	-1910.381667	1795.532227	8.313087
30252.005319	-1910.381667	1794.529297	63.959812
30252.005319	-1910.381667	1793.527344	186.319153
30252.005319	-1910.381667	1792.524414	36.888527
30252.005319	-1910.381667	1791.521484	125.800392
30252.005319	-1910.381667	1790.518555	-25.985901
30252.005319	-1910.381667	1789.514648	48.567780
30252.005319	-1910.381667	1788.511719	-62.698162
30252.005319	-1910.381667	1787.507813	28.461557
30252.005319	-1910.381667	1786.503906	-42.329292
30252.005319	-1910.381667	1785.500000	-67.887207
30252.005319	-1910.381667	1784.496094	-52.998432
30252.005319	-1910.381667	1783.491211	11.829166
30252.005319	-1910.381667	1782.486328	159.876190
30252.005319	-1910.381667	1781.481445	-1.366744
30252.005319	-1910.381667	1780.476563	129.936722
30252.005319	-1910.381667	1779.471680	-93.101212
30252.005319	-1910.381667	1778.465820	-59.342014
30252.005319	-1910.381667	1777.460938	-27.990725
30252.005319	-1910.381667	1776.455078	172.040802
30252.005319	-1910.381667	1775.449219	46.483013
30252.005319	-1910.381667	1774.442383	-55.298569
30252.005319	-1910.381667	1773.436523	-71.562050
30252.005319	-1910.381667	1772.429688	-80.721878
30252.005319	-1910.381667	1771.422852	-16.304819
30252.005319	-1910.381667	1770.416016	188.107513
30252.005319	-1910.381667	1769.409180	3.224065
30252.005319	-1910.381667	1768.402344	-20.269205
30252.005319	-1910.381667	1767.394531	-95.967850
30252.005319	-1910.381667	1766.386719	-36.469322
30252.005319	-1910.381667	1765.378906	-3.100335
30252.005319	-1910.381667	1764.371094	72.909088
30252.005319	-1910.381667	1763.362305	20.859314
30252.005319	-1910.381667	1762.354492	108.639206
30252.005319	-1910.381667	1761.345703	-21.638254
30252.005319	-1910.381667	1760.336914	18.685463
30252.005319	-1910.381667	1759.328125	21.071754
30252.005319	-1910.381667	1758.318359	85.004005
30252.005319	-1910.381667	1757.308594	30.501675
30252.005319	-1910.381667	1756.299805	-173.138367
30252.005319	-1910.381667	1755.290039	96.638519
30252.005319	-1910.381667	1754.279297	139.113510
30252.005319	-1910.381667	1753.269531	46.693928
30252.005319	-1910.381667	1752.258789	20.516815
30252.005319	-1910.381667	1751.249023	65.280121
30252.005319	-1910.381667	1750.238281	-12.958785
30252.005319	-1910.381667	1749.226563	-69.917252
30252.005319	-1910.381667	1748.215820	-93.782936
30252.005319	-1910.381667	1747.204102	-46.769577
30252.005319	-1910.381667	1746.193359	-2.156548
30252.005319	-1910.381667	1745.181641	-59.167919
30252.005319	-1910.381667	1744.168945	-24.071800
30252.005319	-1910.381667	1743.157227	-52.767059
30252.005319	-1910.381667	1742.144531	-24.815281
30252.005319	-1910.381667	1741.132813	17.269039
30252.005319	-1910.381667	1740.120117	89.991127
30252.005319	-1910.381667	1739.106445	-16.672976
30252.005319	-1910.381667	1738.093750	-43.104328
30252.005319	-1910.381667	1737.080078	81.405800
30252.005319	-1910.381667	1736.067383	61.993519
30252.005319	-1910.381667	1735.053711	-58.824409
30252.005319	-1910.381667	1734.040039	60.832367
30252.005319	-1910.381667	1733.025391	6.003426
30252.005319	-1910.381667	1732.011719	-157.221313
30252.005319	-1910.381667	1730.997070	186.134216
30252.005319	-1910.381667	1729.982422	-12.446517
30252.005319	-1910.381667	1728.967773	22.182072
30252.005319	-1910.381667	1727.952148	-39.770603
30252.005319	-1910.381667	1726.937500	-33.446350
30252.005319	-1910.381667	1725.921875	76.414413
30252.005319	-1910.381667	1724.906250	-9.115849
30252.005319	-1910.381667	1723.890625	67.711960
30252.005319	-1910.381667	1722.875000	26.866669
30252.005319	-1910.381667	1721.858398	-11.637714
30252.005319	-1910.381667	1720.841797	-45.447388
30252.005319	-1910.381667	1719.825195	129.978760
30252.005319	-1910.381667	1718.808594	180.732117
30252.005319	-1910.381667	1717.791992	186.790344
30252.005319	-1910.381667	1716.774414	-18.654926
30252.005319	-1910.381667	1715.756836	6.184319
30252.005319	-1910.381667	1714.739258	-79.402756
30252.005319	-1910.381667	1713.721680	46.374489
30252.005319	-1910.381667	1712.704102	19.466848
30252.005319	-1910.381667	1711.685547	-110.745621
30252.005319	-1910.381667	1710.667969	-137.656982
30252.005319	-1910.381667	1709.649414	-96.533127
30252.005319	-1910.381667	1708.630859	-15.562946
30252.005319	-1910.381667	1707.611328	72.387451
30252.005319	-1910.381667	1706.592773	73.514015
30252.005319	-1910.381667	1705.573242	15.995057
30252.005319	-1910.381667	1704.553711	61.627598
30252.005319	-1910.381667	1703.534180	90.814125
30252.005319	-1910.381667	1702.513672	37.944328
30252.005319	-1910.381667	1701.494141	-73.495613
30252.005319	-1910.381667	1700.473633	96.184639
30252.005319	-1910.381667	1699.453125	-3.559073
30252.005319	-1910.381667	1698.432617	39.554649
30252.005319	-1910.381667	1697.412109	-46.133705
30252.005319	-1910.381667	1696.390625	53.103844
30252.005319	-1910.381667	1695.369141	-60.681580
30252.005319	-1910.381667	1694.347656	22.102474
30252.005319	-1910.381667	1693.326172	-84.654663
30252.005319	-1910.381667	1692.304688	-37.021168
30252.005319	-1910.381667	1691.282227	50.324604
30252.005319	-1910.381667	1690.260742	25.397085
30252.005319	-1910.381667	1689.238281	79.932671
30252.005319	-1910.381667	1688.214844	15.230804
30252.005319	-1910.381667	1687.192383	36.996456
30252.005319	-1910.381667	1686.168945	-55.744034
30252.005319	-1910.381667	1685.146484	-118.097649
30252.005319	-1910.381667	1684.123047	60.089344
30252.005319	-1910.381667	1683.099609	-135.390976
30252.005319	-1910.381667	1682.075195	-83.369423
30252.005319	-1910.381667	1681.051758	-106.067581
30252.005319	-1910.381667	1680.027344	-14.435828
30252.005319	-1910.381667	1679.002930	46.813091
30252.005319	-1910.381667	1677.978516	73.032425
30252.005319	-1910.381667	1676.953125	122.541214
30252.005319	-1910.381667	1675.928711	60.097019
30252.005319	-1910.381667	1674.903320	114.219063
30252.005319	-1910.381667	1673.877930	19.131220
30252.005319	-1910.381667	1672.852539	-15.345978
30252.005319	-1910.381667	1671.826172	17.737820
30252.005319	-1910.381667	1670.800781	11.197437
30252.005319	-1910.381667	1669.774414	83.826401
30252.005319	-1910.381667	1668.748047	140.112335
30252.005319	-1910.381667	1667.721680	24.079382
30252.005319	-1910.381667	1666.694336	87.303841
30252.005319	-1910.381667	1665.667969	83.004471
30252.005319	-1910.381667	1664.640625	178.739838
30252.005319	-1910.381667	1663.613281	106.927788
30252.005319	-1910.381667	1662.585938	211.898178
30252.005319	-1910.381667	1661.557617	202.862488
30252.005319	-1910.381667	1660.530273	175.222229
30252.005319	-1910.381667	1659.501953	170.820511
30252.005319	-1910.381667	1658.473633	-28.816301
30252.005319	-1910.381667	1657.444336	66.709747
30252.005319	-1910.381667	1656.416016	190.070770
30252.005319	-1910.381667	1655.386719	153.096634
30252.005319	-1910.381667	1654.358398	262.436066
30252.005319	-1910.381667	1653.328125	146.491852
30252.005319	-1910.381667	1652.298828	148.977951
30252.005319	-1910.381667	1651.269531	193.229355
30252.005319	-1910.381667	1650.239258	237.448166
30252.005319	-1910.381667	1649.208984	218.998245
30252.005319	-1910.381667	1648.178711	346.680634
30252.005319	-1910.381667	1647.148438	172.813522
30252.005319	-1910.381667	1646.117188	149.715195
30252.005319	-1910.381667	1645.086914	258.762573
30252.005319	-1910.381667	1644.055664	75.710182
30252.005319	-1910.381667	1643.024414	249.592804
30252.005319	-1910.381667	1641.992188	126.830818
30252.005319	-1910.381667	1640.960938	268.189819
30252.005319	-1910.381667	1639.928711	351.580566
30252.005319	-1910.381667	1638.896484	425.669708
30252.005319	-1910.381667	1637.864258	298.308136
30252.005319	-1910.381667	1636.832031	326.071838
30252.005319	-1910.381667	1635.798828	379.269348
30252.005319	-1910.381667	1634.766602	263.539856
30252.005319	-1910.381667	1633.733398	406.936188
30252.005319	-1910.381667	1632.699219	416.119293
30252.005319	-1910.381667	1631.666016	353.614105
30252.005319	-1910.381667	1630.632813	508.453339
30252.005319	-1910.381667	1629.598633	360.413239
30252.005319	-1910.381667	1628.564453	602.997498
30252.005319	-1910.381667	1627.530273	686.050537
30252.005319	-1910.381667	1626.495117	665.104187
30252.005319	-1910.381667	1625.460938	791.990967
30252.005319	-1910.381667	1624.425781	854.159729
30252.005319	-1910.381667	1623.390625	863.198547
30252.005319	-1910.381667	1622.355469	851.455811
30252.005319	-1910.381667	1621.319336	793.551697
30252.005319	-1910.381667	1620.284180	887.967163
30252.005319	-1910.381667	1619.248047	823.154053
30252.005319	-1910.381667	1618.211914	869.081238
30252.005319	-1910.381667	1617.174805	686.676453
30252.005319	-1910.381667	1616.138672	751.056458
30252.005319	-1910.381667	1615.101563	658.649048
30252.005319	-1910.381667	1614.065430	649.256165
30252.005319	-1910.381667	1613.027344	593.769592
30252.005319	-1910.381667	1611.990234	646.593994
30252.005319	-1910.381667	1610.953125	609.564392
30252.005319	-1910.381667	1609.915039	692.301392
30252.005319	-1910.381667	1608.876953	519.425171
30252.005319	-1910.381667	1607.838867	662.006104
30252.005319	-1910.381667	1606.800781	613.496948
30252.005319	-1910.381667	1605.761719	495.968201
30252.005319	-1910.381667	1604.723633	693.697144
30252.005319	-1910.381667	1603.684570	615.310425
30252.005319	-1910.381667	1602.644531	714.041809
30252.005319	-1910.381667	1601.605469	631.091431
30252.005319	-1910.381667	1600.566406	817.155762
30252.005319	-1910.381667	1599.526367	621.594543
30252.005319	-1910.381667	1598.486328	878.832825
30252.005319	-1910.381667	1597.446289	701.727844
30252.005319	-1910.381667	1596.405273	717.654236
30252.005319	-1910.381667	1595.365234	678.464844
30252.005319	-1910.381667	1594.324219	790.846130
30252.005319	-1910.381667	1593.283203	753.962219
30252.005319	-1910.381667	1592.242188	790.551758
30252.005319	-1910.381667	1591.200195	889.092407
30252.005319	-1910.381667	1590.159180	758.160583
30252.005319	-1910.381667	1589.117188	728.220154
30252.005319	-1910.381667	1588.075195	767.107544
30252.005319	-1910.381667	1587.032227	948.157471
30252.005319	-1910.381667	1585.990234	975.541504
30252.005319	-1910.381667	1584.947266	672.838745
30252.005319	-1910.381667	1583.904297	789.660583
30252.005319	-1910.381667	1582.861328	686.479004
30252.005319	-1910.381667	1581.818359	640.621033
30252.005319	-1910.381667	1580.775391	583.339905
30252.005319	-1910.381667	1579.731445	558.148193
30252.005319	-1910.381667	1578.687500	603.953491
30252.005319	-1910.381667	1577.643555	613.127747
30252.005319	-1910.381667	1576.598633	530.760071
30252.005319	-1910.381667	1575.554688	661.245056
30252.005319	-1910.381667	1574.509766	592.653748
30252.005319	-1910.381667	1573.464844	501.229645
30252.005319	-1910.381667	1572.419922	441.871582
30252.005319	-1910.381667	1571.374023	416.842102
30252.005319	-1910.381667	1570.329102	426.131744
30252.005319	-1910.381667	1569.283203	471.995819
30252.005319	-1910.381667	1568.237305	335.052795
30252.005319	-1910.381667	1567.191406	460.909485
30252.005319	-1910.381667	1566.144531	374.301147
30252.005319	-1910.381667	1565.098633	379.096619
30252.005319	-1910.381667	1564.051758	459.250549
30252.005319	-1910.381667	1563.004883	391.006836
30252.005319	-1910.381667	1561.957031	373.014923
30252.005319	-1910.381667	1560.910156	272.903687
30252.005319	-1910.381667	1559.862305	207.067413
30252.005319	-1910.381667	1558.814453	241.641022
30252.005319	-1910.381667	1557.766602	333.233734
30252.005319	-1910.381667	1556.718750	436.211121
30252.005319	-1910.381667	1555.669922	302.076233
30252.005319	-1910.381667	1554.621094	384.541107
30252.005319	-1910.381667	1553.573242	359.895691
30252.005319	-1910.381667	1552.523438	266.921692
30252.005319	-1910.381667	1551.474609	317.516785
30252.005319	-1910.381667	1550.424805	245.127411
30252.005319	-1910.381667	1549.375000	341.284760
30252.005319	-1910.381667	1548.325195	248.474472
30252.005319	-1910.381667	1547.275391	246.766251
30252.005319	-1910.381667	1546.225586	270.113525
30252.005319	-1910.381667	1545.174805	386.753967
30252.005319	-1910.381667	1544.124023	280.446198
30252.005319	-1910.381667	1543.073242	292.467865
30252.005319	-1910.381667	1542.022461	352.259735
30252.005319	-1910.381667	1540.970703	375.673828
30252.005319	-1910.381667	1539.919922	224.090042
30252.005319	-1910.381667	1538.868164	349.832764
30252.005319	-1910.381667	1537.815430	402.841858
30252.005319	-1910.381667	1536.763672	367.266571
30252.005319	-1910.381667	1535.710938	315.829376
30252.005319	-1910.381667	1534.659180	502.867950
30252.005319	-1910.381667	1533.606445	147.262115
30252.005319	-1910.381667	1532.552734	329.766113
30252.005319	-1910.381667	1531.500000	403.299988
30252.005319	-1910.381667	1530.446289	272.625977
30252.005319	-1910.381667	1529.393555	421.057098
30252.005319	-1910.381667	1528.338867	467.389404
30252.005319	-1910.381667	1527.285156	228.021240
30252.005319	-1910.381667	1526.231445	487.545166
30252.005319	-1910.381667	1525.176758	212.054779
30252.005319	-1910.381667	1524.122070	315.164124
30252.005319	-1910.381667	1523.067383	162.228989
30252.005319	-1910.381667	1522.012695	281.225220
30252.005319	-1910.381667	1520.957031	180.506775
30252.005319	-1910.381667	1519.901367	97.974228
30252.005319	-1910.381667	1518.845703	352.840729
30252.005319	-1910.381667	1517.790039	191.145630
30252.005319	-1910.381667	1516.734375	323.749054
30252.005319	-1910.381667	1515.677734	96.566673
30252.005319	-1910.381667	1514.621094	177.166321
30252.005319	-1910.381667	1513.564453	287.169373
30252.005319	-1910.381667	1512.507813	148.418350
30252.005319	-1910.381667	1511.450195	177.055618
30252.005319	-1910.381667	1510.393555	149.207947
30252.005319	-1910.381667	1509.335938	6.143675
30252.005319	-1910.381667	1508.278320	68.785904
30252.005319	-1910.381667	1507.219727	129.175064
30252.005319	-1910.381667	1506.162109	264.112915
30252.005319	-1910.381667	1505.103516	73.852486
30252.005319	-1910.381667	1504.044922	3.361612
30252.005319	-1910.381667	1502.986328	-112.210999
30252.005319	-1910.381667	1501.926758	-146.459549
30252.005319	-1910.381667	1500.868164	-36.247154
30252.005319	-1910.381667	1499.808594	15.300097
30252.005319	-1910.381667	1498.749023	33.031750
30252.005319	-1910.381667	1497.688477	3.433817
30252.005319	-1910.381667	1496.628906	93.381180
30252.005319	-1910.381667	1495.568359	-188.606476
30252.005319	-1910.381667	1494.507813	-107.599693
30252.005319	-1910.381667	1493.447266	-136.996185
30252.005319	-1910.381667	1492.386719	-71.725929
30252.005319	-1910.381667	1491.325195	-123.567833
30252.005319	-1910.381667	1490.263672	-51.496395
30252.005319	-1910.381667	1489.202148	-80.730156
30252.005319	-1910.381667	1488.140625	151.203247
30252.005319	-1910.381667	1487.079102	117.517891
30252.005319	-1910.381667	1486.016602	146.885712
30252.005319	-1910.381667	1484.954102	-23.938505
30252.005319	-1910.381667	1483.891602	-59.702114
30252.005319	-1910.381667	1482.829102	102.480812
30252.005319	-1910.381667	1481.765625	42.056282
30252.005319	-1910.381667	1480.702148	-43.021374
30252.005319	-1910.381667	1479.638672	47.259754
30252.005319	-1910.381667	1478.575195	225.189880
30252.005319	-1910.381667	1477.511719	23.439085
30252.005319	-1910.381667	1476.447266	91.335892
30252.005319	-1910.381667	1475.382813	2.043414
30252.005319	-1910.381667	1474.318359	-37.743851
30252.005319	-1910.381667	1473.253906	180.549454
30252.005319	-1910.381667	1472.189453	73.604637
30252.005319	-1910.381667	1471.124023	112.493073
30252.005319	-1910.381667	1470.058594	113.128136
30252.005319	-1910.381667	1468.993164	91.471420
30252.005319	-1910.381667	1467.927734	-104.818253
30252.005319	-1910.381667	1466.861328	102.193436
30252.005319	-1910.381667	1465.794922	-17.871811
30252.005319	-1910.381667	1464.728516	-65.880547
30252.005319	-1910.381667	1463.662109	-6.595344
30252.005319	-1910.381667	1462.594727	150.949020
30252.005319	-1910.381667	1461.528320	58.261497
30252.005319	-1910.381667	1460.460938	77.305145
30252.005319	-1910.381667	1459.393555	192.636948
30252.005319	-1910.381667	1458.326172	168.891327
30252.005319	-1910.381667	1457.257813	-19.394072
30252.005319	-1910.381667	1456.189453	180.675522
30252.005319	-1910.381667	1455.121094	88.390739
30252.005319	-1910.381667	1454.052734	56.465542
30252.005319	-1910.381667	1452.984375	167.036743
30252.005319	-1910.381667	1451.915039	134.873184
30252.005319	-1910.381667	1450.845703	237.570068
30252.005319	-1910.381667	1449.776367	260.939972
30252.005319	-1910.381667	1448.707031	242.448318
30252.005319	-1910.381667	1447.636719	306.375305
30252.005319	-1910.381667	1446.567383	1.633479
30252.005319	-1910.381667	1445.497070	105.781723
30252.005319	-1910.381667	1444.425781	239.099060
30252.005319	-1910.381667	1443.355469	207.993317
30252.005319	-1910.381667	1442.285156	205.433762
30252.005319	-1910.381667	1441.213867	227.532364
30252.005319	-1910.381667	1440.142578	361.791107
30252.005319	-1910.381667	1439.070313	248.486160
30252.005319	-1910.381667	1437.999023	332.664520
30252.005319	-1910.381667	1436.926758	192.617706
30252.005319	-1910.381667	1435.854492	222.514023
30252.005319	-1910.381667	1434.782227	222.889145
30252.005319	-1910.381667	1433.709961	162.765579
30252.005319	-1910.381667	1432.636719	166.947998
30252.005319	-1910.381667	1431.563477	270.064972
30252.005319	-1910.381667	1430.490234	197.901199
30252.005319	-1910.381667	1429.416992	110.245239
30252.005319	-1910.381667	1428.343750	20.130331
30252.005319	-1910.381667	1427.269531	52.073769
30252.005319	-1910.381667	1426.195313	118.150650
30252.005319	-1910.381667	1425.121094	52.062138
30252.005319	-1910.381667	1424.046875	-92.495468
30252.005319	-1910.381667	1422.971680	-37.442215
30252.005319	-1910.381667	1421.896484	82.754814
30252.005319	-1910.381667	1420.821289	-8.690048
30252.005319	-1910.381667	1419.746094	28.223680
30252.005319	-1910.381667	1418.669922	-36.353569
30252.005319	-1910.381667	1417.594727	84.139626
30252.005319	-1910.381667	1416.518555	-55.348354
30252.005319	-1910.381667	1415.442383	94.830833
30252.005319	-1910.381667	1414.365234	42.102207
30252.005319	-1910.381667	1413.289063	-13.058632
30252.005319	-1910.381667	1412.211914	-52.613125
30252.005319	-1910.381667	1411.134766	-144.694351
30252.005319	-1910.381667	1410.057617	15.820174
30252.005319	-1910.381667	1408.979492	58.243374
30252.005319	-1910.381667	1407.902344	58.476181
30252.005319	-1910.381667	1406.824219	77.250923
30252.005319	-1910.381667	1405.746094	-73.668739
30252.005319	-1910.381667	1404.666992	86.674278
30252.005319	-1910.381667	1403.588867	121.532120
30252.005319	-1910.381667	1402.509766	150.512466
30252.005319	-1910.381667	1401.430664	-2.275544
30252.005319	-1910.381667	1400.351563	69.476616
30252.005319	-1910.381667	1399.271484	30.503096
30252.005319	-1910.381667	1398.192383	-97.104080
30252.005319	-1910.381667	1397.112305	131.235336
30252.005319	-1910.381667	1396.031250	148.794312
30252.005319	-1910.381667	1394.951172	241.010330
30252.005319	-1910.381667	1393.871094	58.293861
30252.005319	-1910.381667	1392.790039	163.671295
30252.005319	-1910.381667	1391.708984	369.790436
30252.005319	-1910.381667	1390.626953	308.549316
30252.005319	-1910.381667	1389.545898	389.702362
30252.005319	-1910.381667	1388.463867	256.125854
30252.005319	-1910.381667	1387.381836	407.873657
30252.005319	-1910.381667	1386.299805	246.227386
30252.005319	-1910.381667	1385.217773	372.581940
30252.005319	-1910.381667	1384.134766	444.493317
30252.005319	-1910.381667	1383.051758	450.958038
30252.005319	-1910.381667	1381.968750	447.624908
30252.005319	-1910.381667	1380.885742	479.420563
30252.005319	-1910.381667	1379.802734	541.408264
30252.005319	-1910.381667	1378.718750	471.252655
30252.005319	-1910.381667	1377.634766	724.262573
30252.005319	-1910.381667	1376.550781	601.147705
30252.005319	-1910.381667	1375.465820	761.640259
30252.005319	-1910.381667	1374.381836	654.138855
30252.005319	-1910.381667	1373.296875	656.462341
30252.005319	-1910.381667	1372.211914	722.986694
30252.005319	-1910.381667	1371.126953	596.924683
30252.005319	-1910.381667	1370.041016	567.112000
30252.005319	-1910.381667	1368.955078	675.091492
30252.005319	-1910.381667	1367.869141	611.789795
30252.005319	-1910.381667	1366.783203	535.384460
30252.005319	-1910.381667	1365.697266	419.209717
30252.005319	-1910.381667	1364.610352	379.243622
30252.005319	-1910.381667	1363.523438	399.803711
30252.005319	-1910.381667	1362.436523	499.801422
30252.005319	-1910.381667	1361.349609	427.531433
30252.005319	-1910.381667	1360.261719	421.931946
30252.005319	-1910.381667	1359.174805	374.043488
30252.005319	-1910.381667	1358.086914	340.916504
30252.005319	-1910.381667	1356.998047	304.986328
30252.005319	-1910.381667	1355.910156	432.878876
30252.005319	-1910.381667	1354.821289	345.292114
30252.005319	-1910.381667	1353.732422	454.365509
30252.005319	-1910.381667	1352.643555	373.863464
30252.005319	-1910.381667	1351.554688	304.530884
30252.005319	-1910.381667	1350.464844	407.424805
30252.005319	-1910.381667	1349.375000	340.513672
30252.005319	-1910.381667	1348.285156	393.289398
30252.005319	-1910.381667	1347.195313	378.275696
30252.005319	-1910.381667	1346.105469	534.429749
30252.005319	-1910.381667	1345.014648	578.483765
30252.005319	-1910.381667	1343.923828	632.750000
30252.005319	-1910.381667	1342.833008	590.169739
30252.005319	-1910.381667	1341.741211	651.056091
30252.005319	-1910.381667	1340.650391	651.271240
30252.005319	-1910.381667	1339.558594	577.730896
30252.005319	-1910.381667	1338.466797	610.140869
30252.005319	-1910.381667	1337.374023	583.742188
30252.005319	-1910.381667	1336.282227	446.846924
30252.005319	-1910.381667	1335.189453	428.808075
30252.005319	-1910.381667	1334.096680	340.957275
30252.005319	-1910.381667	1333.003906	405.571564
30252.005319	-1910.381667	1331.910156	431.655853
30252.005319	-1910.381667	1330.817383	396.533051
30252.005319	-1910.381667	1329.723633	226.770340
30252.005319	-1910.381667	1328.629883	324.556122
30252.005319	-1910.381667	1327.535156	273.227417
30252.005319	-1910.381667	1326.441406	190.562439
30252.005319	-1910.381667	1325.346680	436.956787
30252.005319	-1910.381667	1324.251953	246.590347
30252.005319	-1910.381667	1323.156250	330.576202
30252.005319	-1910.381667	1322.061523	203.013565
30252.005319	-1910.381667	1320.965820	241.023361
30252.005319	-1910.381667	1319.870117	93.976784
30252.005319	-1910.381667	1318.774414	134.574219
30252.005319	-1910.381667	1317.678711	137.029205
30252.005319	-1910.381667	1316.582031	92.153191
30252.005319	-1910.381667	1315.485352	171.217163
30252.005319	-1910.381667	1314.388672	25.700289
30252.005319	-1910.381667	1313.291016	132.111359
30252.005319	-1910.381667	1312.194336	87.717957
30252.005319	-1910.381667	1311.096680	126.847610
30252.005319	-1910.381667	1309.999023	178.067505
30252.005319	-1910.381667	1308.901367	75.322159
30252.005319	-1910.381667	1307.802734	42.918804
30252.005319	-1910.381667	1306.705078	219.021255
30252.005319	-1910.381667	1305.606445	235.994370
30252.005319	-1910.381667	1304.506836	80.089371
30252.005319	-1910.381667	1303.408203	114.538239
30252.005319	-1910.381667	1302.308594	274.890564
30252.005319	-1910.381667	1301.208984	171.011688
30252.005319	-1910.381667	1300.109375	223.877792
30252.005319	-1910.381667	1299.009766	276.009552
30252.005319	-1910.381667	1297.909180	224.570862
30252.005319	-1910.381667	1296.808594	160.901062
30252.005319	-1910.381667	1295.708008	179.872849
30252.005319	-1910.381667	1294.607422	170.594254
30252.005319	-1910.381667	1293.506836	240.087372
30252.005319	-1910.381667	1292.405273	75.854630
30252.005319	-1910.381667	1291.303711	238.607773
30252.005319	-1910.381667	1290.202148	86.455826
30252.005319	-1910.381667	1289.099609	219.571640
30252.005319	-1910.381667	1287.998047	143.073761
30252.005319	-1910.381667	1286.895508	84.993828
30252.005319	-1910.381667	1285.792969	248.320862
30252.005319	-1910.381667	1284.689453	81.314697
30252.005319	-1910.381667	1283.586914	46.726521
30252.005319	-1910.381667	1282.483398	127.011971
30252.005319	-1910.381667	1281.379883	91.662399
30252.005319	-1910.381667	1280.276367	59.055855
30252.005319	-1910.381667	1279.171875	-31.409534
30252.005319	-1910.381667	1278.067383	3.013379
30252.005319	-1910.381667	1276.962891	-16.234377
30252.005319	-1910.381667	1275.858398	31.537252
30252.005319	-1910.381667	1274.753906	-69.369873
30252.005319	-1910.381667	1273.648438	-68.261147
30252.005319	-1910.381667	1272.542969	-106.934441
30252.005319	-1910.381667	1271.437500	-113.575188
30252.005319	-1910.381667	1270.331055	7.088881
30252.005319	-1910.381667	1269.225586	-23.620739
30252.005319	-1910.381667	1268.119141	-46.663479
30252.005319	-1910.381667	1267.012695	83.376083
30252.005319	-1910.381667	1265.906250	-58.572754
30252.005319	-1910.381667	1264.798828	-78.680016
30252.005319	-1910.381667	1263.691406	-144.867233
30252.005319	-1910.381667	1262.583984	-71.039108
30252.005319	-1910.381667	1261.476563	43.312290
30252.005319	-1910.381667	1260.368164	-108.112915
30252.005319	-1910.381667	1259.260742	-170.501297
30252.005319	-1910.381667	1258.152344	-106.869667
30252.005319	-1910.381667	1257.043945	-78.774902
30252.005319	-1910.381667	1255.934570	-186.369354
30252.005319	-1910.381667	1254.825195	-41.554150
30252.005319	-1910.381667	1253.716797	-122.125999
30252.005319	-1910.381667	1252.606445	-170.960541
30252.005319	-1910.381667	1251.497070	-71.739555
30252.005319	-1910.381667	1250.387695	-102.588997
30252.005319	-1910.381667	1249.277344	-18.668987
30252.005319	-1910.381667	1248.166992	-91.535019
30252.005319	-1910.381667	1247.055664	-61.776379
30252.005319	-1910.381667	1245.945313	21.620768
30252.005319	-1910.381667	1244.833984	-23.949980
30252.005319	-1910.381667	1243.722656	-86.901581
30252.005319	-1910.381667	1242.611328	-5.455126
30252.005319	-1910.381667	1241.499023	-34.220867
30252.005319	-1910.381667	1240.387695	57.363789
30252.005319	-1910.381667	1239.275391	-4.077015
30252.005319	-1910.381667	1238.162109	92.160446
30252.005319	-1910.381667	1237.049805	15.973693
30252.005319	-1910.381667	1235.936523	-3.123453
30252.005319	-1910.381667	1234.823242	-22.678766
30252.005319	-1910.381667	1233.709961	74.144279
30252.005319	-1910.381667	1232.596680	101.285721
30252.005319	-1910.381667	1231.482422	58.722763
30252.005319	-1910.381667	1230.369141	21.976892
30252.005319	-1910.381667	1229.253906	74.507858
30252.005319	-1910.381667	1228.139648	62.768219
30252.005319	-1910.381667	1227.025391	-8.100257
30252.005319	-1910.381667	1225.910156	89.379166
30252.005319	-1910.381667	1224.794922	87.204086
30252.005319	-1910.381667	1223.679688	-88.035065
30252.005319	-1910.381667	1222.563477	108.581337
30252.005319	-1910.381667	1221.447266	35.994236
30252.005319	-1910.381667	1220.331055	9.310190
30252.005319	-1910.381667	1219.214844	80.497574
30252.005319	-1910.381667	1218.098633	1.410494
30252.005319	-1910.381667	1216.981445	-81.841484
30252.005319	-1910.381667	1215.864258	76.515106
30252.005319	-1910.381667	1214.747070	53.520432
30252.005319	-1910.381667	1213.629883	62.053013
30252.005319	-1910.381667	1212.511719	125.294678
30252.005319	-1910.381667	1211.393555	172.950546
30252.005319	-1910.381667	1210.275391	177.234131
30252.005319	-1910.381667	1209.157227	200.426285
30252.005319	-1910.381667	1208.038086	65.670761
30252.005319	-1910.381667	1206.918945	135.982758
30252.005319	-1910.381667	1205.799805	196.098221
30252.005319	-1910.381667	1204.680664	34.940628
30252.005319	-1910.381667	1203.560547	-11.678336
30252.005319	-1910.381667	1202.441406	72.084152
30252.005319	-1910.381667	1201.321289	3.228287
30252.005319	-1910.381667	1200.200195	-35.520710
30252.005319	-1910.381667	1199.080078	-92.758469
30252.005319	-1910.381667	1197.958984	-61.158638
30252.005319	-1910.381667	1196.837891	-37.446205
30252.005319	-1910.381667	1195.716797	106.560120
30252.005319	-1910.381667	1194.594727	-74.698608
30252.005319	-1910.381667	1193.473633	-83.640221
30252.005319	-1910.381667	1192.351563	10.808165
30252.005319	-1910.381667	1191.229492	-29.031523
30252.005319	-1910.381667	1190.106445	-75.376457
30252.005319	-1910.381667	1188.984375	37.908333
30252.005319	-1910.381667	1187.861328	68.862473
30252.005319	-1910.381667	1186.738281	138.130188
30252.005319	-1910.381667	1185.614258	127.113434
30252.005319	-1910.381667	1184.491211	50.520493
30252.005319	-1910.381667	1183.367188	133.166809
30252.005319	-1910.381667	1182.243164	324.261078
30252.005319	-1910.381667	1181.119141	343.414856
30252.005319	-1910.381667	1179.994141	341.652527
30252.005319	-1910.381667	1178.869141	254.967102
30252.005319	-1910.381667	1177.744141	215.172668
30252.005319	-1910.381667	1176.619141	216.338257
30252.005319	-1910.381667	1175.493164	161.958496
30252.005319	-1910.381667	1174.368164	152.803436
30252.005319	-1910.381667	1173.242188	181.790878
30252.005319	-1910.381667	1172.115234	99.526894
30252.005319	-1910.381667	1170.989258	151.359741
30252.005319	-1910.381667	1169.862305	151.695908
30252.005319	-1910.381667	1168.735352	136.442062
30252.005319	-1910.381667	1167.608398	119.469955
30252.005319	-1910.381667	1166.481445	38.060543
30252.005319	-1910.381667	1165.353516	119.386101
30252.005319	-1910.381667	1164.225586	85.743477
30252.005319	-1910.381667	1163.097656	33.960018
30252.005319	-1910.381667	1161.968750	46.967728
30252.005319	-1910.381667	1160.840820	97.241081
30252.005319	-1910.381667	1159.711914	135.137527
30252.005319	-1910.381667	1158.583008	-83.331635
30252.005319	-1910.381667	1157.453125	-96.336044
30252.005319	-1910.381667	1156.324219	-86.011902
30252.005319	-1910.381667	1155.194336	81.077217
30252.005319	-1910.381667	1154.064453	-94.149620
30252.005319	-1910.381667	1152.933594	34.680893
30252.005319	-1910.381667	1151.803711	29.711977
30252.005319	-1910.381667	1150.672852	25.981987
30252.005319	-1910.381667	1149.541992	4.116619
30252.005319	-1910.381667	1148.411133	65.514053
30252.005319	-1910.381667	1147.279297	52.747238
30252.005319	-1910.381667	1146.147461	43.879414
30252.005319	-1910.381667	1145.015625	112.993355
30252.005319	-1910.381667	1143.883789	160.734314
30252.005319	-1910.381667	1142.750977	132.843155
30252.005319	-1910.381667	1141.619141	35.491764
30252.005319	-1910.381667	1140.486328	22.571213
30252.005319	-1910.381667	1139.352539	-18.073557
30252.005319	-1910.381667	1138.219727	5.379364
30252.005319	-1910.381667	1137.085938	-74.213707
30252.005319	-1910.381667	1135.952148	-39.556416
30252.005319	-1910.381667	1134.818359	-105.242722
30252.005319	-1910.381667	1133.683594	150.812805
30252.005319	-1910.381667	1132.549805	1.258961
30252.005319	-1910.381667	1131.415039	43.065639
30252.005319	-1910.381667	1130.279297	-30.635584
30252.005319	-1910.381667	1129.144531	46.858898
30252.005319	-1910.381667	1128.008789	122.632637
30252.005319	-1910.381667	1126.873047	-11.117426
30252.005319	-1910.381667	1125.737305	129.921509
30252.005319	-1910.381667	1124.601563	-5.263447
30252.005319	-1910.381667	1123.464844	192.069244
30252.005319	-1910.381667	1122.328125	170.822662
30252.005319	-1910.381667	1121.191406	150.954163
30252.005319	-1910.381667	1120.054688	-1.245427
30252.005319	-1910.381667	1118.916992	0.528836
30252.005319	-1910.381667	1117.779297	90.321251
30252.005319	-1910.381667	1116.641602	-55.426453
30252.005319	-1910.381667	1115.503906	42.376392
30252.005319	-1910.381667	1114.365234	130.971161
30252.005319	-1910.381667	1113.226563	13.927151
30252.005319	-1910.381667	1112.087891	-0.270910
30252.005319	-1910.381667	1110.949219	-131.114380
30252.005319	-1910.381667	1109.809570	71.679543
30252.005319	-1910.381667	1108.669922	145.244720
30252.005319	-1910.381667	1107.530273	18.932091
30252.005319	-1910.381667	1106.390625	72.814285
30252.005319	-1910.381667	1105.250000	-0.292776
30252.005319	-1910.381667	1104.109375	68.383064
30252.005319	-1910.381667	1102.968750	60.714245
30252.005319	-1910.381667	1101.828125	99.791962
30252.005319	-1910.381667	1100.686523	34.447182
30252.005319	-1910.381667	1099.544922	97.218788
30252.005319	-1910.381667	1098.403320	180.451385
30252.005319	-1910.381667	1097.261719	162.732300
30252.005319	-1910.381667	1096.120117	135.847534
30252.005319	-1910.381667	1094.977539	165.278366
30252.005319	-1910.381667	1093.834961	94.730316
30252.005319	-1910.381667	1092.691406	20.171406
30252.005319	-1910.381667	1091.548828	172.224869
30252.005319	-1910.381667	1090.405273	-19.013029
30252.005319	-1910.381667	1089.261719	118.226357
30252.005319	-1910.381667	1088.118164	199.561096
30252.005319	-1910.381667	1086.973633	-22.090672
30252.005319	-1910.381667	1085.829102	136.205276
30252.005319	-1910.381667	1084.684570	81.403946
30252.005319	-1910.381667	1083.540039	107.995041
30252.005319	-1910.381667	1082.395508	8.848124
30252.005319	-1910.381667	1081.250000	72.106789
30252.005319	-1910.381667	1080.104492	-26.466455
30252.005319	-1910.381667	1078.958984	38.973557
30252.005319	-1910.381667	1077.812500	-15.834922
30252.005319	-1910.381667	1076.666016	35.940037
30252.005319	-1910.381667	1075.519531	-21.731384
30252.005319	-1910.381667	1074.373047	193.816788
30252.005319	-1910.381667	1073.226563	-55.644943
30252.005319	-1910.381667	1072.079102	37.456501
30252.005319	-1910.381667	1070.931641	95.603600
30252.005319	-1910.381667	1069.784180	176.312927
30252.005319	-1910.381667	1068.635742	-16.647169
30252.005319	-1910.381667	1067.487305	118.566223
30252.005319	-1910.381667	1066.338867	117.778778
30252.005319	-1910.381667	1065.190430	-38.166248
30252.005319	-1910.381667	1064.041992	23.467960
30252.005319	-1910.381667	1062.892578	-27.879463
30252.005319	-1910.381667	1061.743164	108.007095
30252.005319	-1910.381667	1060.593750	-25.969042
30252.005319	-1910.381667	1059.443359	43.736176
30252.005319	-1910.381667	1058.292969	24.291571
30252.005319	-1910.381667	1057.142578	-50.540142
30252.005319	-1910.381667	1055.992188	-61.483059
30252.005319	-1910.381667	1054.841797	91.935013
30252.005319	-1910.381667	1053.690430	44.779007
30252.005319	-1910.381667	1052.539063	32.418571
30252.005319	-1910.381667	1051.387695	-56.727802
30252.005319	-1910.381667	1050.235352	27.256800
30252.005319	-1910.381667	1049.083984	15.439534
30252.005319	-1910.381667	1047.931641	-2.472793
30252.005319	-1910.381667	1046.778320	-74.954330
30252.005319	-1910.381667	1045.625977	-123.554947
30252.005319	-1910.381667	1044.472656	-4.100694
30252.005319	-1910.381667	1043.319336	-54.233891
30252.005319	-1910.381667	1042.166016	-129.009644
30252.005319	-1910.381667	1041.012695	-60.377129
30252.005319	-1910.381667	1039.858398	9.125794
30252.005319	-1910.381667	1038.704102	-35.184105
30252.005319	-1910.381667	1037.549805	-56.685165
30252.005319	-1910.381667	1036.394531	123.611511
30252.005319	-1910.381667	1035.239258	-47.176910
30252.005319	-1910.381667	1034.083984	9.188907
30252.005319	-1910.381667	1032.928711	40.289619
30252.005319	-1910.381667	1031.773438	96.505196
30252.005319	-1910.381667	1030.617188	251.122772
30252.005319	-1910.381667	1029.460938	173.109741
30252.005319	-1910.381667	1028.304688	-14.155869
30252.005319	-1910.381667	1027.147461	46.936745
30252.005319	-1910.381667	1025.991211	152.502686
30252.005319	-1910.381667	1024.833984	24.805920
30252.005319	-1910.381667	1023.675781	24.358679
30252.005319	-1910.381667	1022.518555	223.846542
30252.005319	-1910.381667	1021.360352	-25.154659
30252.005319	-1910.381667	1020.202148	-151.960510
30252.005319	-1910.381667	1019.043945	33.243069
30252.005319	-1910.381667	1017.884766	80.980774
30252.005319	-1910.381667	1016.726563	202.771927
30252.005319	-1910.381667	1015.567383	-49.149189
30252.005319	-1910.381667	1014.407227	-6.241972
30252.005319	-1910.381667	1013.248047	-8.665174
30252.005319	-1910.381667	1012.087891	143.126404
30252.005319	-1910.381667	1010.927734	-28.915052
30252.005319	-1910.381667	1009.767578	-26.941727
30252.005319	-1910.381667	1008.606445	70.617279
30252.005319	-1910.381667	1007.446289	30.722111
30252.005319	-1910.381667	1006.285156	-112.038795
30252.005319	-1910.381667	1005.123047	-75.824539
30252.005319	-1910.381667	1003.961914	-34.561546
30252.005319	-1910.381667	1002.799805	136.071396
30252.005319	-1910.381667	1001.637695	126.431961
30252.005319	-1910.381667	1000.475586	38.353317
30252.005319	-1910.381667	999.312500	-1.033248
30252.005319	-1910.381667	998.149414	36.370743
30252.005319	-1910.381667	996.986328	-46.163551
30252.005319	-1910.381667	995.823242	52.523212
30252.005319	-1910.381667	994.659180	43.828842
30252.005319	-1910.381667	993.496094	-92.248840
30252.005319	-1910.381667	992.332031	-79.407555
30252.005319	-1910.381667	991.166992	-60.100811
30252.005319	-1910.381667	990.002930	-60.673428
30252.005319	-1910.381667	988.837891	91.572746
30252.005319	-1910.381667	987.672852	64.541084
30252.005319	-1910.381667	986.506836	36.742542
30252.005319	-1910.381667	985.341797	-13.915568
30252.005319	-1910.381667	984.175781	-0.385163
30252.005319	-1910.381667	983.009766	36.362709
30252.005319	-1910.381667	981.843750	138.292587
30252.005319	-1910.381667	980.676758	5.957334
30252.005319	-1910.381667	979.509766	138.376190
30252.005319	-1910.381667	978.342773	-21.665499
30252.005319	-1910.381667	977.175781	108.310974
30252.005319	-1910.381667	976.007813	-30.955578
30252.005319	-1910.381667	974.839844	66.460434
30252.005319	-1910.381667	973.671875	21.575310
30252.005319	-1910.381667	972.503906	50.492275
30252.005319	-1910.381667	971.334961	20.867060
30252.005319	-1910.381667	970.166016	-13.822906
30252.005319	-1910.381667	968.997070	61.335167
30252.005319	-1910.381667	967.828125	-25.957350
30252.005319	-1910.381667	966.658203	63.484505
30252.005319	-1910.381667	965.488281	-43.672314
30252.005319	-1910.381667	964.318359	-13.391477
30252.005319	-1910.381667	963.148438	-73.010674
30252.005319	-1910.381667	961.977539	125.350792
30252.005319	-1910.381667	960.806641	-6.058506
30252.005319	-1910.381667	959.635742	37.001377
30252.005319	-1910.381667	958.463867	15.788527
30252.005319	-1910.381667	957.292969	34.461674
30252.005319	-1910.381667	956.121094	100.228180
30252.005319	-1910.381667	954.948242	92.629692
30252.005319	-1910.381667	953.776367	24.088240
30252.005319	-1910.381667	952.603516	161.976608
30252.005319	-1910.381667	951.430664	20.872597
30252.005319	-1910.381667	950.257813	129.276428
30252.005319	-1910.381667	949.084961	56.580383
30252.005319	-1910.381667	947.911133	29.874929
30252.005319	-1910.381667	946.737305	-14.855807
30252.005319	-1910.381667	945.563477	74.886909
30252.005319	-1910.381667	944.388672	92.621719
30252.005319	-1910.381667	943.213867	-38.401573
30252.005319	-1910.381667	942.039063	11.715666
30252.005319	-1910.381667	940.864258	73.805176
30252.005319	-1910.381667	939.688477	105.620903
30252.005319	-1910.381667	938.513672	95.186310
30252.005319	-1910.381667	937.337891	47.511017
30252.005319	-1910.381667	936.161133	-90.658249
30252.005319	-1910.381667	934.985352	-56.819885
30252.005319	-1910.381667	933.808594	214.311981
30252.005319	-1910.381667	932.631836	-37.867203
30252.005319	-1910.381667	931.454102	-10.994239
30252.005319	-1910.381667	930.277344	46.061966
30252.005319	-1910.381667	929.099609	-89.805389
30252.005319	-1910.381667	927.921875	132.169296
30252.005319	-1910.381667	926.743164	54.437546
30252.005319	-1910.381667	925.565430	39.370304
30252.005319	-1910.381667	924.386719	68.423653
30252.005319	-1910.381667	923.208008	-46.478073
30252.005319	-1910.381667	922.028320	56.847561
30252.005319	-1910.381667	920.849609	78.892685
30252.005319	-1910.381667	919.669922	79.014145
30252.005319	-1910.381667	919.474609	186.797882
30252.005319	-1910.381667	918.309570	85.816925
30252.005319	-1910.381667	917.143555	86.926186
30252.005319	-1910.381667	915.977539	-37.211662
30252.005319	-1910.381667	914.810547	33.454384
30252.005319	-1910.381667	913.644531	73.941963
30252.005319	-1910.381667	912.477539	112.082397
30252.005319	-1910.381667	911.310547	154.828430
30252.005319	-1910.381667	910.143555	51.587952
30252.005319	-1910.381667	908.975586	-72.469933
30252.005319	-1910.381667	907.807617	25.829243
30252.005319	-1910.381667	906.639648	22.200480
30252.005319	-1910.381667	905.471680	0.041889
30252.005319	-1910.381667	904.303711	-98.495491
30252.005319	-1910.381667	903.134766	-78.993591
30252.005319	-1910.381667	901.965820	-50.257877
30252.005319	-1910.381667	900.796875	-190.394165
30252.005319	-1910.381667	899.626953	-101.544960
30252.005319	-1910.381667	898.457031	-19.679287
30252.005319	-1910.381667	897.287109	29.779659
30252.005319	-1910.381667	896.117188	-101.060066
30252.005319	-1910.381667	894.947266	-49.316494
30252.005319	-1910.381667	893.776367	-43.807953
30252.005319	-1910.381667	892.605469	40.216766
30252.005319	-1910.381667	891.434570	-65.159676
30252.005319	-1910.381667	890.262695	28.049030
30252.005319	-1910.381667	889.091797	12.720257
30252.005319	-1910.381667	887.919922	-81.078300
30252.005319	-1910.381667	886.748047	60.500309
30252.005319	-1910.381667	885.575195	-19.449245
30252.005319	-1910.381667	884.403320	-23.264381
30252.005319	-1910.381667	883.230469	-36.311562
30252.005319	-1910.381667	882.057617	86.659027
30252.005319	-1910.381667	880.883789	-140.788757
30252.005319	-1910.381667	879.710938	-190.704681
30252.005319	-1910.381667	878.537109	-0.989459
30252.005319	-1910.381667	877.362305	-44.021912
30252.005319	-1910.381667	876.188477	-126.198944
30252.005319	-1910.381667	875.013672	-10.325130
30252.005319	-1910.381667	873.839844	-2.708971
30252.005319	-1910.381667	872.664063	-126.301819
30252.005319	-1910.381667	871.489258	-31.236609
30252.005319	-1910.381667	870.313477	70.682503
30252.005319	-1910.381667	869.138672	-68.977455
30252.005319	-1910.381667	867.962891	-29.204264
30252.005319	-1910.381667	866.786133	-109.021301
30252.005319	-1910.381667	865.610352	24.980291
30252.005319	-1910.381667	864.433594	92.264832
30252.005319	-1910.381667	863.256836	40.021156
30252.005319	-1910.381667	862.079102	31.442368
30252.005319	-1910.381667	860.902344	-27.674454
30252.005319	-1910.381667	859.724609	-112.037415
30252.005319	-1910.381667	858.546875	24.045750
30252.005319	-1910.381667	857.368164	-87.856407
30252.005319	-1910.381667	856.190430	-64.309563
30252.005319	-1910.381667	855.011719	76.244720
30252.005319	-1910.381667	853.833008	51.554371
30252.005319	-1910.381667	852.654297	162.193649
30252.005319	-1910.381667	851.474609	-2.406623
30252.005319	-1910.381667	850.294922	133.402374
30252.005319	-1910.381667	849.115234	92.642624
30252.005319	-1910.381667	847.935547	17.514360
30252.005319	-1910.381667	846.754883	-59.882214
30252.005319	-1910.381667	845.575195	-52.492584
30252.005319	-1910.381667	844.393555	-51.985924
30252.005319	-1910.381667	843.212891	-26.298021
30252.005319	-1910.381667	842.032227	47.450111
30252.005319	-1910.381667	840.850586	47.911858
30252.005319	-1910.381667	839.668945	41.500717
30252.005319	-1910.381667	838.486328	181.517502
30252.005319	-1910.381667	837.304688	51.536819
30252.005319	-1910.381667	836.122070	13.085096
30252.005319	-1910.381667	834.939453	43.239906
30252.005319	-1910.381667	833.756836	91.663338
30252.005319	-1910.381667	832.573242	119.487701
30252.005319	-1910.381667	831.389648	-35.524853
30252.005319	-1910.381667	830.206055	88.256981
30252.005319	-1910.381667	829.022461	-116.955406
30252.005319	-1910.381667	827.838867	100.411667
30252.005319	-1910.381667	826.654297	119.030510
30252.005319	-1910.381667	825.469727	30.339064
30252.005319	-1910.381667	824.284180	-8.111980
30252.005319	-1910.381667	823.099609	19.620235
30252.005319	-1910.381667	821.914063	-82.710007
30252.005319	-1910.381667	820.728516	132.048599
30252.005319	-1910.381667	819.542969	107.256851
30252.005319	-1910.381667	818.356445	144.026901
30252.005319	-1910.381667	817.169922	46.279129
30252.005319	-1910.381667	815.983398	83.029076
30252.005319	-1910.381667	814.796875	-10.126668
30252.005319	-1910.381667	813.609375	238.468948
30252.005319	-1910.381667	812.422852	211.354095
30252.005319	-1910.381667	811.235352	24.835604
30252.005319	-1910.381667	810.046875	186.725372
30252.005319	-1910.381667	808.859375	184.648010
30252.005319	-1910.381667	807.670898	216.698395
30252.005319	-1910.381667	806.482422	153.161682
30252.005319	-1910.381667	805.293945	80.542152
30252.005319	-1910.381667	804.104492	264.947449
30252.005319	-1910.381667	802.915039	58.152451
30252.005319	-1910.381667	801.725586	215.184402
30252.005319	-1910.381667	800.536133	156.208191
30252.005319	-1910.381667	799.345703	188.145386
30252.005319	-1910.381667	798.155273	63.287987
30252.005319	-1910.381667	796.964844	17.976194
30252.005319	-1910.381667	795.774414	147.546280
30252.005319	-1910.381667	794.583008	172.601868
30252.005319	-1910.381667	793.392578	131.802414
30252.005319	-1910.381667	792.200195	29.725229
30252.005319	-1910.381667	791.008789	72.908867
30252.005319	-1910.381667	789.816406	97.911797
30252.005319	-1910.381667	788.625000	104.747009
30252.005319	-1910.381667	787.432617	-24.501686
30252.005319	-1910.381667	786.239258	-90.224640
30252.005319	-1910.381667	785.046875	84.355354
30252.005319	-1910.381667	783.853516	-174.031967
30252.005319	-1910.381667	782.660156	-167.212219
30252.005319	-1910.381667	781.465820	11.764788
30252.005319	-1910.381667	780.272461	61.551319
30252.005319	-1910.381667	779.078125	156.592834
30252.005319	-1910.381667	777.883789	-33.688690
30252.005319	-1910.381667	776.688477	31.878067
30252.005319	-1910.381667	775.494141	-128.906616
30252.005319	-1910.381667	774.298828	-65.638863
30252.005319	-1910.381667	773.103516	40.568157
30252.005319	-1910.381667	771.907227	-124.687042
30252.005319	-1910.381667	770.711914	-111.252052
30252.005319	-1910.381667	769.515625	-2.887171
30252.005319	-1910.381667	768.318359	19.525488
30252.005319	-1910.381667	767.122070	-39.439716
30252.005319	-1910.381667	765.924805	84.609161
30252.005319	-1910.381667	764.727539	109.199181
30252.005319	-1910.381667	763.530273	-40.134262
30252.005319	-1910.381667	762.333008	92.819038
30252.005319	-1910.381667	761.134766	76.706268
30252.005319	-1910.381667	759.936523	198.258636
30252.005319	-1910.381667	758.738281	170.812790
30252.005319	-1910.381667	757.540039	66.654114
30252.005319	-1910.381667	756.340820	73.043030
30252.005319	-1910.381667	755.141602	129.023270
30252.005319	-1910.381667	753.942383	108.303543
30252.005319	-1910.381667	752.742188	19.946468
30252.005319	-1910.381667	751.541992	42.038776
30252.005319	-1910.381667	750.341797	145.218384
30252.005319	-1910.381667	749.141602	241.576813
30252.005319	-1910.381667	747.941406	141.924835
30252.005319	-1910.381667	746.740234	82.825432
30252.005319	-1910.381667	745.539063	129.543655
30252.005319	-1910.381667	744.337891	137.956161
30252.005319	-1910.381667	743.135742	144.092209
30252.005319	-1910.381667	741.933594	80.455170
30252.005319	-1910.381667	740.731445	165.288376
30252.005319	-1910.381667	739.529297	173.597443
30252.005319	-1910.381667	738.326172	82.943245
30252.005319	-1910.381667	737.124023	50.755341
30252.005319	-1910.381667	735.919922	119.696487
30252.005319	-1910.381667	734.716797	157.126785
30252.005319	-1910.381667	733.513672	293.370300
30252.005319	-1910.381667	732.309570	330.699280
30252.005319	-1910.381667	731.105469	278.159210
30252.005319	-1910.381667	729.900391	254.803085
30252.005319	-1910.381667	728.696289	193.271591
30252.005319	-1910.381667	727.491211	86.852600
30252.005319	-1910.381667	726.286133	135.277206
30252.005319	-1910.381667	725.080078	-69.847008
30252.005319	-1910.381667	723.874023	57.038250
30252.005319	-1910.381667	722.668945	-24.702009
30252.005319	-1910.381667	721.461914	-16.759237
30252.005319	-1910.381667	720.255859	71.848442
30252.005319	-1910.381667	719.048828	-16.651957
30252.005319	-1910.381667	717.841797	42.733997
30252.005319	-1910.381667	716.634766	10.222808
30252.005319	-1910.381667	715.427734	-78.294228
30252.005319	-1910.381667	714.219727	-5.585696
30252.005319	-1910.381667	713.011719	20.050434
30252.005319	-1910.381667	711.803711	115.030861
30252.005319	-1910.381667	710.594727	-45.162590
30252.005319	-1910.381667	709.385742	-124.777512
30252.005319	-1910.381667	708.176758	-164.127197
30252.005319	-1910.381667	706.967773	-20.112324
30252.005319	-1910.381667	705.758789	18.725805
30252.005319	-1910.381667	704.548828	-22.960205
30252.005319	-1910.381667	703.338867	-196.521835
30252.005319	-1910.381667	702.127930	-200.225464
30252.005319	-1910.381667	700.917969	-16.302874
30252.005319	-1910.381667	699.707031	31.262737
30252.005319	-1910.381667	698.496094	105.572151
30252.005319	-1910.381667	697.285156	146.328201
30252.005319	-1910.381667	696.073242	15.158451
30252.005319	-1910.381667	694.861328	151.806808
30252.005319	-1910.381667	693.649414	69.708549
30252.005319	-1910.381667	692.436523	67.913513
30252.005319	-1910.381667	691.224609	-69.958595
30252.005319	-1910.381667	690.011719	33.005619
30252.005319	-1910.381667	688.798828	-89.268623
30252.005319	-1910.381667	687.584961	104.964218
30252.005319	-1910.381667	686.372070	58.418804
30252.005319	-1910.381667	685.158203	0.714867
30252.005319	-1910.381667	683.943359	159.056168
30252.005319	-1910.381667	682.729492	114.643410
30252.005319	-1910.381667	681.514648	132.551224
30252.005319	-1910.381667	680.299805	61.373501
30252.005319	-1910.381667	679.084961	112.593422
30252.005319	-1910.381667	677.869141	32.470955
30252.005319	-1910.381667	676.653320	281.586914
30252.005319	-1910.381667	675.437500	79.058273
30252.005319	-1910.381667	674.221680	114.509315
30252.005319	-1910.381667	673.004883	107.662819
30252.005319	-1910.381667	671.789063	54.105282
30252.005319	-1910.381667	670.571289	284.976074
30252.005319	-1910.381667	669.354492	113.566093
30252.005319	-1910.381667	668.136719	166.540695
30252.005319	-1910.381667	666.919922	126.179016
30252.005319	-1910.381667	665.701172	127.976044
30252.005319	-1910.381667	664.483398	25.397867
30252.005319	-1910.381667	663.264648	262.396729
30252.005319	-1910.381667	662.045898	117.588005
30252.005319	-1910.381667	660.827148	150.280655
30252.005319	-1910.381667	659.608398	127.467186
30252.005319	-1910.381667	658.388672	135.664993
30252.005319	-1910.381667	657.168945	77.304070
30252.005319	-1910.381667	655.949219	65.475609
30252.005319	-1910.381667	654.728516	275.225220
30252.005319	-1910.381667	653.507813	86.015297
30252.005319	-1910.381667	652.287109	122.797829
30252.005319	-1910.381667	651.066406	223.750946
30252.005319	-1910.381667	649.844727	140.827896
30252.005319	-1910.381667	648.623047	208.438446
30252.005319	-1910.381667	647.401367	43.573242
30252.005319	-1910.381667	646.179688	84.534927
30252.005319	-1910.381667	644.957031	163.044235
30252.005319	-1910.381667	643.734375	157.422226
30252.005319	-1910.381667	642.511719	21.280176
30252.005319	-1910.381667	641.289063	115.100449
30252.005319	-1910.381667	640.065430	23.146650
30252.005319	-1910.381667	638.841797	-71.022209
30252.005319	-1910.381667	637.618164	71.235458
30252.005319	-1910.381667	636.393555	45.489799
30252.005319	-1910.381667	635.168945	105.850266
30252.005319	-1910.381667	633.944336	95.477982
30252.005319	-1910.381667	632.719727	131.429123
30252.005319	-1910.381667	631.494141	-20.301949
30252.005319	-1910.381667	630.269531	33.225742
30252.005319	-1910.381667	629.042969	-19.225491
30252.005319	-1910.381667	627.817383	45.217373
30252.005319	-1910.381667	626.590820	177.953598
30252.005319	-1910.381667	625.365234	85.688095
30252.005319	-1910.381667	624.137695	79.385490
30252.005319	-1910.381667	622.911133	161.206329
30252.005319	-1910.381667	621.683594	0.554534
30252.005319	-1910.381667	620.456055	170.389664
30252.005319	-1910.381667	619.228516	44.958885
30252.005319	-1910.381667	618.000977	60.475235
30252.005319	-1910.381667	616.772461	-20.935848
30252.005319	-1910.381667	615.543945	49.528137
30252.005319	-1910.381667	614.314453	-104.561111
30252.005319	-1910.381667	613.085938	7.610003
30252.005319	-1910.381667	611.856445	168.082657
30252.005319	-1910.381667	610.626953	-1.457681
30252.005319	-1910.381667	609.397461	136.874939
30252.005319	-1910.381667	608.166992	116.816673
30252.005319	-1910.381667	606.936523	-83.506950
30252.005319	-1910.381667	605.706055	-13.497546
30252.005319	-1910.381667	604.474609	-106.142670
30252.005319	-1910.381667	603.244141	12.082811
30252.005319	-1910.381667	602.012695	-69.630447
30252.005319	-1910.381667	600.780273	-87.682167
30252.005319	-1910.381667	599.548828	-37.712532
30252.005319	-1910.381667	598.316406	78.030502
30252.005319	-1910.381667	597.083984	-58.649456
30252.005319	-1910.381667	595.851563	-17.617802
30252.005319	-1910.381667	594.618164	18.964912
30252.005319	-1910.381667	593.384766	-87.038971
30252.005319	-1910.381667	592.151367	-87.804886
30252.005319	-1910.381667	590.917969	42.903370
30252.005319	-1910.381667	589.683594	114.345108
30252.005319	-1910.381667	588.449219	106.844246
30252.005319	-1910.381667	587.214844	-64.976257
30252.005319	-1910.381667	585.979492	181.526169
30252.005319	-1910.381667	584.745117	217.695038
30252.005319	-1910.381667	583.509766	-28.582867
30252.005319	-1910.381667	582.273438	-108.462959
30252.005319	-1910.381667	581.038086	-89.872986
30252.005319	-1910.381667	579.801758	-36.328163
30252.005319	-1910.381667	578.565430	10.597288
30252.005319	-1910.381667	577.329102	151.498596
30252.005319	-1910.381667	576.091797	178.614883
30252.005319	-1910.381667	574.854492	-17.266140
30252.005319	-1910.381667	573.617188	-44.825089
30252.005319	-1910.381667	572.378906	10.615599
30252.005319	-1910.381667	571.141602	0.473865
30252.005319	-1910.381667	569.903320	154.095520
30252.005319	-1910.381667	568.664063	143.855576
30252.005319	-1910.381667	567.425781	164.156525
30252.005319	-1910.381667	566.186523	53.461742
30252.005319	-1910.381667	564.947266	126.080223
30252.005319	-1910.381667	563.708008	11.020386
30252.005319	-1910.381667	562.467773	-45.132568
30252.005319	-1910.381667	561.227539	73.165794
30252.005319	-1910.381667	559.987305	197.927826
30252.005319	-1910.381667	558.747070	113.354858
30252.005319	-1910.381667	557.505859	146.468597
30252.005319	-1910.381667	556.264648	120.715431
30252.005319	-1910.381667	555.023438	123.267921
30252.005319	-1910.381667	553.781250	112.723427
30252.005319	-1910.381667	552.539063	154.419037
30252.005319	-1910.381667	551.296875	183.012695
30252.005319	-1910.381667	550.054688	-23.487556
30252.005319	-1910.381667	548.811523	13.789050
30252.005319	-1910.381667	547.569336	111.950783
30252.005319	-1910.381667	546.325195	92.586052
30252.005319	-1910.381667	545.082031	199.344742
30252.005319	-1910.381667	543.837891	73.399315
30252.005319	-1910.381667	542.593750	127.907829
30252.005319	-1910.381667	541.349609	164.990692
30252.005319	-1910.381667	540.105469	156.414795
30252.005319	-1910.381667	538.860352	256.437103
30252.005319	-1910.381667	537.615234	276.044891
30252.005319	-1910.381667	536.369141	354.252899
30252.005319	-1910.381667	535.124023	102.443657
30252.005319	-1910.381667	533.877930	78.621002
30252.005319	-1910.381667	532.631836	154.616486
30252.005319	-1910.381667	531.384766	78.698799
30252.005319	-1910.381667	530.138672	80.895500
30252.005319	-1910.381667	528.891602	63.560047
30252.005319	-1910.381667	527.643555	-5.815040
30252.005319	-1910.381667	526.396484	-1.461465
30252.005319	-1910.381667	525.148438	24.550407
30252.005319	-1910.381667	523.900391	-25.288654
30252.005319	-1910.381667	522.652344	145.846878
30252.005319	-1910.381667	521.403320	145.803360
30252.005319	-1910.381667	520.154297	48.317635
30252.005319	-1910.381667	518.905273	37.466713
30252.005319	-1910.381667	517.656250	-36.147499
30252.005319	-1910.381667	516.406250	-66.457481
30252.005319	-1910.381667	515.156250	178.006058
30252.005319	-1910.381667	513.906250	-40.514854
30252.005319	-1910.381667	512.655273	39.484329
30252.005319	-1910.381667	511.404297	9.187230
30252.005319	-1910.381667	510.153320	2.684987
30252.005319	-1910.381667	508.902344	-27.582142
30252.005319	-1910.381667	507.650391	-90.246323
30252.005319	-1910.381667	506.398438	-131.274857
30252.005319	-1910.381667	505.146484	82.571808
30252.005319	-1910.381667	503.893555	-16.766710
30252.005319	-1910.381667	502.641602	-75.030602
30252.005319	-1910.381667	501.388672	-40.456154
30252.005319	-1910.381667	500.134766	-126.733025
30252.005319	-1910.381667	498.881836	32.989822
30252.005319	-1910.381667	497.627930	80.488319
30252.005319	-1910.381667	496.374023	41.719826
30252.005319	-1910.381667	495.119141	-42.300846
30252.005319	-1910.381667	493.865234	20.312336
30252.005319	-1910.381667	492.610352	-149.842865
30252.005319	-1910.381667	491.355469	18.368534
30252.005319	-1910.381667	490.099609	-123.682220
30252.005319	-1910.381667	488.843750	-104.127312
30252.005319	-1910.381667	487.587891	96.308769
30252.005319	-1910.381667	486.332031	-69.295776
30252.005319	-1910.381667	485.075195	187.037720
30252.005319	-1910.381667	483.818359	-6.457337
30252.005319	-1910.381667	482.561523	10.987123
30252.005319	-1910.381667	481.304688	-18.876944
30252.005319	-1910.381667	480.046875	-37.960056
30252.005319	-1910.381667	478.789063	5.335754
30252.005319	-1910.381667	477.531250	59.382469
30252.005319	-1910.381667	476.272461	-41.311020
30252.005319	-1910.381667	475.013672	-17.319744
30252.005319	-1910.381667	473.754883	56.090984
30252.005319	-1910.381667	472.496094	-46.617134
30252.005319	-1910.381667	471.236328	20.367476
30252.005319	-1910.381667	469.976563	-17.844397
30252.005319	-1910.381667	468.716797	-23.822407
30252.005319	-1910.381667	467.456055	0.262548
30252.005319	-1910.381667	466.196289	56.546577
30252.005319	-1910.381667	464.935547	18.449415
30252.005319	-1910.381667	463.673828	10.409117
30252.005319	-1910.381667	462.413086	287.550293
30252.005319	-1910.381667	461.151367	178.758530
30252.005319	-1910.381667	459.889648	48.606464
30252.005319	-1910.381667	458.626953	145.643265
30252.005319	-1910.381667	457.364258	176.255920
30252.005319	-1910.381667	456.101563	129.778625
30252.005319	-1910.381667	454.838867	132.591400
30252.005319	-1910.381667	453.575195	150.405380
30252.005319	-1910.381667	452.312500	187.500656
30252.005319	-1910.381667	451.047852	192.495270
30252.005319	-1910.381667	449.784180	242.439026
30252.005319	-1910.381667	448.519531	230.348694
30252.005319	-1910.381667	447.254883	393.634064
30252.005319	-1910.381667	445.990234	435.003815
30252.005319	-1910.381667	444.725586	236.973694
30252.005319	-1910.381667	443.459961	363.870667
30252.005319	-1910.381667	442.194336	405.266296
30252.005319	-1910.381667	440.927734	397.523041
30252.005319	-1910.381667	439.662109	338.546448
30252.005319	-1910.381667	438.395508	258.251373
30252.005319	-1910.381667	437.127930	293.272766
30252.005319	-1910.381667	435.861328	464.886475
30252.005319	-1910.381667	434.593750	380.373352
30252.005319	-1910.381667	433.326172	323.637299
30252.005319	-1910.381667	432.058594	448.224945
30252.005319	-1910.381667	430.790039	598.347290
30252.005319	-1910.381667	429.521484	443.536285
30252.005319	-1910.381667	428.252930	461.442383
30252.005319	-1910.381667	426.984375	434.587402
30252.005319	-1910.381667	425.714844	401.342560
30252.005319	-1910.381667	424.445313	380.885895
30252.005319	-1910.381667	423.174805	422.184082
30252.005319	-1910.381667	421.905273	354.868774
30252.005319	-1910.381667	420.634766	551.524353
30252.005319	-1910.381667	419.364258	375.633179
30252.005319	-1910.381667	418.092773	512.578857
30252.005319	-1910.381667	416.822266	451.605377
30252.005319	-1910.381667	415.550781	428.909912
30252.005319	-1910.381667	414.278320	440.213715
30252.005319	-1910.381667	413.006836	332.430969
30252.005319	-1910.381667	411.734375	437.203033
30252.005319	-1910.381667	410.461914	278.384979
30252.005319	-1910.381667	409.188477	162.079025
30252.005319	-1910.381667	407.916016	224.205292
30252.005319	-1910.381667	406.642578	109.984962
30252.005319	-1910.381667	405.368164	314.231049
30252.005319	-1910.381667	404.094727	208.414185
30252.005319	-1910.381667	402.820313	132.285110
30252.005319	-1910.381667	401.545898	143.112045
30252.005319	-1910.381667	400.270508	136.883499
30252.005319	-1910.381667	398.996094	130.582565
30252.005319	-1910.381667	397.720703	90.266457
30252.005319	-1910.381667	396.444336	54.111198
30252.005319	-1910.381667	395.168945	81.464912
30252.005319	-1910.381667	393.892578	19.698837
30252.005319	-1910.381667	392.616211	120.981674
30252.005319	-1910.381667	391.339844	95.017662
30252.005319	-1910.381667	390.062500	96.467064
30252.005319	-1910.381667	388.785156	110.490395
30252.005319	-1910.381667	387.507813	1.601348
30252.005319	-1910.381667	386.229492	-12.156005
30252.005319	-1910.381667	384.951172	92.427811
30252.005319	-1910.381667	383.672852	-31.649801
30252.005319	-1910.381667	382.394531	66.225517
30252.005319	-1910.381667	381.115234	62.385025
30252.005319	-1910.381667	379.835938	147.151489
30252.005319	-1910.381667	378.556641	-57.861431
30252.005319	-1910.381667	377.277344	104.688179
30252.005319	-1910.381667	375.997070	26.114864
30252.005319	-1910.381667	374.716797	12.834703
30252.005319	-1910.381667	373.435547	193.600342
30252.005319	-1910.381667	372.155273	160.824005
30252.005319	-1910.381667	370.874023	180.575867
30252.005319	-1910.381667	369.591797	134.634155
30252.005319	-1910.381667	368.310547	-46.578369
30252.005319	-1910.381667	367.028320	122.157814
30252.005319	-1910.381667	365.746094	-101.730736
30252.005319	-1910.381667	364.463867	43.156670
30252.005319	-1910.381667	363.180664	10.584826
30252.005319	-1910.381667	361.897461	-13.869596
30252.005319	-1910.381667	360.614258	91.985626
30252.005319	-1910.381667	359.330078	108.954567
30252.005319	-1910.381667	358.045898	37.090694
30252.005319	-1910.381667	356.761719	-35.121796
30252.005319	-1910.381667	355.477539	-10.855300
30252.005319	-1910.381667	354.192383	-35.427898
30252.005319	-1910.381667	352.907227	76.368370
30252.005319	-1910.381667	351.622070	-104.761047
30252.005319	-1910.381667	350.336914	-25.441143
30252.005319	-1910.381667	349.050781	61.774754
30252.005319	-1910.381667	347.764648	91.698883
30252.005319	-1910.381667	346.477539	-129.047836
30252.005319	-1910.381667	345.191406	11.267533
30252.005319	-1910.381667	343.904297	12.296453
30252.005319	-1910.381667	342.616211	-58.667305
30252.005319	-1910.381667	341.329102	-83.955055
30252.005319	-1910.381667	340.041016	16.146322
30252.005319	-1910.381667	338.752930	12.727190
30252.005319	-1910.381667	337.463867	-3.930527
30252.005319	-1910.381667	336.175781	-136.627975
30252.005319	-1910.381667	334.886719	19.556353
30252.005319	-1910.381667	333.596680	88.965569
30252.005319	-1910.381667	332.307617	184.908539
30252.005319	-1910.381667	331.017578	-67.973152
30252.005319	-1910.381667	329.727539	-25.955267
30252.005319	-1910.381667	328.436523	-95.828423
30252.005319	-1910.381667	327.146484	-101.506844
30252.005319	-1910.381667	325.855469	-45.193439
30252.005319	-1910.381667	324.563477	-27.478640
30252.005319	-1910.381667	323.272461	-56.694450
30252.005319	-1910.381667	321.980469	49.238865
30252.005319	-1910.381667	320.688477	74.663208
30252.005319	-1910.381667	319.395508	38.410427
30252.005319	-1910.381667	318.103516	-195.436111
30252.005319	-1910.381667	316.810547	-53.748917
30252.005319	-1910.381667	315.516602	80.529602
30252.005319	-1910.381667	314.223633	153.074432
30252.005319	-1910.381667	312.929688	122.036888
30252.005319	-1910.381667	311.635742	20.917040
30252.005319	-1910.381667	310.340820	16.837639
30252.005319	-1910.381667	309.045898	38.713181
30252.005319	-1910.381667	307.750977	136.614426
30252.005319	-1910.381667	306.456055	302.105621
30252.005319	-1910.381667	305.160156	25.748459
30252.005319	-1910.381667	303.865234	52.906586
30252.005319	-1910.381667	302.568359	326.902954
30252.005319	-1910.381667	301.272461	353.256073
30252.005319	-1910.381667	299.975586	286.350800
30252.005319	-1910.381667	298.678711	113.736435
