#X		#Y		#Wave		#Intensity
29750.949468	-1480.213333	1999.980469	-21.855692
29750.949468	-1480.213333	1999.016602	19.283953
29750.949468	-1480.213333	1998.052734	32.983707
29750.949468	-1480.213333	1997.087891	21.918880
29750.949468	-1480.213333	1996.123047	18.313505
29750.949468	-1480.213333	1995.158203	7.299546
29750.949468	-1480.213333	1994.193359	-45.793755
29750.949468	-1480.213333	1993.228516	-17.128784
29750.949468	-1480.213333	1992.262695	1.641779
29750.949468	-1480.213333	1991.297852	74.884438
29750.949468	-1480.213333	1990.332031	34.272736
29750.949468	-1480.213333	1989.366211	8.541881
29750.949468	-1480.213333	1988.399414	0.156551
29750.949468	-1480.213333	1987.433594	78.367210
29750.949468	-1480.213333	1986.466797	5.708361
29750.949468	-1480.213333	1985.500977	-10.034995
29750.949468	-1480.213333	1984.534180	-5.978908
29750.949468	-1480.213333	1983.567383	-19.209410
29750.949468	-1480.213333	1982.599609	-5.235678
29750.949468	-1480.213333	1981.632813	35.928108
29750.949468	-1480.213333	1980.665039	-11.840045
29750.949468	-1480.213333	1979.697266	-12.647702
29750.949468	-1480.213333	1978.729492	21.131414
29750.949468	-1480.213333	1977.761719	5.533742
29750.949468	-1480.213333	1976.792969	4.766235
29750.949468	-1480.213333	1975.825195	-10.794629
29750.949468	-1480.213333	1974.856445	-6.596316
29750.949468	-1480.213333	1973.887695	5.015152
29750.949468	-1480.213333	1972.918945	43.768257
29750.949468	-1480.213333	1971.949219	-13.662731
29750.949468	-1480.213333	1970.980469	10.309738
29750.949468	-1480.213333	1970.010742	9.631915
29750.949468	-1480.213333	1969.041016	-52.654694
29750.949468	-1480.213333	1968.071289	10.775774
29750.949468	-1480.213333	1967.101563	-24.362637
29750.949468	-1480.213333	1966.130859	9.498918
29750.949468	-1480.213333	1965.161133	-10.827210
29750.949468	-1480.213333	1964.190430	-4.048108
29750.949468	-1480.213333	1963.219727	-29.268791
29750.949468	-1480.213333	1962.249023	-17.546244
29750.949468	-1480.213333	1961.277344	-0.896818
29750.949468	-1480.213333	1960.306641	32.980839
29750.949468	-1480.213333	1959.334961	52.092770
29750.949468	-1480.213333	1958.363281	-9.967031
29750.949468	-1480.213333	1957.391602	60.808380
29750.949468	-1480.213333	1956.419922	47.963791
29750.949468	-1480.213333	1955.447266	27.756178
29750.949468	-1480.213333	1954.474609	-14.558125
29750.949468	-1480.213333	1953.501953	-2.784416
29750.949468	-1480.213333	1952.529297	36.019569
29750.949468	-1480.213333	1951.556641	1.118243
29750.949468	-1480.213333	1950.583984	64.481712
29750.949468	-1480.213333	1949.610352	71.347252
29750.949468	-1480.213333	1948.636719	-12.626855
29750.949468	-1480.213333	1947.663086	55.631439
29750.949468	-1480.213333	1946.689453	60.058197
29750.949468	-1480.213333	1945.715820	-21.395985
29750.949468	-1480.213333	1944.741211	54.202381
29750.949468	-1480.213333	1943.767578	24.301620
29750.949468	-1480.213333	1942.792969	21.393932
29750.949468	-1480.213333	1941.818359	8.683973
29750.949468	-1480.213333	1940.842773	22.950235
29750.949468	-1480.213333	1939.868164	0.449128
29750.949468	-1480.213333	1938.892578	29.423996
29750.949468	-1480.213333	1937.916992	55.941921
29750.949468	-1480.213333	1936.941406	43.257847
29750.949468	-1480.213333	1935.965820	-3.707864
29750.949468	-1480.213333	1934.990234	-16.368963
29750.949468	-1480.213333	1934.013672	12.599968
29750.949468	-1480.213333	1933.037109	2.394547
29750.949468	-1480.213333	1932.060547	-32.278664
29750.949468	-1480.213333	1931.083984	18.709021
29750.949468	-1480.213333	1930.107422	-6.162635
29750.949468	-1480.213333	1929.129883	-4.115852
29750.949468	-1480.213333	1928.153320	46.845600
29750.949468	-1480.213333	1927.175781	7.318340
29750.949468	-1480.213333	1926.198242	-24.857977
29750.949468	-1480.213333	1925.219727	45.638702
29750.949468	-1480.213333	1924.242188	-6.079430
29750.949468	-1480.213333	1923.263672	59.504189
29750.949468	-1480.213333	1922.285156	24.905861
29750.949468	-1480.213333	1921.306641	34.285976
29750.949468	-1480.213333	1920.328125	-17.385990
29750.949468	-1480.213333	1919.349609	-5.557671
29750.949468	-1480.213333	1918.370117	-5.938236
29750.949468	-1480.213333	1917.391602	-11.198820
29750.949468	-1480.213333	1916.412109	25.025936
29750.949468	-1480.213333	1915.431641	12.443439
29750.949468	-1480.213333	1914.452148	2.305651
29750.949468	-1480.213333	1913.472656	4.366065
29750.949468	-1480.213333	1912.492188	8.864261
29750.949468	-1480.213333	1911.511719	-3.704323
29750.949468	-1480.213333	1910.531250	32.480770
29750.949468	-1480.213333	1909.550781	22.349733
29750.949468	-1480.213333	1908.569336	26.841257
29750.949468	-1480.213333	1907.588867	-0.337608
29750.949468	-1480.213333	1906.607422	40.690372
29750.949468	-1480.213333	1905.625977	15.953362
29750.949468	-1480.213333	1904.644531	61.831524
29750.949468	-1480.213333	1903.662109	10.321899
29750.949468	-1480.213333	1902.680664	-48.470249
29750.949468	-1480.213333	1901.698242	9.559002
29750.949468	-1480.213333	1900.715820	-15.152257
29750.949468	-1480.213333	1899.733398	-10.665996
29750.949468	-1480.213333	1898.750000	37.593086
29750.949468	-1480.213333	1897.767578	-55.195026
29750.949468	-1480.213333	1896.784180	73.277573
29750.949468	-1480.213333	1895.800781	-12.193109
29750.949468	-1480.213333	1894.817383	40.886154
29750.949468	-1480.213333	1893.833984	1.615386
29750.949468	-1480.213333	1892.850586	-6.061749
29750.949468	-1480.213333	1891.866211	-25.881590
29750.949468	-1480.213333	1890.881836	19.869736
29750.949468	-1480.213333	1889.897461	14.616731
29750.949468	-1480.213333	1888.913086	-31.902201
29750.949468	-1480.213333	1887.927734	18.673590
29750.949468	-1480.213333	1886.943359	-13.272930
29750.949468	-1480.213333	1885.958008	3.312052
29750.949468	-1480.213333	1884.972656	-57.730865
29750.949468	-1480.213333	1883.987305	67.984741
29750.949468	-1480.213333	1883.001953	55.443085
29750.949468	-1480.213333	1882.015625	-5.581193
29750.949468	-1480.213333	1881.029297	47.334064
29750.949468	-1480.213333	1880.042969	10.563569
29750.949468	-1480.213333	1879.056641	-9.235004
29750.949468	-1480.213333	1878.070313	41.222481
29750.949468	-1480.213333	1877.083984	9.311357
29750.949468	-1480.213333	1876.096680	25.840321
29750.949468	-1480.213333	1875.109375	54.466293
29750.949468	-1480.213333	1874.122070	-40.372528
29750.949468	-1480.213333	1873.134766	36.653896
29750.949468	-1480.213333	1872.146484	14.440454
29750.949468	-1480.213333	1871.159180	-0.509017
29750.949468	-1480.213333	1870.170898	-10.617978
29750.949468	-1480.213333	1869.182617	-25.562134
29750.949468	-1480.213333	1868.194336	51.376873
29750.949468	-1480.213333	1867.205078	58.178394
29750.949468	-1480.213333	1866.216797	16.635235
29750.949468	-1480.213333	1865.227539	66.933289
29750.949468	-1480.213333	1864.238281	39.895050
29750.949468	-1480.213333	1863.249023	27.358257
29750.949468	-1480.213333	1862.259766	58.296768
29750.949468	-1480.213333	1861.269531	31.267313
29750.949468	-1480.213333	1860.279297	52.530750
29750.949468	-1480.213333	1859.290039	49.645546
29750.949468	-1480.213333	1858.298828	8.144351
29750.949468	-1480.213333	1857.308594	2.849953
29750.949468	-1480.213333	1856.318359	7.204706
29750.949468	-1480.213333	1855.327148	-14.977345
29750.949468	-1480.213333	1854.335938	47.250587
29750.949468	-1480.213333	1853.344727	17.830389
29750.949468	-1480.213333	1852.353516	-13.992105
29750.949468	-1480.213333	1851.362305	40.961567
29750.949468	-1480.213333	1850.370117	38.057686
29750.949468	-1480.213333	1849.377930	18.287004
29750.949468	-1480.213333	1848.385742	-30.385033
29750.949468	-1480.213333	1847.393555	-16.423761
29750.949468	-1480.213333	1846.401367	11.976965
29750.949468	-1480.213333	1845.408203	83.698563
29750.949468	-1480.213333	1844.415039	1.340675
29750.949468	-1480.213333	1843.421875	-11.198497
29750.949468	-1480.213333	1842.428711	-30.954239
29750.949468	-1480.213333	1841.435547	23.870205
29750.949468	-1480.213333	1840.441406	23.350937
29750.949468	-1480.213333	1839.448242	-22.861156
29750.949468	-1480.213333	1838.454102	53.560696
29750.949468	-1480.213333	1837.459961	57.835194
29750.949468	-1480.213333	1836.464844	59.701515
29750.949468	-1480.213333	1835.470703	59.161522
29750.949468	-1480.213333	1834.475586	44.203594
29750.949468	-1480.213333	1833.480469	19.640184
29750.949468	-1480.213333	1832.485352	4.689563
29750.949468	-1480.213333	1831.490234	59.374805
29750.949468	-1480.213333	1830.495117	-30.004766
29750.949468	-1480.213333	1829.499023	3.058208
29750.949468	-1480.213333	1828.502930	45.704937
29750.949468	-1480.213333	1827.506836	-22.036495
29750.949468	-1480.213333	1826.510742	20.593199
29750.949468	-1480.213333	1825.513672	15.235034
29750.949468	-1480.213333	1824.517578	26.662302
29750.949468	-1480.213333	1823.520508	69.249916
29750.949468	-1480.213333	1822.523438	32.715286
29750.949468	-1480.213333	1821.526367	12.967840
29750.949468	-1480.213333	1820.529297	26.771509
29750.949468	-1480.213333	1819.531250	-14.534707
29750.949468	-1480.213333	1818.533203	1.658209
29750.949468	-1480.213333	1817.535156	87.291794
29750.949468	-1480.213333	1816.537109	43.594955
29750.949468	-1480.213333	1815.539063	-12.057796
29750.949468	-1480.213333	1814.540039	11.291436
29750.949468	-1480.213333	1813.541992	5.913436
29750.949468	-1480.213333	1812.542969	69.918427
29750.949468	-1480.213333	1811.543945	-14.413662
29750.949468	-1480.213333	1810.543945	30.432060
29750.949468	-1480.213333	1809.544922	39.390583
29750.949468	-1480.213333	1808.544922	91.376068
29750.949468	-1480.213333	1807.544922	47.727535
29750.949468	-1480.213333	1806.544922	49.499939
29750.949468	-1480.213333	1805.544922	10.649352
29750.949468	-1480.213333	1804.544922	45.867928
29750.949468	-1480.213333	1803.543945	81.070320
29750.949468	-1480.213333	1802.542969	20.735342
29750.949468	-1480.213333	1801.541992	1.009619
29750.949468	-1480.213333	1800.541016	-9.162618
29750.949468	-1480.213333	1799.539063	23.626200
29750.949468	-1480.213333	1798.538086	27.765827
29750.949468	-1480.213333	1797.536133	8.043301
29750.949468	-1480.213333	1796.534180	45.573555
29750.949468	-1480.213333	1795.532227	37.774582
29750.949468	-1480.213333	1794.529297	-1.021752
29750.949468	-1480.213333	1793.527344	55.553467
29750.949468	-1480.213333	1792.524414	54.899921
29750.949468	-1480.213333	1791.521484	42.328968
29750.949468	-1480.213333	1790.518555	24.995171
29750.949468	-1480.213333	1789.514648	-25.685013
29750.949468	-1480.213333	1788.511719	-9.659913
29750.949468	-1480.213333	1787.507813	-26.981403
29750.949468	-1480.213333	1786.503906	53.314842
29750.949468	-1480.213333	1785.500000	5.038901
29750.949468	-1480.213333	1784.496094	16.276735
29750.949468	-1480.213333	1783.491211	13.231047
29750.949468	-1480.213333	1782.486328	17.321247
29750.949468	-1480.213333	1781.481445	47.571896
29750.949468	-1480.213333	1780.476563	18.356302
29750.949468	-1480.213333	1779.471680	-20.360781
29750.949468	-1480.213333	1778.465820	52.662643
29750.949468	-1480.213333	1777.460938	23.456434
29750.949468	-1480.213333	1776.455078	8.516659
29750.949468	-1480.213333	1775.449219	-4.043537
29750.949468	-1480.213333	1774.442383	-21.352274
29750.949468	-1480.213333	1773.436523	-14.906534
29750.949468	-1480.213333	1772.429688	8.155944
29750.949468	-1480.213333	1771.422852	-6.777026
29750.949468	-1480.213333	1770.416016	23.391994
29750.949468	-1480.213333	1769.409180	-50.870541
29750.949468	-1480.213333	1768.402344	38.608974
29750.949468	-1480.213333	1767.394531	-14.282205
29750.949468	-1480.213333	1766.386719	49.062611
29750.949468	-1480.213333	1765.378906	-18.042099
29750.949468	-1480.213333	1764.371094	2.599736
29750.949468	-1480.213333	1763.362305	13.749870
29750.949468	-1480.213333	1762.354492	13.044538
29750.949468	-1480.213333	1761.345703	-35.053329
29750.949468	-1480.213333	1760.336914	-4.954843
29750.949468	-1480.213333	1759.328125	36.973682
29750.949468	-1480.213333	1758.318359	19.679670
29750.949468	-1480.213333	1757.308594	23.700245
29750.949468	-1480.213333	1756.299805	39.554474
29750.949468	-1480.213333	1755.290039	-13.237350
29750.949468	-1480.213333	1754.279297	26.277800
29750.949468	-1480.213333	1753.269531	4.262668
29750.949468	-1480.213333	1752.258789	43.756462
29750.949468	-1480.213333	1751.249023	-1.906802
29750.949468	-1480.213333	1750.238281	37.570133
29750.949468	-1480.213333	1749.226563	65.209633
29750.949468	-1480.213333	1748.215820	-34.800892
29750.949468	-1480.213333	1747.204102	-2.434453
29750.949468	-1480.213333	1746.193359	-14.973962
29750.949468	-1480.213333	1745.181641	-13.336408
29750.949468	-1480.213333	1744.168945	87.497398
29750.949468	-1480.213333	1743.157227	22.992350
29750.949468	-1480.213333	1742.144531	-8.436272
29750.949468	-1480.213333	1741.132813	2.635904
29750.949468	-1480.213333	1740.120117	-33.499378
29750.949468	-1480.213333	1739.106445	38.920231
29750.949468	-1480.213333	1738.093750	52.332294
29750.949468	-1480.213333	1737.080078	37.432846
29750.949468	-1480.213333	1736.067383	17.822042
29750.949468	-1480.213333	1735.053711	52.447018
29750.949468	-1480.213333	1734.040039	32.838211
29750.949468	-1480.213333	1733.025391	-83.398293
29750.949468	-1480.213333	1732.011719	-25.212137
29750.949468	-1480.213333	1730.997070	23.526424
29750.949468	-1480.213333	1729.982422	-21.977610
29750.949468	-1480.213333	1728.967773	52.646149
29750.949468	-1480.213333	1727.952148	-11.685670
29750.949468	-1480.213333	1726.937500	65.260155
29750.949468	-1480.213333	1725.921875	10.363978
29750.949468	-1480.213333	1724.906250	-20.978893
29750.949468	-1480.213333	1723.890625	81.803223
29750.949468	-1480.213333	1722.875000	57.514431
29750.949468	-1480.213333	1721.858398	40.289612
29750.949468	-1480.213333	1720.841797	23.070713
29750.949468	-1480.213333	1719.825195	62.283417
29750.949468	-1480.213333	1718.808594	-25.453106
29750.949468	-1480.213333	1717.791992	23.153278
29750.949468	-1480.213333	1716.774414	29.444851
29750.949468	-1480.213333	1715.756836	0.494543
29750.949468	-1480.213333	1714.739258	-23.747793
29750.949468	-1480.213333	1713.721680	-55.026398
29750.949468	-1480.213333	1712.704102	5.275455
29750.949468	-1480.213333	1711.685547	18.603682
29750.949468	-1480.213333	1710.667969	-26.748667
29750.949468	-1480.213333	1709.649414	-55.658577
29750.949468	-1480.213333	1708.630859	35.094337
29750.949468	-1480.213333	1707.611328	-36.039726
29750.949468	-1480.213333	1706.592773	10.114598
29750.949468	-1480.213333	1705.573242	23.423737
29750.949468	-1480.213333	1704.553711	-61.734207
29750.949468	-1480.213333	1703.534180	28.930584
29750.949468	-1480.213333	1702.513672	-18.702013
29750.949468	-1480.213333	1701.494141	-14.770709
29750.949468	-1480.213333	1700.473633	0.870945
29750.949468	-1480.213333	1699.453125	21.190529
29750.949468	-1480.213333	1698.432617	25.110676
29750.949468	-1480.213333	1697.412109	-3.747133
29750.949468	-1480.213333	1696.390625	-9.187347
29750.949468	-1480.213333	1695.369141	-19.306229
29750.949468	-1480.213333	1694.347656	68.851448
29750.949468	-1480.213333	1693.326172	-62.926086
29750.949468	-1480.213333	1692.304688	29.883768
29750.949468	-1480.213333	1691.282227	-1.281733
29750.949468	-1480.213333	1690.260742	11.987644
29750.949468	-1480.213333	1689.238281	-12.149810
29750.949468	-1480.213333	1688.214844	-50.301128
29750.949468	-1480.213333	1687.192383	21.386673
29750.949468	-1480.213333	1686.168945	43.985580
29750.949468	-1480.213333	1685.146484	5.846138
29750.949468	-1480.213333	1684.123047	51.792896
29750.949468	-1480.213333	1683.099609	51.024509
29750.949468	-1480.213333	1682.075195	12.905233
29750.949468	-1480.213333	1681.051758	9.810997
29750.949468	-1480.213333	1680.027344	32.386547
29750.949468	-1480.213333	1679.002930	-15.038851
29750.949468	-1480.213333	1677.978516	-32.121544
29750.949468	-1480.213333	1676.953125	-7.218591
29750.949468	-1480.213333	1675.928711	10.680452
29750.949468	-1480.213333	1674.903320	16.915892
29750.949468	-1480.213333	1673.877930	41.795998
29750.949468	-1480.213333	1672.852539	-19.557379
29750.949468	-1480.213333	1671.826172	14.640061
29750.949468	-1480.213333	1670.800781	-9.411793
29750.949468	-1480.213333	1669.774414	27.100395
29750.949468	-1480.213333	1668.748047	-50.501801
29750.949468	-1480.213333	1667.721680	62.833763
29750.949468	-1480.213333	1666.694336	1.548740
29750.949468	-1480.213333	1665.667969	45.014400
29750.949468	-1480.213333	1664.640625	44.254166
29750.949468	-1480.213333	1663.613281	31.863047
29750.949468	-1480.213333	1662.585938	72.972778
29750.949468	-1480.213333	1661.557617	-11.507217
29750.949468	-1480.213333	1660.530273	-5.278670
29750.949468	-1480.213333	1659.501953	93.929413
29750.949468	-1480.213333	1658.473633	-6.772474
29750.949468	-1480.213333	1657.444336	43.601650
29750.949468	-1480.213333	1656.416016	82.341614
29750.949468	-1480.213333	1655.386719	60.675331
29750.949468	-1480.213333	1654.358398	8.828780
29750.949468	-1480.213333	1653.328125	38.266685
29750.949468	-1480.213333	1652.298828	-13.554499
29750.949468	-1480.213333	1651.269531	62.297371
29750.949468	-1480.213333	1650.239258	-15.032911
29750.949468	-1480.213333	1649.208984	5.109824
29750.949468	-1480.213333	1648.178711	2.049571
29750.949468	-1480.213333	1647.148438	17.544525
29750.949468	-1480.213333	1646.117188	16.802959
29750.949468	-1480.213333	1645.086914	18.381285
29750.949468	-1480.213333	1644.055664	1.416973
29750.949468	-1480.213333	1643.024414	16.903204
29750.949468	-1480.213333	1641.992188	-9.320519
29750.949468	-1480.213333	1640.960938	33.961140
29750.949468	-1480.213333	1639.928711	17.010294
29750.949468	-1480.213333	1638.896484	48.693779
29750.949468	-1480.213333	1637.864258	43.324234
29750.949468	-1480.213333	1636.832031	84.251038
29750.949468	-1480.213333	1635.798828	55.736061
29750.949468	-1480.213333	1634.766602	82.764038
29750.949468	-1480.213333	1633.733398	38.069386
29750.949468	-1480.213333	1632.699219	72.030174
29750.949468	-1480.213333	1631.666016	43.543976
29750.949468	-1480.213333	1630.632813	31.253885
29750.949468	-1480.213333	1629.598633	86.003326
29750.949468	-1480.213333	1628.564453	55.222828
29750.949468	-1480.213333	1627.530273	-19.446226
29750.949468	-1480.213333	1626.495117	65.316513
29750.949468	-1480.213333	1625.460938	25.322657
29750.949468	-1480.213333	1624.425781	73.097786
29750.949468	-1480.213333	1623.390625	21.575974
29750.949468	-1480.213333	1622.355469	67.027374
29750.949468	-1480.213333	1621.319336	-0.626824
29750.949468	-1480.213333	1620.284180	65.581108
29750.949468	-1480.213333	1619.248047	113.307983
29750.949468	-1480.213333	1618.211914	98.739708
29750.949468	-1480.213333	1617.174805	63.422710
29750.949468	-1480.213333	1616.138672	37.343994
29750.949468	-1480.213333	1615.101563	64.296867
29750.949468	-1480.213333	1614.065430	12.878299
29750.949468	-1480.213333	1613.027344	49.045109
29750.949468	-1480.213333	1611.990234	122.062073
29750.949468	-1480.213333	1610.953125	33.810951
29750.949468	-1480.213333	1609.915039	23.896919
29750.949468	-1480.213333	1608.876953	9.383174
29750.949468	-1480.213333	1607.838867	34.012283
29750.949468	-1480.213333	1606.800781	54.029984
29750.949468	-1480.213333	1605.761719	97.052925
29750.949468	-1480.213333	1604.723633	18.121174
29750.949468	-1480.213333	1603.684570	1.329456
29750.949468	-1480.213333	1602.644531	9.843808
29750.949468	-1480.213333	1601.605469	80.440849
29750.949468	-1480.213333	1600.566406	45.259823
29750.949468	-1480.213333	1599.526367	76.750511
29750.949468	-1480.213333	1598.486328	184.066544
29750.949468	-1480.213333	1597.446289	52.390427
29750.949468	-1480.213333	1596.405273	83.865685
29750.949468	-1480.213333	1595.365234	117.627441
29750.949468	-1480.213333	1594.324219	61.822823
29750.949468	-1480.213333	1593.283203	123.128281
29750.949468	-1480.213333	1592.242188	58.166271
29750.949468	-1480.213333	1591.200195	85.027702
29750.949468	-1480.213333	1590.159180	40.752090
29750.949468	-1480.213333	1589.117188	76.785912
29750.949468	-1480.213333	1588.075195	85.284485
29750.949468	-1480.213333	1587.032227	96.074211
29750.949468	-1480.213333	1585.990234	58.715710
29750.949468	-1480.213333	1584.947266	106.185608
29750.949468	-1480.213333	1583.904297	-2.202439
29750.949468	-1480.213333	1582.861328	29.225031
29750.949468	-1480.213333	1581.818359	49.187515
29750.949468	-1480.213333	1580.775391	96.629356
29750.949468	-1480.213333	1579.731445	73.064339
29750.949468	-1480.213333	1578.687500	56.379101
29750.949468	-1480.213333	1577.643555	53.436680
29750.949468	-1480.213333	1576.598633	-13.585064
29750.949468	-1480.213333	1575.554688	56.713440
29750.949468	-1480.213333	1574.509766	65.216698
29750.949468	-1480.213333	1573.464844	101.166069
29750.949468	-1480.213333	1572.419922	91.366241
29750.949468	-1480.213333	1571.374023	49.562233
29750.949468	-1480.213333	1570.329102	0.919084
29750.949468	-1480.213333	1569.283203	66.571693
29750.949468	-1480.213333	1568.237305	72.789124
29750.949468	-1480.213333	1567.191406	5.898637
29750.949468	-1480.213333	1566.144531	34.970577
29750.949468	-1480.213333	1565.098633	36.629078
29750.949468	-1480.213333	1564.051758	33.721947
29750.949468	-1480.213333	1563.004883	53.646034
29750.949468	-1480.213333	1561.957031	43.893303
29750.949468	-1480.213333	1560.910156	66.093506
29750.949468	-1480.213333	1559.862305	42.657433
29750.949468	-1480.213333	1558.814453	67.133919
29750.949468	-1480.213333	1557.766602	7.221695
29750.949468	-1480.213333	1556.718750	-27.583622
29750.949468	-1480.213333	1555.669922	-9.940812
29750.949468	-1480.213333	1554.621094	48.723106
29750.949468	-1480.213333	1553.573242	-31.639130
29750.949468	-1480.213333	1552.523438	20.174850
29750.949468	-1480.213333	1551.474609	28.691082
29750.949468	-1480.213333	1550.424805	-8.342919
29750.949468	-1480.213333	1549.375000	22.949404
29750.949468	-1480.213333	1548.325195	-16.341120
29750.949468	-1480.213333	1547.275391	10.392450
29750.949468	-1480.213333	1546.225586	116.765228
29750.949468	-1480.213333	1545.174805	68.384705
29750.949468	-1480.213333	1544.124023	70.069916
29750.949468	-1480.213333	1543.073242	49.013504
29750.949468	-1480.213333	1542.022461	39.336815
29750.949468	-1480.213333	1540.970703	4.658439
29750.949468	-1480.213333	1539.919922	-7.274173
29750.949468	-1480.213333	1538.868164	-28.290239
29750.949468	-1480.213333	1537.815430	9.777363
29750.949468	-1480.213333	1536.763672	31.931200
29750.949468	-1480.213333	1535.710938	44.993553
29750.949468	-1480.213333	1534.659180	69.406914
29750.949468	-1480.213333	1533.606445	-15.160233
29750.949468	-1480.213333	1532.552734	22.878185
29750.949468	-1480.213333	1531.500000	-4.907667
29750.949468	-1480.213333	1530.446289	10.428905
29750.949468	-1480.213333	1529.393555	16.688160
29750.949468	-1480.213333	1528.338867	18.410637
29750.949468	-1480.213333	1527.285156	-20.681498
29750.949468	-1480.213333	1526.231445	39.997780
29750.949468	-1480.213333	1525.176758	53.054893
29750.949468	-1480.213333	1524.122070	25.316782
29750.949468	-1480.213333	1523.067383	92.755013
29750.949468	-1480.213333	1522.012695	99.004829
29750.949468	-1480.213333	1520.957031	41.837227
29750.949468	-1480.213333	1519.901367	79.801178
29750.949468	-1480.213333	1518.845703	-2.239296
29750.949468	-1480.213333	1517.790039	51.567730
29750.949468	-1480.213333	1516.734375	62.357029
29750.949468	-1480.213333	1515.677734	23.365780
29750.949468	-1480.213333	1514.621094	27.374147
29750.949468	-1480.213333	1513.564453	-27.422308
29750.949468	-1480.213333	1512.507813	44.438454
29750.949468	-1480.213333	1511.450195	25.838516
29750.949468	-1480.213333	1510.393555	66.019211
29750.949468	-1480.213333	1509.335938	27.087488
29750.949468	-1480.213333	1508.278320	-0.528923
29750.949468	-1480.213333	1507.219727	-55.241020
29750.949468	-1480.213333	1506.162109	41.398567
29750.949468	-1480.213333	1505.103516	-22.328028
29750.949468	-1480.213333	1504.044922	-47.645668
29750.949468	-1480.213333	1502.986328	21.854582
29750.949468	-1480.213333	1501.926758	-21.511822
29750.949468	-1480.213333	1500.868164	7.345654
29750.949468	-1480.213333	1499.808594	0.099056
29750.949468	-1480.213333	1498.749023	28.945507
29750.949468	-1480.213333	1497.688477	46.507477
29750.949468	-1480.213333	1496.628906	-5.827154
29750.949468	-1480.213333	1495.568359	106.413361
29750.949468	-1480.213333	1494.507813	-20.279558
29750.949468	-1480.213333	1493.447266	-22.991356
29750.949468	-1480.213333	1492.386719	28.367567
29750.949468	-1480.213333	1491.325195	-3.628646
29750.949468	-1480.213333	1490.263672	61.222115
29750.949468	-1480.213333	1489.202148	49.500046
29750.949468	-1480.213333	1488.140625	-16.239187
29750.949468	-1480.213333	1487.079102	-14.432960
29750.949468	-1480.213333	1486.016602	-44.126747
29750.949468	-1480.213333	1484.954102	-6.316454
29750.949468	-1480.213333	1483.891602	20.235226
29750.949468	-1480.213333	1482.829102	8.549775
29750.949468	-1480.213333	1481.765625	68.816841
29750.949468	-1480.213333	1480.702148	7.677218
29750.949468	-1480.213333	1479.638672	-1.741642
29750.949468	-1480.213333	1478.575195	38.273026
29750.949468	-1480.213333	1477.511719	-16.073095
29750.949468	-1480.213333	1476.447266	39.654037
29750.949468	-1480.213333	1475.382813	1.034913
29750.949468	-1480.213333	1474.318359	-37.523731
29750.949468	-1480.213333	1473.253906	9.198685
29750.949468	-1480.213333	1472.189453	71.611580
29750.949468	-1480.213333	1471.124023	-49.939610
29750.949468	-1480.213333	1470.058594	-0.970975
29750.949468	-1480.213333	1468.993164	-12.610076
29750.949468	-1480.213333	1467.927734	-10.782330
29750.949468	-1480.213333	1466.861328	49.319492
29750.949468	-1480.213333	1465.794922	4.127295
29750.949468	-1480.213333	1464.728516	-18.679111
29750.949468	-1480.213333	1463.662109	-10.102659
29750.949468	-1480.213333	1462.594727	23.127634
29750.949468	-1480.213333	1461.528320	47.194160
29750.949468	-1480.213333	1460.460938	-6.755883
29750.949468	-1480.213333	1459.393555	-33.977859
29750.949468	-1480.213333	1458.326172	-52.201756
29750.949468	-1480.213333	1457.257813	-1.253861
29750.949468	-1480.213333	1456.189453	-8.350856
29750.949468	-1480.213333	1455.121094	13.528743
29750.949468	-1480.213333	1454.052734	31.016768
29750.949468	-1480.213333	1452.984375	28.538141
29750.949468	-1480.213333	1451.915039	52.899757
29750.949468	-1480.213333	1450.845703	28.091228
29750.949468	-1480.213333	1449.776367	25.392458
29750.949468	-1480.213333	1448.707031	-26.157984
29750.949468	-1480.213333	1447.636719	-11.212790
29750.949468	-1480.213333	1446.567383	59.702969
29750.949468	-1480.213333	1445.497070	-7.164326
29750.949468	-1480.213333	1444.425781	-27.876074
29750.949468	-1480.213333	1443.355469	18.491491
29750.949468	-1480.213333	1442.285156	49.241493
29750.949468	-1480.213333	1441.213867	55.599674
29750.949468	-1480.213333	1440.142578	-30.933887
29750.949468	-1480.213333	1439.070313	21.678572
29750.949468	-1480.213333	1437.999023	-88.972588
29750.949468	-1480.213333	1436.926758	42.943413
29750.949468	-1480.213333	1435.854492	20.998661
29750.949468	-1480.213333	1434.782227	57.875526
29750.949468	-1480.213333	1433.709961	-17.566496
29750.949468	-1480.213333	1432.636719	15.689608
29750.949468	-1480.213333	1431.563477	-48.514179
29750.949468	-1480.213333	1430.490234	1.422118
29750.949468	-1480.213333	1429.416992	-3.055589
29750.949468	-1480.213333	1428.343750	4.666831
29750.949468	-1480.213333	1427.269531	-6.061319
29750.949468	-1480.213333	1426.195313	32.800663
29750.949468	-1480.213333	1425.121094	23.928801
29750.949468	-1480.213333	1424.046875	-26.485392
29750.949468	-1480.213333	1422.971680	40.463310
29750.949468	-1480.213333	1421.896484	9.840871
29750.949468	-1480.213333	1420.821289	28.482973
29750.949468	-1480.213333	1419.746094	5.312704
29750.949468	-1480.213333	1418.669922	29.143986
29750.949468	-1480.213333	1417.594727	-28.577797
29750.949468	-1480.213333	1416.518555	-10.692328
29750.949468	-1480.213333	1415.442383	41.139046
29750.949468	-1480.213333	1414.365234	-37.452362
29750.949468	-1480.213333	1413.289063	5.182306
29750.949468	-1480.213333	1412.211914	47.412487
29750.949468	-1480.213333	1411.134766	74.534470
29750.949468	-1480.213333	1410.057617	-4.750088
29750.949468	-1480.213333	1408.979492	50.296326
29750.949468	-1480.213333	1407.902344	-16.900347
29750.949468	-1480.213333	1406.824219	-31.333197
29750.949468	-1480.213333	1405.746094	32.119495
29750.949468	-1480.213333	1404.666992	-13.483458
29750.949468	-1480.213333	1403.588867	-23.802559
29750.949468	-1480.213333	1402.509766	43.472588
29750.949468	-1480.213333	1401.430664	27.839539
29750.949468	-1480.213333	1400.351563	52.736279
29750.949468	-1480.213333	1399.271484	24.965406
29750.949468	-1480.213333	1398.192383	51.980652
29750.949468	-1480.213333	1397.112305	-6.817234
29750.949468	-1480.213333	1396.031250	28.871794
29750.949468	-1480.213333	1394.951172	-56.318130
29750.949468	-1480.213333	1393.871094	-18.441458
29750.949468	-1480.213333	1392.790039	29.795153
29750.949468	-1480.213333	1391.708984	70.079308
29750.949468	-1480.213333	1390.626953	41.592522
29750.949468	-1480.213333	1389.545898	-3.085644
29750.949468	-1480.213333	1388.463867	73.460846
29750.949468	-1480.213333	1387.381836	45.478176
29750.949468	-1480.213333	1386.299805	110.701324
29750.949468	-1480.213333	1385.217773	69.145546
29750.949468	-1480.213333	1384.134766	17.706234
29750.949468	-1480.213333	1383.051758	27.037169
29750.949468	-1480.213333	1381.968750	88.998566
29750.949468	-1480.213333	1380.885742	40.553307
29750.949468	-1480.213333	1379.802734	50.342129
29750.949468	-1480.213333	1378.718750	-8.451962
29750.949468	-1480.213333	1377.634766	81.724823
29750.949468	-1480.213333	1376.550781	30.715862
29750.949468	-1480.213333	1375.465820	100.955757
29750.949468	-1480.213333	1374.381836	16.594669
29750.949468	-1480.213333	1373.296875	144.904053
29750.949468	-1480.213333	1372.211914	79.293747
29750.949468	-1480.213333	1371.126953	67.210663
29750.949468	-1480.213333	1370.041016	131.260284
29750.949468	-1480.213333	1368.955078	68.004341
29750.949468	-1480.213333	1367.869141	50.122379
29750.949468	-1480.213333	1366.783203	1.055054
29750.949468	-1480.213333	1365.697266	5.254019
29750.949468	-1480.213333	1364.610352	5.645592
29750.949468	-1480.213333	1363.523438	7.705656
29750.949468	-1480.213333	1362.436523	-35.238045
29750.949468	-1480.213333	1361.349609	68.239525
29750.949468	-1480.213333	1360.261719	17.475344
29750.949468	-1480.213333	1359.174805	37.645523
29750.949468	-1480.213333	1358.086914	-8.354296
29750.949468	-1480.213333	1356.998047	53.755783
29750.949468	-1480.213333	1355.910156	-37.000595
29750.949468	-1480.213333	1354.821289	22.056517
29750.949468	-1480.213333	1353.732422	25.766996
29750.949468	-1480.213333	1352.643555	-14.376858
29750.949468	-1480.213333	1351.554688	33.914001
29750.949468	-1480.213333	1350.464844	-71.704712
29750.949468	-1480.213333	1349.375000	35.277767
29750.949468	-1480.213333	1348.285156	31.101055
29750.949468	-1480.213333	1347.195313	-4.318362
29750.949468	-1480.213333	1346.105469	27.379612
29750.949468	-1480.213333	1345.014648	47.040638
29750.949468	-1480.213333	1343.923828	36.944393
29750.949468	-1480.213333	1342.833008	136.097336
29750.949468	-1480.213333	1341.741211	-32.313065
29750.949468	-1480.213333	1340.650391	56.588707
29750.949468	-1480.213333	1339.558594	4.718855
29750.949468	-1480.213333	1338.466797	54.334709
29750.949468	-1480.213333	1337.374023	56.350426
29750.949468	-1480.213333	1336.282227	53.920326
29750.949468	-1480.213333	1335.189453	-2.840896
29750.949468	-1480.213333	1334.096680	21.134514
29750.949468	-1480.213333	1333.003906	16.224106
29750.949468	-1480.213333	1331.910156	0.451779
29750.949468	-1480.213333	1330.817383	30.826698
29750.949468	-1480.213333	1329.723633	-1.038743
29750.949468	-1480.213333	1328.629883	27.115459
29750.949468	-1480.213333	1327.535156	34.303082
29750.949468	-1480.213333	1326.441406	40.020824
29750.949468	-1480.213333	1325.346680	30.980698
29750.949468	-1480.213333	1324.251953	3.662798
29750.949468	-1480.213333	1323.156250	91.183075
29750.949468	-1480.213333	1322.061523	6.179214
29750.949468	-1480.213333	1320.965820	95.635086
29750.949468	-1480.213333	1319.870117	26.194229
29750.949468	-1480.213333	1318.774414	27.157778
29750.949468	-1480.213333	1317.678711	23.982750
29750.949468	-1480.213333	1316.582031	5.094918
29750.949468	-1480.213333	1315.485352	-7.015871
29750.949468	-1480.213333	1314.388672	-41.906151
29750.949468	-1480.213333	1313.291016	73.852303
29750.949468	-1480.213333	1312.194336	60.637863
29750.949468	-1480.213333	1311.096680	39.277569
29750.949468	-1480.213333	1309.999023	13.659702
29750.949468	-1480.213333	1308.901367	10.415469
29750.949468	-1480.213333	1307.802734	0.690260
29750.949468	-1480.213333	1306.705078	42.990738
29750.949468	-1480.213333	1305.606445	1.594147
29750.949468	-1480.213333	1304.506836	20.363146
29750.949468	-1480.213333	1303.408203	31.425850
29750.949468	-1480.213333	1302.308594	43.887028
29750.949468	-1480.213333	1301.208984	26.101618
29750.949468	-1480.213333	1300.109375	-23.316256
29750.949468	-1480.213333	1299.009766	-28.833162
29750.949468	-1480.213333	1297.909180	69.294075
29750.949468	-1480.213333	1296.808594	24.604475
29750.949468	-1480.213333	1295.708008	20.033451
29750.949468	-1480.213333	1294.607422	70.248100
29750.949468	-1480.213333	1293.506836	41.847404
29750.949468	-1480.213333	1292.405273	-61.091961
29750.949468	-1480.213333	1291.303711	1.215486
29750.949468	-1480.213333	1290.202148	37.592480
29750.949468	-1480.213333	1289.099609	-32.677025
29750.949468	-1480.213333	1287.998047	-5.880219
29750.949468	-1480.213333	1286.895508	17.236002
29750.949468	-1480.213333	1285.792969	-22.939131
29750.949468	-1480.213333	1284.689453	6.834032
29750.949468	-1480.213333	1283.586914	52.291843
29750.949468	-1480.213333	1282.483398	9.873704
29750.949468	-1480.213333	1281.379883	-0.282017
29750.949468	-1480.213333	1280.276367	9.303668
29750.949468	-1480.213333	1279.171875	15.822559
29750.949468	-1480.213333	1278.067383	8.674870
29750.949468	-1480.213333	1276.962891	34.305653
29750.949468	-1480.213333	1275.858398	3.877729
29750.949468	-1480.213333	1274.753906	45.852760
29750.949468	-1480.213333	1273.648438	5.497494
29750.949468	-1480.213333	1272.542969	42.192368
29750.949468	-1480.213333	1271.437500	86.771347
29750.949468	-1480.213333	1270.331055	9.975067
29750.949468	-1480.213333	1269.225586	-16.722097
29750.949468	-1480.213333	1268.119141	13.349613
29750.949468	-1480.213333	1267.012695	-5.838673
29750.949468	-1480.213333	1265.906250	-13.286485
29750.949468	-1480.213333	1264.798828	-17.240490
29750.949468	-1480.213333	1263.691406	-15.204781
29750.949468	-1480.213333	1262.583984	7.287910
29750.949468	-1480.213333	1261.476563	-53.368267
29750.949468	-1480.213333	1260.368164	6.874575
29750.949468	-1480.213333	1259.260742	-6.283122
29750.949468	-1480.213333	1258.152344	-14.948076
29750.949468	-1480.213333	1257.043945	-27.772945
29750.949468	-1480.213333	1255.934570	-32.645020
29750.949468	-1480.213333	1254.825195	-3.964882
29750.949468	-1480.213333	1253.716797	-22.764708
29750.949468	-1480.213333	1252.606445	-25.001373
29750.949468	-1480.213333	1251.497070	-37.988178
29750.949468	-1480.213333	1250.387695	12.871848
29750.949468	-1480.213333	1249.277344	27.522717
29750.949468	-1480.213333	1248.166992	-38.570316
29750.949468	-1480.213333	1247.055664	31.144678
29750.949468	-1480.213333	1245.945313	17.612143
29750.949468	-1480.213333	1244.833984	-28.634857
29750.949468	-1480.213333	1243.722656	-0.677209
29750.949468	-1480.213333	1242.611328	15.999234
29750.949468	-1480.213333	1241.499023	-36.369644
29750.949468	-1480.213333	1240.387695	-35.710369
29750.949468	-1480.213333	1239.275391	32.240837
29750.949468	-1480.213333	1238.162109	-11.366503
29750.949468	-1480.213333	1237.049805	14.255800
29750.949468	-1480.213333	1235.936523	3.741892
29750.949468	-1480.213333	1234.823242	-6.676006
29750.949468	-1480.213333	1233.709961	11.333267
29750.949468	-1480.213333	1232.596680	39.305954
29750.949468	-1480.213333	1231.482422	-20.149378
29750.949468	-1480.213333	1230.369141	-6.516270
29750.949468	-1480.213333	1229.253906	-37.446030
29750.949468	-1480.213333	1228.139648	-43.638573
29750.949468	-1480.213333	1227.025391	22.385275
29750.949468	-1480.213333	1225.910156	1.659378
29750.949468	-1480.213333	1224.794922	14.828434
29750.949468	-1480.213333	1223.679688	-7.139921
29750.949468	-1480.213333	1222.563477	22.541109
29750.949468	-1480.213333	1221.447266	-17.990496
29750.949468	-1480.213333	1220.331055	29.884148
29750.949468	-1480.213333	1219.214844	8.795396
29750.949468	-1480.213333	1218.098633	-36.307911
29750.949468	-1480.213333	1216.981445	-20.774233
29750.949468	-1480.213333	1215.864258	-37.042492
29750.949468	-1480.213333	1214.747070	-21.730745
29750.949468	-1480.213333	1213.629883	82.219345
29750.949468	-1480.213333	1212.511719	4.621797
29750.949468	-1480.213333	1211.393555	26.652800
29750.949468	-1480.213333	1210.275391	33.770100
29750.949468	-1480.213333	1209.157227	35.007626
29750.949468	-1480.213333	1208.038086	-14.346490
29750.949468	-1480.213333	1206.918945	5.974889
29750.949468	-1480.213333	1205.799805	-14.011649
29750.949468	-1480.213333	1204.680664	11.075717
29750.949468	-1480.213333	1203.560547	21.657085
29750.949468	-1480.213333	1202.441406	-3.457632
29750.949468	-1480.213333	1201.321289	-10.806645
29750.949468	-1480.213333	1200.200195	-0.967603
29750.949468	-1480.213333	1199.080078	-20.929176
29750.949468	-1480.213333	1197.958984	0.648475
29750.949468	-1480.213333	1196.837891	2.819839
29750.949468	-1480.213333	1195.716797	-16.545712
29750.949468	-1480.213333	1194.594727	11.007196
29750.949468	-1480.213333	1193.473633	-2.913424
29750.949468	-1480.213333	1192.351563	-42.541100
29750.949468	-1480.213333	1191.229492	29.958935
29750.949468	-1480.213333	1190.106445	-3.045717
29750.949468	-1480.213333	1188.984375	25.327618
29750.949468	-1480.213333	1187.861328	23.191845
29750.949468	-1480.213333	1186.738281	37.278339
29750.949468	-1480.213333	1185.614258	44.873402
29750.949468	-1480.213333	1184.491211	13.577608
29750.949468	-1480.213333	1183.367188	67.391312
29750.949468	-1480.213333	1182.243164	49.134876
29750.949468	-1480.213333	1181.119141	73.121521
29750.949468	-1480.213333	1179.994141	66.231667
29750.949468	-1480.213333	1178.869141	57.050205
29750.949468	-1480.213333	1177.744141	22.839207
29750.949468	-1480.213333	1176.619141	51.709988
29750.949468	-1480.213333	1175.493164	40.934448
29750.949468	-1480.213333	1174.368164	41.235973
29750.949468	-1480.213333	1173.242188	33.487835
29750.949468	-1480.213333	1172.115234	-3.862225
29750.949468	-1480.213333	1170.989258	-7.119263
29750.949468	-1480.213333	1169.862305	9.387238
29750.949468	-1480.213333	1168.735352	41.262066
29750.949468	-1480.213333	1167.608398	39.840046
29750.949468	-1480.213333	1166.481445	16.361654
29750.949468	-1480.213333	1165.353516	31.464018
29750.949468	-1480.213333	1164.225586	2.593359
29750.949468	-1480.213333	1163.097656	5.434604
29750.949468	-1480.213333	1161.968750	28.589241
29750.949468	-1480.213333	1160.840820	-26.864973
29750.949468	-1480.213333	1159.711914	-20.778887
29750.949468	-1480.213333	1158.583008	38.095970
29750.949468	-1480.213333	1157.453125	-9.186279
29750.949468	-1480.213333	1156.324219	-21.655663
29750.949468	-1480.213333	1155.194336	-13.050607
29750.949468	-1480.213333	1154.064453	22.057661
29750.949468	-1480.213333	1152.933594	18.626213
29750.949468	-1480.213333	1151.803711	21.271393
29750.949468	-1480.213333	1150.672852	-2.763785
29750.949468	-1480.213333	1149.541992	64.811760
29750.949468	-1480.213333	1148.411133	33.637169
29750.949468	-1480.213333	1147.279297	-3.939973
29750.949468	-1480.213333	1146.147461	23.885815
29750.949468	-1480.213333	1145.015625	44.451073
29750.949468	-1480.213333	1143.883789	17.502010
29750.949468	-1480.213333	1142.750977	41.299160
29750.949468	-1480.213333	1141.619141	56.561295
29750.949468	-1480.213333	1140.486328	31.634451
29750.949468	-1480.213333	1139.352539	-25.254457
29750.949468	-1480.213333	1138.219727	20.637880
29750.949468	-1480.213333	1137.085938	41.738918
29750.949468	-1480.213333	1135.952148	46.322037
29750.949468	-1480.213333	1134.818359	-9.500461
29750.949468	-1480.213333	1133.683594	-9.127956
29750.949468	-1480.213333	1132.549805	39.193974
29750.949468	-1480.213333	1131.415039	-6.412886
29750.949468	-1480.213333	1130.279297	-5.986998
29750.949468	-1480.213333	1129.144531	47.009880
29750.949468	-1480.213333	1128.008789	-2.499572
29750.949468	-1480.213333	1126.873047	29.927351
29750.949468	-1480.213333	1125.737305	80.145988
29750.949468	-1480.213333	1124.601563	36.379723
29750.949468	-1480.213333	1123.464844	45.552776
29750.949468	-1480.213333	1122.328125	-38.928272
29750.949468	-1480.213333	1121.191406	18.732098
29750.949468	-1480.213333	1120.054688	0.901805
29750.949468	-1480.213333	1118.916992	21.031925
29750.949468	-1480.213333	1117.779297	3.909772
29750.949468	-1480.213333	1116.641602	16.415590
29750.949468	-1480.213333	1115.503906	8.110408
29750.949468	-1480.213333	1114.365234	19.219593
29750.949468	-1480.213333	1113.226563	20.088203
29750.949468	-1480.213333	1112.087891	0.796676
29750.949468	-1480.213333	1110.949219	37.563759
29750.949468	-1480.213333	1109.809570	29.303900
29750.949468	-1480.213333	1108.669922	-5.345236
29750.949468	-1480.213333	1107.530273	0.984510
29750.949468	-1480.213333	1106.390625	50.636639
29750.949468	-1480.213333	1105.250000	-12.823277
29750.949468	-1480.213333	1104.109375	-2.509768
29750.949468	-1480.213333	1102.968750	14.365490
29750.949468	-1480.213333	1101.828125	16.294191
29750.949468	-1480.213333	1100.686523	27.080313
29750.949468	-1480.213333	1099.544922	-9.644706
29750.949468	-1480.213333	1098.403320	5.914543
29750.949468	-1480.213333	1097.261719	12.678588
29750.949468	-1480.213333	1096.120117	17.995325
29750.949468	-1480.213333	1094.977539	50.357689
29750.949468	-1480.213333	1093.834961	49.410923
29750.949468	-1480.213333	1092.691406	21.455944
29750.949468	-1480.213333	1091.548828	32.770546
29750.949468	-1480.213333	1090.405273	19.714252
29750.949468	-1480.213333	1089.261719	-9.058413
29750.949468	-1480.213333	1088.118164	-18.127163
29750.949468	-1480.213333	1086.973633	-5.398360
29750.949468	-1480.213333	1085.829102	-41.691601
29750.949468	-1480.213333	1084.684570	19.044256
29750.949468	-1480.213333	1083.540039	-14.733758
29750.949468	-1480.213333	1082.395508	7.182486
29750.949468	-1480.213333	1081.250000	28.162012
29750.949468	-1480.213333	1080.104492	50.053074
29750.949468	-1480.213333	1078.958984	48.723099
29750.949468	-1480.213333	1077.812500	-10.411765
29750.949468	-1480.213333	1076.666016	-25.444305
29750.949468	-1480.213333	1075.519531	35.453846
29750.949468	-1480.213333	1074.373047	-33.532619
29750.949468	-1480.213333	1073.226563	20.661480
29750.949468	-1480.213333	1072.079102	6.328994
29750.949468	-1480.213333	1070.931641	8.217598
29750.949468	-1480.213333	1069.784180	2.072406
29750.949468	-1480.213333	1068.635742	-1.670546
29750.949468	-1480.213333	1067.487305	10.764006
29750.949468	-1480.213333	1066.338867	-32.381386
29750.949468	-1480.213333	1065.190430	-38.320709
29750.949468	-1480.213333	1064.041992	-28.609632
29750.949468	-1480.213333	1062.892578	-12.623403
29750.949468	-1480.213333	1061.743164	22.595379
29750.949468	-1480.213333	1060.593750	34.118488
29750.949468	-1480.213333	1059.443359	36.580925
29750.949468	-1480.213333	1058.292969	37.696690
29750.949468	-1480.213333	1057.142578	26.003006
29750.949468	-1480.213333	1055.992188	56.690430
29750.949468	-1480.213333	1054.841797	-15.901809
29750.949468	-1480.213333	1053.690430	-15.940590
29750.949468	-1480.213333	1052.539063	7.857054
29750.949468	-1480.213333	1051.387695	41.617222
29750.949468	-1480.213333	1050.235352	26.727959
29750.949468	-1480.213333	1049.083984	7.543540
29750.949468	-1480.213333	1047.931641	-10.456935
29750.949468	-1480.213333	1046.778320	-6.170199
29750.949468	-1480.213333	1045.625977	-45.165802
29750.949468	-1480.213333	1044.472656	-6.323046
29750.949468	-1480.213333	1043.319336	-27.381298
29750.949468	-1480.213333	1042.166016	-25.880596
29750.949468	-1480.213333	1041.012695	19.161480
29750.949468	-1480.213333	1039.858398	6.054848
29750.949468	-1480.213333	1038.704102	15.856534
29750.949468	-1480.213333	1037.549805	43.863899
29750.949468	-1480.213333	1036.394531	49.290180
29750.949468	-1480.213333	1035.239258	-27.575054
29750.949468	-1480.213333	1034.083984	-5.865467
29750.949468	-1480.213333	1032.928711	25.419184
29750.949468	-1480.213333	1031.773438	11.736541
29750.949468	-1480.213333	1030.617188	-7.998263
29750.949468	-1480.213333	1029.460938	2.255937
29750.949468	-1480.213333	1028.304688	1.256587
29750.949468	-1480.213333	1027.147461	-17.256596
29750.949468	-1480.213333	1025.991211	-26.168076
29750.949468	-1480.213333	1024.833984	49.331169
29750.949468	-1480.213333	1023.675781	8.198904
29750.949468	-1480.213333	1022.518555	-40.786980
29750.949468	-1480.213333	1021.360352	14.399945
29750.949468	-1480.213333	1020.202148	37.149113
29750.949468	-1480.213333	1019.043945	-8.354781
29750.949468	-1480.213333	1017.884766	-59.506672
29750.949468	-1480.213333	1016.726563	-65.194672
29750.949468	-1480.213333	1015.567383	10.220794
29750.949468	-1480.213333	1014.407227	-3.476217
29750.949468	-1480.213333	1013.248047	5.661759
29750.949468	-1480.213333	1012.087891	18.297485
29750.949468	-1480.213333	1010.927734	-14.535795
29750.949468	-1480.213333	1009.767578	-38.369701
29750.949468	-1480.213333	1008.606445	-1.963914
29750.949468	-1480.213333	1007.446289	-58.126217
29750.949468	-1480.213333	1006.285156	-40.311035
29750.949468	-1480.213333	1005.123047	6.033627
29750.949468	-1480.213333	1003.961914	4.572776
29750.949468	-1480.213333	1002.799805	-3.024245
29750.949468	-1480.213333	1001.637695	-4.660101
29750.949468	-1480.213333	1000.475586	4.376878
29750.949468	-1480.213333	999.312500	21.939302
29750.949468	-1480.213333	998.149414	-32.744507
29750.949468	-1480.213333	996.986328	34.035042
29750.949468	-1480.213333	995.823242	-20.181274
29750.949468	-1480.213333	994.659180	-3.046715
29750.949468	-1480.213333	993.496094	39.697742
29750.949468	-1480.213333	992.332031	32.214218
29750.949468	-1480.213333	991.166992	43.493675
29750.949468	-1480.213333	990.002930	2.456392
29750.949468	-1480.213333	988.837891	-28.968546
29750.949468	-1480.213333	987.672852	-25.241531
29750.949468	-1480.213333	986.506836	18.623945
29750.949468	-1480.213333	985.341797	62.095165
29750.949468	-1480.213333	984.175781	-45.077873
29750.949468	-1480.213333	983.009766	66.276649
29750.949468	-1480.213333	981.843750	41.332306
29750.949468	-1480.213333	980.676758	35.132618
29750.949468	-1480.213333	979.509766	17.377962
29750.949468	-1480.213333	978.342773	36.543552
29750.949468	-1480.213333	977.175781	9.953612
29750.949468	-1480.213333	976.007813	134.752716
29750.949468	-1480.213333	974.839844	53.094269
29750.949468	-1480.213333	973.671875	21.707373
29750.949468	-1480.213333	972.503906	50.710812
29750.949468	-1480.213333	971.334961	70.493423
29750.949468	-1480.213333	970.166016	8.723491
29750.949468	-1480.213333	968.997070	37.759167
29750.949468	-1480.213333	967.828125	37.420757
29750.949468	-1480.213333	966.658203	-9.409849
29750.949468	-1480.213333	965.488281	-26.134443
29750.949468	-1480.213333	964.318359	15.827294
29750.949468	-1480.213333	963.148438	15.786276
29750.949468	-1480.213333	961.977539	-20.541637
29750.949468	-1480.213333	960.806641	-24.758789
29750.949468	-1480.213333	959.635742	23.032766
29750.949468	-1480.213333	958.463867	-1.803406
29750.949468	-1480.213333	957.292969	-22.670351
29750.949468	-1480.213333	956.121094	69.037117
29750.949468	-1480.213333	954.948242	7.819597
29750.949468	-1480.213333	953.776367	45.393684
29750.949468	-1480.213333	952.603516	41.094658
29750.949468	-1480.213333	951.430664	9.012927
29750.949468	-1480.213333	950.257813	-8.065745
29750.949468	-1480.213333	949.084961	8.630364
29750.949468	-1480.213333	947.911133	50.567715
29750.949468	-1480.213333	946.737305	63.008232
29750.949468	-1480.213333	945.563477	29.123175
29750.949468	-1480.213333	944.388672	62.593231
29750.949468	-1480.213333	943.213867	16.102448
29750.949468	-1480.213333	942.039063	70.692566
29750.949468	-1480.213333	940.864258	-17.927927
29750.949468	-1480.213333	939.688477	19.766386
29750.949468	-1480.213333	938.513672	4.760915
29750.949468	-1480.213333	937.337891	8.837934
29750.949468	-1480.213333	936.161133	-20.897095
29750.949468	-1480.213333	934.985352	2.021102
29750.949468	-1480.213333	933.808594	-29.721155
29750.949468	-1480.213333	932.631836	-19.407587
29750.949468	-1480.213333	931.454102	9.816676
29750.949468	-1480.213333	930.277344	-17.715160
29750.949468	-1480.213333	929.099609	-17.927872
29750.949468	-1480.213333	927.921875	7.069997
29750.949468	-1480.213333	926.743164	-18.361805
29750.949468	-1480.213333	925.565430	-20.682673
29750.949468	-1480.213333	924.386719	27.427122
29750.949468	-1480.213333	923.208008	22.997952
29750.949468	-1480.213333	922.028320	31.171297
29750.949468	-1480.213333	920.849609	45.640118
29750.949468	-1480.213333	919.669922	45.653450
29750.949468	-1480.213333	919.474609	64.303116
29750.949468	-1480.213333	918.309570	64.064934
29750.949468	-1480.213333	917.143555	74.317688
29750.949468	-1480.213333	915.977539	160.093948
29750.949468	-1480.213333	914.810547	67.537743
29750.949468	-1480.213333	913.644531	73.585106
29750.949468	-1480.213333	912.477539	48.177307
29750.949468	-1480.213333	911.310547	66.801277
29750.949468	-1480.213333	910.143555	60.265476
29750.949468	-1480.213333	908.975586	45.349064
29750.949468	-1480.213333	907.807617	61.862823
29750.949468	-1480.213333	906.639648	49.043800
29750.949468	-1480.213333	905.471680	71.829857
29750.949468	-1480.213333	904.303711	61.104881
29750.949468	-1480.213333	903.134766	33.636078
29750.949468	-1480.213333	901.965820	66.871315
29750.949468	-1480.213333	900.796875	26.854521
29750.949468	-1480.213333	899.626953	-52.896500
29750.949468	-1480.213333	898.457031	15.889239
29750.949468	-1480.213333	897.287109	44.912537
29750.949468	-1480.213333	896.117188	50.923740
29750.949468	-1480.213333	894.947266	15.124013
29750.949468	-1480.213333	893.776367	27.405415
29750.949468	-1480.213333	892.605469	41.769775
29750.949468	-1480.213333	891.434570	1.810835
29750.949468	-1480.213333	890.262695	41.234978
29750.949468	-1480.213333	889.091797	13.818350
29750.949468	-1480.213333	887.919922	15.640367
29750.949468	-1480.213333	886.748047	69.644272
29750.949468	-1480.213333	885.575195	61.015930
29750.949468	-1480.213333	884.403320	25.264784
29750.949468	-1480.213333	883.230469	31.248308
29750.949468	-1480.213333	882.057617	51.827229
29750.949468	-1480.213333	880.883789	1.497963
29750.949468	-1480.213333	879.710938	40.834282
29750.949468	-1480.213333	878.537109	-17.813431
29750.949468	-1480.213333	877.362305	21.507200
29750.949468	-1480.213333	876.188477	-41.283363
29750.949468	-1480.213333	875.013672	10.520844
29750.949468	-1480.213333	873.839844	16.483110
29750.949468	-1480.213333	872.664063	-2.546232
29750.949468	-1480.213333	871.489258	17.985161
29750.949468	-1480.213333	870.313477	78.052773
29750.949468	-1480.213333	869.138672	2.830383
29750.949468	-1480.213333	867.962891	-18.268789
29750.949468	-1480.213333	866.786133	14.721786
29750.949468	-1480.213333	865.610352	68.493835
29750.949468	-1480.213333	864.433594	-10.831540
29750.949468	-1480.213333	863.256836	55.392658
29750.949468	-1480.213333	862.079102	28.058695
29750.949468	-1480.213333	860.902344	25.669827
29750.949468	-1480.213333	859.724609	48.210545
29750.949468	-1480.213333	858.546875	43.737038
29750.949468	-1480.213333	857.368164	97.411209
29750.949468	-1480.213333	856.190430	5.720950
29750.949468	-1480.213333	855.011719	24.086897
29750.949468	-1480.213333	853.833008	9.236015
29750.949468	-1480.213333	852.654297	13.064038
29750.949468	-1480.213333	851.474609	-12.156054
29750.949468	-1480.213333	850.294922	20.708471
29750.949468	-1480.213333	849.115234	24.524784
29750.949468	-1480.213333	847.935547	5.530895
29750.949468	-1480.213333	846.754883	48.728661
29750.949468	-1480.213333	845.575195	77.399338
29750.949468	-1480.213333	844.393555	89.479317
29750.949468	-1480.213333	843.212891	74.621147
29750.949468	-1480.213333	842.032227	16.271875
29750.949468	-1480.213333	840.850586	82.189209
29750.949468	-1480.213333	839.668945	71.474754
29750.949468	-1480.213333	838.486328	56.622314
29750.949468	-1480.213333	837.304688	60.398636
29750.949468	-1480.213333	836.122070	105.551796
29750.949468	-1480.213333	834.939453	74.144745
29750.949468	-1480.213333	833.756836	22.065989
29750.949468	-1480.213333	832.573242	79.597641
29750.949468	-1480.213333	831.389648	128.833649
29750.949468	-1480.213333	830.206055	41.629925
29750.949468	-1480.213333	829.022461	59.850475
29750.949468	-1480.213333	827.838867	57.400181
29750.949468	-1480.213333	826.654297	85.932465
29750.949468	-1480.213333	825.469727	73.145897
29750.949468	-1480.213333	824.284180	58.296803
29750.949468	-1480.213333	823.099609	35.193619
29750.949468	-1480.213333	821.914063	69.887100
29750.949468	-1480.213333	820.728516	75.674225
29750.949468	-1480.213333	819.542969	114.465363
29750.949468	-1480.213333	818.356445	-24.151514
29750.949468	-1480.213333	817.169922	125.998749
29750.949468	-1480.213333	815.983398	129.695419
29750.949468	-1480.213333	814.796875	71.546005
29750.949468	-1480.213333	813.609375	99.977486
29750.949468	-1480.213333	812.422852	103.667946
29750.949468	-1480.213333	811.235352	191.817764
29750.949468	-1480.213333	810.046875	240.793991
29750.949468	-1480.213333	808.859375	157.954407
29750.949468	-1480.213333	807.670898	171.910767
29750.949468	-1480.213333	806.482422	95.288063
29750.949468	-1480.213333	805.293945	57.795364
29750.949468	-1480.213333	804.104492	123.192383
29750.949468	-1480.213333	802.915039	85.702507
29750.949468	-1480.213333	801.725586	151.059845
29750.949468	-1480.213333	800.536133	37.490547
29750.949468	-1480.213333	799.345703	96.656059
29750.949468	-1480.213333	798.155273	73.576523
29750.949468	-1480.213333	796.964844	62.833092
29750.949468	-1480.213333	795.774414	84.963577
29750.949468	-1480.213333	794.583008	24.915277
29750.949468	-1480.213333	793.392578	1.855274
29750.949468	-1480.213333	792.200195	83.519073
29750.949468	-1480.213333	791.008789	48.131680
29750.949468	-1480.213333	789.816406	66.118713
29750.949468	-1480.213333	788.625000	88.198799
29750.949468	-1480.213333	787.432617	52.820969
29750.949468	-1480.213333	786.239258	-64.593170
29750.949468	-1480.213333	785.046875	12.858593
29750.949468	-1480.213333	783.853516	41.066586
29750.949468	-1480.213333	782.660156	7.761927
29750.949468	-1480.213333	781.465820	-5.038284
29750.949468	-1480.213333	780.272461	33.389000
29750.949468	-1480.213333	779.078125	-73.655777
29750.949468	-1480.213333	777.883789	28.255671
29750.949468	-1480.213333	776.688477	-60.322098
29750.949468	-1480.213333	775.494141	72.246216
29750.949468	-1480.213333	774.298828	-1.983831
29750.949468	-1480.213333	773.103516	9.765540
29750.949468	-1480.213333	771.907227	-35.784256
29750.949468	-1480.213333	770.711914	-36.315025
29750.949468	-1480.213333	769.515625	32.687248
29750.949468	-1480.213333	768.318359	-12.852055
29750.949468	-1480.213333	767.122070	11.131980
29750.949468	-1480.213333	765.924805	-24.172941
29750.949468	-1480.213333	764.727539	-18.597286
29750.949468	-1480.213333	763.530273	17.618073
29750.949468	-1480.213333	762.333008	47.685871
29750.949468	-1480.213333	761.134766	10.342272
29750.949468	-1480.213333	759.936523	3.637063
29750.949468	-1480.213333	758.738281	74.502960
29750.949468	-1480.213333	757.540039	20.835806
29750.949468	-1480.213333	756.340820	69.213051
29750.949468	-1480.213333	755.141602	44.121399
29750.949468	-1480.213333	753.942383	47.591091
29750.949468	-1480.213333	752.742188	-14.202167
29750.949468	-1480.213333	751.541992	15.773504
29750.949468	-1480.213333	750.341797	-13.382314
29750.949468	-1480.213333	749.141602	-50.682587
29750.949468	-1480.213333	747.941406	-4.432027
29750.949468	-1480.213333	746.740234	33.645515
29750.949468	-1480.213333	745.539063	24.857821
29750.949468	-1480.213333	744.337891	11.996240
29750.949468	-1480.213333	743.135742	74.461914
29750.949468	-1480.213333	741.933594	51.407848
29750.949468	-1480.213333	740.731445	40.568516
29750.949468	-1480.213333	739.529297	56.178387
29750.949468	-1480.213333	738.326172	0.580484
29750.949468	-1480.213333	737.124023	30.418282
29750.949468	-1480.213333	735.919922	39.904594
29750.949468	-1480.213333	734.716797	12.790060
29750.949468	-1480.213333	733.513672	44.623268
29750.949468	-1480.213333	732.309570	50.021023
29750.949468	-1480.213333	731.105469	55.411266
29750.949468	-1480.213333	729.900391	38.450474
29750.949468	-1480.213333	728.696289	56.015079
29750.949468	-1480.213333	727.491211	34.989956
29750.949468	-1480.213333	726.286133	18.028273
29750.949468	-1480.213333	725.080078	9.185906
29750.949468	-1480.213333	723.874023	0.341752
29750.949468	-1480.213333	722.668945	-34.876011
29750.949468	-1480.213333	721.461914	23.213068
29750.949468	-1480.213333	720.255859	28.549841
29750.949468	-1480.213333	719.048828	-71.544724
29750.949468	-1480.213333	717.841797	27.038021
29750.949468	-1480.213333	716.634766	83.017059
29750.949468	-1480.213333	715.427734	1.192303
29750.949468	-1480.213333	714.219727	-27.936565
29750.949468	-1480.213333	713.011719	-24.654913
29750.949468	-1480.213333	711.803711	-27.454575
29750.949468	-1480.213333	710.594727	-52.527527
29750.949468	-1480.213333	709.385742	9.435480
29750.949468	-1480.213333	708.176758	-52.069839
29750.949468	-1480.213333	706.967773	-28.583654
29750.949468	-1480.213333	705.758789	-33.430809
29750.949468	-1480.213333	704.548828	20.364059
29750.949468	-1480.213333	703.338867	29.649778
29750.949468	-1480.213333	702.127930	-45.974636
29750.949468	-1480.213333	700.917969	27.981840
29750.949468	-1480.213333	699.707031	27.139605
29750.949468	-1480.213333	698.496094	-6.030549
29750.949468	-1480.213333	697.285156	51.695496
29750.949468	-1480.213333	696.073242	62.946880
29750.949468	-1480.213333	694.861328	29.772299
29750.949468	-1480.213333	693.649414	26.882805
29750.949468	-1480.213333	692.436523	-14.354550
29750.949468	-1480.213333	691.224609	-17.245174
29750.949468	-1480.213333	690.011719	20.202848
29750.949468	-1480.213333	688.798828	110.065208
29750.949468	-1480.213333	687.584961	50.674156
29750.949468	-1480.213333	686.372070	15.493851
29750.949468	-1480.213333	685.158203	-33.786556
29750.949468	-1480.213333	683.943359	27.776279
29750.949468	-1480.213333	682.729492	28.868597
29750.949468	-1480.213333	681.514648	44.053547
29750.949468	-1480.213333	680.299805	91.447014
29750.949468	-1480.213333	679.084961	102.573906
29750.949468	-1480.213333	677.869141	49.275360
29750.949468	-1480.213333	676.653320	72.469391
29750.949468	-1480.213333	675.437500	-13.005599
29750.949468	-1480.213333	674.221680	-11.948442
29750.949468	-1480.213333	673.004883	57.484669
29750.949468	-1480.213333	671.789063	140.958939
29750.949468	-1480.213333	670.571289	-4.795175
29750.949468	-1480.213333	669.354492	38.445267
29750.949468	-1480.213333	668.136719	119.842682
29750.949468	-1480.213333	666.919922	124.853333
29750.949468	-1480.213333	665.701172	87.672119
29750.949468	-1480.213333	664.483398	40.459885
29750.949468	-1480.213333	663.264648	43.457760
29750.949468	-1480.213333	662.045898	76.560280
29750.949468	-1480.213333	660.827148	37.390385
29750.949468	-1480.213333	659.608398	-21.834494
29750.949468	-1480.213333	658.388672	-0.794037
29750.949468	-1480.213333	657.168945	78.398499
29750.949468	-1480.213333	655.949219	17.179415
29750.949468	-1480.213333	654.728516	18.131720
29750.949468	-1480.213333	653.507813	-2.971231
29750.949468	-1480.213333	652.287109	54.087139
29750.949468	-1480.213333	651.066406	-3.091089
29750.949468	-1480.213333	649.844727	-8.167918
29750.949468	-1480.213333	648.623047	58.851952
29750.949468	-1480.213333	647.401367	19.712940
29750.949468	-1480.213333	646.179688	-31.426601
29750.949468	-1480.213333	644.957031	59.556717
29750.949468	-1480.213333	643.734375	-31.602890
29750.949468	-1480.213333	642.511719	25.319708
29750.949468	-1480.213333	641.289063	8.204062
29750.949468	-1480.213333	640.065430	89.080658
29750.949468	-1480.213333	638.841797	41.956554
29750.949468	-1480.213333	637.618164	68.808960
29750.949468	-1480.213333	636.393555	19.699240
29750.949468	-1480.213333	635.168945	52.528263
29750.949468	-1480.213333	633.944336	13.420952
29750.949468	-1480.213333	632.719727	12.273344
29750.949468	-1480.213333	631.494141	3.132997
29750.949468	-1480.213333	630.269531	-13.993383
29750.949468	-1480.213333	629.042969	84.649437
29750.949468	-1480.213333	627.817383	9.630301
29750.949468	-1480.213333	626.590820	34.395447
29750.949468	-1480.213333	625.365234	1.298545
29750.949468	-1480.213333	624.137695	-57.716732
29750.949468	-1480.213333	622.911133	16.879925
29750.949468	-1480.213333	621.683594	71.504829
29750.949468	-1480.213333	620.456055	76.275597
29750.949468	-1480.213333	619.228516	43.179943
29750.949468	-1480.213333	618.000977	67.867592
29750.949468	-1480.213333	616.772461	-5.057777
29750.949468	-1480.213333	615.543945	53.473122
29750.949468	-1480.213333	614.314453	66.182495
29750.949468	-1480.213333	613.085938	37.082043
29750.949468	-1480.213333	611.856445	57.741241
29750.949468	-1480.213333	610.626953	20.687157
29750.949468	-1480.213333	609.397461	45.311214
29750.949468	-1480.213333	608.166992	10.255408
29750.949468	-1480.213333	606.936523	48.781197
29750.949468	-1480.213333	605.706055	33.611305
29750.949468	-1480.213333	604.474609	44.281403
29750.949468	-1480.213333	603.244141	-10.631323
29750.949468	-1480.213333	602.012695	19.903263
29750.949468	-1480.213333	600.780273	-29.031033
29750.949468	-1480.213333	599.548828	-22.343088
29750.949468	-1480.213333	598.316406	24.046535
29750.949468	-1480.213333	597.083984	62.472805
29750.949468	-1480.213333	595.851563	33.403214
29750.949468	-1480.213333	594.618164	-35.341549
29750.949468	-1480.213333	593.384766	9.013568
29750.949468	-1480.213333	592.151367	63.263321
29750.949468	-1480.213333	590.917969	-17.350626
29750.949468	-1480.213333	589.683594	74.542099
29750.949468	-1480.213333	588.449219	15.756113
29750.949468	-1480.213333	587.214844	24.368155
29750.949468	-1480.213333	585.979492	-10.613824
29750.949468	-1480.213333	584.745117	-5.966682
29750.949468	-1480.213333	583.509766	52.145332
29750.949468	-1480.213333	582.273438	11.231584
29750.949468	-1480.213333	581.038086	25.760712
29750.949468	-1480.213333	579.801758	-11.176289
29750.949468	-1480.213333	578.565430	11.260969
29750.949468	-1480.213333	577.329102	47.534496
29750.949468	-1480.213333	576.091797	48.188488
29750.949468	-1480.213333	574.854492	48.840443
29750.949468	-1480.213333	573.617188	43.559429
29750.949468	-1480.213333	572.378906	4.676389
29750.949468	-1480.213333	571.141602	42.879101
29750.949468	-1480.213333	569.903320	112.675056
29750.949468	-1480.213333	568.664063	0.710475
29750.949468	-1480.213333	567.425781	60.608566
29750.949468	-1480.213333	566.186523	-19.708138
29750.949468	-1480.213333	564.947266	-11.159367
29750.949468	-1480.213333	563.708008	-32.219620
29750.949468	-1480.213333	562.467773	-13.808445
29750.949468	-1480.213333	561.227539	-13.160989
29750.949468	-1480.213333	559.987305	-32.237957
29750.949468	-1480.213333	558.747070	-5.952576
29750.949468	-1480.213333	557.505859	45.949932
29750.949468	-1480.213333	556.264648	22.928394
29750.949468	-1480.213333	555.023438	27.505865
29750.949468	-1480.213333	553.781250	87.247673
29750.949468	-1480.213333	552.539063	26.804285
29750.949468	-1480.213333	551.296875	1.836222
29750.949468	-1480.213333	550.054688	45.793789
29750.949468	-1480.213333	548.811523	48.392094
29750.949468	-1480.213333	547.569336	-2.149210
29750.949468	-1480.213333	546.325195	0.458545
29750.949468	-1480.213333	545.082031	-8.737020
29750.949468	-1480.213333	543.837891	-17.928596
29750.949468	-1480.213333	542.593750	4.348010
29750.949468	-1480.213333	541.349609	48.242691
29750.949468	-1480.213333	540.105469	-14.023735
29750.949468	-1480.213333	538.860352	-13.376652
29750.949468	-1480.213333	537.615234	-24.517033
29750.949468	-1480.213333	536.369141	11.492534
29750.949468	-1480.213333	535.124023	8.210426
29750.949468	-1480.213333	533.877930	32.419930
29750.949468	-1480.213333	532.631836	36.990002
29750.949468	-1480.213333	531.384766	41.559246
29750.949468	-1480.213333	530.138672	77.525490
29750.949468	-1480.213333	528.891602	66.393837
29750.949468	-1480.213333	527.643555	35.654400
29750.949468	-1480.213333	526.396484	81.409828
29750.949468	-1480.213333	525.148438	29.119091
29750.949468	-1480.213333	523.900391	114.063736
29750.949468	-1480.213333	522.652344	124.505104
29750.949468	-1480.213333	521.403320	109.473030
29750.949468	-1480.213333	520.154297	92.491608
29750.949468	-1480.213333	518.905273	255.699249
29750.949468	-1480.213333	517.656250	181.916733
29750.949468	-1480.213333	516.406250	61.185493
29750.949468	-1480.213333	515.156250	-18.389198
29750.949468	-1480.213333	513.906250	-17.698124
29750.949468	-1480.213333	512.655273	51.468140
29750.949468	-1480.213333	511.404297	7.163801
29750.949468	-1480.213333	510.153320	5.903849
29750.949468	-1480.213333	508.902344	22.244164
29750.949468	-1480.213333	507.650391	-43.515743
29750.949468	-1480.213333	506.398438	17.783672
29750.949468	-1480.213333	505.146484	-8.861903
29750.949468	-1480.213333	503.893555	27.016851
29750.949468	-1480.213333	502.641602	-5.469492
29750.949468	-1480.213333	501.388672	47.975163
29750.949468	-1480.213333	500.134766	-13.776537
29750.949468	-1480.213333	498.881836	-7.185583
29750.949468	-1480.213333	497.627930	9.163157
29750.949468	-1480.213333	496.374023	19.656950
29750.949468	-1480.213333	495.119141	-20.562140
29750.949468	-1480.213333	493.865234	21.144335
29750.949468	-1480.213333	492.610352	78.434204
29750.949468	-1480.213333	491.355469	-4.639402
29750.949468	-1480.213333	490.099609	56.538486
29750.949468	-1480.213333	488.843750	43.656612
29750.949468	-1480.213333	487.587891	-6.225656
29750.949468	-1480.213333	486.332031	-15.182856
29750.949468	-1480.213333	485.075195	47.912067
29750.949468	-1480.213333	483.818359	3.916395
29750.949468	-1480.213333	482.561523	0.817102
29750.949468	-1480.213333	481.304688	-12.004681
29750.949468	-1480.213333	480.046875	29.656225
29750.949468	-1480.213333	478.789063	32.404140
29750.949468	-1480.213333	477.531250	83.771553
29750.949468	-1480.213333	476.272461	10.693866
29750.949468	-1480.213333	475.013672	-11.808983
29750.949468	-1480.213333	473.754883	47.324165
29750.949468	-1480.213333	472.496094	38.434738
29750.949468	-1480.213333	471.236328	21.783934
29750.949468	-1480.213333	469.976563	51.756165
29750.949468	-1480.213333	468.716797	40.945759
29750.949468	-1480.213333	467.456055	-14.503871
29750.949468	-1480.213333	466.196289	-0.053579
29750.949468	-1480.213333	464.935547	47.382294
29750.949468	-1480.213333	463.673828	-11.897215
29750.949468	-1480.213333	462.413086	25.833519
29750.949468	-1480.213333	461.151367	28.647713
29750.949468	-1480.213333	459.889648	-32.512337
29750.949468	-1480.213333	458.626953	51.732471
29750.949468	-1480.213333	457.364258	-46.216721
29750.949468	-1480.213333	456.101563	61.254368
29750.949468	-1480.213333	454.838867	-61.826527
29750.949468	-1480.213333	453.575195	51.420414
29750.949468	-1480.213333	452.312500	13.598007
29750.949468	-1480.213333	451.047852	105.494492
29750.949468	-1480.213333	449.784180	65.749710
29750.949468	-1480.213333	448.519531	97.619743
29750.949468	-1480.213333	447.254883	86.919922
29750.949468	-1480.213333	445.990234	51.084782
29750.949468	-1480.213333	444.725586	129.358170
29750.949468	-1480.213333	443.459961	145.735199
29750.949468	-1480.213333	442.194336	136.981140
29750.949468	-1480.213333	440.927734	261.573273
29750.949468	-1480.213333	439.662109	332.017792
29750.949468	-1480.213333	438.395508	356.074890
29750.949468	-1480.213333	437.127930	358.880493
29750.949468	-1480.213333	435.861328	284.455994
29750.949468	-1480.213333	434.593750	335.539185
29750.949468	-1480.213333	433.326172	207.116470
29750.949468	-1480.213333	432.058594	142.425446
29750.949468	-1480.213333	430.790039	108.628853
29750.949468	-1480.213333	429.521484	67.133041
29750.949468	-1480.213333	428.252930	60.364681
29750.949468	-1480.213333	426.984375	26.609203
29750.949468	-1480.213333	425.714844	48.763687
29750.949468	-1480.213333	424.445313	103.667503
29750.949468	-1480.213333	423.174805	77.628365
29750.949468	-1480.213333	421.905273	140.204498
29750.949468	-1480.213333	420.634766	144.978088
29750.949468	-1480.213333	419.364258	140.120483
29750.949468	-1480.213333	418.092773	94.838226
29750.949468	-1480.213333	416.822266	109.233101
29750.949468	-1480.213333	415.550781	115.921257
29750.949468	-1480.213333	414.278320	3.333221
29750.949468	-1480.213333	413.006836	11.955980
29750.949468	-1480.213333	411.734375	43.643536
29750.949468	-1480.213333	410.461914	84.923820
29750.949468	-1480.213333	409.188477	35.844543
29750.949468	-1480.213333	407.916016	-17.062914
29750.949468	-1480.213333	406.642578	37.630779
29750.949468	-1480.213333	405.368164	5.857598
29750.949468	-1480.213333	404.094727	22.098719
29750.949468	-1480.213333	402.820313	69.041801
29750.949468	-1480.213333	401.545898	6.541812
29750.949468	-1480.213333	400.270508	76.475510
29750.949468	-1480.213333	398.996094	29.328070
29750.949468	-1480.213333	397.720703	51.245743
29750.949468	-1480.213333	396.444336	67.386536
29750.949468	-1480.213333	395.168945	-12.364601
29750.949468	-1480.213333	393.892578	30.592426
29750.949468	-1480.213333	392.616211	12.184023
29750.949468	-1480.213333	391.339844	-92.461166
29750.949468	-1480.213333	390.062500	30.897223
29750.949468	-1480.213333	388.785156	-6.705925
29750.949468	-1480.213333	387.507813	-7.928300
29750.949468	-1480.213333	386.229492	55.922367
29750.949468	-1480.213333	384.951172	22.104673
29750.949468	-1480.213333	383.672852	13.157136
29750.949468	-1480.213333	382.394531	0.363486
29750.949468	-1480.213333	381.115234	-50.707115
29750.949468	-1480.213333	379.835938	53.126125
29750.949468	-1480.213333	378.556641	2.013540
29750.949468	-1480.213333	377.277344	-31.900414
29750.949468	-1480.213333	375.997070	64.130959
29750.949468	-1480.213333	374.716797	-17.612122
29750.949468	-1480.213333	373.435547	3.806878
29750.949468	-1480.213333	372.155273	6.084884
29750.949468	-1480.213333	370.874023	10.235770
29750.949468	-1480.213333	369.591797	-33.380100
29750.949468	-1480.213333	368.310547	12.695368
29750.949468	-1480.213333	367.028320	-46.244678
29750.949468	-1480.213333	365.746094	24.535124
29750.949468	-1480.213333	364.463867	22.759216
29750.949468	-1480.213333	363.180664	-9.573406
29750.949468	-1480.213333	361.897461	30.514421
29750.949468	-1480.213333	360.614258	34.320019
29750.949468	-1480.213333	359.330078	22.827641
29750.949468	-1480.213333	358.045898	-66.830299
29750.949468	-1480.213333	356.761719	30.184416
29750.949468	-1480.213333	355.477539	22.353155
29750.949468	-1480.213333	354.192383	-6.477485
29750.949468	-1480.213333	352.907227	-29.642143
29750.949468	-1480.213333	351.622070	9.952234
29750.949468	-1480.213333	350.336914	5.701394
29750.949468	-1480.213333	349.050781	12.801793
29750.949468	-1480.213333	347.764648	6.518766
29750.949468	-1480.213333	346.477539	22.988396
29750.949468	-1480.213333	345.191406	46.987061
29750.949468	-1480.213333	343.904297	-35.544384
29750.949468	-1480.213333	342.616211	-2.192445
29750.949468	-1480.213333	341.329102	23.469702
29750.949468	-1480.213333	340.041016	3.449568
29750.949468	-1480.213333	338.752930	-12.845644
29750.949468	-1480.213333	337.463867	-8.334444
29750.949468	-1480.213333	336.175781	-7.706791
29750.949468	-1480.213333	334.886719	51.663624
29750.949468	-1480.213333	333.596680	36.911201
29750.949468	-1480.213333	332.307617	90.367210
29750.949468	-1480.213333	331.017578	56.452801
29750.949468	-1480.213333	329.727539	33.829746
29750.949468	-1480.213333	328.436523	88.839508
29750.949468	-1480.213333	327.146484	-9.808091
29750.949468	-1480.213333	325.855469	24.125469
29750.949468	-1480.213333	324.563477	74.979828
29750.949468	-1480.213333	323.272461	10.153573
29750.949468	-1480.213333	321.980469	-71.810638
29750.949468	-1480.213333	320.688477	3.286812
29750.949468	-1480.213333	319.395508	6.290494
29750.949468	-1480.213333	318.103516	14.844091
29750.949468	-1480.213333	316.810547	-1.339729
29750.949468	-1480.213333	315.516602	-11.981411
29750.949468	-1480.213333	314.223633	13.179208
29750.949468	-1480.213333	312.929688	15.490695
29750.949468	-1480.213333	311.635742	-29.607998
29750.949468	-1480.213333	310.340820	-1.130712
29750.949468	-1480.213333	309.045898	57.412472
29750.949468	-1480.213333	307.750977	28.866280
29750.949468	-1480.213333	306.456055	-11.164135
29750.949468	-1480.213333	305.160156	-2.251016
29750.949468	-1480.213333	303.865234	6.490449
29750.949468	-1480.213333	302.568359	11.267219
29750.949468	-1480.213333	301.272461	-52.072208
29750.949468	-1480.213333	299.975586	-13.690126
29750.949468	-1480.213333	298.678711	43.348183
