#X		#Y		#Wave		#Intensity
29607.943617	-1556.931667	1999.980469	7.656555
29607.943617	-1556.931667	1999.016602	72.586464
29607.943617	-1556.931667	1998.052734	13.509685
29607.943617	-1556.931667	1997.087891	-72.957489
29607.943617	-1556.931667	1996.123047	-33.182835
29607.943617	-1556.931667	1995.158203	-77.794983
29607.943617	-1556.931667	1994.193359	-105.197052
29607.943617	-1556.931667	1993.228516	-241.683838
29607.943617	-1556.931667	1992.262695	89.677261
29607.943617	-1556.931667	1991.297852	-94.094246
29607.943617	-1556.931667	1990.332031	189.835251
29607.943617	-1556.931667	1989.366211	77.621910
29607.943617	-1556.931667	1988.399414	79.134056
29607.943617	-1556.931667	1987.433594	60.739597
29607.943617	-1556.931667	1986.466797	118.904671
29607.943617	-1556.931667	1985.500977	82.976990
29607.943617	-1556.931667	1984.534180	175.509995
29607.943617	-1556.931667	1983.567383	75.111313
29607.943617	-1556.931667	1982.599609	43.844513
29607.943617	-1556.931667	1981.632813	-59.160851
29607.943617	-1556.931667	1980.665039	10.701271
29607.943617	-1556.931667	1979.697266	-38.108780
29607.943617	-1556.931667	1978.729492	63.645397
29607.943617	-1556.931667	1977.761719	335.633728
29607.943617	-1556.931667	1976.792969	-14.622178
29607.943617	-1556.931667	1975.825195	242.308746
29607.943617	-1556.931667	1974.856445	133.866058
29607.943617	-1556.931667	1973.887695	-43.690876
29607.943617	-1556.931667	1972.918945	74.744072
29607.943617	-1556.931667	1971.949219	22.898888
29607.943617	-1556.931667	1970.980469	239.770508
29607.943617	-1556.931667	1970.010742	212.434219
29607.943617	-1556.931667	1969.041016	17.437538
29607.943617	-1556.931667	1968.071289	-118.401779
29607.943617	-1556.931667	1967.101563	80.842400
29607.943617	-1556.931667	1966.130859	55.782127
29607.943617	-1556.931667	1965.161133	72.549500
29607.943617	-1556.931667	1964.190430	360.137726
29607.943617	-1556.931667	1963.219727	-91.054085
29607.943617	-1556.931667	1962.249023	-116.265137
29607.943617	-1556.931667	1961.277344	79.991150
29607.943617	-1556.931667	1960.306641	-9.310133
29607.943617	-1556.931667	1959.334961	248.274673
29607.943617	-1556.931667	1958.363281	200.710098
29607.943617	-1556.931667	1957.391602	143.286972
29607.943617	-1556.931667	1956.419922	107.978722
29607.943617	-1556.931667	1955.447266	288.988190
29607.943617	-1556.931667	1954.474609	-176.546341
29607.943617	-1556.931667	1953.501953	68.279114
29607.943617	-1556.931667	1952.529297	-114.542694
29607.943617	-1556.931667	1951.556641	125.208496
29607.943617	-1556.931667	1950.583984	-13.400427
29607.943617	-1556.931667	1949.610352	88.670837
29607.943617	-1556.931667	1948.636719	1.626932
29607.943617	-1556.931667	1947.663086	-48.585487
29607.943617	-1556.931667	1946.689453	168.718475
29607.943617	-1556.931667	1945.715820	-156.379868
29607.943617	-1556.931667	1944.741211	9.301106
29607.943617	-1556.931667	1943.767578	-60.578678
29607.943617	-1556.931667	1942.792969	21.603397
29607.943617	-1556.931667	1941.818359	201.819427
29607.943617	-1556.931667	1940.842773	-127.973816
29607.943617	-1556.931667	1939.868164	-141.464081
29607.943617	-1556.931667	1938.892578	82.750290
29607.943617	-1556.931667	1937.916992	25.096378
29607.943617	-1556.931667	1936.941406	121.786041
29607.943617	-1556.931667	1935.965820	-119.571426
29607.943617	-1556.931667	1934.990234	246.461334
29607.943617	-1556.931667	1934.013672	-48.712929
29607.943617	-1556.931667	1933.037109	-1.076420
29607.943617	-1556.931667	1932.060547	264.358917
29607.943617	-1556.931667	1931.083984	89.228554
29607.943617	-1556.931667	1930.107422	-12.446298
29607.943617	-1556.931667	1929.129883	8.215434
29607.943617	-1556.931667	1928.153320	-7.817952
29607.943617	-1556.931667	1927.175781	-65.418808
29607.943617	-1556.931667	1926.198242	11.458786
29607.943617	-1556.931667	1925.219727	76.081535
29607.943617	-1556.931667	1924.242188	67.365868
29607.943617	-1556.931667	1923.263672	34.215687
29607.943617	-1556.931667	1922.285156	111.008835
29607.943617	-1556.931667	1921.306641	53.436176
29607.943617	-1556.931667	1920.328125	274.272522
29607.943617	-1556.931667	1919.349609	-215.460266
29607.943617	-1556.931667	1918.370117	-138.680252
29607.943617	-1556.931667	1917.391602	-52.165512
29607.943617	-1556.931667	1916.412109	-112.093399
29607.943617	-1556.931667	1915.431641	-137.842529
29607.943617	-1556.931667	1914.452148	-41.616848
29607.943617	-1556.931667	1913.472656	132.616623
29607.943617	-1556.931667	1912.492188	158.046158
29607.943617	-1556.931667	1911.511719	-238.286621
29607.943617	-1556.931667	1910.531250	221.070602
29607.943617	-1556.931667	1909.550781	200.173630
29607.943617	-1556.931667	1908.569336	67.205757
29607.943617	-1556.931667	1907.588867	-126.611374
29607.943617	-1556.931667	1906.607422	10.890435
29607.943617	-1556.931667	1905.625977	-87.867439
29607.943617	-1556.931667	1904.644531	69.058395
29607.943617	-1556.931667	1903.662109	26.317959
29607.943617	-1556.931667	1902.680664	-4.232481
29607.943617	-1556.931667	1901.698242	125.830101
29607.943617	-1556.931667	1900.715820	190.158417
29607.943617	-1556.931667	1899.733398	84.196739
29607.943617	-1556.931667	1898.750000	175.264954
29607.943617	-1556.931667	1897.767578	-130.034729
29607.943617	-1556.931667	1896.784180	-119.180664
29607.943617	-1556.931667	1895.800781	205.220947
29607.943617	-1556.931667	1894.817383	152.829147
29607.943617	-1556.931667	1893.833984	-62.330811
29607.943617	-1556.931667	1892.850586	35.964542
29607.943617	-1556.931667	1891.866211	63.787930
29607.943617	-1556.931667	1890.881836	91.603378
29607.943617	-1556.931667	1889.897461	-118.522896
29607.943617	-1556.931667	1888.913086	-73.689758
29607.943617	-1556.931667	1887.927734	-50.716122
29607.943617	-1556.931667	1886.943359	-35.029285
29607.943617	-1556.931667	1885.958008	-80.000298
29607.943617	-1556.931667	1884.972656	-42.482594
29607.943617	-1556.931667	1883.987305	96.877060
29607.943617	-1556.931667	1883.001953	-30.533926
29607.943617	-1556.931667	1882.015625	-7.595089
29607.943617	-1556.931667	1881.029297	126.828362
29607.943617	-1556.931667	1880.042969	28.559353
29607.943617	-1556.931667	1879.056641	-139.937607
29607.943617	-1556.931667	1878.070313	18.654539
29607.943617	-1556.931667	1877.083984	288.597137
29607.943617	-1556.931667	1876.096680	100.764542
29607.943617	-1556.931667	1875.109375	31.633238
29607.943617	-1556.931667	1874.122070	-59.261971
29607.943617	-1556.931667	1873.134766	181.435959
29607.943617	-1556.931667	1872.146484	59.081741
29607.943617	-1556.931667	1871.159180	103.698158
29607.943617	-1556.931667	1870.170898	145.872955
29607.943617	-1556.931667	1869.182617	-102.175156
29607.943617	-1556.931667	1868.194336	-30.973963
29607.943617	-1556.931667	1867.205078	-196.716629
29607.943617	-1556.931667	1866.216797	-161.791519
29607.943617	-1556.931667	1865.227539	-47.143169
29607.943617	-1556.931667	1864.238281	-65.428886
29607.943617	-1556.931667	1863.249023	143.352844
29607.943617	-1556.931667	1862.259766	-58.532799
29607.943617	-1556.931667	1861.269531	97.026596
29607.943617	-1556.931667	1860.279297	88.347366
29607.943617	-1556.931667	1859.290039	-2.406461
29607.943617	-1556.931667	1858.298828	-216.221008
29607.943617	-1556.931667	1857.308594	28.488527
29607.943617	-1556.931667	1856.318359	147.647018
29607.943617	-1556.931667	1855.327148	117.202736
29607.943617	-1556.931667	1854.335938	134.989639
29607.943617	-1556.931667	1853.344727	-37.721283
29607.943617	-1556.931667	1852.353516	66.844879
29607.943617	-1556.931667	1851.362305	12.285302
29607.943617	-1556.931667	1850.370117	-1.304361
29607.943617	-1556.931667	1849.377930	139.290741
29607.943617	-1556.931667	1848.385742	161.784973
29607.943617	-1556.931667	1847.393555	-90.301674
29607.943617	-1556.931667	1846.401367	42.960011
29607.943617	-1556.931667	1845.408203	55.778877
29607.943617	-1556.931667	1844.415039	143.194077
29607.943617	-1556.931667	1843.421875	-75.077148
29607.943617	-1556.931667	1842.428711	185.534073
29607.943617	-1556.931667	1841.435547	-32.699341
29607.943617	-1556.931667	1840.441406	-19.971924
29607.943617	-1556.931667	1839.448242	165.876358
29607.943617	-1556.931667	1838.454102	212.181488
29607.943617	-1556.931667	1837.459961	-169.437164
29607.943617	-1556.931667	1836.464844	59.528858
29607.943617	-1556.931667	1835.470703	-156.157684
29607.943617	-1556.931667	1834.475586	63.065609
29607.943617	-1556.931667	1833.480469	20.359167
29607.943617	-1556.931667	1832.485352	25.678547
29607.943617	-1556.931667	1831.490234	-2.644708
29607.943617	-1556.931667	1830.495117	115.460205
29607.943617	-1556.931667	1829.499023	147.085632
29607.943617	-1556.931667	1828.502930	236.268082
29607.943617	-1556.931667	1827.506836	229.418213
29607.943617	-1556.931667	1826.510742	69.015038
29607.943617	-1556.931667	1825.513672	129.299240
29607.943617	-1556.931667	1824.517578	220.708893
29607.943617	-1556.931667	1823.520508	122.649666
29607.943617	-1556.931667	1822.523438	70.143578
29607.943617	-1556.931667	1821.526367	175.805405
29607.943617	-1556.931667	1820.529297	60.950119
29607.943617	-1556.931667	1819.531250	15.581936
29607.943617	-1556.931667	1818.533203	-104.053360
29607.943617	-1556.931667	1817.535156	200.207840
29607.943617	-1556.931667	1816.537109	195.450058
29607.943617	-1556.931667	1815.539063	159.541992
29607.943617	-1556.931667	1814.540039	202.597092
29607.943617	-1556.931667	1813.541992	-20.019156
29607.943617	-1556.931667	1812.542969	99.549507
29607.943617	-1556.931667	1811.543945	226.215103
29607.943617	-1556.931667	1810.543945	144.722839
29607.943617	-1556.931667	1809.544922	-6.115265
29607.943617	-1556.931667	1808.544922	34.325375
29607.943617	-1556.931667	1807.544922	-20.896585
29607.943617	-1556.931667	1806.544922	-78.522758
29607.943617	-1556.931667	1805.544922	81.270676
29607.943617	-1556.931667	1804.544922	59.408134
29607.943617	-1556.931667	1803.543945	-7.867336
29607.943617	-1556.931667	1802.542969	3.649596
29607.943617	-1556.931667	1801.541992	-49.340275
29607.943617	-1556.931667	1800.541016	145.913666
29607.943617	-1556.931667	1799.539063	57.037140
29607.943617	-1556.931667	1798.538086	187.691620
29607.943617	-1556.931667	1797.536133	-166.058578
29607.943617	-1556.931667	1796.534180	52.762638
29607.943617	-1556.931667	1795.532227	40.128551
29607.943617	-1556.931667	1794.529297	-117.994431
29607.943617	-1556.931667	1793.527344	-40.082142
29607.943617	-1556.931667	1792.524414	68.741890
29607.943617	-1556.931667	1791.521484	-172.828247
29607.943617	-1556.931667	1790.518555	12.139730
29607.943617	-1556.931667	1789.514648	-45.988499
29607.943617	-1556.931667	1788.511719	203.106552
29607.943617	-1556.931667	1787.507813	232.984619
29607.943617	-1556.931667	1786.503906	165.195465
29607.943617	-1556.931667	1785.500000	-59.715309
29607.943617	-1556.931667	1784.496094	172.357513
29607.943617	-1556.931667	1783.491211	273.423920
29607.943617	-1556.931667	1782.486328	-51.433895
29607.943617	-1556.931667	1781.481445	97.118767
29607.943617	-1556.931667	1780.476563	140.934189
29607.943617	-1556.931667	1779.471680	187.063934
29607.943617	-1556.931667	1778.465820	-68.776176
29607.943617	-1556.931667	1777.460938	-162.943375
29607.943617	-1556.931667	1776.455078	-26.622908
29607.943617	-1556.931667	1775.449219	-32.951992
29607.943617	-1556.931667	1774.442383	58.062450
29607.943617	-1556.931667	1773.436523	80.126022
29607.943617	-1556.931667	1772.429688	-118.697807
29607.943617	-1556.931667	1771.422852	83.719582
29607.943617	-1556.931667	1770.416016	67.642662
29607.943617	-1556.931667	1769.409180	94.241203
29607.943617	-1556.931667	1768.402344	118.408600
29607.943617	-1556.931667	1767.394531	125.909157
29607.943617	-1556.931667	1766.386719	121.499672
29607.943617	-1556.931667	1765.378906	79.101906
29607.943617	-1556.931667	1764.371094	-22.600691
29607.943617	-1556.931667	1763.362305	-8.166217
29607.943617	-1556.931667	1762.354492	-259.219086
29607.943617	-1556.931667	1761.345703	46.609955
29607.943617	-1556.931667	1760.336914	-152.340958
29607.943617	-1556.931667	1759.328125	37.190796
29607.943617	-1556.931667	1758.318359	169.760193
29607.943617	-1556.931667	1757.308594	77.294456
29607.943617	-1556.931667	1756.299805	81.878181
29607.943617	-1556.931667	1755.290039	-53.238075
29607.943617	-1556.931667	1754.279297	102.708199
29607.943617	-1556.931667	1753.269531	43.250725
29607.943617	-1556.931667	1752.258789	73.648590
29607.943617	-1556.931667	1751.249023	-21.355310
29607.943617	-1556.931667	1750.238281	188.651276
29607.943617	-1556.931667	1749.226563	-45.932400
29607.943617	-1556.931667	1748.215820	279.719879
29607.943617	-1556.931667	1747.204102	-37.604889
29607.943617	-1556.931667	1746.193359	-80.772697
29607.943617	-1556.931667	1745.181641	-90.904915
29607.943617	-1556.931667	1744.168945	-11.338571
29607.943617	-1556.931667	1743.157227	-104.231331
29607.943617	-1556.931667	1742.144531	10.622314
29607.943617	-1556.931667	1741.132813	-105.944870
29607.943617	-1556.931667	1740.120117	13.485356
29607.943617	-1556.931667	1739.106445	-86.631020
29607.943617	-1556.931667	1738.093750	-82.950195
29607.943617	-1556.931667	1737.080078	-157.163559
29607.943617	-1556.931667	1736.067383	-139.421265
29607.943617	-1556.931667	1735.053711	147.050964
29607.943617	-1556.931667	1734.040039	-174.836990
29607.943617	-1556.931667	1733.025391	-18.202971
29607.943617	-1556.931667	1732.011719	-21.913536
29607.943617	-1556.931667	1730.997070	-152.901764
29607.943617	-1556.931667	1729.982422	-3.576925
29607.943617	-1556.931667	1728.967773	-59.254288
29607.943617	-1556.931667	1727.952148	-34.906372
29607.943617	-1556.931667	1726.937500	-52.987141
29607.943617	-1556.931667	1725.921875	-31.100983
29607.943617	-1556.931667	1724.906250	-138.705719
29607.943617	-1556.931667	1723.890625	-100.438873
29607.943617	-1556.931667	1722.875000	76.557175
29607.943617	-1556.931667	1721.858398	164.055786
29607.943617	-1556.931667	1720.841797	124.490944
29607.943617	-1556.931667	1719.825195	-100.841240
29607.943617	-1556.931667	1718.808594	-46.411247
29607.943617	-1556.931667	1717.791992	137.208878
29607.943617	-1556.931667	1716.774414	-71.696945
29607.943617	-1556.931667	1715.756836	76.517448
29607.943617	-1556.931667	1714.739258	100.142334
29607.943617	-1556.931667	1713.721680	79.091057
29607.943617	-1556.931667	1712.704102	140.178329
29607.943617	-1556.931667	1711.685547	32.172276
29607.943617	-1556.931667	1710.667969	-42.974300
29607.943617	-1556.931667	1709.649414	95.393692
29607.943617	-1556.931667	1708.630859	245.394440
29607.943617	-1556.931667	1707.611328	177.137711
29607.943617	-1556.931667	1706.592773	-95.166489
29607.943617	-1556.931667	1705.573242	75.745033
29607.943617	-1556.931667	1704.553711	68.377350
29607.943617	-1556.931667	1703.534180	-318.737946
29607.943617	-1556.931667	1702.513672	11.331007
29607.943617	-1556.931667	1701.494141	-157.816681
29607.943617	-1556.931667	1700.473633	-85.670135
29607.943617	-1556.931667	1699.453125	152.693924
29607.943617	-1556.931667	1698.432617	84.170403
29607.943617	-1556.931667	1697.412109	-3.098770
29607.943617	-1556.931667	1696.390625	-55.272686
29607.943617	-1556.931667	1695.369141	-105.127121
29607.943617	-1556.931667	1694.347656	1.764086
29607.943617	-1556.931667	1693.326172	-22.432663
29607.943617	-1556.931667	1692.304688	58.591614
29607.943617	-1556.931667	1691.282227	-77.940506
29607.943617	-1556.931667	1690.260742	-53.129265
29607.943617	-1556.931667	1689.238281	128.242538
29607.943617	-1556.931667	1688.214844	3.335359
29607.943617	-1556.931667	1687.192383	219.598984
29607.943617	-1556.931667	1686.168945	253.508255
29607.943617	-1556.931667	1685.146484	235.987686
29607.943617	-1556.931667	1684.123047	-50.135471
29607.943617	-1556.931667	1683.099609	-65.338654
29607.943617	-1556.931667	1682.075195	127.183495
29607.943617	-1556.931667	1681.051758	128.217102
29607.943617	-1556.931667	1680.027344	-3.805350
29607.943617	-1556.931667	1679.002930	27.504095
29607.943617	-1556.931667	1677.978516	285.031647
29607.943617	-1556.931667	1676.953125	218.243652
29607.943617	-1556.931667	1675.928711	244.725418
29607.943617	-1556.931667	1674.903320	168.579056
29607.943617	-1556.931667	1673.877930	367.466156
29607.943617	-1556.931667	1672.852539	307.572723
29607.943617	-1556.931667	1671.826172	287.270294
29607.943617	-1556.931667	1670.800781	495.241150
29607.943617	-1556.931667	1669.774414	330.447510
29607.943617	-1556.931667	1668.748047	463.745422
29607.943617	-1556.931667	1667.721680	364.148132
29607.943617	-1556.931667	1666.694336	413.523132
29607.943617	-1556.931667	1665.667969	379.077362
29607.943617	-1556.931667	1664.640625	372.529694
29607.943617	-1556.931667	1663.613281	328.734375
29607.943617	-1556.931667	1662.585938	403.549347
29607.943617	-1556.931667	1661.557617	273.660400
29607.943617	-1556.931667	1660.530273	480.928070
29607.943617	-1556.931667	1659.501953	232.469406
29607.943617	-1556.931667	1658.473633	811.460144
29607.943617	-1556.931667	1657.444336	562.975525
29607.943617	-1556.931667	1656.416016	519.011169
29607.943617	-1556.931667	1655.386719	579.555969
29607.943617	-1556.931667	1654.358398	619.161255
29607.943617	-1556.931667	1653.328125	563.515564
29607.943617	-1556.931667	1652.298828	579.841614
29607.943617	-1556.931667	1651.269531	749.321167
29607.943617	-1556.931667	1650.239258	786.437622
29607.943617	-1556.931667	1649.208984	658.794678
29607.943617	-1556.931667	1648.178711	579.893860
29607.943617	-1556.931667	1647.148438	737.557007
29607.943617	-1556.931667	1646.117188	906.725586
29607.943617	-1556.931667	1645.086914	767.490173
29607.943617	-1556.931667	1644.055664	760.397095
29607.943617	-1556.931667	1643.024414	1188.954346
29607.943617	-1556.931667	1641.992188	989.437378
29607.943617	-1556.931667	1640.960938	1132.825439
29607.943617	-1556.931667	1639.928711	1317.823120
29607.943617	-1556.931667	1638.896484	1241.074951
29607.943617	-1556.931667	1637.864258	1238.426514
29607.943617	-1556.931667	1636.832031	951.062012
29607.943617	-1556.931667	1635.798828	1149.772217
29607.943617	-1556.931667	1634.766602	1038.356201
29607.943617	-1556.931667	1633.733398	1144.415527
29607.943617	-1556.931667	1632.699219	949.740967
29607.943617	-1556.931667	1631.666016	935.508362
29607.943617	-1556.931667	1630.632813	992.943237
29607.943617	-1556.931667	1629.598633	980.991760
29607.943617	-1556.931667	1628.564453	1160.855469
29607.943617	-1556.931667	1627.530273	1197.381714
29607.943617	-1556.931667	1626.495117	1171.504028
29607.943617	-1556.931667	1625.460938	1475.928467
29607.943617	-1556.931667	1624.425781	1632.426758
29607.943617	-1556.931667	1623.390625	1673.416260
29607.943617	-1556.931667	1622.355469	1806.720947
29607.943617	-1556.931667	1621.319336	1584.538818
29607.943617	-1556.931667	1620.284180	1987.776367
29607.943617	-1556.931667	1619.248047	1906.368164
29607.943617	-1556.931667	1618.211914	1843.440918
29607.943617	-1556.931667	1617.174805	1983.468872
29607.943617	-1556.931667	1616.138672	1768.373169
29607.943617	-1556.931667	1615.101563	1887.612915
29607.943617	-1556.931667	1614.065430	2069.042725
29607.943617	-1556.931667	1613.027344	1978.474731
29607.943617	-1556.931667	1611.990234	1680.601074
29607.943617	-1556.931667	1610.953125	1732.968506
29607.943617	-1556.931667	1609.915039	1886.642456
29607.943617	-1556.931667	1608.876953	1862.963135
29607.943617	-1556.931667	1607.838867	1820.880493
29607.943617	-1556.931667	1606.800781	1684.451782
29607.943617	-1556.931667	1605.761719	1775.891724
29607.943617	-1556.931667	1604.723633	1862.708252
29607.943617	-1556.931667	1603.684570	1744.763062
29607.943617	-1556.931667	1602.644531	1994.838867
29607.943617	-1556.931667	1601.605469	1985.001221
29607.943617	-1556.931667	1600.566406	1998.165161
29607.943617	-1556.931667	1599.526367	2066.489014
29607.943617	-1556.931667	1598.486328	2077.345947
29607.943617	-1556.931667	1597.446289	2097.397705
29607.943617	-1556.931667	1596.405273	2165.685547
29607.943617	-1556.931667	1595.365234	2293.681885
29607.943617	-1556.931667	1594.324219	2127.710449
29607.943617	-1556.931667	1593.283203	2262.569336
29607.943617	-1556.931667	1592.242188	2491.499512
29607.943617	-1556.931667	1591.200195	2513.801758
29607.943617	-1556.931667	1590.159180	2042.809937
29607.943617	-1556.931667	1589.117188	2335.918213
29607.943617	-1556.931667	1588.075195	2463.789551
29607.943617	-1556.931667	1587.032227	2360.016113
29607.943617	-1556.931667	1585.990234	2043.087891
29607.943617	-1556.931667	1584.947266	2063.254639
29607.943617	-1556.931667	1583.904297	2058.220215
29607.943617	-1556.931667	1582.861328	1835.532349
29607.943617	-1556.931667	1581.818359	1940.547119
29607.943617	-1556.931667	1580.775391	1885.212402
29607.943617	-1556.931667	1579.731445	2029.141846
29607.943617	-1556.931667	1578.687500	1712.839355
29607.943617	-1556.931667	1577.643555	1634.748901
29607.943617	-1556.931667	1576.598633	1575.013550
29607.943617	-1556.931667	1575.554688	1396.347900
29607.943617	-1556.931667	1574.509766	1519.751587
29607.943617	-1556.931667	1573.464844	1350.359009
29607.943617	-1556.931667	1572.419922	1503.503784
29607.943617	-1556.931667	1571.374023	1334.225708
29607.943617	-1556.931667	1570.329102	1485.081909
29607.943617	-1556.931667	1569.283203	1574.190308
29607.943617	-1556.931667	1568.237305	1299.968384
29607.943617	-1556.931667	1567.191406	1366.290771
29607.943617	-1556.931667	1566.144531	1428.040283
29607.943617	-1556.931667	1565.098633	1357.347778
29607.943617	-1556.931667	1564.051758	1526.449707
29607.943617	-1556.931667	1563.004883	1323.418701
29607.943617	-1556.931667	1561.957031	1179.832886
29607.943617	-1556.931667	1560.910156	1328.429565
29607.943617	-1556.931667	1559.862305	1312.728394
29607.943617	-1556.931667	1558.814453	1347.250122
29607.943617	-1556.931667	1557.766602	1427.403809
29607.943617	-1556.931667	1556.718750	1427.757080
29607.943617	-1556.931667	1555.669922	1510.206787
29607.943617	-1556.931667	1554.621094	1469.582886
29607.943617	-1556.931667	1553.573242	1577.139404
29607.943617	-1556.931667	1552.523438	1454.566162
29607.943617	-1556.931667	1551.474609	1482.426270
29607.943617	-1556.931667	1550.424805	1523.971802
29607.943617	-1556.931667	1549.375000	975.800110
29607.943617	-1556.931667	1548.325195	1329.394287
29607.943617	-1556.931667	1547.275391	1223.119019
29607.943617	-1556.931667	1546.225586	1050.933960
29607.943617	-1556.931667	1545.174805	967.582581
29607.943617	-1556.931667	1544.124023	1032.166260
29607.943617	-1556.931667	1543.073242	1287.807617
29607.943617	-1556.931667	1542.022461	877.153503
29607.943617	-1556.931667	1540.970703	873.637268
29607.943617	-1556.931667	1539.919922	906.540527
29607.943617	-1556.931667	1538.868164	1007.645203
29607.943617	-1556.931667	1537.815430	1040.585815
29607.943617	-1556.931667	1536.763672	869.122070
29607.943617	-1556.931667	1535.710938	1086.135010
29607.943617	-1556.931667	1534.659180	1073.773804
29607.943617	-1556.931667	1533.606445	986.539673
29607.943617	-1556.931667	1532.552734	881.222351
29607.943617	-1556.931667	1531.500000	721.538147
29607.943617	-1556.931667	1530.446289	1151.878296
29607.943617	-1556.931667	1529.393555	908.368958
29607.943617	-1556.931667	1528.338867	728.497925
29607.943617	-1556.931667	1527.285156	839.003967
29607.943617	-1556.931667	1526.231445	548.235840
29607.943617	-1556.931667	1525.176758	701.898926
29607.943617	-1556.931667	1524.122070	783.032959
29607.943617	-1556.931667	1523.067383	809.808350
29607.943617	-1556.931667	1522.012695	823.035034
29607.943617	-1556.931667	1520.957031	1042.408936
29607.943617	-1556.931667	1519.901367	1008.133423
29607.943617	-1556.931667	1518.845703	973.924927
29607.943617	-1556.931667	1517.790039	828.871704
29607.943617	-1556.931667	1516.734375	912.503418
29607.943617	-1556.931667	1515.677734	1138.700806
29607.943617	-1556.931667	1514.621094	1014.222656
29607.943617	-1556.931667	1513.564453	1145.428833
29607.943617	-1556.931667	1512.507813	1021.112732
29607.943617	-1556.931667	1511.450195	1116.201050
29607.943617	-1556.931667	1510.393555	1068.909912
29607.943617	-1556.931667	1509.335938	1125.647949
29607.943617	-1556.931667	1508.278320	868.350708
29607.943617	-1556.931667	1507.219727	699.313232
29607.943617	-1556.931667	1506.162109	505.561615
29607.943617	-1556.931667	1505.103516	555.825500
29607.943617	-1556.931667	1504.044922	504.532104
29607.943617	-1556.931667	1502.986328	315.627106
29607.943617	-1556.931667	1501.926758	187.786758
29607.943617	-1556.931667	1500.868164	387.238708
29607.943617	-1556.931667	1499.808594	356.564667
29607.943617	-1556.931667	1498.749023	371.073395
29607.943617	-1556.931667	1497.688477	148.857407
29607.943617	-1556.931667	1496.628906	131.964157
29607.943617	-1556.931667	1495.568359	261.655518
29607.943617	-1556.931667	1494.507813	316.988007
29607.943617	-1556.931667	1493.447266	92.960022
29607.943617	-1556.931667	1492.386719	380.470245
29607.943617	-1556.931667	1491.325195	116.101746
29607.943617	-1556.931667	1490.263672	11.788742
29607.943617	-1556.931667	1489.202148	182.260025
29607.943617	-1556.931667	1488.140625	15.078341
29607.943617	-1556.931667	1487.079102	95.590637
29607.943617	-1556.931667	1486.016602	-114.131454
29607.943617	-1556.931667	1484.954102	-73.990005
29607.943617	-1556.931667	1483.891602	44.925388
29607.943617	-1556.931667	1482.829102	35.682335
29607.943617	-1556.931667	1481.765625	10.771648
29607.943617	-1556.931667	1480.702148	-20.799835
29607.943617	-1556.931667	1479.638672	100.524742
29607.943617	-1556.931667	1478.575195	329.737762
29607.943617	-1556.931667	1477.511719	260.112885
29607.943617	-1556.931667	1476.447266	318.692993
29607.943617	-1556.931667	1475.382813	583.798950
29607.943617	-1556.931667	1474.318359	166.547241
29607.943617	-1556.931667	1473.253906	604.412598
29607.943617	-1556.931667	1472.189453	387.168671
29607.943617	-1556.931667	1471.124023	434.659332
29607.943617	-1556.931667	1470.058594	215.521667
29607.943617	-1556.931667	1468.993164	270.088745
29607.943617	-1556.931667	1467.927734	707.599060
29607.943617	-1556.931667	1466.861328	511.115540
29607.943617	-1556.931667	1465.794922	570.251404
29607.943617	-1556.931667	1464.728516	311.692413
29607.943617	-1556.931667	1463.662109	634.473755
29607.943617	-1556.931667	1462.594727	624.268982
29607.943617	-1556.931667	1461.528320	402.389709
29607.943617	-1556.931667	1460.460938	370.228760
29607.943617	-1556.931667	1459.393555	601.467407
29607.943617	-1556.931667	1458.326172	540.731628
29607.943617	-1556.931667	1457.257813	460.927704
29607.943617	-1556.931667	1456.189453	443.020813
29607.943617	-1556.931667	1455.121094	879.592041
29607.943617	-1556.931667	1454.052734	910.168884
29607.943617	-1556.931667	1452.984375	919.868469
29607.943617	-1556.931667	1451.915039	791.695129
29607.943617	-1556.931667	1450.845703	890.419250
29607.943617	-1556.931667	1449.776367	845.565308
29607.943617	-1556.931667	1448.707031	1002.779785
29607.943617	-1556.931667	1447.636719	797.460815
29607.943617	-1556.931667	1446.567383	1077.720581
29607.943617	-1556.931667	1445.497070	1132.619873
29607.943617	-1556.931667	1444.425781	1055.225342
29607.943617	-1556.931667	1443.355469	1297.515991
29607.943617	-1556.931667	1442.285156	1402.541382
29607.943617	-1556.931667	1441.213867	1040.237061
29607.943617	-1556.931667	1440.142578	1045.633301
29607.943617	-1556.931667	1439.070313	1047.014526
29607.943617	-1556.931667	1437.999023	1008.353210
29607.943617	-1556.931667	1436.926758	1289.713989
29607.943617	-1556.931667	1435.854492	1091.771606
29607.943617	-1556.931667	1434.782227	921.972229
29607.943617	-1556.931667	1433.709961	961.312012
29607.943617	-1556.931667	1432.636719	945.802063
29607.943617	-1556.931667	1431.563477	736.311157
29607.943617	-1556.931667	1430.490234	809.826477
29607.943617	-1556.931667	1429.416992	752.232788
29607.943617	-1556.931667	1428.343750	458.383423
29607.943617	-1556.931667	1427.269531	518.375977
29607.943617	-1556.931667	1426.195313	479.848267
29607.943617	-1556.931667	1425.121094	277.181976
29607.943617	-1556.931667	1424.046875	384.563599
29607.943617	-1556.931667	1422.971680	330.209961
29607.943617	-1556.931667	1421.896484	523.119934
29607.943617	-1556.931667	1420.821289	356.965332
29607.943617	-1556.931667	1419.746094	339.563354
29607.943617	-1556.931667	1418.669922	406.511047
29607.943617	-1556.931667	1417.594727	307.501770
29607.943617	-1556.931667	1416.518555	495.124207
29607.943617	-1556.931667	1415.442383	677.332886
29607.943617	-1556.931667	1414.365234	466.247528
29607.943617	-1556.931667	1413.289063	664.195679
29607.943617	-1556.931667	1412.211914	968.766541
29607.943617	-1556.931667	1411.134766	829.292358
29607.943617	-1556.931667	1410.057617	680.648804
29607.943617	-1556.931667	1408.979492	736.661011
29607.943617	-1556.931667	1407.902344	904.369751
29607.943617	-1556.931667	1406.824219	1193.982056
29607.943617	-1556.931667	1405.746094	1189.988892
29607.943617	-1556.931667	1404.666992	1344.613159
29607.943617	-1556.931667	1403.588867	1344.162354
29607.943617	-1556.931667	1402.509766	1373.059204
29607.943617	-1556.931667	1401.430664	1378.606567
29607.943617	-1556.931667	1400.351563	1215.515381
29607.943617	-1556.931667	1399.271484	1230.302734
29607.943617	-1556.931667	1398.192383	1349.058594
29607.943617	-1556.931667	1397.112305	1284.895874
29607.943617	-1556.931667	1396.031250	1413.921631
29607.943617	-1556.931667	1394.951172	1455.079346
29607.943617	-1556.931667	1393.871094	1592.806274
29607.943617	-1556.931667	1392.790039	1619.230835
29607.943617	-1556.931667	1391.708984	1471.173340
29607.943617	-1556.931667	1390.626953	1432.174683
29607.943617	-1556.931667	1389.545898	1302.068359
29607.943617	-1556.931667	1388.463867	1376.014404
29607.943617	-1556.931667	1387.381836	1138.969727
29607.943617	-1556.931667	1386.299805	1260.166260
29607.943617	-1556.931667	1385.217773	1039.413208
29607.943617	-1556.931667	1384.134766	1181.874146
29607.943617	-1556.931667	1383.051758	1272.043335
29607.943617	-1556.931667	1381.968750	795.454590
29607.943617	-1556.931667	1380.885742	964.713196
29607.943617	-1556.931667	1379.802734	926.077576
29607.943617	-1556.931667	1378.718750	1221.721069
29607.943617	-1556.931667	1377.634766	954.019653
29607.943617	-1556.931667	1376.550781	1101.613647
29607.943617	-1556.931667	1375.465820	900.979187
29607.943617	-1556.931667	1374.381836	1192.976318
29607.943617	-1556.931667	1373.296875	1030.534546
29607.943617	-1556.931667	1372.211914	922.224854
29607.943617	-1556.931667	1371.126953	973.304565
29607.943617	-1556.931667	1370.041016	1021.364563
29607.943617	-1556.931667	1368.955078	1175.683594
29607.943617	-1556.931667	1367.869141	1046.530762
29607.943617	-1556.931667	1366.783203	1095.129272
29607.943617	-1556.931667	1365.697266	952.460266
29607.943617	-1556.931667	1364.610352	1290.700806
29607.943617	-1556.931667	1363.523438	1180.624390
29607.943617	-1556.931667	1362.436523	1030.937622
29607.943617	-1556.931667	1361.349609	980.729980
29607.943617	-1556.931667	1360.261719	1087.460938
29607.943617	-1556.931667	1359.174805	1335.905640
29607.943617	-1556.931667	1358.086914	1222.580322
29607.943617	-1556.931667	1356.998047	1118.449585
29607.943617	-1556.931667	1355.910156	1006.414124
29607.943617	-1556.931667	1354.821289	1177.439697
29607.943617	-1556.931667	1353.732422	1269.553955
29607.943617	-1556.931667	1352.643555	1230.657104
29607.943617	-1556.931667	1351.554688	1157.585571
29607.943617	-1556.931667	1350.464844	1591.148926
29607.943617	-1556.931667	1349.375000	991.276917
29607.943617	-1556.931667	1348.285156	1080.339355
29607.943617	-1556.931667	1347.195313	963.949219
29607.943617	-1556.931667	1346.105469	953.711365
29607.943617	-1556.931667	1345.014648	1034.511841
29607.943617	-1556.931667	1343.923828	873.523315
29607.943617	-1556.931667	1342.833008	846.187927
29607.943617	-1556.931667	1341.741211	966.015747
29607.943617	-1556.931667	1340.650391	1031.941162
29607.943617	-1556.931667	1339.558594	933.667725
29607.943617	-1556.931667	1338.466797	1038.764282
29607.943617	-1556.931667	1337.374023	953.207092
29607.943617	-1556.931667	1336.282227	979.415588
29607.943617	-1556.931667	1335.189453	1093.205811
29607.943617	-1556.931667	1334.096680	1194.746094
29607.943617	-1556.931667	1333.003906	966.801697
29607.943617	-1556.931667	1331.910156	1003.372375
29607.943617	-1556.931667	1330.817383	1051.421143
29607.943617	-1556.931667	1329.723633	1253.003540
29607.943617	-1556.931667	1328.629883	1264.705933
29607.943617	-1556.931667	1327.535156	1357.089722
29607.943617	-1556.931667	1326.441406	1410.500244
29607.943617	-1556.931667	1325.346680	1500.815918
29607.943617	-1556.931667	1324.251953	1510.093384
29607.943617	-1556.931667	1323.156250	1250.336670
29607.943617	-1556.931667	1322.061523	1307.221802
29607.943617	-1556.931667	1320.965820	1397.393188
29607.943617	-1556.931667	1319.870117	1280.682617
29607.943617	-1556.931667	1318.774414	1450.418823
29607.943617	-1556.931667	1317.678711	1476.378418
29607.943617	-1556.931667	1316.582031	1308.120605
29607.943617	-1556.931667	1315.485352	1265.567871
29607.943617	-1556.931667	1314.388672	1329.232300
29607.943617	-1556.931667	1313.291016	1234.293945
29607.943617	-1556.931667	1312.194336	1390.035889
29607.943617	-1556.931667	1311.096680	1134.337280
29607.943617	-1556.931667	1309.999023	1444.264893
29607.943617	-1556.931667	1308.901367	1060.495239
29607.943617	-1556.931667	1307.802734	1161.691895
29607.943617	-1556.931667	1306.705078	1103.762207
29607.943617	-1556.931667	1305.606445	1137.072388
29607.943617	-1556.931667	1304.506836	1048.817139
29607.943617	-1556.931667	1303.408203	1200.884155
29607.943617	-1556.931667	1302.308594	1057.652466
29607.943617	-1556.931667	1301.208984	1139.001099
29607.943617	-1556.931667	1300.109375	975.999878
29607.943617	-1556.931667	1299.009766	861.125793
29607.943617	-1556.931667	1297.909180	967.502747
29607.943617	-1556.931667	1296.808594	990.597717
29607.943617	-1556.931667	1295.708008	988.853394
29607.943617	-1556.931667	1294.607422	856.930481
29607.943617	-1556.931667	1293.506836	937.438721
29607.943617	-1556.931667	1292.405273	873.652710
29607.943617	-1556.931667	1291.303711	692.213806
29607.943617	-1556.931667	1290.202148	770.288574
29607.943617	-1556.931667	1289.099609	550.872253
29607.943617	-1556.931667	1287.998047	676.933594
29607.943617	-1556.931667	1286.895508	636.591797
29607.943617	-1556.931667	1285.792969	429.300537
29607.943617	-1556.931667	1284.689453	480.053375
29607.943617	-1556.931667	1283.586914	531.935059
29607.943617	-1556.931667	1282.483398	431.038452
29607.943617	-1556.931667	1281.379883	338.114227
29607.943617	-1556.931667	1280.276367	199.857132
29607.943617	-1556.931667	1279.171875	280.976532
29607.943617	-1556.931667	1278.067383	427.911469
29607.943617	-1556.931667	1276.962891	290.416290
29607.943617	-1556.931667	1275.858398	331.726746
29607.943617	-1556.931667	1274.753906	374.340393
29607.943617	-1556.931667	1273.648438	180.588791
29607.943617	-1556.931667	1272.542969	18.832691
29607.943617	-1556.931667	1271.437500	266.178009
29607.943617	-1556.931667	1270.331055	-36.098289
29607.943617	-1556.931667	1269.225586	244.902420
29607.943617	-1556.931667	1268.119141	280.304871
29607.943617	-1556.931667	1267.012695	174.947296
29607.943617	-1556.931667	1265.906250	208.632858
29607.943617	-1556.931667	1264.798828	254.615173
29607.943617	-1556.931667	1263.691406	136.588821
29607.943617	-1556.931667	1262.583984	33.665585
29607.943617	-1556.931667	1261.476563	248.754120
29607.943617	-1556.931667	1260.368164	86.820999
29607.943617	-1556.931667	1259.260742	10.260625
29607.943617	-1556.931667	1258.152344	-29.542160
29607.943617	-1556.931667	1257.043945	51.257538
29607.943617	-1556.931667	1255.934570	45.344112
29607.943617	-1556.931667	1254.825195	-125.855537
29607.943617	-1556.931667	1253.716797	36.337383
29607.943617	-1556.931667	1252.606445	-47.923210
29607.943617	-1556.931667	1251.497070	-57.676048
29607.943617	-1556.931667	1250.387695	-279.971069
29607.943617	-1556.931667	1249.277344	-179.530090
29607.943617	-1556.931667	1248.166992	-160.933060
29607.943617	-1556.931667	1247.055664	-11.080484
29607.943617	-1556.931667	1245.945313	-128.991287
29607.943617	-1556.931667	1244.833984	-114.889717
29607.943617	-1556.931667	1243.722656	-66.289398
29607.943617	-1556.931667	1242.611328	-42.785572
29607.943617	-1556.931667	1241.499023	-119.006172
29607.943617	-1556.931667	1240.387695	-77.478050
29607.943617	-1556.931667	1239.275391	-92.112839
29607.943617	-1556.931667	1238.162109	59.068481
29607.943617	-1556.931667	1237.049805	-16.267614
29607.943617	-1556.931667	1235.936523	-27.782711
29607.943617	-1556.931667	1234.823242	-92.824486
29607.943617	-1556.931667	1233.709961	-128.239120
29607.943617	-1556.931667	1232.596680	-58.896240
29607.943617	-1556.931667	1231.482422	-95.912979
29607.943617	-1556.931667	1230.369141	-175.251816
29607.943617	-1556.931667	1229.253906	-133.760254
29607.943617	-1556.931667	1228.139648	44.594780
29607.943617	-1556.931667	1227.025391	-280.011841
29607.943617	-1556.931667	1225.910156	86.124069
29607.943617	-1556.931667	1224.794922	-27.332489
29607.943617	-1556.931667	1223.679688	-22.488426
29607.943617	-1556.931667	1222.563477	133.444443
29607.943617	-1556.931667	1221.447266	179.166260
29607.943617	-1556.931667	1220.331055	235.185394
29607.943617	-1556.931667	1219.214844	212.052139
29607.943617	-1556.931667	1218.098633	353.454529
29607.943617	-1556.931667	1216.981445	493.379028
29607.943617	-1556.931667	1215.864258	435.545288
29607.943617	-1556.931667	1214.747070	263.116974
29607.943617	-1556.931667	1213.629883	373.823151
29607.943617	-1556.931667	1212.511719	99.446098
29607.943617	-1556.931667	1211.393555	65.770035
29607.943617	-1556.931667	1210.275391	-40.517010
29607.943617	-1556.931667	1209.157227	32.896072
29607.943617	-1556.931667	1208.038086	239.320908
29607.943617	-1556.931667	1206.918945	82.397163
29607.943617	-1556.931667	1205.799805	48.836338
29607.943617	-1556.931667	1204.680664	79.295242
29607.943617	-1556.931667	1203.560547	170.029846
29607.943617	-1556.931667	1202.441406	131.711563
29607.943617	-1556.931667	1201.321289	159.259949
29607.943617	-1556.931667	1200.200195	38.853302
29607.943617	-1556.931667	1199.080078	59.967770
29607.943617	-1556.931667	1197.958984	4.681089
29607.943617	-1556.931667	1196.837891	82.911324
29607.943617	-1556.931667	1195.716797	154.088760
29607.943617	-1556.931667	1194.594727	171.820877
29607.943617	-1556.931667	1193.473633	127.206970
29607.943617	-1556.931667	1192.351563	18.937031
29607.943617	-1556.931667	1191.229492	144.978973
29607.943617	-1556.931667	1190.106445	108.237152
29607.943617	-1556.931667	1188.984375	24.056061
29607.943617	-1556.931667	1187.861328	113.616829
29607.943617	-1556.931667	1186.738281	254.308334
29607.943617	-1556.931667	1185.614258	222.294662
29607.943617	-1556.931667	1184.491211	198.727036
29607.943617	-1556.931667	1183.367188	323.754303
29607.943617	-1556.931667	1182.243164	150.554474
29607.943617	-1556.931667	1181.119141	190.760971
29607.943617	-1556.931667	1179.994141	253.223404
29607.943617	-1556.931667	1178.869141	292.422546
29607.943617	-1556.931667	1177.744141	351.969421
29607.943617	-1556.931667	1176.619141	371.616608
29607.943617	-1556.931667	1175.493164	190.309387
29607.943617	-1556.931667	1174.368164	187.608414
29607.943617	-1556.931667	1173.242188	-37.048588
29607.943617	-1556.931667	1172.115234	-142.275238
29607.943617	-1556.931667	1170.989258	-38.133846
29607.943617	-1556.931667	1169.862305	12.061296
29607.943617	-1556.931667	1168.735352	-82.718658
29607.943617	-1556.931667	1167.608398	47.132458
29607.943617	-1556.931667	1166.481445	-133.100494
29607.943617	-1556.931667	1165.353516	-28.163727
29607.943617	-1556.931667	1164.225586	5.423742
29607.943617	-1556.931667	1163.097656	-149.690887
29607.943617	-1556.931667	1161.968750	-84.332985
29607.943617	-1556.931667	1160.840820	-157.628006
29607.943617	-1556.931667	1159.711914	-22.236206
29607.943617	-1556.931667	1158.583008	-14.371788
29607.943617	-1556.931667	1157.453125	-60.258614
29607.943617	-1556.931667	1156.324219	-14.084481
29607.943617	-1556.931667	1155.194336	-49.737305
29607.943617	-1556.931667	1154.064453	-101.208549
29607.943617	-1556.931667	1152.933594	-167.328568
29607.943617	-1556.931667	1151.803711	-22.478373
29607.943617	-1556.931667	1150.672852	-117.414154
29607.943617	-1556.931667	1149.541992	-120.075539
29607.943617	-1556.931667	1148.411133	-20.017416
29607.943617	-1556.931667	1147.279297	105.577240
29607.943617	-1556.931667	1146.147461	-35.043629
29607.943617	-1556.931667	1145.015625	-50.395836
29607.943617	-1556.931667	1143.883789	130.325119
29607.943617	-1556.931667	1142.750977	197.405914
29607.943617	-1556.931667	1141.619141	120.283318
29607.943617	-1556.931667	1140.486328	-27.239592
29607.943617	-1556.931667	1139.352539	-57.082981
29607.943617	-1556.931667	1138.219727	-28.602921
29607.943617	-1556.931667	1137.085938	-94.753288
29607.943617	-1556.931667	1135.952148	53.099823
29607.943617	-1556.931667	1134.818359	-54.170696
29607.943617	-1556.931667	1133.683594	9.233441
29607.943617	-1556.931667	1132.549805	176.692719
29607.943617	-1556.931667	1131.415039	280.256012
29607.943617	-1556.931667	1130.279297	176.870377
29607.943617	-1556.931667	1129.144531	180.214279
29607.943617	-1556.931667	1128.008789	307.011292
29607.943617	-1556.931667	1126.873047	209.371124
29607.943617	-1556.931667	1125.737305	302.043640
29607.943617	-1556.931667	1124.601563	194.524780
29607.943617	-1556.931667	1123.464844	267.986755
29607.943617	-1556.931667	1122.328125	181.923157
29607.943617	-1556.931667	1121.191406	296.596527
29607.943617	-1556.931667	1120.054688	219.847641
29607.943617	-1556.931667	1118.916992	234.739182
29607.943617	-1556.931667	1117.779297	146.525589
29607.943617	-1556.931667	1116.641602	146.234131
29607.943617	-1556.931667	1115.503906	45.121544
29607.943617	-1556.931667	1114.365234	220.112793
29607.943617	-1556.931667	1113.226563	177.102066
29607.943617	-1556.931667	1112.087891	103.698669
29607.943617	-1556.931667	1110.949219	-57.762505
29607.943617	-1556.931667	1109.809570	32.408066
29607.943617	-1556.931667	1108.669922	146.599808
29607.943617	-1556.931667	1107.530273	51.901524
29607.943617	-1556.931667	1106.390625	43.607121
29607.943617	-1556.931667	1105.250000	44.229286
29607.943617	-1556.931667	1104.109375	-9.792650
29607.943617	-1556.931667	1102.968750	210.570572
29607.943617	-1556.931667	1101.828125	36.304287
29607.943617	-1556.931667	1100.686523	85.082222
29607.943617	-1556.931667	1099.544922	105.861412
29607.943617	-1556.931667	1098.403320	242.755112
29607.943617	-1556.931667	1097.261719	205.732071
29607.943617	-1556.931667	1096.120117	183.334244
29607.943617	-1556.931667	1094.977539	275.790009
29607.943617	-1556.931667	1093.834961	308.459808
29607.943617	-1556.931667	1092.691406	323.123688
29607.943617	-1556.931667	1091.548828	314.777252
29607.943617	-1556.931667	1090.405273	110.289124
29607.943617	-1556.931667	1089.261719	145.964249
29607.943617	-1556.931667	1088.118164	197.128830
29607.943617	-1556.931667	1086.973633	104.404610
29607.943617	-1556.931667	1085.829102	179.191330
29607.943617	-1556.931667	1084.684570	84.224350
29607.943617	-1556.931667	1083.540039	86.414864
29607.943617	-1556.931667	1082.395508	-12.568160
29607.943617	-1556.931667	1081.250000	81.881317
29607.943617	-1556.931667	1080.104492	242.134842
29607.943617	-1556.931667	1078.958984	268.098724
29607.943617	-1556.931667	1077.812500	352.648438
29607.943617	-1556.931667	1076.666016	445.063843
29607.943617	-1556.931667	1075.519531	310.472931
29607.943617	-1556.931667	1074.373047	324.312286
29607.943617	-1556.931667	1073.226563	468.631775
29607.943617	-1556.931667	1072.079102	196.687653
29607.943617	-1556.931667	1070.931641	241.414200
29607.943617	-1556.931667	1069.784180	113.759743
29607.943617	-1556.931667	1068.635742	159.223633
29607.943617	-1556.931667	1067.487305	68.369141
29607.943617	-1556.931667	1066.338867	127.293999
29607.943617	-1556.931667	1065.190430	88.220947
29607.943617	-1556.931667	1064.041992	202.727234
29607.943617	-1556.931667	1062.892578	197.373688
29607.943617	-1556.931667	1061.743164	-12.622062
29607.943617	-1556.931667	1060.593750	279.787964
29607.943617	-1556.931667	1059.443359	159.790497
29607.943617	-1556.931667	1058.292969	65.373779
29607.943617	-1556.931667	1057.142578	282.401215
29607.943617	-1556.931667	1055.992188	-3.470864
29607.943617	-1556.931667	1054.841797	44.384655
29607.943617	-1556.931667	1053.690430	-115.488182
29607.943617	-1556.931667	1052.539063	131.572815
29607.943617	-1556.931667	1051.387695	246.307053
29607.943617	-1556.931667	1050.235352	197.358124
29607.943617	-1556.931667	1049.083984	-38.503193
29607.943617	-1556.931667	1047.931641	152.023849
29607.943617	-1556.931667	1046.778320	61.792828
29607.943617	-1556.931667	1045.625977	154.613724
29607.943617	-1556.931667	1044.472656	186.212952
29607.943617	-1556.931667	1043.319336	195.823196
29607.943617	-1556.931667	1042.166016	217.176071
29607.943617	-1556.931667	1041.012695	93.067604
29607.943617	-1556.931667	1039.858398	113.449867
29607.943617	-1556.931667	1038.704102	115.584930
29607.943617	-1556.931667	1037.549805	103.746399
29607.943617	-1556.931667	1036.394531	263.445831
29607.943617	-1556.931667	1035.239258	117.891670
29607.943617	-1556.931667	1034.083984	28.132919
29607.943617	-1556.931667	1032.928711	6.847469
29607.943617	-1556.931667	1031.773438	63.834316
29607.943617	-1556.931667	1030.617188	292.958466
29607.943617	-1556.931667	1029.460938	285.043671
29607.943617	-1556.931667	1028.304688	164.646790
29607.943617	-1556.931667	1027.147461	456.419861
29607.943617	-1556.931667	1025.991211	-54.244446
29607.943617	-1556.931667	1024.833984	186.622849
29607.943617	-1556.931667	1023.675781	176.215210
29607.943617	-1556.931667	1022.518555	-43.210270
29607.943617	-1556.931667	1021.360352	53.160934
29607.943617	-1556.931667	1020.202148	64.163528
29607.943617	-1556.931667	1019.043945	86.880699
29607.943617	-1556.931667	1017.884766	103.630386
29607.943617	-1556.931667	1016.726563	-103.894608
29607.943617	-1556.931667	1015.567383	-5.543975
29607.943617	-1556.931667	1014.407227	18.718565
29607.943617	-1556.931667	1013.248047	-39.614285
29607.943617	-1556.931667	1012.087891	23.114540
29607.943617	-1556.931667	1010.927734	-45.199581
29607.943617	-1556.931667	1009.767578	-67.087700
29607.943617	-1556.931667	1008.606445	203.821701
29607.943617	-1556.931667	1007.446289	48.252956
29607.943617	-1556.931667	1006.285156	55.531898
29607.943617	-1556.931667	1005.123047	172.390121
29607.943617	-1556.931667	1003.961914	-7.511423
29607.943617	-1556.931667	1002.799805	-134.954407
29607.943617	-1556.931667	1001.637695	55.925430
29607.943617	-1556.931667	1000.475586	51.578495
29607.943617	-1556.931667	999.312500	225.780487
29607.943617	-1556.931667	998.149414	206.482620
29607.943617	-1556.931667	996.986328	147.423416
29607.943617	-1556.931667	995.823242	246.907715
29607.943617	-1556.931667	994.659180	43.587177
29607.943617	-1556.931667	993.496094	239.069275
29607.943617	-1556.931667	992.332031	227.768387
29607.943617	-1556.931667	991.166992	194.311615
29607.943617	-1556.931667	990.002930	-146.637787
29607.943617	-1556.931667	988.837891	-39.924335
29607.943617	-1556.931667	987.672852	118.131836
29607.943617	-1556.931667	986.506836	180.849258
29607.943617	-1556.931667	985.341797	166.558258
29607.943617	-1556.931667	984.175781	24.238462
29607.943617	-1556.931667	983.009766	269.428162
29607.943617	-1556.931667	981.843750	235.834625
29607.943617	-1556.931667	980.676758	169.121002
29607.943617	-1556.931667	979.509766	-285.053253
29607.943617	-1556.931667	978.342773	-121.740654
29607.943617	-1556.931667	977.175781	-105.747673
29607.943617	-1556.931667	976.007813	-93.274445
29607.943617	-1556.931667	974.839844	177.842422
29607.943617	-1556.931667	973.671875	111.073845
29607.943617	-1556.931667	972.503906	-173.558517
29607.943617	-1556.931667	971.334961	74.989273
29607.943617	-1556.931667	970.166016	47.143368
29607.943617	-1556.931667	968.997070	109.019188
29607.943617	-1556.931667	967.828125	-31.632109
29607.943617	-1556.931667	966.658203	-295.750031
29607.943617	-1556.931667	965.488281	-150.608566
29607.943617	-1556.931667	964.318359	-154.135300
29607.943617	-1556.931667	963.148438	5.889688
29607.943617	-1556.931667	961.977539	77.292473
29607.943617	-1556.931667	960.806641	68.975830
29607.943617	-1556.931667	959.635742	231.954590
29607.943617	-1556.931667	958.463867	99.713959
29607.943617	-1556.931667	957.292969	293.953949
29607.943617	-1556.931667	956.121094	1.095956
29607.943617	-1556.931667	954.948242	-1.478991
29607.943617	-1556.931667	953.776367	129.152771
29607.943617	-1556.931667	952.603516	40.639156
29607.943617	-1556.931667	951.430664	188.242401
29607.943617	-1556.931667	950.257813	13.411863
29607.943617	-1556.931667	949.084961	123.869392
29607.943617	-1556.931667	947.911133	100.225105
29607.943617	-1556.931667	946.737305	9.672890
29607.943617	-1556.931667	945.563477	-7.073248
29607.943617	-1556.931667	944.388672	-236.224487
29607.943617	-1556.931667	943.213867	-37.971725
29607.943617	-1556.931667	942.039063	-60.792343
29607.943617	-1556.931667	940.864258	-66.148117
29607.943617	-1556.931667	939.688477	41.667698
29607.943617	-1556.931667	938.513672	-62.999199
29607.943617	-1556.931667	937.337891	-199.194458
29607.943617	-1556.931667	936.161133	-39.520504
29607.943617	-1556.931667	934.985352	43.183830
29607.943617	-1556.931667	933.808594	-160.657440
29607.943617	-1556.931667	932.631836	-25.655052
29607.943617	-1556.931667	931.454102	-123.637512
29607.943617	-1556.931667	930.277344	-22.628162
29607.943617	-1556.931667	929.099609	28.560619
29607.943617	-1556.931667	927.921875	57.218479
29607.943617	-1556.931667	926.743164	198.728821
29607.943617	-1556.931667	925.565430	136.990173
29607.943617	-1556.931667	924.386719	136.230179
29607.943617	-1556.931667	923.208008	322.805847
29607.943617	-1556.931667	922.028320	340.061493
29607.943617	-1556.931667	920.849609	316.696472
29607.943617	-1556.931667	919.669922	320.769379
29607.943617	-1556.931667	919.474609	235.366226
29607.943617	-1556.931667	918.309570	160.104431
29607.943617	-1556.931667	917.143555	188.587524
29607.943617	-1556.931667	915.977539	115.612007
29607.943617	-1556.931667	914.810547	-29.457369
29607.943617	-1556.931667	913.644531	370.827820
29607.943617	-1556.931667	912.477539	-166.245377
29607.943617	-1556.931667	911.310547	13.161513
29607.943617	-1556.931667	910.143555	-7.934840
29607.943617	-1556.931667	908.975586	-58.292789
29607.943617	-1556.931667	907.807617	-245.949799
29607.943617	-1556.931667	906.639648	-127.457596
29607.943617	-1556.931667	905.471680	110.237579
29607.943617	-1556.931667	904.303711	77.871101
29607.943617	-1556.931667	903.134766	-100.681633
29607.943617	-1556.931667	901.965820	8.671799
29607.943617	-1556.931667	900.796875	-174.301971
29607.943617	-1556.931667	899.626953	-112.189514
29607.943617	-1556.931667	898.457031	-180.455017
29607.943617	-1556.931667	897.287109	-147.587753
29607.943617	-1556.931667	896.117188	35.773632
29607.943617	-1556.931667	894.947266	1.193576
29607.943617	-1556.931667	893.776367	2.554245
29607.943617	-1556.931667	892.605469	104.937325
29607.943617	-1556.931667	891.434570	198.294952
29607.943617	-1556.931667	890.262695	-134.777863
29607.943617	-1556.931667	889.091797	99.933105
29607.943617	-1556.931667	887.919922	16.005569
29607.943617	-1556.931667	886.748047	-130.691666
29607.943617	-1556.931667	885.575195	-17.220819
29607.943617	-1556.931667	884.403320	-168.346222
29607.943617	-1556.931667	883.230469	-59.407146
29607.943617	-1556.931667	882.057617	-176.855133
29607.943617	-1556.931667	880.883789	-29.879391
29607.943617	-1556.931667	879.710938	94.626884
29607.943617	-1556.931667	878.537109	-112.377815
29607.943617	-1556.931667	877.362305	-55.083996
29607.943617	-1556.931667	876.188477	-136.620178
29607.943617	-1556.931667	875.013672	-16.687088
29607.943617	-1556.931667	873.839844	36.055511
29607.943617	-1556.931667	872.664063	-246.817520
29607.943617	-1556.931667	871.489258	69.888329
29607.943617	-1556.931667	870.313477	15.222257
29607.943617	-1556.931667	869.138672	-102.036987
29607.943617	-1556.931667	867.962891	-80.652725
29607.943617	-1556.931667	866.786133	-117.391685
29607.943617	-1556.931667	865.610352	149.773926
29607.943617	-1556.931667	864.433594	-97.014961
29607.943617	-1556.931667	863.256836	-227.559464
29607.943617	-1556.931667	862.079102	-179.401505
29607.943617	-1556.931667	860.902344	27.248453
29607.943617	-1556.931667	859.724609	-31.828104
29607.943617	-1556.931667	858.546875	-8.312157
29607.943617	-1556.931667	857.368164	-96.377518
29607.943617	-1556.931667	856.190430	7.439218
29607.943617	-1556.931667	855.011719	88.902855
29607.943617	-1556.931667	853.833008	-90.580650
29607.943617	-1556.931667	852.654297	8.690681
29607.943617	-1556.931667	851.474609	-1.308579
29607.943617	-1556.931667	850.294922	142.461319
29607.943617	-1556.931667	849.115234	-39.145321
29607.943617	-1556.931667	847.935547	77.822525
29607.943617	-1556.931667	846.754883	18.786625
29607.943617	-1556.931667	845.575195	-42.465286
29607.943617	-1556.931667	844.393555	3.168393
29607.943617	-1556.931667	843.212891	91.060295
29607.943617	-1556.931667	842.032227	230.091156
29607.943617	-1556.931667	840.850586	79.816498
29607.943617	-1556.931667	839.668945	-63.734661
29607.943617	-1556.931667	838.486328	-29.311516
29607.943617	-1556.931667	837.304688	-23.823515
29607.943617	-1556.931667	836.122070	-0.560872
29607.943617	-1556.931667	834.939453	69.357025
29607.943617	-1556.931667	833.756836	179.233673
29607.943617	-1556.931667	832.573242	93.544411
29607.943617	-1556.931667	831.389648	156.703064
29607.943617	-1556.931667	830.206055	-33.348217
29607.943617	-1556.931667	829.022461	76.413773
29607.943617	-1556.931667	827.838867	-38.092258
29607.943617	-1556.931667	826.654297	-176.975037
29607.943617	-1556.931667	825.469727	-34.002335
29607.943617	-1556.931667	824.284180	26.814756
29607.943617	-1556.931667	823.099609	16.612890
29607.943617	-1556.931667	821.914063	-144.394547
29607.943617	-1556.931667	820.728516	-150.148132
29607.943617	-1556.931667	819.542969	-25.129580
29607.943617	-1556.931667	818.356445	146.366730
29607.943617	-1556.931667	817.169922	-69.984550
29607.943617	-1556.931667	815.983398	74.835861
29607.943617	-1556.931667	814.796875	104.407745
29607.943617	-1556.931667	813.609375	180.456207
29607.943617	-1556.931667	812.422852	269.739166
29607.943617	-1556.931667	811.235352	2.597718
29607.943617	-1556.931667	810.046875	246.763931
29607.943617	-1556.931667	808.859375	94.757538
29607.943617	-1556.931667	807.670898	391.860931
29607.943617	-1556.931667	806.482422	175.716629
29607.943617	-1556.931667	805.293945	302.380981
29607.943617	-1556.931667	804.104492	356.022308
29607.943617	-1556.931667	802.915039	128.914978
29607.943617	-1556.931667	801.725586	368.158325
29607.943617	-1556.931667	800.536133	191.919006
29607.943617	-1556.931667	799.345703	163.734421
29607.943617	-1556.931667	798.155273	199.586029
29607.943617	-1556.931667	796.964844	111.753815
29607.943617	-1556.931667	795.774414	30.559704
29607.943617	-1556.931667	794.583008	-116.831078
29607.943617	-1556.931667	793.392578	272.027374
29607.943617	-1556.931667	792.200195	23.121569
29607.943617	-1556.931667	791.008789	-230.117691
29607.943617	-1556.931667	789.816406	-66.475952
29607.943617	-1556.931667	788.625000	46.361988
29607.943617	-1556.931667	787.432617	-1.785001
29607.943617	-1556.931667	786.239258	166.047531
29607.943617	-1556.931667	785.046875	53.948311
29607.943617	-1556.931667	783.853516	140.141373
29607.943617	-1556.931667	782.660156	8.224637
29607.943617	-1556.931667	781.465820	85.535942
29607.943617	-1556.931667	780.272461	-41.961800
29607.943617	-1556.931667	779.078125	88.104691
29607.943617	-1556.931667	777.883789	81.647858
29607.943617	-1556.931667	776.688477	191.781815
29607.943617	-1556.931667	775.494141	222.648376
29607.943617	-1556.931667	774.298828	130.315933
29607.943617	-1556.931667	773.103516	90.766373
29607.943617	-1556.931667	771.907227	66.597099
29607.943617	-1556.931667	770.711914	205.055573
29607.943617	-1556.931667	769.515625	-21.354452
29607.943617	-1556.931667	768.318359	255.424240
29607.943617	-1556.931667	767.122070	261.877502
29607.943617	-1556.931667	765.924805	138.727737
29607.943617	-1556.931667	764.727539	173.688385
29607.943617	-1556.931667	763.530273	212.993500
29607.943617	-1556.931667	762.333008	171.046051
29607.943617	-1556.931667	761.134766	491.145386
29607.943617	-1556.931667	759.936523	350.373291
29607.943617	-1556.931667	758.738281	128.472519
29607.943617	-1556.931667	757.540039	110.573624
29607.943617	-1556.931667	756.340820	72.920197
29607.943617	-1556.931667	755.141602	2.367527
29607.943617	-1556.931667	753.942383	107.136948
29607.943617	-1556.931667	752.742188	141.715149
29607.943617	-1556.931667	751.541992	220.057098
29607.943617	-1556.931667	750.341797	278.620483
29607.943617	-1556.931667	749.141602	374.349274
29607.943617	-1556.931667	747.941406	621.063538
29607.943617	-1556.931667	746.740234	276.659851
29607.943617	-1556.931667	745.539063	153.387390
29607.943617	-1556.931667	744.337891	71.700890
29607.943617	-1556.931667	743.135742	136.572144
29607.943617	-1556.931667	741.933594	256.055023
29607.943617	-1556.931667	740.731445	54.029091
29607.943617	-1556.931667	739.529297	112.193253
29607.943617	-1556.931667	738.326172	292.692078
29607.943617	-1556.931667	737.124023	219.594864
29607.943617	-1556.931667	735.919922	312.531128
29607.943617	-1556.931667	734.716797	416.310211
29607.943617	-1556.931667	733.513672	504.719238
29607.943617	-1556.931667	732.309570	542.835205
29607.943617	-1556.931667	731.105469	626.736755
29607.943617	-1556.931667	729.900391	588.347473
29607.943617	-1556.931667	728.696289	277.186432
29607.943617	-1556.931667	727.491211	439.504456
29607.943617	-1556.931667	726.286133	141.509186
29607.943617	-1556.931667	725.080078	242.648590
29607.943617	-1556.931667	723.874023	106.067863
29607.943617	-1556.931667	722.668945	69.766838
29607.943617	-1556.931667	721.461914	87.921753
29607.943617	-1556.931667	720.255859	190.997467
29607.943617	-1556.931667	719.048828	28.231752
29607.943617	-1556.931667	717.841797	-117.085480
29607.943617	-1556.931667	716.634766	-109.966179
29607.943617	-1556.931667	715.427734	51.670494
29607.943617	-1556.931667	714.219727	130.488037
29607.943617	-1556.931667	713.011719	-64.952942
29607.943617	-1556.931667	711.803711	-79.781570
29607.943617	-1556.931667	710.594727	-57.672310
29607.943617	-1556.931667	709.385742	210.121094
29607.943617	-1556.931667	708.176758	114.662918
29607.943617	-1556.931667	706.967773	34.414883
29607.943617	-1556.931667	705.758789	186.700058
29607.943617	-1556.931667	704.548828	108.552803
29607.943617	-1556.931667	703.338867	76.012566
29607.943617	-1556.931667	702.127930	217.194717
29607.943617	-1556.931667	700.917969	-93.397614
29607.943617	-1556.931667	699.707031	99.773094
29607.943617	-1556.931667	698.496094	127.851913
29607.943617	-1556.931667	697.285156	92.939308
29607.943617	-1556.931667	696.073242	90.538193
29607.943617	-1556.931667	694.861328	-42.060711
29607.943617	-1556.931667	693.649414	-192.002045
29607.943617	-1556.931667	692.436523	-53.543720
29607.943617	-1556.931667	691.224609	121.660828
29607.943617	-1556.931667	690.011719	-65.208839
29607.943617	-1556.931667	688.798828	-37.520969
29607.943617	-1556.931667	687.584961	-1.227920
29607.943617	-1556.931667	686.372070	43.665649
29607.943617	-1556.931667	685.158203	17.028467
29607.943617	-1556.931667	683.943359	135.417023
29607.943617	-1556.931667	682.729492	56.723408
29607.943617	-1556.931667	681.514648	205.254608
29607.943617	-1556.931667	680.299805	667.417175
29607.943617	-1556.931667	679.084961	644.761841
29607.943617	-1556.931667	677.869141	379.829193
29607.943617	-1556.931667	676.653320	73.875458
29607.943617	-1556.931667	675.437500	3.649728
29607.943617	-1556.931667	674.221680	37.155918
29607.943617	-1556.931667	673.004883	157.038971
29607.943617	-1556.931667	671.789063	-109.915703
29607.943617	-1556.931667	670.571289	48.732395
29607.943617	-1556.931667	669.354492	153.273376
29607.943617	-1556.931667	668.136719	13.734225
29607.943617	-1556.931667	666.919922	27.474930
29607.943617	-1556.931667	665.701172	-23.587891
29607.943617	-1556.931667	664.483398	-31.520056
29607.943617	-1556.931667	663.264648	-26.553646
29607.943617	-1556.931667	662.045898	4.244935
29607.943617	-1556.931667	660.827148	194.560394
29607.943617	-1556.931667	659.608398	50.567696
29607.943617	-1556.931667	658.388672	48.852840
29607.943617	-1556.931667	657.168945	148.379883
29607.943617	-1556.931667	655.949219	191.797440
29607.943617	-1556.931667	654.728516	36.962940
29607.943617	-1556.931667	653.507813	84.597397
29607.943617	-1556.931667	652.287109	104.171738
29607.943617	-1556.931667	651.066406	18.202789
29607.943617	-1556.931667	649.844727	110.869141
29607.943617	-1556.931667	648.623047	-11.741768
29607.943617	-1556.931667	647.401367	50.677933
29607.943617	-1556.931667	646.179688	196.913666
29607.943617	-1556.931667	644.957031	177.449585
29607.943617	-1556.931667	643.734375	46.143818
29607.943617	-1556.931667	642.511719	-115.247475
29607.943617	-1556.931667	641.289063	-44.503281
29607.943617	-1556.931667	640.065430	116.409279
29607.943617	-1556.931667	638.841797	-60.066513
29607.943617	-1556.931667	637.618164	-45.358063
29607.943617	-1556.931667	636.393555	235.571350
29607.943617	-1556.931667	635.168945	209.331161
29607.943617	-1556.931667	633.944336	-29.438618
29607.943617	-1556.931667	632.719727	163.194016
29607.943617	-1556.931667	631.494141	-45.515530
29607.943617	-1556.931667	630.269531	-35.377689
29607.943617	-1556.931667	629.042969	-51.024605
29607.943617	-1556.931667	627.817383	-83.858459
29607.943617	-1556.931667	626.590820	-43.834808
29607.943617	-1556.931667	625.365234	-31.729593
29607.943617	-1556.931667	624.137695	46.753407
29607.943617	-1556.931667	622.911133	18.048359
29607.943617	-1556.931667	621.683594	-64.233116
29607.943617	-1556.931667	620.456055	-101.549461
29607.943617	-1556.931667	619.228516	64.507034
29607.943617	-1556.931667	618.000977	-146.279938
29607.943617	-1556.931667	616.772461	-40.284149
29607.943617	-1556.931667	615.543945	-154.752960
29607.943617	-1556.931667	614.314453	-211.453720
29607.943617	-1556.931667	613.085938	-56.431252
29607.943617	-1556.931667	611.856445	-117.477631
29607.943617	-1556.931667	610.626953	-180.670151
29607.943617	-1556.931667	609.397461	-96.393021
29607.943617	-1556.931667	608.166992	-10.050438
29607.943617	-1556.931667	606.936523	-11.373874
29607.943617	-1556.931667	605.706055	-44.768044
29607.943617	-1556.931667	604.474609	-69.642052
29607.943617	-1556.931667	603.244141	-19.805870
29607.943617	-1556.931667	602.012695	51.322086
29607.943617	-1556.931667	600.780273	-93.166840
29607.943617	-1556.931667	599.548828	-32.783634
29607.943617	-1556.931667	598.316406	12.609811
29607.943617	-1556.931667	597.083984	89.946304
29607.943617	-1556.931667	595.851563	-31.088974
29607.943617	-1556.931667	594.618164	-107.332031
29607.943617	-1556.931667	593.384766	59.415653
29607.943617	-1556.931667	592.151367	51.323635
29607.943617	-1556.931667	590.917969	-165.584030
29607.943617	-1556.931667	589.683594	39.330215
29607.943617	-1556.931667	588.449219	-75.313133
29607.943617	-1556.931667	587.214844	-102.635544
29607.943617	-1556.931667	585.979492	-187.448700
29607.943617	-1556.931667	584.745117	46.996662
29607.943617	-1556.931667	583.509766	-197.443985
29607.943617	-1556.931667	582.273438	-395.003479
29607.943617	-1556.931667	581.038086	-145.843582
29607.943617	-1556.931667	579.801758	-247.680222
29607.943617	-1556.931667	578.565430	-232.562698
29607.943617	-1556.931667	577.329102	-68.681831
29607.943617	-1556.931667	576.091797	97.232613
29607.943617	-1556.931667	574.854492	-123.629410
29607.943617	-1556.931667	573.617188	-74.640327
29607.943617	-1556.931667	572.378906	52.886021
29607.943617	-1556.931667	571.141602	-57.464874
29607.943617	-1556.931667	569.903320	-4.328117
29607.943617	-1556.931667	568.664063	53.012657
29607.943617	-1556.931667	567.425781	-55.194912
29607.943617	-1556.931667	566.186523	127.270424
29607.943617	-1556.931667	564.947266	142.083054
29607.943617	-1556.931667	563.708008	161.117554
29607.943617	-1556.931667	562.467773	345.497437
29607.943617	-1556.931667	561.227539	196.998672
29607.943617	-1556.931667	559.987305	349.480164
29607.943617	-1556.931667	558.747070	283.652344
29607.943617	-1556.931667	557.505859	332.228546
29607.943617	-1556.931667	556.264648	395.598938
29607.943617	-1556.931667	555.023438	573.271729
29607.943617	-1556.931667	553.781250	158.110672
29607.943617	-1556.931667	552.539063	83.873962
29607.943617	-1556.931667	551.296875	189.524933
29607.943617	-1556.931667	550.054688	212.613770
29607.943617	-1556.931667	548.811523	184.919052
29607.943617	-1556.931667	547.569336	381.388580
29607.943617	-1556.931667	546.325195	442.449097
29607.943617	-1556.931667	545.082031	289.988953
29607.943617	-1556.931667	543.837891	310.877258
29607.943617	-1556.931667	542.593750	469.086121
29607.943617	-1556.931667	541.349609	409.643066
29607.943617	-1556.931667	540.105469	599.431091
29607.943617	-1556.931667	538.860352	387.940430
29607.943617	-1556.931667	537.615234	455.195831
29607.943617	-1556.931667	536.369141	602.617126
29607.943617	-1556.931667	535.124023	481.981964
29607.943617	-1556.931667	533.877930	279.111420
29607.943617	-1556.931667	532.631836	131.163834
29607.943617	-1556.931667	531.384766	92.928078
29607.943617	-1556.931667	530.138672	128.499054
29607.943617	-1556.931667	528.891602	33.355881
29607.943617	-1556.931667	527.643555	-30.144217
29607.943617	-1556.931667	526.396484	-24.089027
29607.943617	-1556.931667	525.148438	26.191793
29607.943617	-1556.931667	523.900391	247.038925
29607.943617	-1556.931667	522.652344	208.788925
29607.943617	-1556.931667	521.403320	122.126793
29607.943617	-1556.931667	520.154297	121.787598
29607.943617	-1556.931667	518.905273	228.758148
29607.943617	-1556.931667	517.656250	129.498840
29607.943617	-1556.931667	516.406250	103.888763
29607.943617	-1556.931667	515.156250	2.572937
29607.943617	-1556.931667	513.906250	252.404160
29607.943617	-1556.931667	512.655273	83.809189
29607.943617	-1556.931667	511.404297	257.831299
29607.943617	-1556.931667	510.153320	230.057510
29607.943617	-1556.931667	508.902344	65.737801
29607.943617	-1556.931667	507.650391	103.090614
29607.943617	-1556.931667	506.398438	123.613106
29607.943617	-1556.931667	505.146484	49.640038
29607.943617	-1556.931667	503.893555	240.132751
29607.943617	-1556.931667	502.641602	214.390289
29607.943617	-1556.931667	501.388672	354.372559
29607.943617	-1556.931667	500.134766	313.881714
29607.943617	-1556.931667	498.881836	244.028183
29607.943617	-1556.931667	497.627930	314.647491
29607.943617	-1556.931667	496.374023	265.727478
29607.943617	-1556.931667	495.119141	380.259064
29607.943617	-1556.931667	493.865234	280.996979
29607.943617	-1556.931667	492.610352	514.814331
29607.943617	-1556.931667	491.355469	396.642944
29607.943617	-1556.931667	490.099609	690.978210
29607.943617	-1556.931667	488.843750	662.754761
29607.943617	-1556.931667	487.587891	515.199646
29607.943617	-1556.931667	486.332031	761.060303
29607.943617	-1556.931667	485.075195	701.316833
29607.943617	-1556.931667	483.818359	595.530579
29607.943617	-1556.931667	482.561523	707.220093
29607.943617	-1556.931667	481.304688	739.356018
29607.943617	-1556.931667	480.046875	675.259705
29607.943617	-1556.931667	478.789063	792.944153
29607.943617	-1556.931667	477.531250	714.106201
29607.943617	-1556.931667	476.272461	810.699463
29607.943617	-1556.931667	475.013672	687.884155
29607.943617	-1556.931667	473.754883	746.703491
29607.943617	-1556.931667	472.496094	884.743286
29607.943617	-1556.931667	471.236328	960.017883
29607.943617	-1556.931667	469.976563	976.742920
29607.943617	-1556.931667	468.716797	1030.916992
29607.943617	-1556.931667	467.456055	838.839783
29607.943617	-1556.931667	466.196289	919.925415
29607.943617	-1556.931667	464.935547	986.267761
29607.943617	-1556.931667	463.673828	950.324463
29607.943617	-1556.931667	462.413086	980.969604
29607.943617	-1556.931667	461.151367	1148.984497
29607.943617	-1556.931667	459.889648	1075.158203
29607.943617	-1556.931667	458.626953	1149.088623
29607.943617	-1556.931667	457.364258	1143.721680
29607.943617	-1556.931667	456.101563	1213.151245
29607.943617	-1556.931667	454.838867	1290.720459
29607.943617	-1556.931667	453.575195	1243.237915
29607.943617	-1556.931667	452.312500	1411.974365
29607.943617	-1556.931667	451.047852	1505.573120
29607.943617	-1556.931667	449.784180	1765.313477
29607.943617	-1556.931667	448.519531	1694.178711
29607.943617	-1556.931667	447.254883	1963.765503
29607.943617	-1556.931667	445.990234	1769.604248
29607.943617	-1556.931667	444.725586	1610.634644
29607.943617	-1556.931667	443.459961	2004.051514
29607.943617	-1556.931667	442.194336	1942.250488
29607.943617	-1556.931667	440.927734	1994.427734
29607.943617	-1556.931667	439.662109	1861.587402
29607.943617	-1556.931667	438.395508	1633.069336
29607.943617	-1556.931667	437.127930	1804.848999
29607.943617	-1556.931667	435.861328	1582.121338
29607.943617	-1556.931667	434.593750	1794.755615
29607.943617	-1556.931667	433.326172	1482.367310
29607.943617	-1556.931667	432.058594	1540.908936
29607.943617	-1556.931667	430.790039	1522.406128
29607.943617	-1556.931667	429.521484	1656.931274
29607.943617	-1556.931667	428.252930	1532.073730
29607.943617	-1556.931667	426.984375	1630.628662
29607.943617	-1556.931667	425.714844	1708.056763
29607.943617	-1556.931667	424.445313	1584.233032
29607.943617	-1556.931667	423.174805	1729.169800
29607.943617	-1556.931667	421.905273	1581.833984
29607.943617	-1556.931667	420.634766	1752.785767
29607.943617	-1556.931667	419.364258	1904.613037
29607.943617	-1556.931667	418.092773	1559.533569
29607.943617	-1556.931667	416.822266	1584.294678
29607.943617	-1556.931667	415.550781	1441.101074
29607.943617	-1556.931667	414.278320	1460.753418
29607.943617	-1556.931667	413.006836	1599.759888
29607.943617	-1556.931667	411.734375	1525.371826
29607.943617	-1556.931667	410.461914	1250.116333
29607.943617	-1556.931667	409.188477	1610.469604
29607.943617	-1556.931667	407.916016	1323.865356
29607.943617	-1556.931667	406.642578	1356.737549
29607.943617	-1556.931667	405.368164	1512.797852
29607.943617	-1556.931667	404.094727	1476.291016
29607.943617	-1556.931667	402.820313	1573.226196
29607.943617	-1556.931667	401.545898	1611.708008
29607.943617	-1556.931667	400.270508	1298.932739
29607.943617	-1556.931667	398.996094	1356.684570
29607.943617	-1556.931667	397.720703	1238.476685
29607.943617	-1556.931667	396.444336	1257.617798
29607.943617	-1556.931667	395.168945	1094.705688
29607.943617	-1556.931667	393.892578	1151.447754
29607.943617	-1556.931667	392.616211	1252.659058
29607.943617	-1556.931667	391.339844	1293.284058
29607.943617	-1556.931667	390.062500	1213.623901
29607.943617	-1556.931667	388.785156	1184.563354
29607.943617	-1556.931667	387.507813	992.065796
29607.943617	-1556.931667	386.229492	1164.852661
29607.943617	-1556.931667	384.951172	1100.095215
29607.943617	-1556.931667	383.672852	1091.953491
29607.943617	-1556.931667	382.394531	1175.312622
29607.943617	-1556.931667	381.115234	1284.288208
29607.943617	-1556.931667	379.835938	1188.721313
29607.943617	-1556.931667	378.556641	812.704224
29607.943617	-1556.931667	377.277344	842.406982
29607.943617	-1556.931667	375.997070	772.344788
29607.943617	-1556.931667	374.716797	941.334045
29607.943617	-1556.931667	373.435547	934.531433
29607.943617	-1556.931667	372.155273	803.387268
29607.943617	-1556.931667	370.874023	828.968506
29607.943617	-1556.931667	369.591797	957.804688
29607.943617	-1556.931667	368.310547	1019.646790
29607.943617	-1556.931667	367.028320	928.317566
29607.943617	-1556.931667	365.746094	983.205627
29607.943617	-1556.931667	364.463867	1151.387695
29607.943617	-1556.931667	363.180664	1094.625244
29607.943617	-1556.931667	361.897461	837.648621
29607.943617	-1556.931667	360.614258	1046.194702
29607.943617	-1556.931667	359.330078	886.466370
29607.943617	-1556.931667	358.045898	915.558655
29607.943617	-1556.931667	356.761719	709.619995
29607.943617	-1556.931667	355.477539	770.119629
29607.943617	-1556.931667	354.192383	710.116577
29607.943617	-1556.931667	352.907227	773.103210
29607.943617	-1556.931667	351.622070	594.943665
29607.943617	-1556.931667	350.336914	746.186035
29607.943617	-1556.931667	349.050781	590.792603
29607.943617	-1556.931667	347.764648	421.217804
29607.943617	-1556.931667	346.477539	443.729797
29607.943617	-1556.931667	345.191406	233.372757
29607.943617	-1556.931667	343.904297	325.224854
29607.943617	-1556.931667	342.616211	302.487274
29607.943617	-1556.931667	341.329102	134.689529
29607.943617	-1556.931667	340.041016	82.994080
29607.943617	-1556.931667	338.752930	96.322861
29607.943617	-1556.931667	337.463867	378.519653
29607.943617	-1556.931667	336.175781	297.198334
29607.943617	-1556.931667	334.886719	296.947754
29607.943617	-1556.931667	333.596680	342.995911
29607.943617	-1556.931667	332.307617	150.037094
29607.943617	-1556.931667	331.017578	225.449524
29607.943617	-1556.931667	329.727539	124.912842
29607.943617	-1556.931667	328.436523	92.838943
29607.943617	-1556.931667	327.146484	33.565052
29607.943617	-1556.931667	325.855469	99.588371
29607.943617	-1556.931667	324.563477	-98.057915
29607.943617	-1556.931667	323.272461	-19.751450
29607.943617	-1556.931667	321.980469	-91.193291
29607.943617	-1556.931667	320.688477	-147.476929
29607.943617	-1556.931667	319.395508	-274.208344
29607.943617	-1556.931667	318.103516	49.350574
29607.943617	-1556.931667	316.810547	-90.187096
29607.943617	-1556.931667	315.516602	-294.213257
29607.943617	-1556.931667	314.223633	-284.150177
29607.943617	-1556.931667	312.929688	-237.185135
29607.943617	-1556.931667	311.635742	-122.842331
29607.943617	-1556.931667	310.340820	44.422871
29607.943617	-1556.931667	309.045898	146.850708
29607.943617	-1556.931667	307.750977	-71.360840
29607.943617	-1556.931667	306.456055	-112.868614
29607.943617	-1556.931667	305.160156	-85.541550
29607.943617	-1556.931667	303.865234	-11.563870
29607.943617	-1556.931667	302.568359	-98.320427
29607.943617	-1556.931667	301.272461	66.228966
29607.943617	-1556.931667	299.975586	376.131439
29607.943617	-1556.931667	298.678711	849.585388
