#X		#Y		#Wave		#Intensity
29701.937766	-1684.245000	1999.980469	-93.425690
29701.937766	-1684.245000	1999.016602	-101.294609
29701.937766	-1684.245000	1998.052734	127.743416
29701.937766	-1684.245000	1997.087891	-15.211815
29701.937766	-1684.245000	1996.123047	25.048616
29701.937766	-1684.245000	1995.158203	3.185206
29701.937766	-1684.245000	1994.193359	-11.414129
29701.937766	-1684.245000	1993.228516	-13.794200
29701.937766	-1684.245000	1992.262695	-38.618347
29701.937766	-1684.245000	1991.297852	-6.658781
29701.937766	-1684.245000	1990.332031	2.862919
29701.937766	-1684.245000	1989.366211	185.445236
29701.937766	-1684.245000	1988.399414	-28.022461
29701.937766	-1684.245000	1987.433594	-38.719784
29701.937766	-1684.245000	1986.466797	-54.492447
29701.937766	-1684.245000	1985.500977	75.496407
29701.937766	-1684.245000	1984.534180	94.064392
29701.937766	-1684.245000	1983.567383	-75.343437
29701.937766	-1684.245000	1982.599609	54.215137
29701.937766	-1684.245000	1981.632813	65.017517
29701.937766	-1684.245000	1980.665039	206.633911
29701.937766	-1684.245000	1979.697266	2.313196
29701.937766	-1684.245000	1978.729492	104.175591
29701.937766	-1684.245000	1977.761719	139.242111
29701.937766	-1684.245000	1976.792969	-131.889908
29701.937766	-1684.245000	1975.825195	137.490219
29701.937766	-1684.245000	1974.856445	9.405128
29701.937766	-1684.245000	1973.887695	-15.094489
29701.937766	-1684.245000	1972.918945	167.535889
29701.937766	-1684.245000	1971.949219	66.409866
29701.937766	-1684.245000	1970.980469	-10.091040
29701.937766	-1684.245000	1970.010742	95.797760
29701.937766	-1684.245000	1969.041016	90.665543
29701.937766	-1684.245000	1968.071289	87.937782
29701.937766	-1684.245000	1967.101563	77.760567
29701.937766	-1684.245000	1966.130859	161.140213
29701.937766	-1684.245000	1965.161133	108.973213
29701.937766	-1684.245000	1964.190430	-61.428223
29701.937766	-1684.245000	1963.219727	83.332253
29701.937766	-1684.245000	1962.249023	-37.861351
29701.937766	-1684.245000	1961.277344	42.760864
29701.937766	-1684.245000	1960.306641	51.955349
29701.937766	-1684.245000	1959.334961	88.168800
29701.937766	-1684.245000	1958.363281	6.264233
29701.937766	-1684.245000	1957.391602	103.888512
29701.937766	-1684.245000	1956.419922	162.103943
29701.937766	-1684.245000	1955.447266	148.972824
29701.937766	-1684.245000	1954.474609	-50.984737
29701.937766	-1684.245000	1953.501953	21.890568
29701.937766	-1684.245000	1952.529297	-104.304031
29701.937766	-1684.245000	1951.556641	-53.597343
29701.937766	-1684.245000	1950.583984	-96.260918
29701.937766	-1684.245000	1949.610352	-43.156784
29701.937766	-1684.245000	1948.636719	27.099718
29701.937766	-1684.245000	1947.663086	55.585991
29701.937766	-1684.245000	1946.689453	79.141106
29701.937766	-1684.245000	1945.715820	31.516672
29701.937766	-1684.245000	1944.741211	-3.834231
29701.937766	-1684.245000	1943.767578	46.676113
29701.937766	-1684.245000	1942.792969	-47.536087
29701.937766	-1684.245000	1941.818359	120.649361
29701.937766	-1684.245000	1940.842773	-37.291233
29701.937766	-1684.245000	1939.868164	-38.301102
29701.937766	-1684.245000	1938.892578	100.374626
29701.937766	-1684.245000	1937.916992	-23.171875
29701.937766	-1684.245000	1936.941406	71.357437
29701.937766	-1684.245000	1935.965820	72.782028
29701.937766	-1684.245000	1934.990234	194.203079
29701.937766	-1684.245000	1934.013672	-29.638779
29701.937766	-1684.245000	1933.037109	33.015884
29701.937766	-1684.245000	1932.060547	-2.243618
29701.937766	-1684.245000	1931.083984	28.587030
29701.937766	-1684.245000	1930.107422	59.415913
29701.937766	-1684.245000	1929.129883	-10.049200
29701.937766	-1684.245000	1928.153320	-6.106205
29701.937766	-1684.245000	1927.175781	-33.942490
29701.937766	-1684.245000	1926.198242	36.032562
29701.937766	-1684.245000	1925.219727	98.659431
29701.937766	-1684.245000	1924.242188	-14.675463
29701.937766	-1684.245000	1923.263672	-115.739624
29701.937766	-1684.245000	1922.285156	32.424549
29701.937766	-1684.245000	1921.306641	38.886909
29701.937766	-1684.245000	1920.328125	-25.454605
29701.937766	-1684.245000	1919.349609	127.540108
29701.937766	-1684.245000	1918.370117	51.030727
29701.937766	-1684.245000	1917.391602	18.500872
29701.937766	-1684.245000	1916.412109	-96.967850
29701.937766	-1684.245000	1915.431641	-180.661682
29701.937766	-1684.245000	1914.452148	25.967722
29701.937766	-1684.245000	1913.472656	54.505714
29701.937766	-1684.245000	1912.492188	-7.169337
29701.937766	-1684.245000	1911.511719	23.837135
29701.937766	-1684.245000	1910.531250	-47.521084
29701.937766	-1684.245000	1909.550781	-111.522659
29701.937766	-1684.245000	1908.569336	9.693181
29701.937766	-1684.245000	1907.588867	-51.820816
29701.937766	-1684.245000	1906.607422	-15.869147
29701.937766	-1684.245000	1905.625977	95.578209
29701.937766	-1684.245000	1904.644531	-63.248749
29701.937766	-1684.245000	1903.662109	-129.497086
29701.937766	-1684.245000	1902.680664	-42.370235
29701.937766	-1684.245000	1901.698242	-118.292244
29701.937766	-1684.245000	1900.715820	-50.625881
29701.937766	-1684.245000	1899.733398	114.331398
29701.937766	-1684.245000	1898.750000	-87.983505
29701.937766	-1684.245000	1897.767578	-124.858803
29701.937766	-1684.245000	1896.784180	-47.442570
29701.937766	-1684.245000	1895.800781	-42.954704
29701.937766	-1684.245000	1894.817383	-82.193260
29701.937766	-1684.245000	1893.833984	55.970459
29701.937766	-1684.245000	1892.850586	-51.253807
29701.937766	-1684.245000	1891.866211	69.884804
29701.937766	-1684.245000	1890.881836	-122.259583
29701.937766	-1684.245000	1889.897461	-39.963604
29701.937766	-1684.245000	1888.913086	20.472136
29701.937766	-1684.245000	1887.927734	-84.134583
29701.937766	-1684.245000	1886.943359	63.675465
29701.937766	-1684.245000	1885.958008	39.193398
29701.937766	-1684.245000	1884.972656	-62.883602
29701.937766	-1684.245000	1883.987305	-33.947506
29701.937766	-1684.245000	1883.001953	-19.555338
29701.937766	-1684.245000	1882.015625	6.965673
29701.937766	-1684.245000	1881.029297	-48.917877
29701.937766	-1684.245000	1880.042969	13.977669
29701.937766	-1684.245000	1879.056641	-90.316376
29701.937766	-1684.245000	1878.070313	16.194162
29701.937766	-1684.245000	1877.083984	-63.815376
29701.937766	-1684.245000	1876.096680	-17.865082
29701.937766	-1684.245000	1875.109375	-0.972404
29701.937766	-1684.245000	1874.122070	81.281609
29701.937766	-1684.245000	1873.134766	-47.038593
29701.937766	-1684.245000	1872.146484	-85.772919
29701.937766	-1684.245000	1871.159180	-47.064346
29701.937766	-1684.245000	1870.170898	-49.482815
29701.937766	-1684.245000	1869.182617	23.078129
29701.937766	-1684.245000	1868.194336	-32.529026
29701.937766	-1684.245000	1867.205078	-83.274048
29701.937766	-1684.245000	1866.216797	47.283428
29701.937766	-1684.245000	1865.227539	-141.186722
29701.937766	-1684.245000	1864.238281	-13.072271
29701.937766	-1684.245000	1863.249023	-17.860113
29701.937766	-1684.245000	1862.259766	49.814419
29701.937766	-1684.245000	1861.269531	40.194927
29701.937766	-1684.245000	1860.279297	-17.702599
29701.937766	-1684.245000	1859.290039	-49.021366
29701.937766	-1684.245000	1858.298828	35.513077
29701.937766	-1684.245000	1857.308594	28.328709
29701.937766	-1684.245000	1856.318359	28.385429
29701.937766	-1684.245000	1855.327148	103.213951
29701.937766	-1684.245000	1854.335938	38.144661
29701.937766	-1684.245000	1853.344727	-19.666788
29701.937766	-1684.245000	1852.353516	-38.887508
29701.937766	-1684.245000	1851.362305	21.434042
29701.937766	-1684.245000	1850.370117	64.860779
29701.937766	-1684.245000	1849.377930	-77.246635
29701.937766	-1684.245000	1848.385742	45.668304
29701.937766	-1684.245000	1847.393555	16.804701
29701.937766	-1684.245000	1846.401367	7.210761
29701.937766	-1684.245000	1845.408203	9.651534
29701.937766	-1684.245000	1844.415039	53.004772
29701.937766	-1684.245000	1843.421875	19.324549
29701.937766	-1684.245000	1842.428711	0.086809
29701.937766	-1684.245000	1841.435547	-60.047443
29701.937766	-1684.245000	1840.441406	134.783493
29701.937766	-1684.245000	1839.448242	81.843620
29701.937766	-1684.245000	1838.454102	4.869159
29701.937766	-1684.245000	1837.459961	21.664173
29701.937766	-1684.245000	1836.464844	55.264156
29701.937766	-1684.245000	1835.470703	88.841400
29701.937766	-1684.245000	1834.475586	139.210175
29701.937766	-1684.245000	1833.480469	28.610130
29701.937766	-1684.245000	1832.485352	237.450821
29701.937766	-1684.245000	1831.490234	93.230690
29701.937766	-1684.245000	1830.495117	64.283592
29701.937766	-1684.245000	1829.499023	37.731384
29701.937766	-1684.245000	1828.502930	42.370438
29701.937766	-1684.245000	1827.506836	142.964813
29701.937766	-1684.245000	1826.510742	176.335220
29701.937766	-1684.245000	1825.513672	68.167427
29701.937766	-1684.245000	1824.517578	-99.926018
29701.937766	-1684.245000	1823.520508	17.329334
29701.937766	-1684.245000	1822.523438	115.344719
29701.937766	-1684.245000	1821.526367	57.522884
29701.937766	-1684.245000	1820.529297	117.114738
29701.937766	-1684.245000	1819.531250	145.516907
29701.937766	-1684.245000	1818.533203	178.677811
29701.937766	-1684.245000	1817.535156	214.198471
29701.937766	-1684.245000	1816.537109	192.218491
29701.937766	-1684.245000	1815.539063	79.255402
29701.937766	-1684.245000	1814.540039	81.194984
29701.937766	-1684.245000	1813.541992	-60.468361
29701.937766	-1684.245000	1812.542969	49.112659
29701.937766	-1684.245000	1811.543945	115.569275
29701.937766	-1684.245000	1810.543945	62.390728
29701.937766	-1684.245000	1809.544922	229.197601
29701.937766	-1684.245000	1808.544922	116.195396
29701.937766	-1684.245000	1807.544922	160.968124
29701.937766	-1684.245000	1806.544922	93.373215
29701.937766	-1684.245000	1805.544922	200.200714
29701.937766	-1684.245000	1804.544922	70.454536
29701.937766	-1684.245000	1803.543945	220.178482
29701.937766	-1684.245000	1802.542969	138.176895
29701.937766	-1684.245000	1801.541992	37.075333
29701.937766	-1684.245000	1800.541016	155.596970
29701.937766	-1684.245000	1799.539063	11.505707
29701.937766	-1684.245000	1798.538086	55.951614
29701.937766	-1684.245000	1797.536133	155.218781
29701.937766	-1684.245000	1796.534180	13.498016
29701.937766	-1684.245000	1795.532227	69.742531
29701.937766	-1684.245000	1794.529297	226.075974
29701.937766	-1684.245000	1793.527344	284.575500
29701.937766	-1684.245000	1792.524414	45.076214
29701.937766	-1684.245000	1791.521484	124.964417
29701.937766	-1684.245000	1790.518555	190.491211
29701.937766	-1684.245000	1789.514648	132.082855
29701.937766	-1684.245000	1788.511719	18.884249
29701.937766	-1684.245000	1787.507813	160.484100
29701.937766	-1684.245000	1786.503906	80.579002
29701.937766	-1684.245000	1785.500000	67.316559
29701.937766	-1684.245000	1784.496094	99.240883
29701.937766	-1684.245000	1783.491211	195.357666
29701.937766	-1684.245000	1782.486328	132.006729
29701.937766	-1684.245000	1781.481445	128.105240
29701.937766	-1684.245000	1780.476563	124.166595
29701.937766	-1684.245000	1779.471680	91.659264
29701.937766	-1684.245000	1778.465820	120.928635
29701.937766	-1684.245000	1777.460938	66.964722
29701.937766	-1684.245000	1776.455078	150.803772
29701.937766	-1684.245000	1775.449219	101.523224
29701.937766	-1684.245000	1774.442383	56.968838
29701.937766	-1684.245000	1773.436523	-73.103912
29701.937766	-1684.245000	1772.429688	117.384903
29701.937766	-1684.245000	1771.422852	63.234589
29701.937766	-1684.245000	1770.416016	49.414165
29701.937766	-1684.245000	1769.409180	64.035263
29701.937766	-1684.245000	1768.402344	114.199242
29701.937766	-1684.245000	1767.394531	76.526093
29701.937766	-1684.245000	1766.386719	102.863174
29701.937766	-1684.245000	1765.378906	114.920288
29701.937766	-1684.245000	1764.371094	39.207054
29701.937766	-1684.245000	1763.362305	117.554741
29701.937766	-1684.245000	1762.354492	119.994186
29701.937766	-1684.245000	1761.345703	-34.003838
29701.937766	-1684.245000	1760.336914	-107.437370
29701.937766	-1684.245000	1759.328125	13.341913
29701.937766	-1684.245000	1758.318359	-5.694734
29701.937766	-1684.245000	1757.308594	27.321981
29701.937766	-1684.245000	1756.299805	86.326469
29701.937766	-1684.245000	1755.290039	83.723137
29701.937766	-1684.245000	1754.279297	40.844334
29701.937766	-1684.245000	1753.269531	64.187996
29701.937766	-1684.245000	1752.258789	139.515274
29701.937766	-1684.245000	1751.249023	-7.539008
29701.937766	-1684.245000	1750.238281	41.674347
29701.937766	-1684.245000	1749.226563	79.000397
29701.937766	-1684.245000	1748.215820	16.996630
29701.937766	-1684.245000	1747.204102	40.044903
29701.937766	-1684.245000	1746.193359	79.583260
29701.937766	-1684.245000	1745.181641	-43.942631
29701.937766	-1684.245000	1744.168945	0.222997
29701.937766	-1684.245000	1743.157227	-50.125599
29701.937766	-1684.245000	1742.144531	3.379405
29701.937766	-1684.245000	1741.132813	-61.202900
29701.937766	-1684.245000	1740.120117	51.196827
29701.937766	-1684.245000	1739.106445	29.005768
29701.937766	-1684.245000	1738.093750	9.142654
29701.937766	-1684.245000	1737.080078	-201.818512
29701.937766	-1684.245000	1736.067383	7.033866
29701.937766	-1684.245000	1735.053711	123.802444
29701.937766	-1684.245000	1734.040039	155.616928
29701.937766	-1684.245000	1733.025391	-10.610842
29701.937766	-1684.245000	1732.011719	-82.555824
29701.937766	-1684.245000	1730.997070	-114.469658
29701.937766	-1684.245000	1729.982422	-85.170197
29701.937766	-1684.245000	1728.967773	66.540451
29701.937766	-1684.245000	1727.952148	-52.642342
29701.937766	-1684.245000	1726.937500	-42.335964
29701.937766	-1684.245000	1725.921875	-36.789486
29701.937766	-1684.245000	1724.906250	98.144318
29701.937766	-1684.245000	1723.890625	0.049120
29701.937766	-1684.245000	1722.875000	78.379700
29701.937766	-1684.245000	1721.858398	43.738464
29701.937766	-1684.245000	1720.841797	-59.126579
29701.937766	-1684.245000	1719.825195	-119.675186
29701.937766	-1684.245000	1718.808594	-13.349045
29701.937766	-1684.245000	1717.791992	-99.819801
29701.937766	-1684.245000	1716.774414	-80.566734
29701.937766	-1684.245000	1715.756836	-47.267406
29701.937766	-1684.245000	1714.739258	65.837708
29701.937766	-1684.245000	1713.721680	-30.147131
29701.937766	-1684.245000	1712.704102	-86.221191
29701.937766	-1684.245000	1711.685547	12.613162
29701.937766	-1684.245000	1710.667969	10.452750
29701.937766	-1684.245000	1709.649414	113.842827
29701.937766	-1684.245000	1708.630859	-47.958317
29701.937766	-1684.245000	1707.611328	-69.002487
29701.937766	-1684.245000	1706.592773	-190.917145
29701.937766	-1684.245000	1705.573242	24.817305
29701.937766	-1684.245000	1704.553711	-111.217918
29701.937766	-1684.245000	1703.534180	132.467255
29701.937766	-1684.245000	1702.513672	-132.507736
29701.937766	-1684.245000	1701.494141	-142.029266
29701.937766	-1684.245000	1700.473633	-175.016510
29701.937766	-1684.245000	1699.453125	-107.318718
29701.937766	-1684.245000	1698.432617	82.080574
29701.937766	-1684.245000	1697.412109	-37.664951
29701.937766	-1684.245000	1696.390625	-40.371082
29701.937766	-1684.245000	1695.369141	-75.875671
29701.937766	-1684.245000	1694.347656	-153.519165
29701.937766	-1684.245000	1693.326172	-13.606842
29701.937766	-1684.245000	1692.304688	-105.336571
29701.937766	-1684.245000	1691.282227	25.083170
29701.937766	-1684.245000	1690.260742	-111.110168
29701.937766	-1684.245000	1689.238281	-85.998528
29701.937766	-1684.245000	1688.214844	-84.307655
29701.937766	-1684.245000	1687.192383	-94.327736
29701.937766	-1684.245000	1686.168945	-38.968987
29701.937766	-1684.245000	1685.146484	4.664076
29701.937766	-1684.245000	1684.123047	-145.590820
29701.937766	-1684.245000	1683.099609	-31.977839
29701.937766	-1684.245000	1682.075195	-18.826765
29701.937766	-1684.245000	1681.051758	-155.079758
29701.937766	-1684.245000	1680.027344	-8.959843
29701.937766	-1684.245000	1679.002930	-0.577747
29701.937766	-1684.245000	1677.978516	-41.213776
29701.937766	-1684.245000	1676.953125	-88.866287
29701.937766	-1684.245000	1675.928711	10.376369
29701.937766	-1684.245000	1674.903320	-81.618736
29701.937766	-1684.245000	1673.877930	-68.718536
29701.937766	-1684.245000	1672.852539	81.641907
29701.937766	-1684.245000	1671.826172	43.186317
29701.937766	-1684.245000	1670.800781	107.223557
29701.937766	-1684.245000	1669.774414	99.002815
29701.937766	-1684.245000	1668.748047	183.903900
29701.937766	-1684.245000	1667.721680	159.324738
29701.937766	-1684.245000	1666.694336	48.598858
29701.937766	-1684.245000	1665.667969	98.478706
29701.937766	-1684.245000	1664.640625	145.981842
29701.937766	-1684.245000	1663.613281	-46.169060
29701.937766	-1684.245000	1662.585938	87.356613
29701.937766	-1684.245000	1661.557617	46.393253
29701.937766	-1684.245000	1660.530273	-8.518392
29701.937766	-1684.245000	1659.501953	-14.621184
29701.937766	-1684.245000	1658.473633	93.138725
29701.937766	-1684.245000	1657.444336	73.029282
29701.937766	-1684.245000	1656.416016	18.067453
29701.937766	-1684.245000	1655.386719	35.105957
29701.937766	-1684.245000	1654.358398	103.217010
29701.937766	-1684.245000	1653.328125	-19.121464
29701.937766	-1684.245000	1652.298828	79.110275
29701.937766	-1684.245000	1651.269531	147.114700
29701.937766	-1684.245000	1650.239258	129.210968
29701.937766	-1684.245000	1649.208984	102.018501
29701.937766	-1684.245000	1648.178711	135.130630
29701.937766	-1684.245000	1647.148438	198.364792
29701.937766	-1684.245000	1646.117188	178.080154
29701.937766	-1684.245000	1645.086914	343.256866
29701.937766	-1684.245000	1644.055664	125.911942
29701.937766	-1684.245000	1643.024414	131.104874
29701.937766	-1684.245000	1641.992188	173.347092
29701.937766	-1684.245000	1640.960938	349.924042
29701.937766	-1684.245000	1639.928711	44.684200
29701.937766	-1684.245000	1638.896484	255.922943
29701.937766	-1684.245000	1637.864258	182.311249
29701.937766	-1684.245000	1636.832031	259.171936
29701.937766	-1684.245000	1635.798828	217.962753
29701.937766	-1684.245000	1634.766602	209.161057
29701.937766	-1684.245000	1633.733398	232.734955
29701.937766	-1684.245000	1632.699219	408.935028
29701.937766	-1684.245000	1631.666016	462.509644
29701.937766	-1684.245000	1630.632813	458.258850
29701.937766	-1684.245000	1629.598633	430.881531
29701.937766	-1684.245000	1628.564453	560.663879
29701.937766	-1684.245000	1627.530273	390.010651
29701.937766	-1684.245000	1626.495117	429.638947
29701.937766	-1684.245000	1625.460938	757.972961
29701.937766	-1684.245000	1624.425781	626.622803
29701.937766	-1684.245000	1623.390625	696.190979
29701.937766	-1684.245000	1622.355469	908.850098
29701.937766	-1684.245000	1621.319336	1075.260864
29701.937766	-1684.245000	1620.284180	1200.079468
29701.937766	-1684.245000	1619.248047	1442.501465
29701.937766	-1684.245000	1618.211914	1484.157837
29701.937766	-1684.245000	1617.174805	1710.283569
29701.937766	-1684.245000	1616.138672	1661.953735
29701.937766	-1684.245000	1615.101563	1609.028442
29701.937766	-1684.245000	1614.065430	1521.562378
29701.937766	-1684.245000	1613.027344	1300.468628
29701.937766	-1684.245000	1611.990234	1210.795166
29701.937766	-1684.245000	1610.953125	969.134460
29701.937766	-1684.245000	1609.915039	930.229980
29701.937766	-1684.245000	1608.876953	854.506958
29701.937766	-1684.245000	1607.838867	824.862488
29701.937766	-1684.245000	1606.800781	790.634460
29701.937766	-1684.245000	1605.761719	726.504944
29701.937766	-1684.245000	1604.723633	726.837769
29701.937766	-1684.245000	1603.684570	681.166687
29701.937766	-1684.245000	1602.644531	775.807312
29701.937766	-1684.245000	1601.605469	645.087219
29701.937766	-1684.245000	1600.566406	470.749573
29701.937766	-1684.245000	1599.526367	478.066620
29701.937766	-1684.245000	1598.486328	501.479584
29701.937766	-1684.245000	1597.446289	513.408997
29701.937766	-1684.245000	1596.405273	596.552002
29701.937766	-1684.245000	1595.365234	348.956390
29701.937766	-1684.245000	1594.324219	471.164948
29701.937766	-1684.245000	1593.283203	398.195892
29701.937766	-1684.245000	1592.242188	382.655762
29701.937766	-1684.245000	1591.200195	484.172516
29701.937766	-1684.245000	1590.159180	468.655029
29701.937766	-1684.245000	1589.117188	455.448486
29701.937766	-1684.245000	1588.075195	368.870880
29701.937766	-1684.245000	1587.032227	410.754333
29701.937766	-1684.245000	1585.990234	454.940186
29701.937766	-1684.245000	1584.947266	297.405121
29701.937766	-1684.245000	1583.904297	376.006073
29701.937766	-1684.245000	1582.861328	488.967255
29701.937766	-1684.245000	1581.818359	400.307739
29701.937766	-1684.245000	1580.775391	499.520721
29701.937766	-1684.245000	1579.731445	424.671387
29701.937766	-1684.245000	1578.687500	407.113647
29701.937766	-1684.245000	1577.643555	362.117065
29701.937766	-1684.245000	1576.598633	280.537415
29701.937766	-1684.245000	1575.554688	295.125671
29701.937766	-1684.245000	1574.509766	309.726654
29701.937766	-1684.245000	1573.464844	196.259094
29701.937766	-1684.245000	1572.419922	295.539429
29701.937766	-1684.245000	1571.374023	239.326324
29701.937766	-1684.245000	1570.329102	158.023376
29701.937766	-1684.245000	1569.283203	232.188538
29701.937766	-1684.245000	1568.237305	358.909302
29701.937766	-1684.245000	1567.191406	216.025528
29701.937766	-1684.245000	1566.144531	411.276550
29701.937766	-1684.245000	1565.098633	382.683716
29701.937766	-1684.245000	1564.051758	326.727203
29701.937766	-1684.245000	1563.004883	480.842987
29701.937766	-1684.245000	1561.957031	477.439880
29701.937766	-1684.245000	1560.910156	223.065918
29701.937766	-1684.245000	1559.862305	267.690216
29701.937766	-1684.245000	1558.814453	230.213943
29701.937766	-1684.245000	1557.766602	233.835800
29701.937766	-1684.245000	1556.718750	191.887787
29701.937766	-1684.245000	1555.669922	97.552414
29701.937766	-1684.245000	1554.621094	224.374207
29701.937766	-1684.245000	1553.573242	200.788239
29701.937766	-1684.245000	1552.523438	266.090759
29701.937766	-1684.245000	1551.474609	144.623138
29701.937766	-1684.245000	1550.424805	91.557701
29701.937766	-1684.245000	1549.375000	170.615601
29701.937766	-1684.245000	1548.325195	47.068249
29701.937766	-1684.245000	1547.275391	51.068905
29701.937766	-1684.245000	1546.225586	59.658024
29701.937766	-1684.245000	1545.174805	191.137573
29701.937766	-1684.245000	1544.124023	115.603477
29701.937766	-1684.245000	1543.073242	10.572726
29701.937766	-1684.245000	1542.022461	51.150707
29701.937766	-1684.245000	1540.970703	50.827034
29701.937766	-1684.245000	1539.919922	102.827812
29701.937766	-1684.245000	1538.868164	23.039621
29701.937766	-1684.245000	1537.815430	41.018139
29701.937766	-1684.245000	1536.763672	27.234816
29701.937766	-1684.245000	1535.710938	43.019829
29701.937766	-1684.245000	1534.659180	45.222862
29701.937766	-1684.245000	1533.606445	74.706474
29701.937766	-1684.245000	1532.552734	81.519989
29701.937766	-1684.245000	1531.500000	195.040649
29701.937766	-1684.245000	1530.446289	176.959396
29701.937766	-1684.245000	1529.393555	56.853962
29701.937766	-1684.245000	1528.338867	143.222076
29701.937766	-1684.245000	1527.285156	84.482231
29701.937766	-1684.245000	1526.231445	-3.660231
29701.937766	-1684.245000	1525.176758	-64.526146
29701.937766	-1684.245000	1524.122070	-68.664543
29701.937766	-1684.245000	1523.067383	76.787697
29701.937766	-1684.245000	1522.012695	43.268864
29701.937766	-1684.245000	1520.957031	57.369919
29701.937766	-1684.245000	1519.901367	10.374146
29701.937766	-1684.245000	1518.845703	-25.234268
29701.937766	-1684.245000	1517.790039	20.708055
29701.937766	-1684.245000	1516.734375	-10.262952
29701.937766	-1684.245000	1515.677734	71.956078
29701.937766	-1684.245000	1514.621094	-13.210217
29701.937766	-1684.245000	1513.564453	37.413235
29701.937766	-1684.245000	1512.507813	8.921424
29701.937766	-1684.245000	1511.450195	222.400330
29701.937766	-1684.245000	1510.393555	69.663200
29701.937766	-1684.245000	1509.335938	-19.686100
29701.937766	-1684.245000	1508.278320	6.286977
29701.937766	-1684.245000	1507.219727	77.479134
29701.937766	-1684.245000	1506.162109	-18.437908
29701.937766	-1684.245000	1505.103516	-150.398483
29701.937766	-1684.245000	1504.044922	4.477529
29701.937766	-1684.245000	1502.986328	-5.436102
29701.937766	-1684.245000	1501.926758	-83.000267
29701.937766	-1684.245000	1500.868164	13.264818
29701.937766	-1684.245000	1499.808594	-64.164063
29701.937766	-1684.245000	1498.749023	-3.923650
29701.937766	-1684.245000	1497.688477	63.109722
29701.937766	-1684.245000	1496.628906	-11.864863
29701.937766	-1684.245000	1495.568359	-95.774040
29701.937766	-1684.245000	1494.507813	-15.075092
29701.937766	-1684.245000	1493.447266	182.816132
29701.937766	-1684.245000	1492.386719	146.393448
29701.937766	-1684.245000	1491.325195	98.775940
29701.937766	-1684.245000	1490.263672	199.859604
29701.937766	-1684.245000	1489.202148	138.854538
29701.937766	-1684.245000	1488.140625	17.153463
29701.937766	-1684.245000	1487.079102	190.380066
29701.937766	-1684.245000	1486.016602	-23.426903
29701.937766	-1684.245000	1484.954102	-151.604660
29701.937766	-1684.245000	1483.891602	-106.484138
29701.937766	-1684.245000	1482.829102	-83.811310
29701.937766	-1684.245000	1481.765625	-18.372429
29701.937766	-1684.245000	1480.702148	-92.264709
29701.937766	-1684.245000	1479.638672	18.215084
29701.937766	-1684.245000	1478.575195	14.108538
29701.937766	-1684.245000	1477.511719	-48.332298
29701.937766	-1684.245000	1476.447266	28.582153
29701.937766	-1684.245000	1475.382813	96.517082
29701.937766	-1684.245000	1474.318359	7.368059
29701.937766	-1684.245000	1473.253906	-81.681740
29701.937766	-1684.245000	1472.189453	-74.248947
29701.937766	-1684.245000	1471.124023	72.355293
29701.937766	-1684.245000	1470.058594	3.763140
29701.937766	-1684.245000	1468.993164	33.799835
29701.937766	-1684.245000	1467.927734	-16.732824
29701.937766	-1684.245000	1466.861328	-6.613554
29701.937766	-1684.245000	1465.794922	66.188492
29701.937766	-1684.245000	1464.728516	76.278809
29701.937766	-1684.245000	1463.662109	43.896175
29701.937766	-1684.245000	1462.594727	150.344604
29701.937766	-1684.245000	1461.528320	10.562075
29701.937766	-1684.245000	1460.460938	92.735725
29701.937766	-1684.245000	1459.393555	177.093307
29701.937766	-1684.245000	1458.326172	53.494659
29701.937766	-1684.245000	1457.257813	70.962311
29701.937766	-1684.245000	1456.189453	144.054398
29701.937766	-1684.245000	1455.121094	263.620972
29701.937766	-1684.245000	1454.052734	120.052643
29701.937766	-1684.245000	1452.984375	220.456802
29701.937766	-1684.245000	1451.915039	-80.449455
29701.937766	-1684.245000	1450.845703	159.187592
29701.937766	-1684.245000	1449.776367	125.604713
29701.937766	-1684.245000	1448.707031	210.337982
29701.937766	-1684.245000	1447.636719	97.203346
29701.937766	-1684.245000	1446.567383	163.775330
29701.937766	-1684.245000	1445.497070	167.546753
29701.937766	-1684.245000	1444.425781	71.695442
29701.937766	-1684.245000	1443.355469	53.332214
29701.937766	-1684.245000	1442.285156	50.763802
29701.937766	-1684.245000	1441.213867	143.172165
29701.937766	-1684.245000	1440.142578	124.040321
29701.937766	-1684.245000	1439.070313	-32.851543
29701.937766	-1684.245000	1437.999023	-0.858525
29701.937766	-1684.245000	1436.926758	26.260601
29701.937766	-1684.245000	1435.854492	27.309881
29701.937766	-1684.245000	1434.782227	-49.086296
29701.937766	-1684.245000	1433.709961	13.631513
29701.937766	-1684.245000	1432.636719	76.309731
29701.937766	-1684.245000	1431.563477	-47.173618
29701.937766	-1684.245000	1430.490234	122.871758
29701.937766	-1684.245000	1429.416992	148.748444
29701.937766	-1684.245000	1428.343750	73.099350
29701.937766	-1684.245000	1427.269531	196.420563
29701.937766	-1684.245000	1426.195313	400.983856
29701.937766	-1684.245000	1425.121094	591.754395
29701.937766	-1684.245000	1424.046875	561.119751
29701.937766	-1684.245000	1422.971680	753.499939
29701.937766	-1684.245000	1421.896484	444.921906
29701.937766	-1684.245000	1420.821289	389.442627
29701.937766	-1684.245000	1419.746094	291.294800
29701.937766	-1684.245000	1418.669922	295.402618
29701.937766	-1684.245000	1417.594727	198.913254
29701.937766	-1684.245000	1416.518555	78.935112
29701.937766	-1684.245000	1415.442383	37.668095
29701.937766	-1684.245000	1414.365234	-29.707052
29701.937766	-1684.245000	1413.289063	-31.130527
29701.937766	-1684.245000	1412.211914	-97.662468
29701.937766	-1684.245000	1411.134766	-273.944000
29701.937766	-1684.245000	1410.057617	-126.115524
29701.937766	-1684.245000	1408.979492	-102.909119
29701.937766	-1684.245000	1407.902344	-120.033592
29701.937766	-1684.245000	1406.824219	-158.391357
29701.937766	-1684.245000	1405.746094	-164.743484
29701.937766	-1684.245000	1404.666992	-102.118256
29701.937766	-1684.245000	1403.588867	81.945999
29701.937766	-1684.245000	1402.509766	59.998898
29701.937766	-1684.245000	1401.430664	-92.825798
29701.937766	-1684.245000	1400.351563	-99.052284
29701.937766	-1684.245000	1399.271484	96.730324
29701.937766	-1684.245000	1398.192383	-26.614958
29701.937766	-1684.245000	1397.112305	111.505913
29701.937766	-1684.245000	1396.031250	5.570831
29701.937766	-1684.245000	1394.951172	54.421516
29701.937766	-1684.245000	1393.871094	63.568050
29701.937766	-1684.245000	1392.790039	51.498722
29701.937766	-1684.245000	1391.708984	190.987442
29701.937766	-1684.245000	1390.626953	175.916611
29701.937766	-1684.245000	1389.545898	156.071823
29701.937766	-1684.245000	1388.463867	117.757317
29701.937766	-1684.245000	1387.381836	318.305878
29701.937766	-1684.245000	1386.299805	197.007217
29701.937766	-1684.245000	1385.217773	316.711609
29701.937766	-1684.245000	1384.134766	565.365723
29701.937766	-1684.245000	1383.051758	353.719543
29701.937766	-1684.245000	1381.968750	625.087769
29701.937766	-1684.245000	1380.885742	540.361145
29701.937766	-1684.245000	1379.802734	715.859192
29701.937766	-1684.245000	1378.718750	617.262573
29701.937766	-1684.245000	1377.634766	660.067810
29701.937766	-1684.245000	1376.550781	663.729004
29701.937766	-1684.245000	1375.465820	677.515503
29701.937766	-1684.245000	1374.381836	526.695374
29701.937766	-1684.245000	1373.296875	518.366577
29701.937766	-1684.245000	1372.211914	432.950623
29701.937766	-1684.245000	1371.126953	277.729340
29701.937766	-1684.245000	1370.041016	204.872055
29701.937766	-1684.245000	1368.955078	357.895325
29701.937766	-1684.245000	1367.869141	391.396423
29701.937766	-1684.245000	1366.783203	369.491699
29701.937766	-1684.245000	1365.697266	207.002029
29701.937766	-1684.245000	1364.610352	334.876770
29701.937766	-1684.245000	1363.523438	297.201538
29701.937766	-1684.245000	1362.436523	266.873932
29701.937766	-1684.245000	1361.349609	330.117188
29701.937766	-1684.245000	1360.261719	301.222076
29701.937766	-1684.245000	1359.174805	207.711884
29701.937766	-1684.245000	1358.086914	178.573837
29701.937766	-1684.245000	1356.998047	360.998566
29701.937766	-1684.245000	1355.910156	239.542877
29701.937766	-1684.245000	1354.821289	192.593079
29701.937766	-1684.245000	1353.732422	435.968353
29701.937766	-1684.245000	1352.643555	277.027222
29701.937766	-1684.245000	1351.554688	305.189667
29701.937766	-1684.245000	1350.464844	363.062164
29701.937766	-1684.245000	1349.375000	332.829498
29701.937766	-1684.245000	1348.285156	484.295441
29701.937766	-1684.245000	1347.195313	530.384399
29701.937766	-1684.245000	1346.105469	407.747284
29701.937766	-1684.245000	1345.014648	608.238831
29701.937766	-1684.245000	1343.923828	776.902954
29701.937766	-1684.245000	1342.833008	618.771484
29701.937766	-1684.245000	1341.741211	753.887207
29701.937766	-1684.245000	1340.650391	699.843506
29701.937766	-1684.245000	1339.558594	524.301086
29701.937766	-1684.245000	1338.466797	443.187042
29701.937766	-1684.245000	1337.374023	586.087158
29701.937766	-1684.245000	1336.282227	339.244598
29701.937766	-1684.245000	1335.189453	240.150269
29701.937766	-1684.245000	1334.096680	167.245331
29701.937766	-1684.245000	1333.003906	216.167038
29701.937766	-1684.245000	1331.910156	148.348572
29701.937766	-1684.245000	1330.817383	116.379341
29701.937766	-1684.245000	1329.723633	137.575836
29701.937766	-1684.245000	1328.629883	313.424927
29701.937766	-1684.245000	1327.535156	84.699257
29701.937766	-1684.245000	1326.441406	14.828809
29701.937766	-1684.245000	1325.346680	41.918400
29701.937766	-1684.245000	1324.251953	99.723808
29701.937766	-1684.245000	1323.156250	43.158398
29701.937766	-1684.245000	1322.061523	8.100201
29701.937766	-1684.245000	1320.965820	39.642017
29701.937766	-1684.245000	1319.870117	41.747540
29701.937766	-1684.245000	1318.774414	15.114552
29701.937766	-1684.245000	1317.678711	132.504333
29701.937766	-1684.245000	1316.582031	17.141413
29701.937766	-1684.245000	1315.485352	90.402946
29701.937766	-1684.245000	1314.388672	150.360748
29701.937766	-1684.245000	1313.291016	127.916183
29701.937766	-1684.245000	1312.194336	227.493713
29701.937766	-1684.245000	1311.096680	248.932175
29701.937766	-1684.245000	1309.999023	149.655975
29701.937766	-1684.245000	1308.901367	251.348724
29701.937766	-1684.245000	1307.802734	61.805462
29701.937766	-1684.245000	1306.705078	157.181885
29701.937766	-1684.245000	1305.606445	113.902962
29701.937766	-1684.245000	1304.506836	165.897003
29701.937766	-1684.245000	1303.408203	308.301056
29701.937766	-1684.245000	1302.308594	369.127106
29701.937766	-1684.245000	1301.208984	272.534302
29701.937766	-1684.245000	1300.109375	436.130035
29701.937766	-1684.245000	1299.009766	383.648743
29701.937766	-1684.245000	1297.909180	456.948120
29701.937766	-1684.245000	1296.808594	592.306335
29701.937766	-1684.245000	1295.708008	414.973389
29701.937766	-1684.245000	1294.607422	466.722809
29701.937766	-1684.245000	1293.506836	349.573639
29701.937766	-1684.245000	1292.405273	326.416351
29701.937766	-1684.245000	1291.303711	253.935318
29701.937766	-1684.245000	1290.202148	181.690598
29701.937766	-1684.245000	1289.099609	257.613739
29701.937766	-1684.245000	1287.998047	228.452194
29701.937766	-1684.245000	1286.895508	254.897552
29701.937766	-1684.245000	1285.792969	321.396820
29701.937766	-1684.245000	1284.689453	361.204346
29701.937766	-1684.245000	1283.586914	336.495148
29701.937766	-1684.245000	1282.483398	396.923889
29701.937766	-1684.245000	1281.379883	295.853027
29701.937766	-1684.245000	1280.276367	492.218140
29701.937766	-1684.245000	1279.171875	533.390320
29701.937766	-1684.245000	1278.067383	420.230560
29701.937766	-1684.245000	1276.962891	221.245697
29701.937766	-1684.245000	1275.858398	253.901611
29701.937766	-1684.245000	1274.753906	215.403442
29701.937766	-1684.245000	1273.648438	73.073486
29701.937766	-1684.245000	1272.542969	356.913300
29701.937766	-1684.245000	1271.437500	121.881905
29701.937766	-1684.245000	1270.331055	195.493057
29701.937766	-1684.245000	1269.225586	76.186737
29701.937766	-1684.245000	1268.119141	142.003052
29701.937766	-1684.245000	1267.012695	52.329285
29701.937766	-1684.245000	1265.906250	92.224556
29701.937766	-1684.245000	1264.798828	160.979996
29701.937766	-1684.245000	1263.691406	57.728931
29701.937766	-1684.245000	1262.583984	25.838131
29701.937766	-1684.245000	1261.476563	-33.399372
29701.937766	-1684.245000	1260.368164	139.732849
29701.937766	-1684.245000	1259.260742	93.009682
29701.937766	-1684.245000	1258.152344	89.756485
29701.937766	-1684.245000	1257.043945	117.419090
29701.937766	-1684.245000	1255.934570	157.475647
29701.937766	-1684.245000	1254.825195	88.737228
29701.937766	-1684.245000	1253.716797	107.129616
29701.937766	-1684.245000	1252.606445	40.157970
29701.937766	-1684.245000	1251.497070	-21.916582
29701.937766	-1684.245000	1250.387695	-88.234039
29701.937766	-1684.245000	1249.277344	-96.449509
29701.937766	-1684.245000	1248.166992	-147.229980
29701.937766	-1684.245000	1247.055664	-74.668533
29701.937766	-1684.245000	1245.945313	-164.170013
29701.937766	-1684.245000	1244.833984	-181.220016
29701.937766	-1684.245000	1243.722656	-27.382986
29701.937766	-1684.245000	1242.611328	-58.149044
29701.937766	-1684.245000	1241.499023	-174.386200
29701.937766	-1684.245000	1240.387695	-46.441143
29701.937766	-1684.245000	1239.275391	-142.612488
29701.937766	-1684.245000	1238.162109	-115.489494
29701.937766	-1684.245000	1237.049805	-61.235714
29701.937766	-1684.245000	1235.936523	-25.525755
29701.937766	-1684.245000	1234.823242	-40.505054
29701.937766	-1684.245000	1233.709961	-118.226234
29701.937766	-1684.245000	1232.596680	-124.824905
29701.937766	-1684.245000	1231.482422	-145.882004
29701.937766	-1684.245000	1230.369141	-27.799267
29701.937766	-1684.245000	1229.253906	-58.218163
29701.937766	-1684.245000	1228.139648	-10.429593
29701.937766	-1684.245000	1227.025391	-91.385078
29701.937766	-1684.245000	1225.910156	-126.969757
29701.937766	-1684.245000	1224.794922	-134.481827
29701.937766	-1684.245000	1223.679688	-37.682369
29701.937766	-1684.245000	1222.563477	-31.784670
29701.937766	-1684.245000	1221.447266	83.508812
29701.937766	-1684.245000	1220.331055	7.517562
29701.937766	-1684.245000	1219.214844	-108.062469
29701.937766	-1684.245000	1218.098633	-109.158859
29701.937766	-1684.245000	1216.981445	-30.626028
29701.937766	-1684.245000	1215.864258	20.602655
29701.937766	-1684.245000	1214.747070	-109.608383
29701.937766	-1684.245000	1213.629883	-100.179390
29701.937766	-1684.245000	1212.511719	59.234894
29701.937766	-1684.245000	1211.393555	24.264631
29701.937766	-1684.245000	1210.275391	-6.684243
29701.937766	-1684.245000	1209.157227	58.926537
29701.937766	-1684.245000	1208.038086	82.574516
29701.937766	-1684.245000	1206.918945	194.538849
29701.937766	-1684.245000	1205.799805	178.153687
29701.937766	-1684.245000	1204.680664	455.106232
29701.937766	-1684.245000	1203.560547	570.367676
29701.937766	-1684.245000	1202.441406	718.294128
29701.937766	-1684.245000	1201.321289	744.756348
29701.937766	-1684.245000	1200.200195	704.628601
29701.937766	-1684.245000	1199.080078	435.053650
29701.937766	-1684.245000	1197.958984	425.747009
29701.937766	-1684.245000	1196.837891	295.618347
29701.937766	-1684.245000	1195.716797	186.339706
29701.937766	-1684.245000	1194.594727	142.024780
29701.937766	-1684.245000	1193.473633	76.032829
29701.937766	-1684.245000	1192.351563	72.073364
29701.937766	-1684.245000	1191.229492	91.375954
29701.937766	-1684.245000	1190.106445	158.806641
29701.937766	-1684.245000	1188.984375	110.987038
29701.937766	-1684.245000	1187.861328	147.873138
29701.937766	-1684.245000	1186.738281	102.343491
29701.937766	-1684.245000	1185.614258	125.741158
29701.937766	-1684.245000	1184.491211	231.884659
29701.937766	-1684.245000	1183.367188	254.911026
29701.937766	-1684.245000	1182.243164	178.629074
29701.937766	-1684.245000	1181.119141	121.728989
29701.937766	-1684.245000	1179.994141	242.585510
29701.937766	-1684.245000	1178.869141	266.406921
29701.937766	-1684.245000	1177.744141	348.526489
29701.937766	-1684.245000	1176.619141	220.197464
29701.937766	-1684.245000	1175.493164	361.344727
29701.937766	-1684.245000	1174.368164	189.890259
29701.937766	-1684.245000	1173.242188	280.642120
29701.937766	-1684.245000	1172.115234	172.782715
29701.937766	-1684.245000	1170.989258	172.520645
29701.937766	-1684.245000	1169.862305	179.536026
29701.937766	-1684.245000	1168.735352	159.138901
29701.937766	-1684.245000	1167.608398	133.588348
29701.937766	-1684.245000	1166.481445	300.764099
29701.937766	-1684.245000	1165.353516	187.491318
29701.937766	-1684.245000	1164.225586	224.516693
29701.937766	-1684.245000	1163.097656	222.843964
29701.937766	-1684.245000	1161.968750	308.915955
29701.937766	-1684.245000	1160.840820	387.567169
29701.937766	-1684.245000	1159.711914	280.977905
29701.937766	-1684.245000	1158.583008	320.786469
29701.937766	-1684.245000	1157.453125	113.550926
29701.937766	-1684.245000	1156.324219	129.969727
29701.937766	-1684.245000	1155.194336	74.603317
29701.937766	-1684.245000	1154.064453	87.506706
29701.937766	-1684.245000	1152.933594	-35.460930
29701.937766	-1684.245000	1151.803711	-32.655602
29701.937766	-1684.245000	1150.672852	162.473221
29701.937766	-1684.245000	1149.541992	103.371246
29701.937766	-1684.245000	1148.411133	-41.499241
29701.937766	-1684.245000	1147.279297	4.190091
29701.937766	-1684.245000	1146.147461	100.301056
29701.937766	-1684.245000	1145.015625	82.139679
29701.937766	-1684.245000	1143.883789	-17.794628
29701.937766	-1684.245000	1142.750977	2.287324
29701.937766	-1684.245000	1141.619141	109.885414
29701.937766	-1684.245000	1140.486328	-37.227047
29701.937766	-1684.245000	1139.352539	-19.815367
29701.937766	-1684.245000	1138.219727	-9.565067
29701.937766	-1684.245000	1137.085938	-16.188805
29701.937766	-1684.245000	1135.952148	33.331715
29701.937766	-1684.245000	1134.818359	99.275703
29701.937766	-1684.245000	1133.683594	148.646561
29701.937766	-1684.245000	1132.549805	160.833694
29701.937766	-1684.245000	1131.415039	8.808354
29701.937766	-1684.245000	1130.279297	17.768129
29701.937766	-1684.245000	1129.144531	59.779850
29701.937766	-1684.245000	1128.008789	81.262352
29701.937766	-1684.245000	1126.873047	114.504166
29701.937766	-1684.245000	1125.737305	132.550629
29701.937766	-1684.245000	1124.601563	104.032082
29701.937766	-1684.245000	1123.464844	5.568429
29701.937766	-1684.245000	1122.328125	-91.797798
29701.937766	-1684.245000	1121.191406	65.806419
29701.937766	-1684.245000	1120.054688	26.877605
29701.937766	-1684.245000	1118.916992	71.343712
29701.937766	-1684.245000	1117.779297	44.935856
29701.937766	-1684.245000	1116.641602	183.105179
29701.937766	-1684.245000	1115.503906	-7.593162
29701.937766	-1684.245000	1114.365234	87.693977
29701.937766	-1684.245000	1113.226563	-49.731380
29701.937766	-1684.245000	1112.087891	140.542389
29701.937766	-1684.245000	1110.949219	179.361923
29701.937766	-1684.245000	1109.809570	137.142334
29701.937766	-1684.245000	1108.669922	62.602234
29701.937766	-1684.245000	1107.530273	41.128845
29701.937766	-1684.245000	1106.390625	128.968262
29701.937766	-1684.245000	1105.250000	74.532524
29701.937766	-1684.245000	1104.109375	88.826546
29701.937766	-1684.245000	1102.968750	34.000717
29701.937766	-1684.245000	1101.828125	113.202507
29701.937766	-1684.245000	1100.686523	68.805809
29701.937766	-1684.245000	1099.544922	154.675491
29701.937766	-1684.245000	1098.403320	34.092800
29701.937766	-1684.245000	1097.261719	211.091965
29701.937766	-1684.245000	1096.120117	177.114883
29701.937766	-1684.245000	1094.977539	96.986542
29701.937766	-1684.245000	1093.834961	240.541153
29701.937766	-1684.245000	1092.691406	123.599236
29701.937766	-1684.245000	1091.548828	205.305481
29701.937766	-1684.245000	1090.405273	136.520615
29701.937766	-1684.245000	1089.261719	82.673698
29701.937766	-1684.245000	1088.118164	36.647091
29701.937766	-1684.245000	1086.973633	69.532707
29701.937766	-1684.245000	1085.829102	11.798752
29701.937766	-1684.245000	1084.684570	31.938931
29701.937766	-1684.245000	1083.540039	112.050957
29701.937766	-1684.245000	1082.395508	84.424927
29701.937766	-1684.245000	1081.250000	25.289362
29701.937766	-1684.245000	1080.104492	101.600388
29701.937766	-1684.245000	1078.958984	176.766769
29701.937766	-1684.245000	1077.812500	208.047241
29701.937766	-1684.245000	1076.666016	191.650925
29701.937766	-1684.245000	1075.519531	127.779076
29701.937766	-1684.245000	1074.373047	128.577774
29701.937766	-1684.245000	1073.226563	246.967499
29701.937766	-1684.245000	1072.079102	225.573090
29701.937766	-1684.245000	1070.931641	263.519836
29701.937766	-1684.245000	1069.784180	75.621780
29701.937766	-1684.245000	1068.635742	96.974892
29701.937766	-1684.245000	1067.487305	-16.771055
29701.937766	-1684.245000	1066.338867	89.297119
29701.937766	-1684.245000	1065.190430	155.795715
29701.937766	-1684.245000	1064.041992	167.017319
29701.937766	-1684.245000	1062.892578	193.283875
29701.937766	-1684.245000	1061.743164	-35.553562
29701.937766	-1684.245000	1060.593750	110.528557
29701.937766	-1684.245000	1059.443359	-60.930122
29701.937766	-1684.245000	1058.292969	122.625648
29701.937766	-1684.245000	1057.142578	165.996765
29701.937766	-1684.245000	1055.992188	106.270248
29701.937766	-1684.245000	1054.841797	141.778732
29701.937766	-1684.245000	1053.690430	15.119394
29701.937766	-1684.245000	1052.539063	133.284103
29701.937766	-1684.245000	1051.387695	10.064995
29701.937766	-1684.245000	1050.235352	77.728104
29701.937766	-1684.245000	1049.083984	107.272438
29701.937766	-1684.245000	1047.931641	200.145493
29701.937766	-1684.245000	1046.778320	74.874176
29701.937766	-1684.245000	1045.625977	47.289169
29701.937766	-1684.245000	1044.472656	-13.845257
29701.937766	-1684.245000	1043.319336	115.887283
29701.937766	-1684.245000	1042.166016	146.740356
29701.937766	-1684.245000	1041.012695	229.425980
29701.937766	-1684.245000	1039.858398	18.067482
29701.937766	-1684.245000	1038.704102	195.696564
29701.937766	-1684.245000	1037.549805	121.840233
29701.937766	-1684.245000	1036.394531	147.464493
29701.937766	-1684.245000	1035.239258	78.151917
29701.937766	-1684.245000	1034.083984	140.822556
29701.937766	-1684.245000	1032.928711	132.792480
29701.937766	-1684.245000	1031.773438	50.935375
29701.937766	-1684.245000	1030.617188	170.166870
29701.937766	-1684.245000	1029.460938	112.766396
29701.937766	-1684.245000	1028.304688	26.957264
29701.937766	-1684.245000	1027.147461	-10.707748
29701.937766	-1684.245000	1025.991211	97.666214
29701.937766	-1684.245000	1024.833984	-9.353521
29701.937766	-1684.245000	1023.675781	61.731182
29701.937766	-1684.245000	1022.518555	162.030136
29701.937766	-1684.245000	1021.360352	-189.469513
29701.937766	-1684.245000	1020.202148	-57.292850
29701.937766	-1684.245000	1019.043945	0.957241
29701.937766	-1684.245000	1017.884766	-84.010826
29701.937766	-1684.245000	1016.726563	-94.081673
29701.937766	-1684.245000	1015.567383	-38.010536
29701.937766	-1684.245000	1014.407227	-129.304153
29701.937766	-1684.245000	1013.248047	-54.265972
29701.937766	-1684.245000	1012.087891	-38.001926
29701.937766	-1684.245000	1010.927734	-68.698082
29701.937766	-1684.245000	1009.767578	66.020729
29701.937766	-1684.245000	1008.606445	179.649887
29701.937766	-1684.245000	1007.446289	16.985704
29701.937766	-1684.245000	1006.285156	55.681374
29701.937766	-1684.245000	1005.123047	-51.773739
29701.937766	-1684.245000	1003.961914	96.006157
29701.937766	-1684.245000	1002.799805	157.240540
29701.937766	-1684.245000	1001.637695	151.927078
29701.937766	-1684.245000	1000.475586	-68.161598
29701.937766	-1684.245000	999.312500	53.358917
29701.937766	-1684.245000	998.149414	141.565933
29701.937766	-1684.245000	996.986328	62.108547
29701.937766	-1684.245000	995.823242	-60.754791
29701.937766	-1684.245000	994.659180	-42.282303
29701.937766	-1684.245000	993.496094	-34.569847
29701.937766	-1684.245000	992.332031	-236.647247
29701.937766	-1684.245000	991.166992	19.089602
29701.937766	-1684.245000	990.002930	-84.127899
29701.937766	-1684.245000	988.837891	87.108810
29701.937766	-1684.245000	987.672852	79.017303
29701.937766	-1684.245000	986.506836	36.698139
29701.937766	-1684.245000	985.341797	173.448242
29701.937766	-1684.245000	984.175781	45.768833
29701.937766	-1684.245000	983.009766	290.983521
29701.937766	-1684.245000	981.843750	29.047991
29701.937766	-1684.245000	980.676758	-37.462627
29701.937766	-1684.245000	979.509766	121.414948
29701.937766	-1684.245000	978.342773	-53.079391
29701.937766	-1684.245000	977.175781	98.134109
29701.937766	-1684.245000	976.007813	-30.221083
29701.937766	-1684.245000	974.839844	71.546402
29701.937766	-1684.245000	973.671875	25.108109
29701.937766	-1684.245000	972.503906	-24.872725
29701.937766	-1684.245000	971.334961	-112.261070
29701.937766	-1684.245000	970.166016	218.144272
29701.937766	-1684.245000	968.997070	0.499692
29701.937766	-1684.245000	967.828125	-14.621412
29701.937766	-1684.245000	966.658203	4.965254
29701.937766	-1684.245000	965.488281	-65.243172
29701.937766	-1684.245000	964.318359	-93.227509
29701.937766	-1684.245000	963.148438	-0.826468
29701.937766	-1684.245000	961.977539	-104.803070
29701.937766	-1684.245000	960.806641	-106.322746
29701.937766	-1684.245000	959.635742	7.704014
29701.937766	-1684.245000	958.463867	-104.689468
29701.937766	-1684.245000	957.292969	88.316315
29701.937766	-1684.245000	956.121094	56.336689
29701.937766	-1684.245000	954.948242	36.321465
29701.937766	-1684.245000	953.776367	13.153687
29701.937766	-1684.245000	952.603516	7.057498
29701.937766	-1684.245000	951.430664	-55.764275
29701.937766	-1684.245000	950.257813	-95.177223
29701.937766	-1684.245000	949.084961	-22.855528
29701.937766	-1684.245000	947.911133	-34.989120
29701.937766	-1684.245000	946.737305	-54.975723
29701.937766	-1684.245000	945.563477	-63.808369
29701.937766	-1684.245000	944.388672	89.725807
29701.937766	-1684.245000	943.213867	-141.169815
29701.937766	-1684.245000	942.039063	-99.611328
29701.937766	-1684.245000	940.864258	-72.292442
29701.937766	-1684.245000	939.688477	-61.784042
29701.937766	-1684.245000	938.513672	91.450012
29701.937766	-1684.245000	937.337891	-21.569563
29701.937766	-1684.245000	936.161133	16.908789
29701.937766	-1684.245000	934.985352	77.667839
29701.937766	-1684.245000	933.808594	51.764366
29701.937766	-1684.245000	932.631836	42.577621
29701.937766	-1684.245000	931.454102	181.726593
29701.937766	-1684.245000	930.277344	-85.040070
29701.937766	-1684.245000	929.099609	23.253294
29701.937766	-1684.245000	927.921875	44.822865
29701.937766	-1684.245000	926.743164	49.570301
29701.937766	-1684.245000	925.565430	3.964058
29701.937766	-1684.245000	924.386719	-61.260040
29701.937766	-1684.245000	923.208008	52.551228
29701.937766	-1684.245000	922.028320	129.949875
29701.937766	-1684.245000	920.849609	140.208603
29701.937766	-1684.245000	919.669922	140.385437
29701.937766	-1684.245000	919.474609	133.705551
29701.937766	-1684.245000	918.309570	-4.190547
29701.937766	-1684.245000	917.143555	109.434395
29701.937766	-1684.245000	915.977539	94.497299
29701.937766	-1684.245000	914.810547	182.899231
29701.937766	-1684.245000	913.644531	19.932049
29701.937766	-1684.245000	912.477539	44.079411
29701.937766	-1684.245000	911.310547	140.781235
29701.937766	-1684.245000	910.143555	-13.734890
29701.937766	-1684.245000	908.975586	-11.946842
29701.937766	-1684.245000	907.807617	23.306488
29701.937766	-1684.245000	906.639648	-22.346910
29701.937766	-1684.245000	905.471680	-28.952875
29701.937766	-1684.245000	904.303711	-85.748169
29701.937766	-1684.245000	903.134766	2.413295
29701.937766	-1684.245000	901.965820	9.712183
29701.937766	-1684.245000	900.796875	22.570910
29701.937766	-1684.245000	899.626953	38.200958
29701.937766	-1684.245000	898.457031	-38.092964
29701.937766	-1684.245000	897.287109	-92.088646
29701.937766	-1684.245000	896.117188	-118.231842
29701.937766	-1684.245000	894.947266	39.329540
29701.937766	-1684.245000	893.776367	-42.505089
29701.937766	-1684.245000	892.605469	-21.371906
29701.937766	-1684.245000	891.434570	-117.087288
29701.937766	-1684.245000	890.262695	-87.622437
29701.937766	-1684.245000	889.091797	72.506645
29701.937766	-1684.245000	887.919922	37.962963
29701.937766	-1684.245000	886.748047	-29.928703
29701.937766	-1684.245000	885.575195	-75.571243
29701.937766	-1684.245000	884.403320	6.597032
29701.937766	-1684.245000	883.230469	24.834764
29701.937766	-1684.245000	882.057617	-15.263714
29701.937766	-1684.245000	880.883789	69.591049
29701.937766	-1684.245000	879.710938	168.282089
29701.937766	-1684.245000	878.537109	122.600670
29701.937766	-1684.245000	877.362305	-84.013741
29701.937766	-1684.245000	876.188477	161.659302
29701.937766	-1684.245000	875.013672	74.373932
29701.937766	-1684.245000	873.839844	-148.769958
29701.937766	-1684.245000	872.664063	-80.708374
29701.937766	-1684.245000	871.489258	-40.404263
29701.937766	-1684.245000	870.313477	-30.612343
29701.937766	-1684.245000	869.138672	81.690659
29701.937766	-1684.245000	867.962891	94.205551
29701.937766	-1684.245000	866.786133	-170.269867
29701.937766	-1684.245000	865.610352	66.578255
29701.937766	-1684.245000	864.433594	-56.601578
29701.937766	-1684.245000	863.256836	5.719611
29701.937766	-1684.245000	862.079102	18.191473
29701.937766	-1684.245000	860.902344	14.046842
29701.937766	-1684.245000	859.724609	-28.834398
29701.937766	-1684.245000	858.546875	127.429291
29701.937766	-1684.245000	857.368164	-39.911888
29701.937766	-1684.245000	856.190430	-99.372131
29701.937766	-1684.245000	855.011719	-6.792803
29701.937766	-1684.245000	853.833008	49.813114
29701.937766	-1684.245000	852.654297	-95.309303
29701.937766	-1684.245000	851.474609	5.469980
29701.937766	-1684.245000	850.294922	-31.892759
29701.937766	-1684.245000	849.115234	-63.727650
29701.937766	-1684.245000	847.935547	-4.456132
29701.937766	-1684.245000	846.754883	-41.824188
29701.937766	-1684.245000	845.575195	91.906067
29701.937766	-1684.245000	844.393555	76.585625
29701.937766	-1684.245000	843.212891	-10.457431
29701.937766	-1684.245000	842.032227	56.964493
29701.937766	-1684.245000	840.850586	60.930557
29701.937766	-1684.245000	839.668945	42.831177
29701.937766	-1684.245000	838.486328	-11.101677
29701.937766	-1684.245000	837.304688	31.422710
29701.937766	-1684.245000	836.122070	181.364441
29701.937766	-1684.245000	834.939453	124.650078
29701.937766	-1684.245000	833.756836	120.271744
29701.937766	-1684.245000	832.573242	30.531168
29701.937766	-1684.245000	831.389648	172.047333
29701.937766	-1684.245000	830.206055	129.098480
29701.937766	-1684.245000	829.022461	-34.915096
29701.937766	-1684.245000	827.838867	21.211107
29701.937766	-1684.245000	826.654297	-153.737808
29701.937766	-1684.245000	825.469727	53.612030
29701.937766	-1684.245000	824.284180	-63.558784
29701.937766	-1684.245000	823.099609	-76.238655
29701.937766	-1684.245000	821.914063	26.499573
29701.937766	-1684.245000	820.728516	162.154816
29701.937766	-1684.245000	819.542969	-4.436111
29701.937766	-1684.245000	818.356445	-8.927156
29701.937766	-1684.245000	817.169922	22.269001
29701.937766	-1684.245000	815.983398	-6.958585
29701.937766	-1684.245000	814.796875	271.232758
29701.937766	-1684.245000	813.609375	60.820374
29701.937766	-1684.245000	812.422852	89.182732
29701.937766	-1684.245000	811.235352	227.244354
29701.937766	-1684.245000	810.046875	121.148651
29701.937766	-1684.245000	808.859375	37.020718
29701.937766	-1684.245000	807.670898	120.139519
29701.937766	-1684.245000	806.482422	315.585602
29701.937766	-1684.245000	805.293945	146.479965
29701.937766	-1684.245000	804.104492	136.333527
29701.937766	-1684.245000	802.915039	150.830429
29701.937766	-1684.245000	801.725586	61.241035
29701.937766	-1684.245000	800.536133	196.191696
29701.937766	-1684.245000	799.345703	112.076141
29701.937766	-1684.245000	798.155273	268.826538
29701.937766	-1684.245000	796.964844	83.458893
29701.937766	-1684.245000	795.774414	-8.831123
29701.937766	-1684.245000	794.583008	8.308657
29701.937766	-1684.245000	793.392578	170.361984
29701.937766	-1684.245000	792.200195	9.714207
29701.937766	-1684.245000	791.008789	-14.207287
29701.937766	-1684.245000	789.816406	-114.656105
29701.937766	-1684.245000	788.625000	-42.940380
29701.937766	-1684.245000	787.432617	-75.077942
29701.937766	-1684.245000	786.239258	89.428604
29701.937766	-1684.245000	785.046875	136.434280
29701.937766	-1684.245000	783.853516	101.501259
29701.937766	-1684.245000	782.660156	102.050644
29701.937766	-1684.245000	781.465820	42.545799
29701.937766	-1684.245000	780.272461	160.395050
29701.937766	-1684.245000	779.078125	57.224937
29701.937766	-1684.245000	777.883789	-59.555107
29701.937766	-1684.245000	776.688477	-29.063328
29701.937766	-1684.245000	775.494141	-50.396656
29701.937766	-1684.245000	774.298828	29.106501
29701.937766	-1684.245000	773.103516	67.684723
29701.937766	-1684.245000	771.907227	-59.960457
29701.937766	-1684.245000	770.711914	38.510166
29701.937766	-1684.245000	769.515625	49.776150
29701.937766	-1684.245000	768.318359	120.918861
29701.937766	-1684.245000	767.122070	167.515396
29701.937766	-1684.245000	765.924805	-28.147871
29701.937766	-1684.245000	764.727539	119.100868
29701.937766	-1684.245000	763.530273	-30.259026
29701.937766	-1684.245000	762.333008	133.211288
29701.937766	-1684.245000	761.134766	187.821609
29701.937766	-1684.245000	759.936523	201.608551
29701.937766	-1684.245000	758.738281	74.025085
29701.937766	-1684.245000	757.540039	41.593079
29701.937766	-1684.245000	756.340820	128.704315
29701.937766	-1684.245000	755.141602	3.873967
29701.937766	-1684.245000	753.942383	28.452005
29701.937766	-1684.245000	752.742188	69.291603
29701.937766	-1684.245000	751.541992	175.249283
29701.937766	-1684.245000	750.341797	142.717026
29701.937766	-1684.245000	749.141602	83.041870
29701.937766	-1684.245000	747.941406	-163.831955
29701.937766	-1684.245000	746.740234	-106.820862
29701.937766	-1684.245000	745.539063	88.456627
29701.937766	-1684.245000	744.337891	26.048763
29701.937766	-1684.245000	743.135742	-14.667962
29701.937766	-1684.245000	741.933594	88.255882
29701.937766	-1684.245000	740.731445	-1.273073
29701.937766	-1684.245000	739.529297	-93.494667
29701.937766	-1684.245000	738.326172	79.739990
29701.937766	-1684.245000	737.124023	112.065895
29701.937766	-1684.245000	735.919922	130.817108
29701.937766	-1684.245000	734.716797	117.058311
29701.937766	-1684.245000	733.513672	16.681549
29701.937766	-1684.245000	732.309570	165.252167
29701.937766	-1684.245000	731.105469	140.607925
29701.937766	-1684.245000	729.900391	142.996262
29701.937766	-1684.245000	728.696289	156.179871
29701.937766	-1684.245000	727.491211	142.299179
29701.937766	-1684.245000	726.286133	95.967453
29701.937766	-1684.245000	725.080078	36.119549
29701.937766	-1684.245000	723.874023	51.924419
29701.937766	-1684.245000	722.668945	0.171205
29701.937766	-1684.245000	721.461914	37.535675
29701.937766	-1684.245000	720.255859	-81.741562
29701.937766	-1684.245000	719.048828	-74.115509
29701.937766	-1684.245000	717.841797	63.034557
29701.937766	-1684.245000	716.634766	-104.813889
29701.937766	-1684.245000	715.427734	-24.414305
29701.937766	-1684.245000	714.219727	85.596268
29701.937766	-1684.245000	713.011719	31.039795
29701.937766	-1684.245000	711.803711	-12.732690
29701.937766	-1684.245000	710.594727	-13.382676
29701.937766	-1684.245000	709.385742	61.405025
29701.937766	-1684.245000	708.176758	-90.195297
29701.937766	-1684.245000	706.967773	65.347092
29701.937766	-1684.245000	705.758789	64.588310
29701.937766	-1684.245000	704.548828	-130.072159
29701.937766	-1684.245000	703.338867	33.385098
29701.937766	-1684.245000	702.127930	207.515274
29701.937766	-1684.245000	700.917969	-54.399532
29701.937766	-1684.245000	699.707031	-14.895365
29701.937766	-1684.245000	698.496094	-39.989368
29701.937766	-1684.245000	697.285156	66.682236
29701.937766	-1684.245000	696.073242	28.089136
29701.937766	-1684.245000	694.861328	-5.134860
29701.937766	-1684.245000	693.649414	34.198254
29701.937766	-1684.245000	692.436523	-4.436011
29701.937766	-1684.245000	691.224609	-43.076031
29701.937766	-1684.245000	690.011719	14.969909
29701.937766	-1684.245000	688.798828	-47.875210
29701.937766	-1684.245000	687.584961	-16.750673
29701.937766	-1684.245000	686.372070	202.239380
29701.937766	-1684.245000	685.158203	158.107834
29701.937766	-1684.245000	683.943359	-60.434364
29701.937766	-1684.245000	682.729492	104.702599
29701.937766	-1684.245000	681.514648	111.505653
29701.937766	-1684.245000	680.299805	252.355453
29701.937766	-1684.245000	679.084961	55.331154
29701.937766	-1684.245000	677.869141	83.511650
29701.937766	-1684.245000	676.653320	31.263981
29701.937766	-1684.245000	675.437500	40.637070
29701.937766	-1684.245000	674.221680	258.916168
29701.937766	-1684.245000	673.004883	21.808008
29701.937766	-1684.245000	671.789063	1.656221
29701.937766	-1684.245000	670.571289	203.671158
29701.937766	-1684.245000	669.354492	89.769150
29701.937766	-1684.245000	668.136719	120.384041
29701.937766	-1684.245000	666.919922	276.701874
29701.937766	-1684.245000	665.701172	208.254166
29701.937766	-1684.245000	664.483398	217.365112
29701.937766	-1684.245000	663.264648	12.563721
29701.937766	-1684.245000	662.045898	203.428711
29701.937766	-1684.245000	660.827148	68.156052
29701.937766	-1684.245000	659.608398	45.136509
29701.937766	-1684.245000	658.388672	190.394592
29701.937766	-1684.245000	657.168945	89.863121
29701.937766	-1684.245000	655.949219	80.137978
29701.937766	-1684.245000	654.728516	11.662573
29701.937766	-1684.245000	653.507813	151.380066
29701.937766	-1684.245000	652.287109	24.171001
29701.937766	-1684.245000	651.066406	9.046821
29701.937766	-1684.245000	649.844727	169.950897
29701.937766	-1684.245000	648.623047	66.756142
29701.937766	-1684.245000	647.401367	75.565804
29701.937766	-1684.245000	646.179688	92.348854
29701.937766	-1684.245000	644.957031	10.494914
29701.937766	-1684.245000	643.734375	-116.641075
29701.937766	-1684.245000	642.511719	78.597382
29701.937766	-1684.245000	641.289063	26.038149
29701.937766	-1684.245000	640.065430	64.016632
29701.937766	-1684.245000	638.841797	27.416656
29701.937766	-1684.245000	637.618164	36.063187
29701.937766	-1684.245000	636.393555	-32.487694
29701.937766	-1684.245000	635.168945	32.001900
29701.937766	-1684.245000	633.944336	75.167015
29701.937766	-1684.245000	632.719727	51.810169
29701.937766	-1684.245000	631.494141	-11.439822
29701.937766	-1684.245000	630.269531	183.181274
29701.937766	-1684.245000	629.042969	-42.228790
29701.937766	-1684.245000	627.817383	6.135179
29701.937766	-1684.245000	626.590820	187.292206
29701.937766	-1684.245000	625.365234	68.223427
29701.937766	-1684.245000	624.137695	36.816517
29701.937766	-1684.245000	622.911133	82.404190
29701.937766	-1684.245000	621.683594	-36.616199
29701.937766	-1684.245000	620.456055	30.167286
29701.937766	-1684.245000	619.228516	-35.754295
29701.937766	-1684.245000	618.000977	-14.122782
29701.937766	-1684.245000	616.772461	36.657871
29701.937766	-1684.245000	615.543945	-148.585815
29701.937766	-1684.245000	614.314453	5.562525
29701.937766	-1684.245000	613.085938	-155.765839
29701.937766	-1684.245000	611.856445	-136.848907
29701.937766	-1684.245000	610.626953	75.449463
29701.937766	-1684.245000	609.397461	-35.501690
29701.937766	-1684.245000	608.166992	-29.898327
29701.937766	-1684.245000	606.936523	-66.669685
29701.937766	-1684.245000	605.706055	-140.494080
29701.937766	-1684.245000	604.474609	-121.671486
29701.937766	-1684.245000	603.244141	42.663425
29701.937766	-1684.245000	602.012695	-121.109230
29701.937766	-1684.245000	600.780273	0.816130
29701.937766	-1684.245000	599.548828	69.800476
29701.937766	-1684.245000	598.316406	-51.600792
29701.937766	-1684.245000	597.083984	-98.949646
29701.937766	-1684.245000	595.851563	22.839802
29701.937766	-1684.245000	594.618164	-135.484085
29701.937766	-1684.245000	593.384766	-82.430504
29701.937766	-1684.245000	592.151367	-66.377441
29701.937766	-1684.245000	590.917969	60.557892
29701.937766	-1684.245000	589.683594	-100.301430
29701.937766	-1684.245000	588.449219	-55.238522
29701.937766	-1684.245000	587.214844	32.019550
29701.937766	-1684.245000	585.979492	11.074188
29701.937766	-1684.245000	584.745117	-117.999176
29701.937766	-1684.245000	583.509766	166.977402
29701.937766	-1684.245000	582.273438	30.007336
29701.937766	-1684.245000	581.038086	11.709510
29701.937766	-1684.245000	579.801758	-38.207352
29701.937766	-1684.245000	578.565430	48.901886
29701.937766	-1684.245000	577.329102	-119.536514
29701.937766	-1684.245000	576.091797	1.787391
29701.937766	-1684.245000	574.854492	162.556824
29701.937766	-1684.245000	573.617188	104.765915
29701.937766	-1684.245000	572.378906	152.274918
29701.937766	-1684.245000	571.141602	20.839411
29701.937766	-1684.245000	569.903320	60.460175
29701.937766	-1684.245000	568.664063	21.159189
29701.937766	-1684.245000	567.425781	2.919078
29701.937766	-1684.245000	566.186523	53.045322
29701.937766	-1684.245000	564.947266	21.671318
29701.937766	-1684.245000	563.708008	142.737991
29701.937766	-1684.245000	562.467773	16.781406
29701.937766	-1684.245000	561.227539	85.271370
29701.937766	-1684.245000	559.987305	19.799690
29701.937766	-1684.245000	558.747070	-79.770363
29701.937766	-1684.245000	557.505859	54.345840
29701.937766	-1684.245000	556.264648	-0.556721
29701.937766	-1684.245000	555.023438	-52.802277
29701.937766	-1684.245000	553.781250	-31.561251
29701.937766	-1684.245000	552.539063	-57.531384
29701.937766	-1684.245000	551.296875	-10.053992
29701.937766	-1684.245000	550.054688	24.305962
29701.937766	-1684.245000	548.811523	116.326820
29701.937766	-1684.245000	547.569336	-100.914368
29701.937766	-1684.245000	546.325195	-84.866684
29701.937766	-1684.245000	545.082031	-34.755901
29701.937766	-1684.245000	543.837891	44.153431
29701.937766	-1684.245000	542.593750	39.253784
29701.937766	-1684.245000	541.349609	36.988480
29701.937766	-1684.245000	540.105469	68.764198
29701.937766	-1684.245000	538.860352	-158.517609
29701.937766	-1684.245000	537.615234	-22.037792
29701.937766	-1684.245000	536.369141	114.397118
29701.937766	-1684.245000	535.124023	-94.393951
29701.937766	-1684.245000	533.877930	15.887124
29701.937766	-1684.245000	532.631836	73.860191
29701.937766	-1684.245000	531.384766	87.396484
29701.937766	-1684.245000	530.138672	17.337719
29701.937766	-1684.245000	528.891602	-91.858223
29701.937766	-1684.245000	527.643555	-7.725600
29701.937766	-1684.245000	526.396484	-95.941360
29701.937766	-1684.245000	525.148438	76.954872
29701.937766	-1684.245000	523.900391	80.146751
29701.937766	-1684.245000	522.652344	65.091621
29701.937766	-1684.245000	521.403320	104.847763
29701.937766	-1684.245000	520.154297	-30.149303
29701.937766	-1684.245000	518.905273	53.985458
29701.937766	-1684.245000	517.656250	-99.150513
29701.937766	-1684.245000	516.406250	-215.707397
29701.937766	-1684.245000	515.156250	1.387382
29701.937766	-1684.245000	513.906250	-70.802467
29701.937766	-1684.245000	512.655273	-2.271844
29701.937766	-1684.245000	511.404297	-136.892105
29701.937766	-1684.245000	510.153320	98.315918
29701.937766	-1684.245000	508.902344	-25.808250
29701.937766	-1684.245000	507.650391	-92.597389
29701.937766	-1684.245000	506.398438	-203.571442
29701.937766	-1684.245000	505.146484	133.004074
29701.937766	-1684.245000	503.893555	29.878418
29701.937766	-1684.245000	502.641602	-57.573627
29701.937766	-1684.245000	501.388672	13.629754
29701.937766	-1684.245000	500.134766	-58.141239
29701.937766	-1684.245000	498.881836	80.649620
29701.937766	-1684.245000	497.627930	86.891434
29701.937766	-1684.245000	496.374023	-210.775925
29701.937766	-1684.245000	495.119141	104.631660
29701.937766	-1684.245000	493.865234	-109.772690
29701.937766	-1684.245000	492.610352	23.803999
29701.937766	-1684.245000	491.355469	-11.357464
29701.937766	-1684.245000	490.099609	148.134735
29701.937766	-1684.245000	488.843750	53.336704
29701.937766	-1684.245000	487.587891	67.541687
29701.937766	-1684.245000	486.332031	-63.456615
29701.937766	-1684.245000	485.075195	-85.485680
29701.937766	-1684.245000	483.818359	61.004070
29701.937766	-1684.245000	482.561523	103.791115
29701.937766	-1684.245000	481.304688	58.488354
29701.937766	-1684.245000	480.046875	101.299034
29701.937766	-1684.245000	478.789063	-94.155693
29701.937766	-1684.245000	477.531250	-95.306961
29701.937766	-1684.245000	476.272461	27.820885
29701.937766	-1684.245000	475.013672	117.268753
29701.937766	-1684.245000	473.754883	-52.066948
29701.937766	-1684.245000	472.496094	135.706223
29701.937766	-1684.245000	471.236328	-36.111942
29701.937766	-1684.245000	469.976563	63.687225
29701.937766	-1684.245000	468.716797	44.531212
29701.937766	-1684.245000	467.456055	152.055176
29701.937766	-1684.245000	466.196289	1.120264
29701.937766	-1684.245000	464.935547	69.880287
29701.937766	-1684.245000	463.673828	86.958405
29701.937766	-1684.245000	462.413086	70.469460
29701.937766	-1684.245000	461.151367	79.817696
29701.937766	-1684.245000	459.889648	37.541901
29701.937766	-1684.245000	458.626953	116.596809
29701.937766	-1684.245000	457.364258	144.017181
29701.937766	-1684.245000	456.101563	274.626526
29701.937766	-1684.245000	454.838867	154.995438
29701.937766	-1684.245000	453.575195	43.154591
29701.937766	-1684.245000	452.312500	39.649979
29701.937766	-1684.245000	451.047852	283.594818
29701.937766	-1684.245000	449.784180	329.003418
29701.937766	-1684.245000	448.519531	96.129242
29701.937766	-1684.245000	447.254883	193.072006
29701.937766	-1684.245000	445.990234	212.707062
29701.937766	-1684.245000	444.725586	232.327133
29701.937766	-1684.245000	443.459961	43.414661
29701.937766	-1684.245000	442.194336	160.845016
29701.937766	-1684.245000	440.927734	185.577499
29701.937766	-1684.245000	439.662109	374.933411
29701.937766	-1684.245000	438.395508	291.555328
29701.937766	-1684.245000	437.127930	249.337112
29701.937766	-1684.245000	435.861328	-29.404949
29701.937766	-1684.245000	434.593750	182.888885
29701.937766	-1684.245000	433.326172	207.470520
29701.937766	-1684.245000	432.058594	75.291237
29701.937766	-1684.245000	430.790039	197.439087
29701.937766	-1684.245000	429.521484	201.367935
29701.937766	-1684.245000	428.252930	107.692917
29701.937766	-1684.245000	426.984375	324.632080
29701.937766	-1684.245000	425.714844	218.060654
29701.937766	-1684.245000	424.445313	270.579285
29701.937766	-1684.245000	423.174805	225.544907
29701.937766	-1684.245000	421.905273	301.028839
29701.937766	-1684.245000	420.634766	355.913116
29701.937766	-1684.245000	419.364258	259.461304
29701.937766	-1684.245000	418.092773	219.380371
29701.937766	-1684.245000	416.822266	204.883728
29701.937766	-1684.245000	415.550781	-45.379181
29701.937766	-1684.245000	414.278320	144.967377
29701.937766	-1684.245000	413.006836	201.994705
29701.937766	-1684.245000	411.734375	159.066040
29701.937766	-1684.245000	410.461914	59.760933
29701.937766	-1684.245000	409.188477	-6.317163
29701.937766	-1684.245000	407.916016	63.158985
29701.937766	-1684.245000	406.642578	124.836861
29701.937766	-1684.245000	405.368164	104.546532
29701.937766	-1684.245000	404.094727	181.334579
29701.937766	-1684.245000	402.820313	91.811607
29701.937766	-1684.245000	401.545898	-0.337607
29701.937766	-1684.245000	400.270508	65.867996
29701.937766	-1684.245000	398.996094	144.703217
29701.937766	-1684.245000	397.720703	-32.047153
29701.937766	-1684.245000	396.444336	36.301086
29701.937766	-1684.245000	395.168945	-58.911613
29701.937766	-1684.245000	393.892578	-103.173874
29701.937766	-1684.245000	392.616211	-32.720554
29701.937766	-1684.245000	391.339844	154.919479
29701.937766	-1684.245000	390.062500	26.004299
29701.937766	-1684.245000	388.785156	129.066589
29701.937766	-1684.245000	387.507813	-25.614832
29701.937766	-1684.245000	386.229492	-1.958905
29701.937766	-1684.245000	384.951172	-49.857323
29701.937766	-1684.245000	383.672852	65.159767
29701.937766	-1684.245000	382.394531	9.245179
29701.937766	-1684.245000	381.115234	151.819656
29701.937766	-1684.245000	379.835938	-39.464077
29701.937766	-1684.245000	378.556641	36.444820
29701.937766	-1684.245000	377.277344	-17.713993
29701.937766	-1684.245000	375.997070	52.613247
29701.937766	-1684.245000	374.716797	-17.259548
29701.937766	-1684.245000	373.435547	24.572281
29701.937766	-1684.245000	372.155273	63.598225
29701.937766	-1684.245000	370.874023	117.598343
29701.937766	-1684.245000	369.591797	59.451401
29701.937766	-1684.245000	368.310547	-54.851940
29701.937766	-1684.245000	367.028320	18.635153
29701.937766	-1684.245000	365.746094	30.828335
29701.937766	-1684.245000	364.463867	9.698100
29701.937766	-1684.245000	363.180664	-21.897346
29701.937766	-1684.245000	361.897461	-13.177961
29701.937766	-1684.245000	360.614258	68.816948
29701.937766	-1684.245000	359.330078	155.505844
29701.937766	-1684.245000	358.045898	46.454563
29701.937766	-1684.245000	356.761719	76.602272
29701.937766	-1684.245000	355.477539	-20.428457
29701.937766	-1684.245000	354.192383	54.605156
29701.937766	-1684.245000	352.907227	136.821991
29701.937766	-1684.245000	351.622070	-32.292168
29701.937766	-1684.245000	350.336914	-16.777155
29701.937766	-1684.245000	349.050781	66.697174
29701.937766	-1684.245000	347.764648	43.331139
29701.937766	-1684.245000	346.477539	87.887886
29701.937766	-1684.245000	345.191406	-174.336365
29701.937766	-1684.245000	343.904297	-95.239525
29701.937766	-1684.245000	342.616211	-110.295357
29701.937766	-1684.245000	341.329102	-176.421509
29701.937766	-1684.245000	340.041016	113.601418
29701.937766	-1684.245000	338.752930	-4.154304
29701.937766	-1684.245000	337.463867	6.537166
29701.937766	-1684.245000	336.175781	69.776443
29701.937766	-1684.245000	334.886719	-153.149307
29701.937766	-1684.245000	333.596680	250.029007
29701.937766	-1684.245000	332.307617	-178.603302
29701.937766	-1684.245000	331.017578	-4.072860
29701.937766	-1684.245000	329.727539	-14.552331
29701.937766	-1684.245000	328.436523	-2.952946
29701.937766	-1684.245000	327.146484	-2.080776
29701.937766	-1684.245000	325.855469	-1.885132
29701.937766	-1684.245000	324.563477	-42.746315
29701.937766	-1684.245000	323.272461	99.856972
29701.937766	-1684.245000	321.980469	-15.533260
29701.937766	-1684.245000	320.688477	44.879177
29701.937766	-1684.245000	319.395508	-21.521618
29701.937766	-1684.245000	318.103516	-10.509980
29701.937766	-1684.245000	316.810547	-40.608883
29701.937766	-1684.245000	315.516602	-66.470779
29701.937766	-1684.245000	314.223633	-37.705772
29701.937766	-1684.245000	312.929688	-85.337311
29701.937766	-1684.245000	311.635742	-108.621452
29701.937766	-1684.245000	310.340820	20.731298
29701.937766	-1684.245000	309.045898	0.691568
29701.937766	-1684.245000	307.750977	52.708466
29701.937766	-1684.245000	306.456055	28.328947
29701.937766	-1684.245000	305.160156	161.401077
29701.937766	-1684.245000	303.865234	157.727585
29701.937766	-1684.245000	302.568359	203.281403
29701.937766	-1684.245000	301.272461	285.530945
29701.937766	-1684.245000	299.975586	311.418091
29701.937766	-1684.245000	298.678711	336.244598
