#X		#Y		#Wave		#Intensity
29594.292553	-1732.391667	1999.980469	-6.748209
29594.292553	-1732.391667	1999.016602	169.831726
29594.292553	-1732.391667	1998.052734	176.085846
29594.292553	-1732.391667	1997.087891	-23.425167
29594.292553	-1732.391667	1996.123047	89.251106
29594.292553	-1732.391667	1995.158203	13.548440
29594.292553	-1732.391667	1994.193359	-49.809425
29594.292553	-1732.391667	1993.228516	228.520325
29594.292553	-1732.391667	1992.262695	85.793022
29594.292553	-1732.391667	1991.297852	180.698959
29594.292553	-1732.391667	1990.332031	37.920517
29594.292553	-1732.391667	1989.366211	-104.858437
29594.292553	-1732.391667	1988.399414	-123.936737
29594.292553	-1732.391667	1987.433594	2.884863
29594.292553	-1732.391667	1986.466797	179.074219
29594.292553	-1732.391667	1985.500977	-0.898838
29594.292553	-1732.391667	1984.534180	-32.517929
29594.292553	-1732.391667	1983.567383	-74.051407
29594.292553	-1732.391667	1982.599609	133.988388
29594.292553	-1732.391667	1981.632813	97.312561
29594.292553	-1732.391667	1980.665039	-272.877472
29594.292553	-1732.391667	1979.697266	33.784603
29594.292553	-1732.391667	1978.729492	-15.289974
29594.292553	-1732.391667	1977.761719	-29.806246
29594.292553	-1732.391667	1976.792969	-12.253612
29594.292553	-1732.391667	1975.825195	76.848549
29594.292553	-1732.391667	1974.856445	10.436375
29594.292553	-1732.391667	1973.887695	-9.093705
29594.292553	-1732.391667	1972.918945	8.367457
29594.292553	-1732.391667	1971.949219	65.263718
29594.292553	-1732.391667	1970.980469	38.294357
29594.292553	-1732.391667	1970.010742	-107.014069
29594.292553	-1732.391667	1969.041016	-72.345390
29594.292553	-1732.391667	1968.071289	122.485481
29594.292553	-1732.391667	1967.101563	-133.657730
29594.292553	-1732.391667	1966.130859	-62.075649
29594.292553	-1732.391667	1965.161133	56.275547
29594.292553	-1732.391667	1964.190430	41.599785
29594.292553	-1732.391667	1963.219727	78.630974
29594.292553	-1732.391667	1962.249023	78.723839
29594.292553	-1732.391667	1961.277344	-14.709569
29594.292553	-1732.391667	1960.306641	-44.125668
29594.292553	-1732.391667	1959.334961	115.908768
29594.292553	-1732.391667	1958.363281	143.058105
29594.292553	-1732.391667	1957.391602	-11.788016
29594.292553	-1732.391667	1956.419922	121.117470
29594.292553	-1732.391667	1955.447266	-38.574337
29594.292553	-1732.391667	1954.474609	54.971634
29594.292553	-1732.391667	1953.501953	55.104855
29594.292553	-1732.391667	1952.529297	-8.634816
29594.292553	-1732.391667	1951.556641	3.812954
29594.292553	-1732.391667	1950.583984	13.811193
29594.292553	-1732.391667	1949.610352	104.850693
29594.292553	-1732.391667	1948.636719	33.824837
29594.292553	-1732.391667	1947.663086	51.208858
29594.292553	-1732.391667	1946.689453	115.232826
29594.292553	-1732.391667	1945.715820	-90.677895
29594.292553	-1732.391667	1944.741211	7.721292
29594.292553	-1732.391667	1943.767578	-119.569008
29594.292553	-1732.391667	1942.792969	81.832436
29594.292553	-1732.391667	1941.818359	123.794250
29594.292553	-1732.391667	1940.842773	-32.823769
29594.292553	-1732.391667	1939.868164	58.198441
29594.292553	-1732.391667	1938.892578	136.947205
29594.292553	-1732.391667	1937.916992	-17.084038
29594.292553	-1732.391667	1936.941406	144.976089
29594.292553	-1732.391667	1935.965820	-89.791115
29594.292553	-1732.391667	1934.990234	8.588198
29594.292553	-1732.391667	1934.013672	50.633900
29594.292553	-1732.391667	1933.037109	-10.130522
29594.292553	-1732.391667	1932.060547	193.472809
29594.292553	-1732.391667	1931.083984	44.650059
29594.292553	-1732.391667	1930.107422	-67.400444
29594.292553	-1732.391667	1929.129883	148.383133
29594.292553	-1732.391667	1928.153320	-14.965462
29594.292553	-1732.391667	1927.175781	188.540634
29594.292553	-1732.391667	1926.198242	167.074982
29594.292553	-1732.391667	1925.219727	-152.567200
29594.292553	-1732.391667	1924.242188	2.030401
29594.292553	-1732.391667	1923.263672	-148.831802
29594.292553	-1732.391667	1922.285156	-74.873001
29594.292553	-1732.391667	1921.306641	-18.020058
29594.292553	-1732.391667	1920.328125	-66.174477
29594.292553	-1732.391667	1919.349609	51.730961
29594.292553	-1732.391667	1918.370117	-25.677460
29594.292553	-1732.391667	1917.391602	-39.580555
29594.292553	-1732.391667	1916.412109	80.746063
29594.292553	-1732.391667	1915.431641	-35.608906
29594.292553	-1732.391667	1914.452148	40.800503
29594.292553	-1732.391667	1913.472656	-155.947327
29594.292553	-1732.391667	1912.492188	-6.361875
29594.292553	-1732.391667	1911.511719	-42.095341
29594.292553	-1732.391667	1910.531250	39.197659
29594.292553	-1732.391667	1909.550781	-40.364067
29594.292553	-1732.391667	1908.569336	-124.755791
29594.292553	-1732.391667	1907.588867	-123.836586
29594.292553	-1732.391667	1906.607422	71.945274
29594.292553	-1732.391667	1905.625977	43.633671
29594.292553	-1732.391667	1904.644531	37.258484
29594.292553	-1732.391667	1903.662109	77.148148
29594.292553	-1732.391667	1902.680664	-14.386716
29594.292553	-1732.391667	1901.698242	57.157867
29594.292553	-1732.391667	1900.715820	-29.449755
29594.292553	-1732.391667	1899.733398	-125.742279
29594.292553	-1732.391667	1898.750000	-51.751595
29594.292553	-1732.391667	1897.767578	-72.603813
29594.292553	-1732.391667	1896.784180	-129.907181
29594.292553	-1732.391667	1895.800781	4.840897
29594.292553	-1732.391667	1894.817383	39.911385
29594.292553	-1732.391667	1893.833984	36.101616
29594.292553	-1732.391667	1892.850586	17.727457
29594.292553	-1732.391667	1891.866211	-58.925602
29594.292553	-1732.391667	1890.881836	-26.267174
29594.292553	-1732.391667	1889.897461	156.915070
29594.292553	-1732.391667	1888.913086	-72.628456
29594.292553	-1732.391667	1887.927734	93.515663
29594.292553	-1732.391667	1886.943359	26.657536
29594.292553	-1732.391667	1885.958008	-88.693794
29594.292553	-1732.391667	1884.972656	-46.332798
29594.292553	-1732.391667	1883.987305	59.070000
29594.292553	-1732.391667	1883.001953	118.366531
29594.292553	-1732.391667	1882.015625	73.397934
29594.292553	-1732.391667	1881.029297	45.414612
29594.292553	-1732.391667	1880.042969	-35.870182
29594.292553	-1732.391667	1879.056641	-71.089897
29594.292553	-1732.391667	1878.070313	-101.452194
29594.292553	-1732.391667	1877.083984	-122.115921
29594.292553	-1732.391667	1876.096680	201.082321
29594.292553	-1732.391667	1875.109375	-122.271187
29594.292553	-1732.391667	1874.122070	125.761414
29594.292553	-1732.391667	1873.134766	30.033937
29594.292553	-1732.391667	1872.146484	-65.665237
29594.292553	-1732.391667	1871.159180	-69.398216
29594.292553	-1732.391667	1870.170898	-17.504606
29594.292553	-1732.391667	1869.182617	-45.443043
29594.292553	-1732.391667	1868.194336	-17.765942
29594.292553	-1732.391667	1867.205078	-43.292400
29594.292553	-1732.391667	1866.216797	54.450687
29594.292553	-1732.391667	1865.227539	72.400978
29594.292553	-1732.391667	1864.238281	73.422127
29594.292553	-1732.391667	1863.249023	-84.999222
29594.292553	-1732.391667	1862.259766	56.110870
29594.292553	-1732.391667	1861.269531	11.219382
29594.292553	-1732.391667	1860.279297	38.761295
29594.292553	-1732.391667	1859.290039	121.800537
29594.292553	-1732.391667	1858.298828	4.480538
29594.292553	-1732.391667	1857.308594	75.399696
29594.292553	-1732.391667	1856.318359	-8.119557
29594.292553	-1732.391667	1855.327148	-9.617150
29594.292553	-1732.391667	1854.335938	-143.766434
29594.292553	-1732.391667	1853.344727	-130.805359
29594.292553	-1732.391667	1852.353516	-35.903538
29594.292553	-1732.391667	1851.362305	-44.695423
29594.292553	-1732.391667	1850.370117	-72.782539
29594.292553	-1732.391667	1849.377930	-112.925064
29594.292553	-1732.391667	1848.385742	133.578506
29594.292553	-1732.391667	1847.393555	11.486321
29594.292553	-1732.391667	1846.401367	65.196152
29594.292553	-1732.391667	1845.408203	53.860310
29594.292553	-1732.391667	1844.415039	49.726536
29594.292553	-1732.391667	1843.421875	43.163330
29594.292553	-1732.391667	1842.428711	51.015766
29594.292553	-1732.391667	1841.435547	-27.763659
29594.292553	-1732.391667	1840.441406	184.488968
29594.292553	-1732.391667	1839.448242	50.353107
29594.292553	-1732.391667	1838.454102	223.989227
29594.292553	-1732.391667	1837.459961	99.454819
29594.292553	-1732.391667	1836.464844	-41.888027
29594.292553	-1732.391667	1835.470703	-55.846371
29594.292553	-1732.391667	1834.475586	9.450041
29594.292553	-1732.391667	1833.480469	151.557846
29594.292553	-1732.391667	1832.485352	103.856346
29594.292553	-1732.391667	1831.490234	-66.318130
29594.292553	-1732.391667	1830.495117	20.414696
29594.292553	-1732.391667	1829.499023	27.871815
29594.292553	-1732.391667	1828.502930	107.285820
29594.292553	-1732.391667	1827.506836	1.888572
29594.292553	-1732.391667	1826.510742	-24.340015
29594.292553	-1732.391667	1825.513672	11.762646
29594.292553	-1732.391667	1824.517578	162.921463
29594.292553	-1732.391667	1823.520508	126.978745
29594.292553	-1732.391667	1822.523438	50.262035
29594.292553	-1732.391667	1821.526367	38.246395
29594.292553	-1732.391667	1820.529297	-93.610687
29594.292553	-1732.391667	1819.531250	-12.240540
29594.292553	-1732.391667	1818.533203	-50.702175
29594.292553	-1732.391667	1817.535156	61.684574
29594.292553	-1732.391667	1816.537109	106.946564
29594.292553	-1732.391667	1815.539063	211.999329
29594.292553	-1732.391667	1814.540039	218.837158
29594.292553	-1732.391667	1813.541992	271.100861
29594.292553	-1732.391667	1812.542969	29.016800
29594.292553	-1732.391667	1811.543945	-16.866314
29594.292553	-1732.391667	1810.543945	-2.986924
29594.292553	-1732.391667	1809.544922	8.457251
29594.292553	-1732.391667	1808.544922	89.180557
29594.292553	-1732.391667	1807.544922	-50.076691
29594.292553	-1732.391667	1806.544922	176.319855
29594.292553	-1732.391667	1805.544922	103.911789
29594.292553	-1732.391667	1804.544922	143.766083
29594.292553	-1732.391667	1803.543945	23.527073
29594.292553	-1732.391667	1802.542969	223.283951
29594.292553	-1732.391667	1801.541992	86.270706
29594.292553	-1732.391667	1800.541016	54.294601
29594.292553	-1732.391667	1799.539063	127.294739
29594.292553	-1732.391667	1798.538086	18.869347
29594.292553	-1732.391667	1797.536133	127.538559
29594.292553	-1732.391667	1796.534180	-76.360077
29594.292553	-1732.391667	1795.532227	34.574490
29594.292553	-1732.391667	1794.529297	-14.343824
29594.292553	-1732.391667	1793.527344	237.092102
29594.292553	-1732.391667	1792.524414	204.738907
29594.292553	-1732.391667	1791.521484	50.812332
29594.292553	-1732.391667	1790.518555	61.293560
29594.292553	-1732.391667	1789.514648	-9.277127
29594.292553	-1732.391667	1788.511719	-6.034871
29594.292553	-1732.391667	1787.507813	51.918537
29594.292553	-1732.391667	1786.503906	114.560844
29594.292553	-1732.391667	1785.500000	27.164270
29594.292553	-1732.391667	1784.496094	170.599701
29594.292553	-1732.391667	1783.491211	47.424744
29594.292553	-1732.391667	1782.486328	195.449432
29594.292553	-1732.391667	1781.481445	134.053436
29594.292553	-1732.391667	1780.476563	70.249275
29594.292553	-1732.391667	1779.471680	-34.005238
29594.292553	-1732.391667	1778.465820	4.354174
29594.292553	-1732.391667	1777.460938	85.431816
29594.292553	-1732.391667	1776.455078	61.862228
29594.292553	-1732.391667	1775.449219	-109.054916
29594.292553	-1732.391667	1774.442383	-42.426414
29594.292553	-1732.391667	1773.436523	43.125923
29594.292553	-1732.391667	1772.429688	159.455017
29594.292553	-1732.391667	1771.422852	161.729919
29594.292553	-1732.391667	1770.416016	45.270836
29594.292553	-1732.391667	1769.409180	47.456600
29594.292553	-1732.391667	1768.402344	153.985367
29594.292553	-1732.391667	1767.394531	217.712952
29594.292553	-1732.391667	1766.386719	22.835075
29594.292553	-1732.391667	1765.378906	131.507935
29594.292553	-1732.391667	1764.371094	-15.972628
29594.292553	-1732.391667	1763.362305	-35.455055
29594.292553	-1732.391667	1762.354492	-28.909557
29594.292553	-1732.391667	1761.345703	-67.450050
29594.292553	-1732.391667	1760.336914	47.959385
29594.292553	-1732.391667	1759.328125	56.680088
29594.292553	-1732.391667	1758.318359	164.799911
29594.292553	-1732.391667	1757.308594	-30.247576
29594.292553	-1732.391667	1756.299805	1.988006
29594.292553	-1732.391667	1755.290039	-32.121487
29594.292553	-1732.391667	1754.279297	104.099625
29594.292553	-1732.391667	1753.269531	-112.305176
29594.292553	-1732.391667	1752.258789	28.497618
29594.292553	-1732.391667	1751.249023	-126.430710
29594.292553	-1732.391667	1750.238281	-148.945343
29594.292553	-1732.391667	1749.226563	-27.303152
29594.292553	-1732.391667	1748.215820	-21.575336
29594.292553	-1732.391667	1747.204102	76.253746
29594.292553	-1732.391667	1746.193359	34.591648
29594.292553	-1732.391667	1745.181641	-163.028595
29594.292553	-1732.391667	1744.168945	-129.172424
29594.292553	-1732.391667	1743.157227	65.198898
29594.292553	-1732.391667	1742.144531	-45.130886
29594.292553	-1732.391667	1741.132813	123.075424
29594.292553	-1732.391667	1740.120117	-48.695503
29594.292553	-1732.391667	1739.106445	69.771225
29594.292553	-1732.391667	1738.093750	-116.188240
29594.292553	-1732.391667	1737.080078	23.366615
29594.292553	-1732.391667	1736.067383	68.488953
29594.292553	-1732.391667	1735.053711	-46.798859
29594.292553	-1732.391667	1734.040039	-199.813843
29594.292553	-1732.391667	1733.025391	-135.994568
29594.292553	-1732.391667	1732.011719	-159.434891
29594.292553	-1732.391667	1730.997070	-149.942902
29594.292553	-1732.391667	1729.982422	130.383377
29594.292553	-1732.391667	1728.967773	-15.728266
29594.292553	-1732.391667	1727.952148	-171.261490
29594.292553	-1732.391667	1726.937500	7.519431
29594.292553	-1732.391667	1725.921875	-103.342430
29594.292553	-1732.391667	1724.906250	-249.512207
29594.292553	-1732.391667	1723.890625	-59.218132
29594.292553	-1732.391667	1722.875000	-57.241112
29594.292553	-1732.391667	1721.858398	50.515007
29594.292553	-1732.391667	1720.841797	-140.463333
29594.292553	-1732.391667	1719.825195	-129.227539
29594.292553	-1732.391667	1718.808594	-14.618083
29594.292553	-1732.391667	1717.791992	-17.611174
29594.292553	-1732.391667	1716.774414	80.377457
29594.292553	-1732.391667	1715.756836	-23.757294
29594.292553	-1732.391667	1714.739258	76.445908
29594.292553	-1732.391667	1713.721680	-67.666855
29594.292553	-1732.391667	1712.704102	72.324738
29594.292553	-1732.391667	1711.685547	64.317276
29594.292553	-1732.391667	1710.667969	79.743370
29594.292553	-1732.391667	1709.649414	64.602791
29594.292553	-1732.391667	1708.630859	-72.575401
29594.292553	-1732.391667	1707.611328	106.908943
29594.292553	-1732.391667	1706.592773	14.242704
29594.292553	-1732.391667	1705.573242	-17.478933
29594.292553	-1732.391667	1704.553711	4.687330
29594.292553	-1732.391667	1703.534180	31.488049
29594.292553	-1732.391667	1702.513672	-70.661934
29594.292553	-1732.391667	1701.494141	87.262581
29594.292553	-1732.391667	1700.473633	38.931618
29594.292553	-1732.391667	1699.453125	-89.053101
29594.292553	-1732.391667	1698.432617	-181.905914
29594.292553	-1732.391667	1697.412109	-237.307007
29594.292553	-1732.391667	1696.390625	-145.270401
29594.292553	-1732.391667	1695.369141	-144.580902
29594.292553	-1732.391667	1694.347656	33.894787
29594.292553	-1732.391667	1693.326172	-52.086922
29594.292553	-1732.391667	1692.304688	-74.923943
29594.292553	-1732.391667	1691.282227	-36.998627
29594.292553	-1732.391667	1690.260742	-17.823013
29594.292553	-1732.391667	1689.238281	-29.088135
29594.292553	-1732.391667	1688.214844	67.111740
29594.292553	-1732.391667	1687.192383	13.699346
29594.292553	-1732.391667	1686.168945	-37.400307
29594.292553	-1732.391667	1685.146484	74.996384
29594.292553	-1732.391667	1684.123047	63.534054
29594.292553	-1732.391667	1683.099609	119.753540
29594.292553	-1732.391667	1682.075195	168.905106
29594.292553	-1732.391667	1681.051758	-76.068634
29594.292553	-1732.391667	1680.027344	-64.301544
29594.292553	-1732.391667	1679.002930	106.078400
29594.292553	-1732.391667	1677.978516	162.063004
29594.292553	-1732.391667	1676.953125	-1.240148
29594.292553	-1732.391667	1675.928711	50.018116
29594.292553	-1732.391667	1674.903320	-33.996532
29594.292553	-1732.391667	1673.877930	94.096893
29594.292553	-1732.391667	1672.852539	-8.594544
29594.292553	-1732.391667	1671.826172	37.831558
29594.292553	-1732.391667	1670.800781	-53.218719
29594.292553	-1732.391667	1669.774414	-13.842608
29594.292553	-1732.391667	1668.748047	-139.838684
29594.292553	-1732.391667	1667.721680	111.347427
29594.292553	-1732.391667	1666.694336	183.170761
29594.292553	-1732.391667	1665.667969	24.554232
29594.292553	-1732.391667	1664.640625	268.501007
29594.292553	-1732.391667	1663.613281	212.232193
29594.292553	-1732.391667	1662.585938	44.319710
29594.292553	-1732.391667	1661.557617	85.731262
29594.292553	-1732.391667	1660.530273	110.841110
29594.292553	-1732.391667	1659.501953	126.612244
29594.292553	-1732.391667	1658.473633	279.479706
29594.292553	-1732.391667	1657.444336	127.861343
29594.292553	-1732.391667	1656.416016	215.582718
29594.292553	-1732.391667	1655.386719	342.729767
29594.292553	-1732.391667	1654.358398	126.120293
29594.292553	-1732.391667	1653.328125	86.019020
29594.292553	-1732.391667	1652.298828	171.282761
29594.292553	-1732.391667	1651.269531	198.475815
29594.292553	-1732.391667	1650.239258	367.184875
29594.292553	-1732.391667	1649.208984	194.767014
29594.292553	-1732.391667	1648.178711	319.312775
29594.292553	-1732.391667	1647.148438	415.968414
29594.292553	-1732.391667	1646.117188	294.606720
29594.292553	-1732.391667	1645.086914	488.575012
29594.292553	-1732.391667	1644.055664	344.047913
29594.292553	-1732.391667	1643.024414	415.081787
29594.292553	-1732.391667	1641.992188	296.083618
29594.292553	-1732.391667	1640.960938	309.171265
29594.292553	-1732.391667	1639.928711	201.804474
29594.292553	-1732.391667	1638.896484	397.812073
29594.292553	-1732.391667	1637.864258	399.269043
29594.292553	-1732.391667	1636.832031	349.797180
29594.292553	-1732.391667	1635.798828	513.239075
29594.292553	-1732.391667	1634.766602	419.794525
29594.292553	-1732.391667	1633.733398	576.213440
29594.292553	-1732.391667	1632.699219	552.155762
29594.292553	-1732.391667	1631.666016	433.306641
29594.292553	-1732.391667	1630.632813	464.781189
29594.292553	-1732.391667	1629.598633	514.725647
29594.292553	-1732.391667	1628.564453	701.005920
29594.292553	-1732.391667	1627.530273	972.708801
29594.292553	-1732.391667	1626.495117	943.975586
29594.292553	-1732.391667	1625.460938	1016.894897
29594.292553	-1732.391667	1624.425781	1117.490967
29594.292553	-1732.391667	1623.390625	1132.625854
29594.292553	-1732.391667	1622.355469	1397.064819
29594.292553	-1732.391667	1621.319336	1582.929077
29594.292553	-1732.391667	1620.284180	1517.220825
29594.292553	-1732.391667	1619.248047	1850.653198
29594.292553	-1732.391667	1618.211914	1904.868286
29594.292553	-1732.391667	1617.174805	1719.222534
29594.292553	-1732.391667	1616.138672	1655.870605
29594.292553	-1732.391667	1615.101563	1514.165161
29594.292553	-1732.391667	1614.065430	1294.174072
29594.292553	-1732.391667	1613.027344	1141.086914
29594.292553	-1732.391667	1611.990234	1190.824951
29594.292553	-1732.391667	1610.953125	1074.708374
29594.292553	-1732.391667	1609.915039	859.613098
29594.292553	-1732.391667	1608.876953	1026.840576
29594.292553	-1732.391667	1607.838867	1000.642395
29594.292553	-1732.391667	1606.800781	999.788818
29594.292553	-1732.391667	1605.761719	658.364990
29594.292553	-1732.391667	1604.723633	705.929565
29594.292553	-1732.391667	1603.684570	856.999512
29594.292553	-1732.391667	1602.644531	637.743652
29594.292553	-1732.391667	1601.605469	747.417786
29594.292553	-1732.391667	1600.566406	797.297363
29594.292553	-1732.391667	1599.526367	812.693298
29594.292553	-1732.391667	1598.486328	876.363586
29594.292553	-1732.391667	1597.446289	891.783569
29594.292553	-1732.391667	1596.405273	925.589294
29594.292553	-1732.391667	1595.365234	885.921021
29594.292553	-1732.391667	1594.324219	853.174194
29594.292553	-1732.391667	1593.283203	671.237610
29594.292553	-1732.391667	1592.242188	854.361938
29594.292553	-1732.391667	1591.200195	966.291809
29594.292553	-1732.391667	1590.159180	818.940552
29594.292553	-1732.391667	1589.117188	859.776245
29594.292553	-1732.391667	1588.075195	749.249878
29594.292553	-1732.391667	1587.032227	728.220581
29594.292553	-1732.391667	1585.990234	723.287903
29594.292553	-1732.391667	1584.947266	949.896667
29594.292553	-1732.391667	1583.904297	697.466553
29594.292553	-1732.391667	1582.861328	802.616516
29594.292553	-1732.391667	1581.818359	1036.049316
29594.292553	-1732.391667	1580.775391	710.558655
29594.292553	-1732.391667	1579.731445	740.170715
29594.292553	-1732.391667	1578.687500	827.046265
29594.292553	-1732.391667	1577.643555	689.594116
29594.292553	-1732.391667	1576.598633	749.047668
29594.292553	-1732.391667	1575.554688	682.674744
29594.292553	-1732.391667	1574.509766	616.358276
29594.292553	-1732.391667	1573.464844	694.207153
29594.292553	-1732.391667	1572.419922	408.456390
29594.292553	-1732.391667	1571.374023	472.670502
29594.292553	-1732.391667	1570.329102	584.914795
29594.292553	-1732.391667	1569.283203	649.152649
29594.292553	-1732.391667	1568.237305	647.143188
29594.292553	-1732.391667	1567.191406	786.823425
29594.292553	-1732.391667	1566.144531	588.429138
29594.292553	-1732.391667	1565.098633	604.835571
29594.292553	-1732.391667	1564.051758	591.590637
29594.292553	-1732.391667	1563.004883	642.316406
29594.292553	-1732.391667	1561.957031	531.012329
29594.292553	-1732.391667	1560.910156	595.516235
29594.292553	-1732.391667	1559.862305	427.325653
29594.292553	-1732.391667	1558.814453	562.625793
29594.292553	-1732.391667	1557.766602	449.340179
29594.292553	-1732.391667	1556.718750	368.070892
29594.292553	-1732.391667	1555.669922	425.936890
29594.292553	-1732.391667	1554.621094	385.825409
29594.292553	-1732.391667	1553.573242	336.674194
29594.292553	-1732.391667	1552.523438	474.403687
29594.292553	-1732.391667	1551.474609	322.848480
29594.292553	-1732.391667	1550.424805	433.303864
29594.292553	-1732.391667	1549.375000	195.392120
29594.292553	-1732.391667	1548.325195	321.874542
29594.292553	-1732.391667	1547.275391	289.037750
29594.292553	-1732.391667	1546.225586	356.397980
29594.292553	-1732.391667	1545.174805	512.514099
29594.292553	-1732.391667	1544.124023	432.052948
29594.292553	-1732.391667	1543.073242	313.018066
29594.292553	-1732.391667	1542.022461	519.249756
29594.292553	-1732.391667	1540.970703	507.205597
29594.292553	-1732.391667	1539.919922	554.329529
29594.292553	-1732.391667	1538.868164	724.204041
29594.292553	-1732.391667	1537.815430	541.896362
29594.292553	-1732.391667	1536.763672	652.766907
29594.292553	-1732.391667	1535.710938	672.802002
29594.292553	-1732.391667	1534.659180	922.240845
29594.292553	-1732.391667	1533.606445	937.799377
29594.292553	-1732.391667	1532.552734	1284.803467
29594.292553	-1732.391667	1531.500000	1248.216431
29594.292553	-1732.391667	1530.446289	860.019470
29594.292553	-1732.391667	1529.393555	946.159058
29594.292553	-1732.391667	1528.338867	937.059387
29594.292553	-1732.391667	1527.285156	825.995422
29594.292553	-1732.391667	1526.231445	885.075623
29594.292553	-1732.391667	1525.176758	740.191895
29594.292553	-1732.391667	1524.122070	527.446533
29594.292553	-1732.391667	1523.067383	319.384796
29594.292553	-1732.391667	1522.012695	408.232666
29594.292553	-1732.391667	1520.957031	655.650940
29594.292553	-1732.391667	1519.901367	420.715118
29594.292553	-1732.391667	1518.845703	473.468567
29594.292553	-1732.391667	1517.790039	279.544464
29594.292553	-1732.391667	1516.734375	355.076965
29594.292553	-1732.391667	1515.677734	265.471313
29594.292553	-1732.391667	1514.621094	178.235229
29594.292553	-1732.391667	1513.564453	70.749969
29594.292553	-1732.391667	1512.507813	10.866443
29594.292553	-1732.391667	1511.450195	294.725464
29594.292553	-1732.391667	1510.393555	38.311157
29594.292553	-1732.391667	1509.335938	30.662664
29594.292553	-1732.391667	1508.278320	-42.434387
29594.292553	-1732.391667	1507.219727	-74.769577
29594.292553	-1732.391667	1506.162109	281.469696
29594.292553	-1732.391667	1505.103516	-33.039181
29594.292553	-1732.391667	1504.044922	38.722523
29594.292553	-1732.391667	1502.986328	-79.078896
29594.292553	-1732.391667	1501.926758	202.696030
29594.292553	-1732.391667	1500.868164	6.086649
29594.292553	-1732.391667	1499.808594	154.785736
29594.292553	-1732.391667	1498.749023	48.633862
29594.292553	-1732.391667	1497.688477	-23.577888
29594.292553	-1732.391667	1496.628906	116.251755
29594.292553	-1732.391667	1495.568359	-39.192696
29594.292553	-1732.391667	1494.507813	382.448547
29594.292553	-1732.391667	1493.447266	137.040955
29594.292553	-1732.391667	1492.386719	-94.675034
29594.292553	-1732.391667	1491.325195	153.527634
29594.292553	-1732.391667	1490.263672	-235.577545
29594.292553	-1732.391667	1489.202148	-189.917114
29594.292553	-1732.391667	1488.140625	24.629227
29594.292553	-1732.391667	1487.079102	101.886856
29594.292553	-1732.391667	1486.016602	-43.570168
29594.292553	-1732.391667	1484.954102	-119.149399
29594.292553	-1732.391667	1483.891602	-19.178797
29594.292553	-1732.391667	1482.829102	-56.341812
29594.292553	-1732.391667	1481.765625	79.709335
29594.292553	-1732.391667	1480.702148	148.348984
29594.292553	-1732.391667	1479.638672	77.715927
29594.292553	-1732.391667	1478.575195	25.164797
29594.292553	-1732.391667	1477.511719	114.238663
29594.292553	-1732.391667	1476.447266	-0.980941
29594.292553	-1732.391667	1475.382813	245.386734
29594.292553	-1732.391667	1474.318359	392.931610
29594.292553	-1732.391667	1473.253906	161.310059
29594.292553	-1732.391667	1472.189453	225.998688
29594.292553	-1732.391667	1471.124023	212.359665
29594.292553	-1732.391667	1470.058594	180.665894
29594.292553	-1732.391667	1468.993164	243.096130
29594.292553	-1732.391667	1467.927734	117.460991
29594.292553	-1732.391667	1466.861328	314.810394
29594.292553	-1732.391667	1465.794922	258.754791
29594.292553	-1732.391667	1464.728516	-110.220421
29594.292553	-1732.391667	1463.662109	194.641602
29594.292553	-1732.391667	1462.594727	301.998505
29594.292553	-1732.391667	1461.528320	206.330032
29594.292553	-1732.391667	1460.460938	135.398773
29594.292553	-1732.391667	1459.393555	68.885979
29594.292553	-1732.391667	1458.326172	-10.786502
29594.292553	-1732.391667	1457.257813	128.572525
29594.292553	-1732.391667	1456.189453	209.706528
29594.292553	-1732.391667	1455.121094	119.269791
29594.292553	-1732.391667	1454.052734	267.298370
29594.292553	-1732.391667	1452.984375	364.776611
29594.292553	-1732.391667	1451.915039	403.265167
29594.292553	-1732.391667	1450.845703	333.286438
29594.292553	-1732.391667	1449.776367	287.983887
29594.292553	-1732.391667	1448.707031	408.280243
29594.292553	-1732.391667	1447.636719	371.599792
29594.292553	-1732.391667	1446.567383	608.259888
29594.292553	-1732.391667	1445.497070	652.479187
29594.292553	-1732.391667	1444.425781	463.480591
29594.292553	-1732.391667	1443.355469	500.907990
29594.292553	-1732.391667	1442.285156	496.658478
29594.292553	-1732.391667	1441.213867	533.613708
29594.292553	-1732.391667	1440.142578	490.305939
29594.292553	-1732.391667	1439.070313	443.740082
29594.292553	-1732.391667	1437.999023	464.612976
29594.292553	-1732.391667	1436.926758	448.670959
29594.292553	-1732.391667	1435.854492	601.061157
29594.292553	-1732.391667	1434.782227	878.749268
29594.292553	-1732.391667	1433.709961	591.136414
29594.292553	-1732.391667	1432.636719	534.589233
29594.292553	-1732.391667	1431.563477	679.999695
29594.292553	-1732.391667	1430.490234	476.397827
29594.292553	-1732.391667	1429.416992	714.756104
29594.292553	-1732.391667	1428.343750	647.045959
29594.292553	-1732.391667	1427.269531	342.785736
29594.292553	-1732.391667	1426.195313	325.217590
29594.292553	-1732.391667	1425.121094	199.078506
29594.292553	-1732.391667	1424.046875	205.773560
29594.292553	-1732.391667	1422.971680	269.027405
29594.292553	-1732.391667	1421.896484	266.054474
29594.292553	-1732.391667	1420.821289	129.986343
29594.292553	-1732.391667	1419.746094	44.336388
29594.292553	-1732.391667	1418.669922	-52.440933
29594.292553	-1732.391667	1417.594727	324.845306
29594.292553	-1732.391667	1416.518555	219.619003
29594.292553	-1732.391667	1415.442383	149.955383
29594.292553	-1732.391667	1414.365234	342.675354
29594.292553	-1732.391667	1413.289063	-34.260201
29594.292553	-1732.391667	1412.211914	163.669769
29594.292553	-1732.391667	1411.134766	335.147675
29594.292553	-1732.391667	1410.057617	154.540314
29594.292553	-1732.391667	1408.979492	80.289093
29594.292553	-1732.391667	1407.902344	-3.771891
29594.292553	-1732.391667	1406.824219	323.719971
29594.292553	-1732.391667	1405.746094	283.334320
29594.292553	-1732.391667	1404.666992	211.542114
29594.292553	-1732.391667	1403.588867	278.970795
29594.292553	-1732.391667	1402.509766	384.087006
29594.292553	-1732.391667	1401.430664	261.719879
29594.292553	-1732.391667	1400.351563	304.580994
29594.292553	-1732.391667	1399.271484	260.974487
29594.292553	-1732.391667	1398.192383	555.619019
29594.292553	-1732.391667	1397.112305	509.411499
29594.292553	-1732.391667	1396.031250	489.507965
29594.292553	-1732.391667	1394.951172	538.533875
29594.292553	-1732.391667	1393.871094	655.992676
29594.292553	-1732.391667	1392.790039	706.107910
29594.292553	-1732.391667	1391.708984	472.516724
29594.292553	-1732.391667	1390.626953	604.232727
29594.292553	-1732.391667	1389.545898	698.255676
29594.292553	-1732.391667	1388.463867	801.743225
29594.292553	-1732.391667	1387.381836	993.669189
29594.292553	-1732.391667	1386.299805	1069.410889
29594.292553	-1732.391667	1385.217773	1000.480713
29594.292553	-1732.391667	1384.134766	1043.740234
29594.292553	-1732.391667	1383.051758	1283.915894
29594.292553	-1732.391667	1381.968750	1236.695679
29594.292553	-1732.391667	1380.885742	1213.966797
29594.292553	-1732.391667	1379.802734	1333.193481
29594.292553	-1732.391667	1378.718750	1175.832520
29594.292553	-1732.391667	1377.634766	1496.651001
29594.292553	-1732.391667	1376.550781	1637.184448
29594.292553	-1732.391667	1375.465820	1613.305786
29594.292553	-1732.391667	1374.381836	1589.139771
29594.292553	-1732.391667	1373.296875	1538.938721
29594.292553	-1732.391667	1372.211914	1820.124512
29594.292553	-1732.391667	1371.126953	1738.330444
29594.292553	-1732.391667	1370.041016	1727.441406
29594.292553	-1732.391667	1368.955078	1630.229736
29594.292553	-1732.391667	1367.869141	1768.544434
29594.292553	-1732.391667	1366.783203	1774.081421
29594.292553	-1732.391667	1365.697266	1510.393555
29594.292553	-1732.391667	1364.610352	1633.739380
29594.292553	-1732.391667	1363.523438	1411.227539
29594.292553	-1732.391667	1362.436523	1451.840088
29594.292553	-1732.391667	1361.349609	1354.734497
29594.292553	-1732.391667	1360.261719	1068.035522
29594.292553	-1732.391667	1359.174805	1292.526489
29594.292553	-1732.391667	1358.086914	1069.165039
29594.292553	-1732.391667	1356.998047	829.572876
29594.292553	-1732.391667	1355.910156	822.778137
29594.292553	-1732.391667	1354.821289	802.445984
29594.292553	-1732.391667	1353.732422	886.732666
29594.292553	-1732.391667	1352.643555	895.506775
29594.292553	-1732.391667	1351.554688	826.627991
29594.292553	-1732.391667	1350.464844	1017.205750
29594.292553	-1732.391667	1349.375000	1110.503540
29594.292553	-1732.391667	1348.285156	934.085144
29594.292553	-1732.391667	1347.195313	1320.697021
29594.292553	-1732.391667	1346.105469	1107.446167
29594.292553	-1732.391667	1345.014648	1264.095215
29594.292553	-1732.391667	1343.923828	1384.837280
29594.292553	-1732.391667	1342.833008	1682.000732
29594.292553	-1732.391667	1341.741211	1822.679688
29594.292553	-1732.391667	1340.650391	1643.202637
29594.292553	-1732.391667	1339.558594	1662.304443
29594.292553	-1732.391667	1338.466797	1360.731445
29594.292553	-1732.391667	1337.374023	1002.266357
29594.292553	-1732.391667	1336.282227	1070.508789
29594.292553	-1732.391667	1335.189453	731.421387
29594.292553	-1732.391667	1334.096680	630.499451
29594.292553	-1732.391667	1333.003906	848.968811
29594.292553	-1732.391667	1331.910156	631.581177
29594.292553	-1732.391667	1330.817383	523.490417
29594.292553	-1732.391667	1329.723633	783.256226
29594.292553	-1732.391667	1328.629883	696.785767
29594.292553	-1732.391667	1327.535156	327.191162
29594.292553	-1732.391667	1326.441406	320.830170
29594.292553	-1732.391667	1325.346680	401.920929
29594.292553	-1732.391667	1324.251953	388.321594
29594.292553	-1732.391667	1323.156250	252.503815
29594.292553	-1732.391667	1322.061523	226.542816
29594.292553	-1732.391667	1320.965820	191.015381
29594.292553	-1732.391667	1319.870117	530.838196
29594.292553	-1732.391667	1318.774414	347.901123
29594.292553	-1732.391667	1317.678711	350.516998
29594.292553	-1732.391667	1316.582031	441.356842
29594.292553	-1732.391667	1315.485352	323.715088
29594.292553	-1732.391667	1314.388672	46.160385
29594.292553	-1732.391667	1313.291016	179.191956
29594.292553	-1732.391667	1312.194336	313.253601
29594.292553	-1732.391667	1311.096680	352.184387
29594.292553	-1732.391667	1309.999023	237.591034
29594.292553	-1732.391667	1308.901367	217.052979
29594.292553	-1732.391667	1307.802734	136.592026
29594.292553	-1732.391667	1306.705078	200.826477
29594.292553	-1732.391667	1305.606445	412.272430
29594.292553	-1732.391667	1304.506836	407.889191
29594.292553	-1732.391667	1303.408203	254.402344
29594.292553	-1732.391667	1302.308594	400.832977
29594.292553	-1732.391667	1301.208984	749.644104
29594.292553	-1732.391667	1300.109375	775.851685
29594.292553	-1732.391667	1299.009766	801.638489
29594.292553	-1732.391667	1297.909180	564.003113
29594.292553	-1732.391667	1296.808594	904.093140
29594.292553	-1732.391667	1295.708008	883.551392
29594.292553	-1732.391667	1294.607422	784.093872
29594.292553	-1732.391667	1293.506836	962.657410
29594.292553	-1732.391667	1292.405273	825.710449
29594.292553	-1732.391667	1291.303711	885.780273
29594.292553	-1732.391667	1290.202148	981.628784
29594.292553	-1732.391667	1289.099609	751.775269
29594.292553	-1732.391667	1287.998047	714.540466
29594.292553	-1732.391667	1286.895508	634.008484
29594.292553	-1732.391667	1285.792969	564.551208
29594.292553	-1732.391667	1284.689453	392.497559
29594.292553	-1732.391667	1283.586914	426.872253
29594.292553	-1732.391667	1282.483398	419.206757
29594.292553	-1732.391667	1281.379883	256.655182
29594.292553	-1732.391667	1280.276367	302.598694
29594.292553	-1732.391667	1279.171875	410.164917
29594.292553	-1732.391667	1278.067383	410.815674
29594.292553	-1732.391667	1276.962891	215.479843
29594.292553	-1732.391667	1275.858398	219.953659
29594.292553	-1732.391667	1274.753906	153.236389
29594.292553	-1732.391667	1273.648438	1.071036
29594.292553	-1732.391667	1272.542969	171.593094
29594.292553	-1732.391667	1271.437500	134.824341
29594.292553	-1732.391667	1270.331055	100.931580
29594.292553	-1732.391667	1269.225586	-15.624051
29594.292553	-1732.391667	1268.119141	63.517204
29594.292553	-1732.391667	1267.012695	11.451768
29594.292553	-1732.391667	1265.906250	-93.429451
29594.292553	-1732.391667	1264.798828	112.465195
29594.292553	-1732.391667	1263.691406	-58.372353
29594.292553	-1732.391667	1262.583984	-160.980881
29594.292553	-1732.391667	1261.476563	11.208258
29594.292553	-1732.391667	1260.368164	71.406845
29594.292553	-1732.391667	1259.260742	-74.565598
29594.292553	-1732.391667	1258.152344	59.977844
29594.292553	-1732.391667	1257.043945	24.502758
29594.292553	-1732.391667	1255.934570	-79.373817
29594.292553	-1732.391667	1254.825195	-144.503693
29594.292553	-1732.391667	1253.716797	-66.255226
29594.292553	-1732.391667	1252.606445	-53.735947
29594.292553	-1732.391667	1251.497070	-1.540842
29594.292553	-1732.391667	1250.387695	-224.985489
29594.292553	-1732.391667	1249.277344	-111.843498
29594.292553	-1732.391667	1248.166992	-120.168762
29594.292553	-1732.391667	1247.055664	-13.846231
29594.292553	-1732.391667	1245.945313	-173.317947
29594.292553	-1732.391667	1244.833984	-92.409805
29594.292553	-1732.391667	1243.722656	-138.109238
29594.292553	-1732.391667	1242.611328	-175.563385
29594.292553	-1732.391667	1241.499023	-197.946304
29594.292553	-1732.391667	1240.387695	-116.401070
29594.292553	-1732.391667	1239.275391	-209.686279
29594.292553	-1732.391667	1238.162109	-147.739151
29594.292553	-1732.391667	1237.049805	-258.907745
29594.292553	-1732.391667	1235.936523	-248.820877
29594.292553	-1732.391667	1234.823242	-195.759796
29594.292553	-1732.391667	1233.709961	-276.949738
29594.292553	-1732.391667	1232.596680	-10.839578
29594.292553	-1732.391667	1231.482422	-138.545822
29594.292553	-1732.391667	1230.369141	-175.240601
29594.292553	-1732.391667	1229.253906	-1.184433
29594.292553	-1732.391667	1228.139648	-221.284988
29594.292553	-1732.391667	1227.025391	41.113663
29594.292553	-1732.391667	1225.910156	52.790417
29594.292553	-1732.391667	1224.794922	-6.710633
29594.292553	-1732.391667	1223.679688	74.001526
29594.292553	-1732.391667	1222.563477	135.610046
29594.292553	-1732.391667	1221.447266	64.882729
29594.292553	-1732.391667	1220.331055	1.054345
29594.292553	-1732.391667	1219.214844	-25.292671
29594.292553	-1732.391667	1218.098633	102.338188
29594.292553	-1732.391667	1216.981445	-94.602440
29594.292553	-1732.391667	1215.864258	97.895546
29594.292553	-1732.391667	1214.747070	58.709538
29594.292553	-1732.391667	1213.629883	85.661247
29594.292553	-1732.391667	1212.511719	34.682663
29594.292553	-1732.391667	1211.393555	69.081871
29594.292553	-1732.391667	1210.275391	-20.503965
29594.292553	-1732.391667	1209.157227	4.322074
29594.292553	-1732.391667	1208.038086	71.775108
29594.292553	-1732.391667	1206.918945	135.110596
29594.292553	-1732.391667	1205.799805	125.767487
29594.292553	-1732.391667	1204.680664	161.721817
29594.292553	-1732.391667	1203.560547	135.333130
29594.292553	-1732.391667	1202.441406	99.193298
29594.292553	-1732.391667	1201.321289	41.514088
29594.292553	-1732.391667	1200.200195	170.477539
29594.292553	-1732.391667	1199.080078	106.748924
29594.292553	-1732.391667	1197.958984	71.937332
29594.292553	-1732.391667	1196.837891	39.626640
29594.292553	-1732.391667	1195.716797	82.507790
29594.292553	-1732.391667	1194.594727	161.639343
29594.292553	-1732.391667	1193.473633	160.223053
29594.292553	-1732.391667	1192.351563	148.268082
29594.292553	-1732.391667	1191.229492	305.685669
29594.292553	-1732.391667	1190.106445	278.393646
29594.292553	-1732.391667	1188.984375	198.520782
29594.292553	-1732.391667	1187.861328	279.222534
29594.292553	-1732.391667	1186.738281	483.456116
29594.292553	-1732.391667	1185.614258	458.117798
29594.292553	-1732.391667	1184.491211	658.310303
29594.292553	-1732.391667	1183.367188	819.894836
29594.292553	-1732.391667	1182.243164	971.238953
29594.292553	-1732.391667	1181.119141	1071.571777
29594.292553	-1732.391667	1179.994141	1184.202515
29594.292553	-1732.391667	1178.869141	1139.753662
29594.292553	-1732.391667	1177.744141	1034.536499
29594.292553	-1732.391667	1176.619141	982.283875
29594.292553	-1732.391667	1175.493164	831.336121
29594.292553	-1732.391667	1174.368164	759.391479
29594.292553	-1732.391667	1173.242188	636.479431
29594.292553	-1732.391667	1172.115234	605.284058
29594.292553	-1732.391667	1170.989258	535.133728
29594.292553	-1732.391667	1169.862305	479.712006
29594.292553	-1732.391667	1168.735352	462.224884
29594.292553	-1732.391667	1167.608398	473.563690
29594.292553	-1732.391667	1166.481445	403.583496
29594.292553	-1732.391667	1165.353516	159.267868
29594.292553	-1732.391667	1164.225586	132.170624
29594.292553	-1732.391667	1163.097656	104.695786
29594.292553	-1732.391667	1161.968750	126.336510
29594.292553	-1732.391667	1160.840820	111.469757
29594.292553	-1732.391667	1159.711914	48.349735
29594.292553	-1732.391667	1158.583008	131.320572
29594.292553	-1732.391667	1157.453125	147.254196
29594.292553	-1732.391667	1156.324219	97.174431
29594.292553	-1732.391667	1155.194336	125.610542
29594.292553	-1732.391667	1154.064453	120.531860
29594.292553	-1732.391667	1152.933594	-82.620506
29594.292553	-1732.391667	1151.803711	-42.331135
29594.292553	-1732.391667	1150.672852	49.921082
29594.292553	-1732.391667	1149.541992	148.498260
29594.292553	-1732.391667	1148.411133	134.243927
29594.292553	-1732.391667	1147.279297	147.320679
29594.292553	-1732.391667	1146.147461	137.240189
29594.292553	-1732.391667	1145.015625	247.025681
29594.292553	-1732.391667	1143.883789	346.963104
29594.292553	-1732.391667	1142.750977	377.164093
29594.292553	-1732.391667	1141.619141	412.697693
29594.292553	-1732.391667	1140.486328	203.358673
29594.292553	-1732.391667	1139.352539	244.634979
29594.292553	-1732.391667	1138.219727	148.401611
29594.292553	-1732.391667	1137.085938	198.578064
29594.292553	-1732.391667	1135.952148	73.463615
29594.292553	-1732.391667	1134.818359	201.670395
29594.292553	-1732.391667	1133.683594	289.815613
29594.292553	-1732.391667	1132.549805	293.928101
29594.292553	-1732.391667	1131.415039	317.822357
29594.292553	-1732.391667	1130.279297	443.932770
29594.292553	-1732.391667	1129.144531	423.912445
29594.292553	-1732.391667	1128.008789	494.936981
29594.292553	-1732.391667	1126.873047	507.925262
29594.292553	-1732.391667	1125.737305	369.121307
29594.292553	-1732.391667	1124.601563	341.605103
29594.292553	-1732.391667	1123.464844	168.721008
29594.292553	-1732.391667	1122.328125	297.217163
29594.292553	-1732.391667	1121.191406	332.905029
29594.292553	-1732.391667	1120.054688	256.726929
29594.292553	-1732.391667	1118.916992	292.847321
29594.292553	-1732.391667	1117.779297	195.675751
29594.292553	-1732.391667	1116.641602	258.267822
29594.292553	-1732.391667	1115.503906	146.611771
29594.292553	-1732.391667	1114.365234	153.139511
29594.292553	-1732.391667	1113.226563	117.722672
29594.292553	-1732.391667	1112.087891	184.172760
29594.292553	-1732.391667	1110.949219	13.509274
29594.292553	-1732.391667	1109.809570	109.746002
29594.292553	-1732.391667	1108.669922	89.566322
29594.292553	-1732.391667	1107.530273	97.664566
29594.292553	-1732.391667	1106.390625	-29.410433
29594.292553	-1732.391667	1105.250000	164.454544
29594.292553	-1732.391667	1104.109375	73.750710
29594.292553	-1732.391667	1102.968750	98.452698
29594.292553	-1732.391667	1101.828125	195.413086
29594.292553	-1732.391667	1100.686523	249.810333
29594.292553	-1732.391667	1099.544922	102.313614
29594.292553	-1732.391667	1098.403320	256.898560
29594.292553	-1732.391667	1097.261719	133.451004
29594.292553	-1732.391667	1096.120117	194.965103
29594.292553	-1732.391667	1094.977539	212.642578
29594.292553	-1732.391667	1093.834961	121.414589
29594.292553	-1732.391667	1092.691406	-31.271164
29594.292553	-1732.391667	1091.548828	45.765305
29594.292553	-1732.391667	1090.405273	-12.780906
29594.292553	-1732.391667	1089.261719	51.859474
29594.292553	-1732.391667	1088.118164	-30.322237
29594.292553	-1732.391667	1086.973633	68.705437
29594.292553	-1732.391667	1085.829102	168.389664
29594.292553	-1732.391667	1084.684570	0.116297
29594.292553	-1732.391667	1083.540039	49.613018
29594.292553	-1732.391667	1082.395508	41.797924
29594.292553	-1732.391667	1081.250000	-26.368029
29594.292553	-1732.391667	1080.104492	45.871185
29594.292553	-1732.391667	1078.958984	30.259861
29594.292553	-1732.391667	1077.812500	100.399452
29594.292553	-1732.391667	1076.666016	146.415283
29594.292553	-1732.391667	1075.519531	209.333893
29594.292553	-1732.391667	1074.373047	218.880066
29594.292553	-1732.391667	1073.226563	163.732697
29594.292553	-1732.391667	1072.079102	192.881683
29594.292553	-1732.391667	1070.931641	59.935059
29594.292553	-1732.391667	1069.784180	211.270935
29594.292553	-1732.391667	1068.635742	148.210175
29594.292553	-1732.391667	1067.487305	202.639267
29594.292553	-1732.391667	1066.338867	108.288879
29594.292553	-1732.391667	1065.190430	87.901421
29594.292553	-1732.391667	1064.041992	165.835510
29594.292553	-1732.391667	1062.892578	112.444992
29594.292553	-1732.391667	1061.743164	-10.056227
29594.292553	-1732.391667	1060.593750	22.015673
29594.292553	-1732.391667	1059.443359	85.219505
29594.292553	-1732.391667	1058.292969	4.986105
29594.292553	-1732.391667	1057.142578	33.267879
29594.292553	-1732.391667	1055.992188	8.407847
29594.292553	-1732.391667	1054.841797	-187.082993
29594.292553	-1732.391667	1053.690430	82.625473
29594.292553	-1732.391667	1052.539063	-22.338413
29594.292553	-1732.391667	1051.387695	-20.961685
29594.292553	-1732.391667	1050.235352	91.918648
29594.292553	-1732.391667	1049.083984	54.863136
29594.292553	-1732.391667	1047.931641	-52.783012
29594.292553	-1732.391667	1046.778320	-145.928818
29594.292553	-1732.391667	1045.625977	2.242400
29594.292553	-1732.391667	1044.472656	-103.216393
29594.292553	-1732.391667	1043.319336	-78.303413
29594.292553	-1732.391667	1042.166016	-187.191208
29594.292553	-1732.391667	1041.012695	28.425215
29594.292553	-1732.391667	1039.858398	-78.482895
29594.292553	-1732.391667	1038.704102	-62.445793
29594.292553	-1732.391667	1037.549805	118.280968
29594.292553	-1732.391667	1036.394531	12.407791
29594.292553	-1732.391667	1035.239258	73.902588
29594.292553	-1732.391667	1034.083984	-59.996021
29594.292553	-1732.391667	1032.928711	-22.194933
29594.292553	-1732.391667	1031.773438	-84.761185
29594.292553	-1732.391667	1030.617188	-330.327332
29594.292553	-1732.391667	1029.460938	-230.452606
29594.292553	-1732.391667	1028.304688	-27.689363
29594.292553	-1732.391667	1027.147461	-42.724964
29594.292553	-1732.391667	1025.991211	38.990139
29594.292553	-1732.391667	1024.833984	-5.757020
29594.292553	-1732.391667	1023.675781	-36.570683
29594.292553	-1732.391667	1022.518555	15.476863
29594.292553	-1732.391667	1021.360352	-174.162521
29594.292553	-1732.391667	1020.202148	-123.891487
29594.292553	-1732.391667	1019.043945	-216.713547
29594.292553	-1732.391667	1017.884766	-176.537033
29594.292553	-1732.391667	1016.726563	49.636456
29594.292553	-1732.391667	1015.567383	4.488908
29594.292553	-1732.391667	1014.407227	-76.155182
29594.292553	-1732.391667	1013.248047	43.725269
29594.292553	-1732.391667	1012.087891	126.169456
29594.292553	-1732.391667	1010.927734	-0.803076
29594.292553	-1732.391667	1009.767578	75.152794
29594.292553	-1732.391667	1008.606445	-66.869545
29594.292553	-1732.391667	1007.446289	-61.010792
29594.292553	-1732.391667	1006.285156	-23.787716
29594.292553	-1732.391667	1005.123047	-130.688293
29594.292553	-1732.391667	1003.961914	23.293457
29594.292553	-1732.391667	1002.799805	-2.652385
29594.292553	-1732.391667	1001.637695	86.748878
29594.292553	-1732.391667	1000.475586	5.296485
29594.292553	-1732.391667	999.312500	-134.054108
29594.292553	-1732.391667	998.149414	-81.407013
29594.292553	-1732.391667	996.986328	-15.433682
29594.292553	-1732.391667	995.823242	-111.195229
29594.292553	-1732.391667	994.659180	87.092789
29594.292553	-1732.391667	993.496094	46.211334
29594.292553	-1732.391667	992.332031	132.384140
29594.292553	-1732.391667	991.166992	94.811722
29594.292553	-1732.391667	990.002930	35.445141
29594.292553	-1732.391667	988.837891	165.901520
29594.292553	-1732.391667	987.672852	198.386566
29594.292553	-1732.391667	986.506836	188.390640
29594.292553	-1732.391667	985.341797	265.522186
29594.292553	-1732.391667	984.175781	396.895233
29594.292553	-1732.391667	983.009766	445.078888
29594.292553	-1732.391667	981.843750	232.109665
29594.292553	-1732.391667	980.676758	379.488556
29594.292553	-1732.391667	979.509766	648.012268
29594.292553	-1732.391667	978.342773	476.742767
29594.292553	-1732.391667	977.175781	425.097443
29594.292553	-1732.391667	976.007813	364.772491
29594.292553	-1732.391667	974.839844	296.015900
29594.292553	-1732.391667	973.671875	274.020447
29594.292553	-1732.391667	972.503906	186.938934
29594.292553	-1732.391667	971.334961	94.330696
29594.292553	-1732.391667	970.166016	263.013184
29594.292553	-1732.391667	968.997070	187.439911
29594.292553	-1732.391667	967.828125	236.016586
29594.292553	-1732.391667	966.658203	217.090576
29594.292553	-1732.391667	965.488281	-87.799927
29594.292553	-1732.391667	964.318359	90.620895
29594.292553	-1732.391667	963.148438	0.117138
29594.292553	-1732.391667	961.977539	51.373951
29594.292553	-1732.391667	960.806641	-47.881897
29594.292553	-1732.391667	959.635742	80.759193
29594.292553	-1732.391667	958.463867	26.998924
29594.292553	-1732.391667	957.292969	88.323784
29594.292553	-1732.391667	956.121094	120.285172
29594.292553	-1732.391667	954.948242	226.694977
29594.292553	-1732.391667	953.776367	219.130600
29594.292553	-1732.391667	952.603516	-121.252159
29594.292553	-1732.391667	951.430664	-3.523281
29594.292553	-1732.391667	950.257813	1.631119
29594.292553	-1732.391667	949.084961	-79.995590
29594.292553	-1732.391667	947.911133	167.797134
29594.292553	-1732.391667	946.737305	2.432572
29594.292553	-1732.391667	945.563477	-184.131882
29594.292553	-1732.391667	944.388672	-76.559952
29594.292553	-1732.391667	943.213867	-137.504547
29594.292553	-1732.391667	942.039063	-114.159592
29594.292553	-1732.391667	940.864258	-20.699522
29594.292553	-1732.391667	939.688477	-104.589905
29594.292553	-1732.391667	938.513672	-27.431684
29594.292553	-1732.391667	937.337891	33.186386
29594.292553	-1732.391667	936.161133	-8.716810
29594.292553	-1732.391667	934.985352	-139.373978
29594.292553	-1732.391667	933.808594	73.162163
29594.292553	-1732.391667	932.631836	133.870667
29594.292553	-1732.391667	931.454102	38.193081
29594.292553	-1732.391667	930.277344	-1.533884
29594.292553	-1732.391667	929.099609	63.839104
29594.292553	-1732.391667	927.921875	105.728622
29594.292553	-1732.391667	926.743164	142.980469
29594.292553	-1732.391667	925.565430	236.171661
29594.292553	-1732.391667	924.386719	257.047119
29594.292553	-1732.391667	923.208008	149.691437
29594.292553	-1732.391667	922.028320	186.844879
29594.292553	-1732.391667	920.849609	477.940948
29594.292553	-1732.391667	919.669922	475.225525
29594.292553	-1732.391667	919.474609	598.412109
29594.292553	-1732.391667	918.309570	945.214966
29594.292553	-1732.391667	917.143555	1107.915283
29594.292553	-1732.391667	915.977539	1223.979248
29594.292553	-1732.391667	914.810547	781.379700
29594.292553	-1732.391667	913.644531	855.555969
29594.292553	-1732.391667	912.477539	824.994934
29594.292553	-1732.391667	911.310547	457.153351
29594.292553	-1732.391667	910.143555	512.716980
29594.292553	-1732.391667	908.975586	414.786316
29594.292553	-1732.391667	907.807617	402.900116
29594.292553	-1732.391667	906.639648	293.393585
29594.292553	-1732.391667	905.471680	267.579468
29594.292553	-1732.391667	904.303711	306.819366
29594.292553	-1732.391667	903.134766	18.520350
29594.292553	-1732.391667	901.965820	-35.114788
29594.292553	-1732.391667	900.796875	-14.435424
29594.292553	-1732.391667	899.626953	-7.701480
29594.292553	-1732.391667	898.457031	-10.260973
29594.292553	-1732.391667	897.287109	179.770111
29594.292553	-1732.391667	896.117188	119.162506
29594.292553	-1732.391667	894.947266	-50.440022
29594.292553	-1732.391667	893.776367	132.506271
29594.292553	-1732.391667	892.605469	30.193420
29594.292553	-1732.391667	891.434570	11.367699
29594.292553	-1732.391667	890.262695	4.130456
29594.292553	-1732.391667	889.091797	-40.179401
29594.292553	-1732.391667	887.919922	168.034164
29594.292553	-1732.391667	886.748047	56.528576
29594.292553	-1732.391667	885.575195	102.528198
29594.292553	-1732.391667	884.403320	206.388535
29594.292553	-1732.391667	883.230469	212.980972
29594.292553	-1732.391667	882.057617	50.625420
29594.292553	-1732.391667	880.883789	64.178055
29594.292553	-1732.391667	879.710938	-42.568138
29594.292553	-1732.391667	878.537109	-119.208603
29594.292553	-1732.391667	877.362305	-66.331093
29594.292553	-1732.391667	876.188477	46.634716
29594.292553	-1732.391667	875.013672	97.139244
29594.292553	-1732.391667	873.839844	235.440323
29594.292553	-1732.391667	872.664063	-90.730827
29594.292553	-1732.391667	871.489258	-56.406971
29594.292553	-1732.391667	870.313477	-84.459007
29594.292553	-1732.391667	869.138672	-100.954330
29594.292553	-1732.391667	867.962891	-165.928879
29594.292553	-1732.391667	866.786133	64.559807
29594.292553	-1732.391667	865.610352	-131.961929
29594.292553	-1732.391667	864.433594	-90.768349
29594.292553	-1732.391667	863.256836	-252.582565
29594.292553	-1732.391667	862.079102	72.278618
29594.292553	-1732.391667	860.902344	9.640344
29594.292553	-1732.391667	859.724609	41.540848
29594.292553	-1732.391667	858.546875	195.581192
29594.292553	-1732.391667	857.368164	66.120331
29594.292553	-1732.391667	856.190430	-102.453133
29594.292553	-1732.391667	855.011719	-123.543381
29594.292553	-1732.391667	853.833008	147.843201
29594.292553	-1732.391667	852.654297	117.496658
29594.292553	-1732.391667	851.474609	84.855995
29594.292553	-1732.391667	850.294922	40.720474
29594.292553	-1732.391667	849.115234	215.198486
29594.292553	-1732.391667	847.935547	67.524361
29594.292553	-1732.391667	846.754883	232.719131
29594.292553	-1732.391667	845.575195	305.861755
29594.292553	-1732.391667	844.393555	89.276115
29594.292553	-1732.391667	843.212891	408.369659
29594.292553	-1732.391667	842.032227	348.127289
29594.292553	-1732.391667	840.850586	285.608063
29594.292553	-1732.391667	839.668945	282.840668
29594.292553	-1732.391667	838.486328	293.850006
29594.292553	-1732.391667	837.304688	387.522583
29594.292553	-1732.391667	836.122070	279.118195
29594.292553	-1732.391667	834.939453	127.144989
29594.292553	-1732.391667	833.756836	310.284515
29594.292553	-1732.391667	832.573242	351.088959
29594.292553	-1732.391667	831.389648	329.938507
29594.292553	-1732.391667	830.206055	450.988342
29594.292553	-1732.391667	829.022461	354.151398
29594.292553	-1732.391667	827.838867	541.623840
29594.292553	-1732.391667	826.654297	293.523315
29594.292553	-1732.391667	825.469727	691.746521
29594.292553	-1732.391667	824.284180	523.896362
29594.292553	-1732.391667	823.099609	752.393555
29594.292553	-1732.391667	821.914063	703.681335
29594.292553	-1732.391667	820.728516	625.217957
29594.292553	-1732.391667	819.542969	626.905701
29594.292553	-1732.391667	818.356445	990.207703
29594.292553	-1732.391667	817.169922	827.051941
29594.292553	-1732.391667	815.983398	1123.807373
29594.292553	-1732.391667	814.796875	1349.526611
29594.292553	-1732.391667	813.609375	1300.722656
29594.292553	-1732.391667	812.422852	1171.912598
29594.292553	-1732.391667	811.235352	1216.876831
29594.292553	-1732.391667	810.046875	1085.834717
29594.292553	-1732.391667	808.859375	1009.682373
29594.292553	-1732.391667	807.670898	862.733215
29594.292553	-1732.391667	806.482422	825.470825
29594.292553	-1732.391667	805.293945	573.563843
29594.292553	-1732.391667	804.104492	673.344543
29594.292553	-1732.391667	802.915039	592.750732
29594.292553	-1732.391667	801.725586	514.464661
29594.292553	-1732.391667	800.536133	545.722473
29594.292553	-1732.391667	799.345703	435.523254
29594.292553	-1732.391667	798.155273	466.764771
29594.292553	-1732.391667	796.964844	456.939880
29594.292553	-1732.391667	795.774414	153.019974
29594.292553	-1732.391667	794.583008	200.225876
29594.292553	-1732.391667	793.392578	338.558319
29594.292553	-1732.391667	792.200195	305.941223
29594.292553	-1732.391667	791.008789	-86.576332
29594.292553	-1732.391667	789.816406	51.692738
29594.292553	-1732.391667	788.625000	19.125198
29594.292553	-1732.391667	787.432617	13.874856
29594.292553	-1732.391667	786.239258	122.412048
29594.292553	-1732.391667	785.046875	-67.198921
29594.292553	-1732.391667	783.853516	-218.070908
29594.292553	-1732.391667	782.660156	15.511147
29594.292553	-1732.391667	781.465820	-33.008400
29594.292553	-1732.391667	780.272461	-8.763457
29594.292553	-1732.391667	779.078125	-111.841576
29594.292553	-1732.391667	777.883789	-58.076485
29594.292553	-1732.391667	776.688477	156.977066
29594.292553	-1732.391667	775.494141	103.862968
29594.292553	-1732.391667	774.298828	-21.929274
29594.292553	-1732.391667	773.103516	24.896511
29594.292553	-1732.391667	771.907227	-89.509407
29594.292553	-1732.391667	770.711914	-60.881382
29594.292553	-1732.391667	769.515625	-166.179230
29594.292553	-1732.391667	768.318359	68.884674
29594.292553	-1732.391667	767.122070	108.748917
29594.292553	-1732.391667	765.924805	105.483841
29594.292553	-1732.391667	764.727539	50.048775
29594.292553	-1732.391667	763.530273	164.644455
29594.292553	-1732.391667	762.333008	172.645477
29594.292553	-1732.391667	761.134766	151.159973
29594.292553	-1732.391667	759.936523	351.693176
29594.292553	-1732.391667	758.738281	185.168503
29594.292553	-1732.391667	757.540039	165.896057
29594.292553	-1732.391667	756.340820	-129.626450
29594.292553	-1732.391667	755.141602	-1.730623
29594.292553	-1732.391667	753.942383	-165.871994
29594.292553	-1732.391667	752.742188	90.908028
29594.292553	-1732.391667	751.541992	116.801308
29594.292553	-1732.391667	750.341797	99.683380
29594.292553	-1732.391667	749.141602	177.526459
29594.292553	-1732.391667	747.941406	101.570313
29594.292553	-1732.391667	746.740234	-73.841797
29594.292553	-1732.391667	745.539063	55.887352
29594.292553	-1732.391667	744.337891	124.529770
29594.292553	-1732.391667	743.135742	233.775314
29594.292553	-1732.391667	741.933594	69.664612
29594.292553	-1732.391667	740.731445	11.723584
29594.292553	-1732.391667	739.529297	75.688103
29594.292553	-1732.391667	738.326172	209.565323
29594.292553	-1732.391667	737.124023	347.873718
29594.292553	-1732.391667	735.919922	287.542847
29594.292553	-1732.391667	734.716797	511.430298
29594.292553	-1732.391667	733.513672	507.414337
29594.292553	-1732.391667	732.309570	408.664124
29594.292553	-1732.391667	731.105469	519.573914
29594.292553	-1732.391667	729.900391	468.125427
29594.292553	-1732.391667	728.696289	346.814941
29594.292553	-1732.391667	727.491211	299.863892
29594.292553	-1732.391667	726.286133	158.296646
29594.292553	-1732.391667	725.080078	230.686462
29594.292553	-1732.391667	723.874023	26.079222
29594.292553	-1732.391667	722.668945	24.116583
29594.292553	-1732.391667	721.461914	161.644211
29594.292553	-1732.391667	720.255859	29.075298
29594.292553	-1732.391667	719.048828	83.236427
29594.292553	-1732.391667	717.841797	60.868900
29594.292553	-1732.391667	716.634766	-2.003312
29594.292553	-1732.391667	715.427734	-193.032990
29594.292553	-1732.391667	714.219727	-73.842377
29594.292553	-1732.391667	713.011719	11.552143
29594.292553	-1732.391667	711.803711	-17.714119
29594.292553	-1732.391667	710.594727	15.883973
29594.292553	-1732.391667	709.385742	96.589897
29594.292553	-1732.391667	708.176758	-148.354568
29594.292553	-1732.391667	706.967773	-43.035809
29594.292553	-1732.391667	705.758789	-124.089958
29594.292553	-1732.391667	704.548828	106.752121
29594.292553	-1732.391667	703.338867	88.429382
29594.292553	-1732.391667	702.127930	9.505833
29594.292553	-1732.391667	700.917969	74.098328
29594.292553	-1732.391667	699.707031	-74.379601
29594.292553	-1732.391667	698.496094	28.217218
29594.292553	-1732.391667	697.285156	-19.428007
29594.292553	-1732.391667	696.073242	127.833542
29594.292553	-1732.391667	694.861328	118.175468
29594.292553	-1732.391667	693.649414	16.648182
29594.292553	-1732.391667	692.436523	-6.515603
29594.292553	-1732.391667	691.224609	-72.247276
29594.292553	-1732.391667	690.011719	99.254868
29594.292553	-1732.391667	688.798828	40.143143
29594.292553	-1732.391667	687.584961	90.633553
29594.292553	-1732.391667	686.372070	114.215904
29594.292553	-1732.391667	685.158203	1.313721
29594.292553	-1732.391667	683.943359	42.686333
29594.292553	-1732.391667	682.729492	356.723206
29594.292553	-1732.391667	681.514648	230.278336
29594.292553	-1732.391667	680.299805	298.241638
29594.292553	-1732.391667	679.084961	147.188019
29594.292553	-1732.391667	677.869141	165.894745
29594.292553	-1732.391667	676.653320	153.279236
29594.292553	-1732.391667	675.437500	187.502350
29594.292553	-1732.391667	674.221680	183.713242
29594.292553	-1732.391667	673.004883	157.551376
29594.292553	-1732.391667	671.789063	193.827881
29594.292553	-1732.391667	670.571289	154.181244
29594.292553	-1732.391667	669.354492	168.030136
29594.292553	-1732.391667	668.136719	438.244385
29594.292553	-1732.391667	666.919922	104.142296
29594.292553	-1732.391667	665.701172	282.759399
29594.292553	-1732.391667	664.483398	514.735596
29594.292553	-1732.391667	663.264648	256.407135
29594.292553	-1732.391667	662.045898	347.846405
29594.292553	-1732.391667	660.827148	214.265137
29594.292553	-1732.391667	659.608398	198.692459
29594.292553	-1732.391667	658.388672	374.507721
29594.292553	-1732.391667	657.168945	169.617355
29594.292553	-1732.391667	655.949219	187.270309
29594.292553	-1732.391667	654.728516	102.521599
29594.292553	-1732.391667	653.507813	-37.852058
29594.292553	-1732.391667	652.287109	-24.785295
29594.292553	-1732.391667	651.066406	46.024555
29594.292553	-1732.391667	649.844727	190.095276
29594.292553	-1732.391667	648.623047	109.596397
29594.292553	-1732.391667	647.401367	51.293518
29594.292553	-1732.391667	646.179688	-64.795807
29594.292553	-1732.391667	644.957031	165.561920
29594.292553	-1732.391667	643.734375	115.992485
29594.292553	-1732.391667	642.511719	168.505676
29594.292553	-1732.391667	641.289063	194.306625
29594.292553	-1732.391667	640.065430	386.461670
29594.292553	-1732.391667	638.841797	203.544128
29594.292553	-1732.391667	637.618164	191.440781
29594.292553	-1732.391667	636.393555	270.201324
29594.292553	-1732.391667	635.168945	284.575928
29594.292553	-1732.391667	633.944336	250.122391
29594.292553	-1732.391667	632.719727	204.545853
29594.292553	-1732.391667	631.494141	123.475998
29594.292553	-1732.391667	630.269531	57.897049
29594.292553	-1732.391667	629.042969	366.577515
29594.292553	-1732.391667	627.817383	-33.504700
29594.292553	-1732.391667	626.590820	119.984673
29594.292553	-1732.391667	625.365234	47.594681
29594.292553	-1732.391667	624.137695	99.090454
29594.292553	-1732.391667	622.911133	137.242477
29594.292553	-1732.391667	621.683594	108.956993
29594.292553	-1732.391667	620.456055	76.206520
29594.292553	-1732.391667	619.228516	-100.300629
29594.292553	-1732.391667	618.000977	-95.520233
29594.292553	-1732.391667	616.772461	59.483704
29594.292553	-1732.391667	615.543945	61.904655
29594.292553	-1732.391667	614.314453	-48.402496
29594.292553	-1732.391667	613.085938	-211.716843
29594.292553	-1732.391667	611.856445	-165.240097
29594.292553	-1732.391667	610.626953	-4.031500
29594.292553	-1732.391667	609.397461	-255.704910
29594.292553	-1732.391667	608.166992	103.956757
29594.292553	-1732.391667	606.936523	238.368027
29594.292553	-1732.391667	605.706055	30.761793
29594.292553	-1732.391667	604.474609	74.602119
29594.292553	-1732.391667	603.244141	-86.677452
29594.292553	-1732.391667	602.012695	-144.334763
29594.292553	-1732.391667	600.780273	-100.638947
29594.292553	-1732.391667	599.548828	-129.719696
29594.292553	-1732.391667	598.316406	-235.950241
29594.292553	-1732.391667	597.083984	-216.634369
29594.292553	-1732.391667	595.851563	-159.938538
29594.292553	-1732.391667	594.618164	-70.294289
29594.292553	-1732.391667	593.384766	-59.976971
29594.292553	-1732.391667	592.151367	-109.128555
29594.292553	-1732.391667	590.917969	30.917603
29594.292553	-1732.391667	589.683594	-181.110962
29594.292553	-1732.391667	588.449219	-122.578262
29594.292553	-1732.391667	587.214844	-132.276596
29594.292553	-1732.391667	585.979492	-93.656204
29594.292553	-1732.391667	584.745117	13.048689
29594.292553	-1732.391667	583.509766	-51.739826
29594.292553	-1732.391667	582.273438	-28.668577
29594.292553	-1732.391667	581.038086	297.476685
29594.292553	-1732.391667	579.801758	232.543671
29594.292553	-1732.391667	578.565430	92.951935
29594.292553	-1732.391667	577.329102	30.210072
29594.292553	-1732.391667	576.091797	48.652889
29594.292553	-1732.391667	574.854492	157.012543
29594.292553	-1732.391667	573.617188	-11.113485
29594.292553	-1732.391667	572.378906	101.522690
29594.292553	-1732.391667	571.141602	165.845749
29594.292553	-1732.391667	569.903320	230.099655
29594.292553	-1732.391667	568.664063	136.476578
29594.292553	-1732.391667	567.425781	209.414108
29594.292553	-1732.391667	566.186523	238.464661
29594.292553	-1732.391667	564.947266	-76.421547
29594.292553	-1732.391667	563.708008	215.414597
29594.292553	-1732.391667	562.467773	137.068542
29594.292553	-1732.391667	561.227539	58.729836
29594.292553	-1732.391667	559.987305	-21.789057
29594.292553	-1732.391667	558.747070	-38.843639
29594.292553	-1732.391667	557.505859	33.769928
29594.292553	-1732.391667	556.264648	327.230560
29594.292553	-1732.391667	555.023438	355.957153
29594.292553	-1732.391667	553.781250	257.843048
29594.292553	-1732.391667	552.539063	323.681396
29594.292553	-1732.391667	551.296875	382.916626
29594.292553	-1732.391667	550.054688	217.075104
29594.292553	-1732.391667	548.811523	271.896729
29594.292553	-1732.391667	547.569336	176.001358
29594.292553	-1732.391667	546.325195	23.346994
29594.292553	-1732.391667	545.082031	69.400490
29594.292553	-1732.391667	543.837891	154.696365
29594.292553	-1732.391667	542.593750	237.763336
29594.292553	-1732.391667	541.349609	96.085815
29594.292553	-1732.391667	540.105469	43.883587
29594.292553	-1732.391667	538.860352	61.465908
29594.292553	-1732.391667	537.615234	185.858582
29594.292553	-1732.391667	536.369141	377.753693
29594.292553	-1732.391667	535.124023	519.447876
29594.292553	-1732.391667	533.877930	780.898499
29594.292553	-1732.391667	532.631836	748.168518
29594.292553	-1732.391667	531.384766	539.040771
29594.292553	-1732.391667	530.138672	639.189819
29594.292553	-1732.391667	528.891602	826.361145
29594.292553	-1732.391667	527.643555	567.285217
29594.292553	-1732.391667	526.396484	419.301666
29594.292553	-1732.391667	525.148438	64.707680
29594.292553	-1732.391667	523.900391	578.091492
29594.292553	-1732.391667	522.652344	21.392550
29594.292553	-1732.391667	521.403320	245.418182
29594.292553	-1732.391667	520.154297	188.959717
29594.292553	-1732.391667	518.905273	84.725128
29594.292553	-1732.391667	517.656250	-17.283667
29594.292553	-1732.391667	516.406250	58.872478
29594.292553	-1732.391667	515.156250	35.106865
29594.292553	-1732.391667	513.906250	37.417469
29594.292553	-1732.391667	512.655273	76.636002
29594.292553	-1732.391667	511.404297	183.129791
29594.292553	-1732.391667	510.153320	-12.018297
29594.292553	-1732.391667	508.902344	-18.330860
29594.292553	-1732.391667	507.650391	27.421265
29594.292553	-1732.391667	506.398438	-119.822479
29594.292553	-1732.391667	505.146484	19.188681
29594.292553	-1732.391667	503.893555	45.439743
29594.292553	-1732.391667	502.641602	-253.354477
29594.292553	-1732.391667	501.388672	-211.851700
29594.292553	-1732.391667	500.134766	-137.863708
29594.292553	-1732.391667	498.881836	-94.198357
29594.292553	-1732.391667	497.627930	36.070667
29594.292553	-1732.391667	496.374023	23.432249
29594.292553	-1732.391667	495.119141	75.742432
29594.292553	-1732.391667	493.865234	-105.630196
29594.292553	-1732.391667	492.610352	7.305170
29594.292553	-1732.391667	491.355469	-197.726486
29594.292553	-1732.391667	490.099609	94.700150
29594.292553	-1732.391667	488.843750	168.669327
29594.292553	-1732.391667	487.587891	246.954742
29594.292553	-1732.391667	486.332031	-11.884714
29594.292553	-1732.391667	485.075195	55.645496
29594.292553	-1732.391667	483.818359	17.329535
29594.292553	-1732.391667	482.561523	-178.596161
29594.292553	-1732.391667	481.304688	53.099903
29594.292553	-1732.391667	480.046875	88.273514
29594.292553	-1732.391667	478.789063	401.867706
29594.292553	-1732.391667	477.531250	132.761276
29594.292553	-1732.391667	476.272461	224.054031
29594.292553	-1732.391667	475.013672	213.963181
29594.292553	-1732.391667	473.754883	61.582172
29594.292553	-1732.391667	472.496094	299.507324
29594.292553	-1732.391667	471.236328	24.356838
29594.292553	-1732.391667	469.976563	184.650299
29594.292553	-1732.391667	468.716797	179.001373
29594.292553	-1732.391667	467.456055	181.987122
29594.292553	-1732.391667	466.196289	122.547134
29594.292553	-1732.391667	464.935547	218.170029
29594.292553	-1732.391667	463.673828	227.658661
29594.292553	-1732.391667	462.413086	127.410294
29594.292553	-1732.391667	461.151367	218.717102
29594.292553	-1732.391667	459.889648	372.387878
29594.292553	-1732.391667	458.626953	412.010925
29594.292553	-1732.391667	457.364258	501.088135
29594.292553	-1732.391667	456.101563	697.631836
29594.292553	-1732.391667	454.838867	584.592590
29594.292553	-1732.391667	453.575195	677.900146
29594.292553	-1732.391667	452.312500	910.832642
29594.292553	-1732.391667	451.047852	1111.437256
29594.292553	-1732.391667	449.784180	1412.900391
29594.292553	-1732.391667	448.519531	1495.228149
29594.292553	-1732.391667	447.254883	1895.217407
29594.292553	-1732.391667	445.990234	1979.550659
29594.292553	-1732.391667	444.725586	2016.637329
29594.292553	-1732.391667	443.459961	2027.952271
29594.292553	-1732.391667	442.194336	1929.871094
29594.292553	-1732.391667	440.927734	1763.196289
29594.292553	-1732.391667	439.662109	1864.561035
29594.292553	-1732.391667	438.395508	1537.187622
29594.292553	-1732.391667	437.127930	1449.929932
29594.292553	-1732.391667	435.861328	1411.966919
29594.292553	-1732.391667	434.593750	1476.799438
29594.292553	-1732.391667	433.326172	1378.817505
29594.292553	-1732.391667	432.058594	1582.727295
29594.292553	-1732.391667	430.790039	1857.139771
29594.292553	-1732.391667	429.521484	2296.176025
29594.292553	-1732.391667	428.252930	1874.840332
29594.292553	-1732.391667	426.984375	1810.875732
29594.292553	-1732.391667	425.714844	2056.985596
29594.292553	-1732.391667	424.445313	2001.434326
29594.292553	-1732.391667	423.174805	1704.262085
29594.292553	-1732.391667	421.905273	1785.459106
29594.292553	-1732.391667	420.634766	1695.584839
29594.292553	-1732.391667	419.364258	1639.848389
29594.292553	-1732.391667	418.092773	1532.776245
29594.292553	-1732.391667	416.822266	1244.146362
29594.292553	-1732.391667	415.550781	1036.662476
29594.292553	-1732.391667	414.278320	952.954712
29594.292553	-1732.391667	413.006836	911.856445
29594.292553	-1732.391667	411.734375	633.814636
29594.292553	-1732.391667	410.461914	443.222565
29594.292553	-1732.391667	409.188477	474.367432
29594.292553	-1732.391667	407.916016	601.311890
29594.292553	-1732.391667	406.642578	696.063538
29594.292553	-1732.391667	405.368164	728.796753
29594.292553	-1732.391667	404.094727	416.158936
29594.292553	-1732.391667	402.820313	408.113434
29594.292553	-1732.391667	401.545898	451.001831
29594.292553	-1732.391667	400.270508	472.372192
29594.292553	-1732.391667	398.996094	427.537231
29594.292553	-1732.391667	397.720703	616.633667
29594.292553	-1732.391667	396.444336	413.850342
29594.292553	-1732.391667	395.168945	402.411102
29594.292553	-1732.391667	393.892578	246.074905
29594.292553	-1732.391667	392.616211	136.335724
29594.292553	-1732.391667	391.339844	298.529144
29594.292553	-1732.391667	390.062500	368.953339
29594.292553	-1732.391667	388.785156	243.527695
29594.292553	-1732.391667	387.507813	162.472580
29594.292553	-1732.391667	386.229492	391.279785
29594.292553	-1732.391667	384.951172	379.655487
29594.292553	-1732.391667	383.672852	363.443970
29594.292553	-1732.391667	382.394531	266.208954
29594.292553	-1732.391667	381.115234	298.103851
29594.292553	-1732.391667	379.835938	181.055084
29594.292553	-1732.391667	378.556641	235.504181
29594.292553	-1732.391667	377.277344	98.610023
29594.292553	-1732.391667	375.997070	374.861206
29594.292553	-1732.391667	374.716797	126.850746
29594.292553	-1732.391667	373.435547	33.210270
29594.292553	-1732.391667	372.155273	30.272043
29594.292553	-1732.391667	370.874023	255.654007
29594.292553	-1732.391667	369.591797	-152.986557
29594.292553	-1732.391667	368.310547	225.891602
29594.292553	-1732.391667	367.028320	-58.726089
29594.292553	-1732.391667	365.746094	75.370132
29594.292553	-1732.391667	364.463867	31.026392
29594.292553	-1732.391667	363.180664	47.437813
29594.292553	-1732.391667	361.897461	35.704666
29594.292553	-1732.391667	360.614258	61.394321
29594.292553	-1732.391667	359.330078	-32.044197
29594.292553	-1732.391667	358.045898	-126.140564
29594.292553	-1732.391667	356.761719	-138.481262
29594.292553	-1732.391667	355.477539	108.375092
29594.292553	-1732.391667	354.192383	5.716992
29594.292553	-1732.391667	352.907227	-55.441242
29594.292553	-1732.391667	351.622070	-79.375679
29594.292553	-1732.391667	350.336914	47.883183
29594.292553	-1732.391667	349.050781	60.201218
29594.292553	-1732.391667	347.764648	67.398560
29594.292553	-1732.391667	346.477539	77.865891
29594.292553	-1732.391667	345.191406	-5.419619
29594.292553	-1732.391667	343.904297	-155.055481
29594.292553	-1732.391667	342.616211	126.621277
29594.292553	-1732.391667	341.329102	194.233963
29594.292553	-1732.391667	340.041016	151.118134
29594.292553	-1732.391667	338.752930	176.463730
29594.292553	-1732.391667	337.463867	32.091053
29594.292553	-1732.391667	336.175781	86.757202
29594.292553	-1732.391667	334.886719	72.783615
29594.292553	-1732.391667	333.596680	-24.559441
29594.292553	-1732.391667	332.307617	-120.985199
29594.292553	-1732.391667	331.017578	52.786987
29594.292553	-1732.391667	329.727539	-183.045853
29594.292553	-1732.391667	328.436523	-49.942482
29594.292553	-1732.391667	327.146484	22.841957
29594.292553	-1732.391667	325.855469	184.528336
29594.292553	-1732.391667	324.563477	-25.380423
29594.292553	-1732.391667	323.272461	-39.111824
29594.292553	-1732.391667	321.980469	128.371231
29594.292553	-1732.391667	320.688477	-100.790901
29594.292553	-1732.391667	319.395508	-119.405380
29594.292553	-1732.391667	318.103516	-120.758904
29594.292553	-1732.391667	316.810547	-149.088058
29594.292553	-1732.391667	315.516602	-7.114932
29594.292553	-1732.391667	314.223633	-196.458923
29594.292553	-1732.391667	312.929688	4.705106
29594.292553	-1732.391667	311.635742	-24.786299
29594.292553	-1732.391667	310.340820	-161.149521
29594.292553	-1732.391667	309.045898	27.618914
29594.292553	-1732.391667	307.750977	96.841324
29594.292553	-1732.391667	306.456055	36.066673
29594.292553	-1732.391667	305.160156	-100.254662
29594.292553	-1732.391667	303.865234	121.645424
29594.292553	-1732.391667	302.568359	336.850891
29594.292553	-1732.391667	301.272461	398.919678
29594.292553	-1732.391667	299.975586	360.104065
29594.292553	-1732.391667	298.678711	425.600800
