#X		#Y		#Wave		#Intensity
30348.409574	-1981.383333	1999.980469	-184.665619
30348.409574	-1981.383333	1999.016602	-178.545715
30348.409574	-1981.383333	1998.052734	171.138580
30348.409574	-1981.383333	1997.087891	89.474579
30348.409574	-1981.383333	1996.123047	57.373116
30348.409574	-1981.383333	1995.158203	50.035622
30348.409574	-1981.383333	1994.193359	94.694275
30348.409574	-1981.383333	1993.228516	-68.690254
30348.409574	-1981.383333	1992.262695	161.625351
30348.409574	-1981.383333	1991.297852	47.765301
30348.409574	-1981.383333	1990.332031	35.402531
30348.409574	-1981.383333	1989.366211	124.484428
30348.409574	-1981.383333	1988.399414	206.097427
30348.409574	-1981.383333	1987.433594	-6.680173
30348.409574	-1981.383333	1986.466797	-48.748383
30348.409574	-1981.383333	1985.500977	87.220108
30348.409574	-1981.383333	1984.534180	156.379883
30348.409574	-1981.383333	1983.567383	-4.360817
30348.409574	-1981.383333	1982.599609	-68.671608
30348.409574	-1981.383333	1981.632813	-34.131470
30348.409574	-1981.383333	1980.665039	52.267063
30348.409574	-1981.383333	1979.697266	94.171425
30348.409574	-1981.383333	1978.729492	-44.209087
30348.409574	-1981.383333	1977.761719	-24.527485
30348.409574	-1981.383333	1976.792969	192.622635
30348.409574	-1981.383333	1975.825195	83.913147
30348.409574	-1981.383333	1974.856445	49.269337
30348.409574	-1981.383333	1973.887695	78.784317
30348.409574	-1981.383333	1972.918945	-138.375717
30348.409574	-1981.383333	1971.949219	39.136955
30348.409574	-1981.383333	1970.980469	162.341263
30348.409574	-1981.383333	1970.010742	-5.401094
30348.409574	-1981.383333	1969.041016	-0.540070
30348.409574	-1981.383333	1968.071289	70.861908
30348.409574	-1981.383333	1967.101563	21.510481
30348.409574	-1981.383333	1966.130859	147.086761
30348.409574	-1981.383333	1965.161133	55.880482
30348.409574	-1981.383333	1964.190430	11.501371
30348.409574	-1981.383333	1963.219727	-128.875214
30348.409574	-1981.383333	1962.249023	1.586149
30348.409574	-1981.383333	1961.277344	80.320915
30348.409574	-1981.383333	1960.306641	80.293938
30348.409574	-1981.383333	1959.334961	-35.357224
30348.409574	-1981.383333	1958.363281	99.942062
30348.409574	-1981.383333	1957.391602	43.372829
30348.409574	-1981.383333	1956.419922	144.203003
30348.409574	-1981.383333	1955.447266	134.375336
30348.409574	-1981.383333	1954.474609	-145.813980
30348.409574	-1981.383333	1953.501953	-57.262562
30348.409574	-1981.383333	1952.529297	112.350159
30348.409574	-1981.383333	1951.556641	9.229053
30348.409574	-1981.383333	1950.583984	1.947614
30348.409574	-1981.383333	1949.610352	83.084297
30348.409574	-1981.383333	1948.636719	2.157817
30348.409574	-1981.383333	1947.663086	63.650307
30348.409574	-1981.383333	1946.689453	-0.036671
30348.409574	-1981.383333	1945.715820	90.905167
30348.409574	-1981.383333	1944.741211	-134.663010
30348.409574	-1981.383333	1943.767578	-58.421551
30348.409574	-1981.383333	1942.792969	91.378075
30348.409574	-1981.383333	1941.818359	-1.614757
30348.409574	-1981.383333	1940.842773	30.468931
30348.409574	-1981.383333	1939.868164	-47.744236
30348.409574	-1981.383333	1938.892578	-25.439274
30348.409574	-1981.383333	1937.916992	50.775764
30348.409574	-1981.383333	1936.941406	4.489312
30348.409574	-1981.383333	1935.965820	112.539307
30348.409574	-1981.383333	1934.990234	-63.501472
30348.409574	-1981.383333	1934.013672	-68.077492
30348.409574	-1981.383333	1933.037109	47.309975
30348.409574	-1981.383333	1932.060547	118.614059
30348.409574	-1981.383333	1931.083984	-76.817604
30348.409574	-1981.383333	1930.107422	-12.828293
30348.409574	-1981.383333	1929.129883	41.365555
30348.409574	-1981.383333	1928.153320	-34.064034
30348.409574	-1981.383333	1927.175781	83.716209
30348.409574	-1981.383333	1926.198242	-33.226784
30348.409574	-1981.383333	1925.219727	-32.788647
30348.409574	-1981.383333	1924.242188	-27.448380
30348.409574	-1981.383333	1923.263672	-73.407791
30348.409574	-1981.383333	1922.285156	80.981476
30348.409574	-1981.383333	1921.306641	-87.076576
30348.409574	-1981.383333	1920.328125	-172.030807
30348.409574	-1981.383333	1919.349609	-49.409687
30348.409574	-1981.383333	1918.370117	65.855087
30348.409574	-1981.383333	1917.391602	20.008856
30348.409574	-1981.383333	1916.412109	-45.329262
30348.409574	-1981.383333	1915.431641	52.829376
30348.409574	-1981.383333	1914.452148	-39.297337
30348.409574	-1981.383333	1913.472656	-63.090836
30348.409574	-1981.383333	1912.492188	52.121193
30348.409574	-1981.383333	1911.511719	8.839902
30348.409574	-1981.383333	1910.531250	33.834129
30348.409574	-1981.383333	1909.550781	27.150049
30348.409574	-1981.383333	1908.569336	27.788616
30348.409574	-1981.383333	1907.588867	-39.771278
30348.409574	-1981.383333	1906.607422	87.553543
30348.409574	-1981.383333	1905.625977	44.380318
30348.409574	-1981.383333	1904.644531	84.013496
30348.409574	-1981.383333	1903.662109	-58.927780
30348.409574	-1981.383333	1902.680664	-29.004801
30348.409574	-1981.383333	1901.698242	13.081989
30348.409574	-1981.383333	1900.715820	-56.749950
30348.409574	-1981.383333	1899.733398	26.696373
30348.409574	-1981.383333	1898.750000	-82.006271
30348.409574	-1981.383333	1897.767578	-71.514503
30348.409574	-1981.383333	1896.784180	-63.450085
30348.409574	-1981.383333	1895.800781	-101.562141
30348.409574	-1981.383333	1894.817383	-42.445686
30348.409574	-1981.383333	1893.833984	28.804239
30348.409574	-1981.383333	1892.850586	-45.720375
30348.409574	-1981.383333	1891.866211	-105.637657
30348.409574	-1981.383333	1890.881836	36.025867
30348.409574	-1981.383333	1889.897461	75.671738
30348.409574	-1981.383333	1888.913086	-76.458672
30348.409574	-1981.383333	1887.927734	43.294357
30348.409574	-1981.383333	1886.943359	-1.995050
30348.409574	-1981.383333	1885.958008	-3.594047
30348.409574	-1981.383333	1884.972656	135.498123
30348.409574	-1981.383333	1883.987305	-6.776506
30348.409574	-1981.383333	1883.001953	-25.333790
30348.409574	-1981.383333	1882.015625	-58.426601
30348.409574	-1981.383333	1881.029297	63.619614
30348.409574	-1981.383333	1880.042969	86.265434
30348.409574	-1981.383333	1879.056641	113.751244
30348.409574	-1981.383333	1878.070313	58.866238
30348.409574	-1981.383333	1877.083984	42.755562
30348.409574	-1981.383333	1876.096680	-89.582176
30348.409574	-1981.383333	1875.109375	-13.656056
30348.409574	-1981.383333	1874.122070	-53.947884
30348.409574	-1981.383333	1873.134766	58.246567
30348.409574	-1981.383333	1872.146484	-28.017954
30348.409574	-1981.383333	1871.159180	67.194351
30348.409574	-1981.383333	1870.170898	133.344421
30348.409574	-1981.383333	1869.182617	90.642387
30348.409574	-1981.383333	1868.194336	64.880371
30348.409574	-1981.383333	1867.205078	34.290852
30348.409574	-1981.383333	1866.216797	107.641647
30348.409574	-1981.383333	1865.227539	-38.942738
30348.409574	-1981.383333	1864.238281	77.877716
30348.409574	-1981.383333	1863.249023	-119.380760
30348.409574	-1981.383333	1862.259766	86.765846
30348.409574	-1981.383333	1861.269531	-57.304516
30348.409574	-1981.383333	1860.279297	-172.354340
30348.409574	-1981.383333	1859.290039	9.535030
30348.409574	-1981.383333	1858.298828	-11.372883
30348.409574	-1981.383333	1857.308594	141.451599
30348.409574	-1981.383333	1856.318359	84.328827
30348.409574	-1981.383333	1855.327148	10.336436
30348.409574	-1981.383333	1854.335938	-29.873014
30348.409574	-1981.383333	1853.344727	-176.162689
30348.409574	-1981.383333	1852.353516	-69.286850
30348.409574	-1981.383333	1851.362305	-61.276642
30348.409574	-1981.383333	1850.370117	14.194087
30348.409574	-1981.383333	1849.377930	43.851665
30348.409574	-1981.383333	1848.385742	8.450606
30348.409574	-1981.383333	1847.393555	-26.946463
30348.409574	-1981.383333	1846.401367	7.490172
30348.409574	-1981.383333	1845.408203	73.200386
30348.409574	-1981.383333	1844.415039	23.338293
30348.409574	-1981.383333	1843.421875	21.615932
30348.409574	-1981.383333	1842.428711	-90.799088
30348.409574	-1981.383333	1841.435547	1.298941
30348.409574	-1981.383333	1840.441406	-161.602798
30348.409574	-1981.383333	1839.448242	33.854233
30348.409574	-1981.383333	1838.454102	27.262920
30348.409574	-1981.383333	1837.459961	54.315063
30348.409574	-1981.383333	1836.464844	64.519295
30348.409574	-1981.383333	1835.470703	43.468136
30348.409574	-1981.383333	1834.475586	77.667473
30348.409574	-1981.383333	1833.480469	-37.086838
30348.409574	-1981.383333	1832.485352	69.134071
30348.409574	-1981.383333	1831.490234	2.417253
30348.409574	-1981.383333	1830.495117	-42.683414
30348.409574	-1981.383333	1829.499023	305.855774
30348.409574	-1981.383333	1828.502930	32.702789
30348.409574	-1981.383333	1827.506836	49.955475
30348.409574	-1981.383333	1826.510742	31.201885
30348.409574	-1981.383333	1825.513672	98.781090
30348.409574	-1981.383333	1824.517578	44.021301
30348.409574	-1981.383333	1823.520508	25.226458
30348.409574	-1981.383333	1822.523438	13.612035
30348.409574	-1981.383333	1821.526367	25.949697
30348.409574	-1981.383333	1820.529297	2.321173
30348.409574	-1981.383333	1819.531250	91.280785
30348.409574	-1981.383333	1818.533203	127.491348
30348.409574	-1981.383333	1817.535156	89.429619
30348.409574	-1981.383333	1816.537109	223.755951
30348.409574	-1981.383333	1815.539063	77.924660
30348.409574	-1981.383333	1814.540039	111.635971
30348.409574	-1981.383333	1813.541992	-189.705795
30348.409574	-1981.383333	1812.542969	-12.445983
30348.409574	-1981.383333	1811.543945	-60.131577
30348.409574	-1981.383333	1810.543945	30.893648
30348.409574	-1981.383333	1809.544922	124.254890
30348.409574	-1981.383333	1808.544922	-38.252228
30348.409574	-1981.383333	1807.544922	21.576372
30348.409574	-1981.383333	1806.544922	67.020714
30348.409574	-1981.383333	1805.544922	19.238750
30348.409574	-1981.383333	1804.544922	112.399178
30348.409574	-1981.383333	1803.543945	93.240135
30348.409574	-1981.383333	1802.542969	117.049324
30348.409574	-1981.383333	1801.541992	35.771820
30348.409574	-1981.383333	1800.541016	38.050468
30348.409574	-1981.383333	1799.539063	14.048617
30348.409574	-1981.383333	1798.538086	61.619038
30348.409574	-1981.383333	1797.536133	149.703400
30348.409574	-1981.383333	1796.534180	65.986038
30348.409574	-1981.383333	1795.532227	3.738240
30348.409574	-1981.383333	1794.529297	108.396698
30348.409574	-1981.383333	1793.527344	-1.566909
30348.409574	-1981.383333	1792.524414	19.577440
30348.409574	-1981.383333	1791.521484	59.752029
30348.409574	-1981.383333	1790.518555	-14.480827
30348.409574	-1981.383333	1789.514648	192.380890
30348.409574	-1981.383333	1788.511719	10.919966
30348.409574	-1981.383333	1787.507813	105.725578
30348.409574	-1981.383333	1786.503906	119.519951
30348.409574	-1981.383333	1785.500000	33.306351
30348.409574	-1981.383333	1784.496094	30.394669
30348.409574	-1981.383333	1783.491211	-22.513988
30348.409574	-1981.383333	1782.486328	60.172371
30348.409574	-1981.383333	1781.481445	123.770493
30348.409574	-1981.383333	1780.476563	-33.847214
30348.409574	-1981.383333	1779.471680	-27.376190
30348.409574	-1981.383333	1778.465820	-68.482140
30348.409574	-1981.383333	1777.460938	-5.022069
30348.409574	-1981.383333	1776.455078	-24.788204
30348.409574	-1981.383333	1775.449219	64.713516
30348.409574	-1981.383333	1774.442383	99.515549
30348.409574	-1981.383333	1773.436523	51.153687
30348.409574	-1981.383333	1772.429688	-37.587334
30348.409574	-1981.383333	1771.422852	-81.218208
30348.409574	-1981.383333	1770.416016	216.935287
30348.409574	-1981.383333	1769.409180	90.153328
30348.409574	-1981.383333	1768.402344	82.024216
30348.409574	-1981.383333	1767.394531	64.376625
30348.409574	-1981.383333	1766.386719	-17.333185
30348.409574	-1981.383333	1765.378906	19.525091
30348.409574	-1981.383333	1764.371094	-10.046170
30348.409574	-1981.383333	1763.362305	195.034546
30348.409574	-1981.383333	1762.354492	-36.068859
30348.409574	-1981.383333	1761.345703	112.008362
30348.409574	-1981.383333	1760.336914	-119.054688
30348.409574	-1981.383333	1759.328125	-8.977764
30348.409574	-1981.383333	1758.318359	41.819546
30348.409574	-1981.383333	1757.308594	-156.045547
30348.409574	-1981.383333	1756.299805	-145.542633
30348.409574	-1981.383333	1755.290039	23.500319
30348.409574	-1981.383333	1754.279297	36.263878
30348.409574	-1981.383333	1753.269531	22.969147
30348.409574	-1981.383333	1752.258789	-30.567461
30348.409574	-1981.383333	1751.249023	133.470016
30348.409574	-1981.383333	1750.238281	-14.712475
30348.409574	-1981.383333	1749.226563	40.442120
30348.409574	-1981.383333	1748.215820	-17.909237
30348.409574	-1981.383333	1747.204102	-177.891312
30348.409574	-1981.383333	1746.193359	30.752594
30348.409574	-1981.383333	1745.181641	7.775046
30348.409574	-1981.383333	1744.168945	15.476281
30348.409574	-1981.383333	1743.157227	79.820709
30348.409574	-1981.383333	1742.144531	-9.357239
30348.409574	-1981.383333	1741.132813	-72.563240
30348.409574	-1981.383333	1740.120117	-76.777901
30348.409574	-1981.383333	1739.106445	-43.270790
30348.409574	-1981.383333	1738.093750	77.485313
30348.409574	-1981.383333	1737.080078	-61.298946
30348.409574	-1981.383333	1736.067383	-96.293503
30348.409574	-1981.383333	1735.053711	43.169708
30348.409574	-1981.383333	1734.040039	-55.545734
30348.409574	-1981.383333	1733.025391	13.083841
30348.409574	-1981.383333	1732.011719	-3.173256
30348.409574	-1981.383333	1730.997070	15.882072
30348.409574	-1981.383333	1729.982422	-38.122787
30348.409574	-1981.383333	1728.967773	70.365486
30348.409574	-1981.383333	1727.952148	-75.526031
30348.409574	-1981.383333	1726.937500	-44.821697
30348.409574	-1981.383333	1725.921875	-103.606361
30348.409574	-1981.383333	1724.906250	11.746541
30348.409574	-1981.383333	1723.890625	47.028156
30348.409574	-1981.383333	1722.875000	18.750820
30348.409574	-1981.383333	1721.858398	126.865196
30348.409574	-1981.383333	1720.841797	-12.001042
30348.409574	-1981.383333	1719.825195	88.965233
30348.409574	-1981.383333	1718.808594	-66.354477
30348.409574	-1981.383333	1717.791992	76.828056
30348.409574	-1981.383333	1716.774414	-47.945782
30348.409574	-1981.383333	1715.756836	38.733566
30348.409574	-1981.383333	1714.739258	40.793510
30348.409574	-1981.383333	1713.721680	-196.710602
30348.409574	-1981.383333	1712.704102	-46.744900
30348.409574	-1981.383333	1711.685547	-37.717346
30348.409574	-1981.383333	1710.667969	25.263664
30348.409574	-1981.383333	1709.649414	-101.884071
30348.409574	-1981.383333	1708.630859	-3.783007
30348.409574	-1981.383333	1707.611328	-67.602890
30348.409574	-1981.383333	1706.592773	-0.089105
30348.409574	-1981.383333	1705.573242	36.884449
30348.409574	-1981.383333	1704.553711	174.623184
30348.409574	-1981.383333	1703.534180	54.455414
30348.409574	-1981.383333	1702.513672	65.534546
30348.409574	-1981.383333	1701.494141	-40.561790
30348.409574	-1981.383333	1700.473633	-76.372757
30348.409574	-1981.383333	1699.453125	96.248993
30348.409574	-1981.383333	1698.432617	-108.223656
30348.409574	-1981.383333	1697.412109	64.285698
30348.409574	-1981.383333	1696.390625	-67.595558
30348.409574	-1981.383333	1695.369141	-23.930895
30348.409574	-1981.383333	1694.347656	73.507454
30348.409574	-1981.383333	1693.326172	81.987328
30348.409574	-1981.383333	1692.304688	-31.184883
30348.409574	-1981.383333	1691.282227	66.120087
30348.409574	-1981.383333	1690.260742	107.255302
30348.409574	-1981.383333	1689.238281	66.531258
30348.409574	-1981.383333	1688.214844	51.502846
30348.409574	-1981.383333	1687.192383	-47.659344
30348.409574	-1981.383333	1686.168945	30.741781
30348.409574	-1981.383333	1685.146484	116.101997
30348.409574	-1981.383333	1684.123047	30.923021
30348.409574	-1981.383333	1683.099609	-0.543401
30348.409574	-1981.383333	1682.075195	42.677059
30348.409574	-1981.383333	1681.051758	22.846064
30348.409574	-1981.383333	1680.027344	-85.677879
30348.409574	-1981.383333	1679.002930	-100.858261
30348.409574	-1981.383333	1677.978516	103.213913
30348.409574	-1981.383333	1676.953125	-56.638977
30348.409574	-1981.383333	1675.928711	114.660378
30348.409574	-1981.383333	1674.903320	225.254974
30348.409574	-1981.383333	1673.877930	28.116993
30348.409574	-1981.383333	1672.852539	66.403961
30348.409574	-1981.383333	1671.826172	-16.504185
30348.409574	-1981.383333	1670.800781	161.507645
30348.409574	-1981.383333	1669.774414	76.245865
30348.409574	-1981.383333	1668.748047	181.943008
30348.409574	-1981.383333	1667.721680	29.157494
30348.409574	-1981.383333	1666.694336	-44.450031
30348.409574	-1981.383333	1665.667969	161.226883
30348.409574	-1981.383333	1664.640625	29.417885
30348.409574	-1981.383333	1663.613281	190.761810
30348.409574	-1981.383333	1662.585938	7.794660
30348.409574	-1981.383333	1661.557617	185.321045
30348.409574	-1981.383333	1660.530273	225.593094
30348.409574	-1981.383333	1659.501953	144.952621
30348.409574	-1981.383333	1658.473633	161.940414
30348.409574	-1981.383333	1657.444336	167.283417
30348.409574	-1981.383333	1656.416016	235.341278
30348.409574	-1981.383333	1655.386719	338.194519
30348.409574	-1981.383333	1654.358398	315.595367
30348.409574	-1981.383333	1653.328125	341.740509
30348.409574	-1981.383333	1652.298828	405.009216
30348.409574	-1981.383333	1651.269531	449.673309
30348.409574	-1981.383333	1650.239258	387.559814
30348.409574	-1981.383333	1649.208984	483.221832
30348.409574	-1981.383333	1648.178711	237.853088
30348.409574	-1981.383333	1647.148438	222.164429
30348.409574	-1981.383333	1646.117188	320.082397
30348.409574	-1981.383333	1645.086914	239.451279
30348.409574	-1981.383333	1644.055664	316.447083
30348.409574	-1981.383333	1643.024414	328.517029
30348.409574	-1981.383333	1641.992188	326.666260
30348.409574	-1981.383333	1640.960938	287.748901
30348.409574	-1981.383333	1639.928711	401.689453
30348.409574	-1981.383333	1638.896484	246.972275
30348.409574	-1981.383333	1637.864258	321.503510
30348.409574	-1981.383333	1636.832031	289.523773
30348.409574	-1981.383333	1635.798828	366.312164
30348.409574	-1981.383333	1634.766602	294.987488
30348.409574	-1981.383333	1633.733398	429.564972
30348.409574	-1981.383333	1632.699219	346.669098
30348.409574	-1981.383333	1631.666016	434.923981
30348.409574	-1981.383333	1630.632813	342.805573
30348.409574	-1981.383333	1629.598633	472.619202
30348.409574	-1981.383333	1628.564453	489.135498
30348.409574	-1981.383333	1627.530273	434.011536
30348.409574	-1981.383333	1626.495117	411.243256
30348.409574	-1981.383333	1625.460938	460.086670
30348.409574	-1981.383333	1624.425781	575.872437
30348.409574	-1981.383333	1623.390625	499.977631
30348.409574	-1981.383333	1622.355469	560.304932
30348.409574	-1981.383333	1621.319336	482.126160
30348.409574	-1981.383333	1620.284180	540.123108
30348.409574	-1981.383333	1619.248047	464.283752
30348.409574	-1981.383333	1618.211914	503.802399
30348.409574	-1981.383333	1617.174805	527.157898
30348.409574	-1981.383333	1616.138672	529.758118
30348.409574	-1981.383333	1615.101563	509.301025
30348.409574	-1981.383333	1614.065430	491.162720
30348.409574	-1981.383333	1613.027344	532.936523
30348.409574	-1981.383333	1611.990234	572.396606
30348.409574	-1981.383333	1610.953125	418.354401
30348.409574	-1981.383333	1609.915039	508.487823
30348.409574	-1981.383333	1608.876953	545.630493
30348.409574	-1981.383333	1607.838867	612.689941
30348.409574	-1981.383333	1606.800781	509.405029
30348.409574	-1981.383333	1605.761719	426.870667
30348.409574	-1981.383333	1604.723633	500.829681
30348.409574	-1981.383333	1603.684570	547.156372
30348.409574	-1981.383333	1602.644531	476.173370
30348.409574	-1981.383333	1601.605469	471.912048
30348.409574	-1981.383333	1600.566406	658.472290
30348.409574	-1981.383333	1599.526367	569.140686
30348.409574	-1981.383333	1598.486328	592.456238
30348.409574	-1981.383333	1597.446289	689.294312
30348.409574	-1981.383333	1596.405273	678.130920
30348.409574	-1981.383333	1595.365234	657.799072
30348.409574	-1981.383333	1594.324219	722.440674
30348.409574	-1981.383333	1593.283203	757.220825
30348.409574	-1981.383333	1592.242188	750.681274
30348.409574	-1981.383333	1591.200195	707.430542
30348.409574	-1981.383333	1590.159180	758.285767
30348.409574	-1981.383333	1589.117188	703.601990
30348.409574	-1981.383333	1588.075195	736.107544
30348.409574	-1981.383333	1587.032227	660.830261
30348.409574	-1981.383333	1585.990234	668.135742
30348.409574	-1981.383333	1584.947266	657.108887
30348.409574	-1981.383333	1583.904297	646.099731
30348.409574	-1981.383333	1582.861328	593.864502
30348.409574	-1981.383333	1581.818359	383.592590
30348.409574	-1981.383333	1580.775391	542.177368
30348.409574	-1981.383333	1579.731445	517.511658
30348.409574	-1981.383333	1578.687500	486.001862
30348.409574	-1981.383333	1577.643555	575.842224
30348.409574	-1981.383333	1576.598633	457.392303
30348.409574	-1981.383333	1575.554688	350.450806
30348.409574	-1981.383333	1574.509766	614.178833
30348.409574	-1981.383333	1573.464844	617.068237
30348.409574	-1981.383333	1572.419922	222.062683
30348.409574	-1981.383333	1571.374023	357.670807
30348.409574	-1981.383333	1570.329102	445.243835
30348.409574	-1981.383333	1569.283203	338.528503
30348.409574	-1981.383333	1568.237305	522.077087
30348.409574	-1981.383333	1567.191406	451.981750
30348.409574	-1981.383333	1566.144531	377.361023
30348.409574	-1981.383333	1565.098633	471.789581
30348.409574	-1981.383333	1564.051758	424.634918
30348.409574	-1981.383333	1563.004883	498.509338
30348.409574	-1981.383333	1561.957031	371.524048
30348.409574	-1981.383333	1560.910156	365.556763
30348.409574	-1981.383333	1559.862305	444.024048
30348.409574	-1981.383333	1558.814453	381.060486
30348.409574	-1981.383333	1557.766602	356.914459
30348.409574	-1981.383333	1556.718750	216.515076
30348.409574	-1981.383333	1555.669922	363.429779
30348.409574	-1981.383333	1554.621094	366.720306
30348.409574	-1981.383333	1553.573242	354.086487
30348.409574	-1981.383333	1552.523438	407.546509
30348.409574	-1981.383333	1551.474609	335.731323
30348.409574	-1981.383333	1550.424805	398.335205
30348.409574	-1981.383333	1549.375000	485.987152
30348.409574	-1981.383333	1548.325195	398.338409
30348.409574	-1981.383333	1547.275391	408.622711
30348.409574	-1981.383333	1546.225586	389.346710
30348.409574	-1981.383333	1545.174805	326.874054
30348.409574	-1981.383333	1544.124023	330.421448
30348.409574	-1981.383333	1543.073242	281.687012
30348.409574	-1981.383333	1542.022461	346.693024
30348.409574	-1981.383333	1540.970703	434.433075
30348.409574	-1981.383333	1539.919922	517.625610
30348.409574	-1981.383333	1538.868164	423.556335
30348.409574	-1981.383333	1537.815430	300.013702
30348.409574	-1981.383333	1536.763672	417.344940
30348.409574	-1981.383333	1535.710938	377.946716
30348.409574	-1981.383333	1534.659180	508.902893
30348.409574	-1981.383333	1533.606445	462.754333
30348.409574	-1981.383333	1532.552734	648.173767
30348.409574	-1981.383333	1531.500000	697.393860
30348.409574	-1981.383333	1530.446289	369.982452
30348.409574	-1981.383333	1529.393555	324.027466
30348.409574	-1981.383333	1528.338867	389.250732
30348.409574	-1981.383333	1527.285156	454.484741
30348.409574	-1981.383333	1526.231445	583.206787
30348.409574	-1981.383333	1525.176758	403.639862
30348.409574	-1981.383333	1524.122070	498.392700
30348.409574	-1981.383333	1523.067383	375.628143
30348.409574	-1981.383333	1522.012695	416.051056
30348.409574	-1981.383333	1520.957031	393.073608
30348.409574	-1981.383333	1519.901367	472.040588
30348.409574	-1981.383333	1518.845703	530.636902
30348.409574	-1981.383333	1517.790039	584.719238
30348.409574	-1981.383333	1516.734375	462.295166
30348.409574	-1981.383333	1515.677734	353.529449
30348.409574	-1981.383333	1514.621094	486.899567
30348.409574	-1981.383333	1513.564453	536.569275
30348.409574	-1981.383333	1512.507813	405.353394
30348.409574	-1981.383333	1511.450195	439.266815
30348.409574	-1981.383333	1510.393555	565.885376
30348.409574	-1981.383333	1509.335938	574.971252
30348.409574	-1981.383333	1508.278320	507.268738
30348.409574	-1981.383333	1507.219727	529.992615
30348.409574	-1981.383333	1506.162109	600.180847
30348.409574	-1981.383333	1505.103516	444.560669
30348.409574	-1981.383333	1504.044922	451.598907
30348.409574	-1981.383333	1502.986328	499.305084
30348.409574	-1981.383333	1501.926758	431.932251
30348.409574	-1981.383333	1500.868164	551.909058
30348.409574	-1981.383333	1499.808594	480.122772
30348.409574	-1981.383333	1498.749023	503.136688
30348.409574	-1981.383333	1497.688477	293.911560
30348.409574	-1981.383333	1496.628906	366.636932
30348.409574	-1981.383333	1495.568359	250.025558
30348.409574	-1981.383333	1494.507813	183.084442
30348.409574	-1981.383333	1493.447266	145.504181
30348.409574	-1981.383333	1492.386719	69.683899
30348.409574	-1981.383333	1491.325195	18.710522
30348.409574	-1981.383333	1490.263672	98.410660
30348.409574	-1981.383333	1489.202148	-58.279968
30348.409574	-1981.383333	1488.140625	98.025055
30348.409574	-1981.383333	1487.079102	-85.522743
30348.409574	-1981.383333	1486.016602	-304.956848
30348.409574	-1981.383333	1484.954102	58.402626
30348.409574	-1981.383333	1483.891602	-129.395309
30348.409574	-1981.383333	1482.829102	-65.211838
30348.409574	-1981.383333	1481.765625	-126.914772
30348.409574	-1981.383333	1480.702148	-94.132988
30348.409574	-1981.383333	1479.638672	-115.262329
30348.409574	-1981.383333	1478.575195	-35.215248
30348.409574	-1981.383333	1477.511719	-58.517986
30348.409574	-1981.383333	1476.447266	32.825115
30348.409574	-1981.383333	1475.382813	76.972565
30348.409574	-1981.383333	1474.318359	78.502113
30348.409574	-1981.383333	1473.253906	3.850414
30348.409574	-1981.383333	1472.189453	63.842777
30348.409574	-1981.383333	1471.124023	56.529251
30348.409574	-1981.383333	1470.058594	47.229733
30348.409574	-1981.383333	1468.993164	95.872047
30348.409574	-1981.383333	1467.927734	241.136002
30348.409574	-1981.383333	1466.861328	276.762726
30348.409574	-1981.383333	1465.794922	345.937103
30348.409574	-1981.383333	1464.728516	470.811646
30348.409574	-1981.383333	1463.662109	333.965973
30348.409574	-1981.383333	1462.594727	521.644836
30348.409574	-1981.383333	1461.528320	503.269165
30348.409574	-1981.383333	1460.460938	494.135590
30348.409574	-1981.383333	1459.393555	666.030212
30348.409574	-1981.383333	1458.326172	511.574280
30348.409574	-1981.383333	1457.257813	759.224060
30348.409574	-1981.383333	1456.189453	665.545471
30348.409574	-1981.383333	1455.121094	480.626831
30348.409574	-1981.383333	1454.052734	835.126465
30348.409574	-1981.383333	1452.984375	564.874023
30348.409574	-1981.383333	1451.915039	516.193237
30348.409574	-1981.383333	1450.845703	391.624756
30348.409574	-1981.383333	1449.776367	321.432800
30348.409574	-1981.383333	1448.707031	334.062225
30348.409574	-1981.383333	1447.636719	241.641617
30348.409574	-1981.383333	1446.567383	308.883148
30348.409574	-1981.383333	1445.497070	335.469330
30348.409574	-1981.383333	1444.425781	207.265488
30348.409574	-1981.383333	1443.355469	194.103683
30348.409574	-1981.383333	1442.285156	291.183380
30348.409574	-1981.383333	1441.213867	211.815994
30348.409574	-1981.383333	1440.142578	234.570068
30348.409574	-1981.383333	1439.070313	188.293762
30348.409574	-1981.383333	1437.999023	179.818604
30348.409574	-1981.383333	1436.926758	163.589005
30348.409574	-1981.383333	1435.854492	-11.956606
30348.409574	-1981.383333	1434.782227	87.288208
30348.409574	-1981.383333	1433.709961	212.716003
30348.409574	-1981.383333	1432.636719	209.640976
30348.409574	-1981.383333	1431.563477	61.940357
30348.409574	-1981.383333	1430.490234	113.945648
30348.409574	-1981.383333	1429.416992	-0.353454
30348.409574	-1981.383333	1428.343750	32.851604
30348.409574	-1981.383333	1427.269531	-1.800049
30348.409574	-1981.383333	1426.195313	-93.039352
30348.409574	-1981.383333	1425.121094	-181.215500
30348.409574	-1981.383333	1424.046875	-137.406174
30348.409574	-1981.383333	1422.971680	-39.806553
30348.409574	-1981.383333	1421.896484	-44.725910
30348.409574	-1981.383333	1420.821289	6.658439
30348.409574	-1981.383333	1419.746094	64.738014
30348.409574	-1981.383333	1418.669922	-0.285711
30348.409574	-1981.383333	1417.594727	-62.759247
30348.409574	-1981.383333	1416.518555	-22.725817
30348.409574	-1981.383333	1415.442383	-89.045273
30348.409574	-1981.383333	1414.365234	-6.214715
30348.409574	-1981.383333	1413.289063	69.952675
30348.409574	-1981.383333	1412.211914	28.409605
30348.409574	-1981.383333	1411.134766	7.643209
30348.409574	-1981.383333	1410.057617	127.009811
30348.409574	-1981.383333	1408.979492	143.480301
30348.409574	-1981.383333	1407.902344	62.672169
30348.409574	-1981.383333	1406.824219	54.802231
30348.409574	-1981.383333	1405.746094	78.001419
30348.409574	-1981.383333	1404.666992	97.174355
30348.409574	-1981.383333	1403.588867	98.514847
30348.409574	-1981.383333	1402.509766	185.680954
30348.409574	-1981.383333	1401.430664	36.070015
30348.409574	-1981.383333	1400.351563	93.038330
30348.409574	-1981.383333	1399.271484	-28.835938
30348.409574	-1981.383333	1398.192383	7.457460
30348.409574	-1981.383333	1397.112305	93.457367
30348.409574	-1981.383333	1396.031250	133.452332
30348.409574	-1981.383333	1394.951172	12.842936
30348.409574	-1981.383333	1393.871094	63.175694
30348.409574	-1981.383333	1392.790039	170.987991
30348.409574	-1981.383333	1391.708984	78.131317
30348.409574	-1981.383333	1390.626953	156.378510
30348.409574	-1981.383333	1389.545898	111.970055
30348.409574	-1981.383333	1388.463867	70.249641
30348.409574	-1981.383333	1387.381836	91.443596
30348.409574	-1981.383333	1386.299805	98.463348
30348.409574	-1981.383333	1385.217773	244.579208
30348.409574	-1981.383333	1384.134766	10.735613
30348.409574	-1981.383333	1383.051758	222.130371
30348.409574	-1981.383333	1381.968750	283.085083
30348.409574	-1981.383333	1380.885742	91.743050
30348.409574	-1981.383333	1379.802734	186.557220
30348.409574	-1981.383333	1378.718750	177.205582
30348.409574	-1981.383333	1377.634766	234.615723
30348.409574	-1981.383333	1376.550781	260.951019
30348.409574	-1981.383333	1375.465820	348.442780
30348.409574	-1981.383333	1374.381836	54.495865
30348.409574	-1981.383333	1373.296875	124.757774
30348.409574	-1981.383333	1372.211914	303.241333
30348.409574	-1981.383333	1371.126953	294.377930
30348.409574	-1981.383333	1370.041016	329.236511
30348.409574	-1981.383333	1368.955078	262.498718
30348.409574	-1981.383333	1367.869141	273.178925
30348.409574	-1981.383333	1366.783203	323.305725
30348.409574	-1981.383333	1365.697266	377.869049
30348.409574	-1981.383333	1364.610352	346.419464
30348.409574	-1981.383333	1363.523438	278.083710
30348.409574	-1981.383333	1362.436523	243.666718
30348.409574	-1981.383333	1361.349609	381.940186
30348.409574	-1981.383333	1360.261719	218.142273
30348.409574	-1981.383333	1359.174805	167.922821
30348.409574	-1981.383333	1358.086914	191.663742
30348.409574	-1981.383333	1356.998047	235.457642
30348.409574	-1981.383333	1355.910156	235.174835
30348.409574	-1981.383333	1354.821289	161.976257
30348.409574	-1981.383333	1353.732422	80.252937
30348.409574	-1981.383333	1352.643555	93.107132
30348.409574	-1981.383333	1351.554688	310.302734
30348.409574	-1981.383333	1350.464844	77.865265
30348.409574	-1981.383333	1349.375000	52.856068
30348.409574	-1981.383333	1348.285156	246.843689
30348.409574	-1981.383333	1347.195313	195.304855
30348.409574	-1981.383333	1346.105469	325.360382
30348.409574	-1981.383333	1345.014648	187.751312
30348.409574	-1981.383333	1343.923828	127.560738
30348.409574	-1981.383333	1342.833008	206.053009
30348.409574	-1981.383333	1341.741211	323.863312
30348.409574	-1981.383333	1340.650391	352.734009
30348.409574	-1981.383333	1339.558594	370.243439
30348.409574	-1981.383333	1338.466797	232.572693
30348.409574	-1981.383333	1337.374023	226.591934
30348.409574	-1981.383333	1336.282227	233.056442
30348.409574	-1981.383333	1335.189453	209.263077
30348.409574	-1981.383333	1334.096680	220.708191
30348.409574	-1981.383333	1333.003906	279.111206
30348.409574	-1981.383333	1331.910156	132.978607
30348.409574	-1981.383333	1330.817383	248.283203
30348.409574	-1981.383333	1329.723633	335.954895
30348.409574	-1981.383333	1328.629883	281.716980
30348.409574	-1981.383333	1327.535156	321.923248
30348.409574	-1981.383333	1326.441406	350.830414
30348.409574	-1981.383333	1325.346680	220.818817
30348.409574	-1981.383333	1324.251953	283.663849
30348.409574	-1981.383333	1323.156250	314.444489
30348.409574	-1981.383333	1322.061523	311.308380
30348.409574	-1981.383333	1320.965820	263.452942
30348.409574	-1981.383333	1319.870117	286.839508
30348.409574	-1981.383333	1318.774414	211.570221
30348.409574	-1981.383333	1317.678711	191.142303
30348.409574	-1981.383333	1316.582031	233.876114
30348.409574	-1981.383333	1315.485352	215.965759
30348.409574	-1981.383333	1314.388672	201.184799
30348.409574	-1981.383333	1313.291016	176.136368
30348.409574	-1981.383333	1312.194336	82.284988
30348.409574	-1981.383333	1311.096680	142.359299
30348.409574	-1981.383333	1309.999023	-5.414968
30348.409574	-1981.383333	1308.901367	11.548711
30348.409574	-1981.383333	1307.802734	25.144606
30348.409574	-1981.383333	1306.705078	162.336029
30348.409574	-1981.383333	1305.606445	19.032980
30348.409574	-1981.383333	1304.506836	135.737106
30348.409574	-1981.383333	1303.408203	184.777817
30348.409574	-1981.383333	1302.308594	86.636986
30348.409574	-1981.383333	1301.208984	127.780884
30348.409574	-1981.383333	1300.109375	18.438623
30348.409574	-1981.383333	1299.009766	88.923782
30348.409574	-1981.383333	1297.909180	-19.783258
30348.409574	-1981.383333	1296.808594	-15.861846
30348.409574	-1981.383333	1295.708008	129.316544
30348.409574	-1981.383333	1294.607422	138.075256
30348.409574	-1981.383333	1293.506836	180.341141
30348.409574	-1981.383333	1292.405273	110.554649
30348.409574	-1981.383333	1291.303711	118.885925
30348.409574	-1981.383333	1290.202148	104.751572
30348.409574	-1981.383333	1289.099609	-12.729701
30348.409574	-1981.383333	1287.998047	28.244087
30348.409574	-1981.383333	1286.895508	-13.444739
30348.409574	-1981.383333	1285.792969	-3.777468
30348.409574	-1981.383333	1284.689453	49.625397
30348.409574	-1981.383333	1283.586914	-69.557823
30348.409574	-1981.383333	1282.483398	-20.683441
30348.409574	-1981.383333	1281.379883	-86.684967
30348.409574	-1981.383333	1280.276367	25.321972
30348.409574	-1981.383333	1279.171875	-39.709816
30348.409574	-1981.383333	1278.067383	63.266109
30348.409574	-1981.383333	1276.962891	-0.461589
30348.409574	-1981.383333	1275.858398	-23.688713
30348.409574	-1981.383333	1274.753906	-16.499638
30348.409574	-1981.383333	1273.648438	-127.470306
30348.409574	-1981.383333	1272.542969	-11.843409
30348.409574	-1981.383333	1271.437500	-159.283401
30348.409574	-1981.383333	1270.331055	11.948256
30348.409574	-1981.383333	1269.225586	-59.093002
30348.409574	-1981.383333	1268.119141	-15.995597
30348.409574	-1981.383333	1267.012695	26.427406
30348.409574	-1981.383333	1265.906250	-12.142256
30348.409574	-1981.383333	1264.798828	80.428055
30348.409574	-1981.383333	1263.691406	6.245659
30348.409574	-1981.383333	1262.583984	76.851173
30348.409574	-1981.383333	1261.476563	10.228099
30348.409574	-1981.383333	1260.368164	89.756660
30348.409574	-1981.383333	1259.260742	51.741646
30348.409574	-1981.383333	1258.152344	91.358940
30348.409574	-1981.383333	1257.043945	25.148447
30348.409574	-1981.383333	1255.934570	-41.933414
30348.409574	-1981.383333	1254.825195	81.222084
30348.409574	-1981.383333	1253.716797	-85.716805
30348.409574	-1981.383333	1252.606445	-28.313547
30348.409574	-1981.383333	1251.497070	-21.975170
30348.409574	-1981.383333	1250.387695	-145.727646
30348.409574	-1981.383333	1249.277344	5.400134
30348.409574	-1981.383333	1248.166992	-83.176003
30348.409574	-1981.383333	1247.055664	-35.786209
30348.409574	-1981.383333	1245.945313	-59.196632
30348.409574	-1981.383333	1244.833984	-144.098907
30348.409574	-1981.383333	1243.722656	-173.836517
30348.409574	-1981.383333	1242.611328	-93.679848
30348.409574	-1981.383333	1241.499023	-110.721741
30348.409574	-1981.383333	1240.387695	-122.884109
30348.409574	-1981.383333	1239.275391	-22.036798
30348.409574	-1981.383333	1238.162109	-77.782234
30348.409574	-1981.383333	1237.049805	-12.565784
30348.409574	-1981.383333	1235.936523	-98.619095
30348.409574	-1981.383333	1234.823242	19.122557
30348.409574	-1981.383333	1233.709961	-29.437878
30348.409574	-1981.383333	1232.596680	-79.778305
30348.409574	-1981.383333	1231.482422	-146.046722
30348.409574	-1981.383333	1230.369141	36.916992
30348.409574	-1981.383333	1229.253906	-76.418785
30348.409574	-1981.383333	1228.139648	-19.507053
30348.409574	-1981.383333	1227.025391	25.164356
30348.409574	-1981.383333	1225.910156	-48.834774
30348.409574	-1981.383333	1224.794922	-83.229736
30348.409574	-1981.383333	1223.679688	-95.415421
30348.409574	-1981.383333	1222.563477	-42.982201
30348.409574	-1981.383333	1221.447266	-90.644623
30348.409574	-1981.383333	1220.331055	-50.933800
30348.409574	-1981.383333	1219.214844	-99.412094
30348.409574	-1981.383333	1218.098633	-63.799580
30348.409574	-1981.383333	1216.981445	-52.912239
30348.409574	-1981.383333	1215.864258	-75.487038
30348.409574	-1981.383333	1214.747070	-54.747963
30348.409574	-1981.383333	1213.629883	1.131316
30348.409574	-1981.383333	1212.511719	-115.244789
30348.409574	-1981.383333	1211.393555	1.451224
30348.409574	-1981.383333	1210.275391	6.069127
30348.409574	-1981.383333	1209.157227	-28.092590
30348.409574	-1981.383333	1208.038086	-88.842125
30348.409574	-1981.383333	1206.918945	-60.969131
30348.409574	-1981.383333	1205.799805	-1.938770
30348.409574	-1981.383333	1204.680664	-21.538967
30348.409574	-1981.383333	1203.560547	51.391285
30348.409574	-1981.383333	1202.441406	24.668642
30348.409574	-1981.383333	1201.321289	26.789757
30348.409574	-1981.383333	1200.200195	-74.406357
30348.409574	-1981.383333	1199.080078	-76.753380
30348.409574	-1981.383333	1197.958984	-8.709783
30348.409574	-1981.383333	1196.837891	-40.579758
30348.409574	-1981.383333	1195.716797	58.116364
30348.409574	-1981.383333	1194.594727	54.058094
30348.409574	-1981.383333	1193.473633	-15.833257
30348.409574	-1981.383333	1192.351563	164.910995
30348.409574	-1981.383333	1191.229492	50.704990
30348.409574	-1981.383333	1190.106445	78.257980
30348.409574	-1981.383333	1188.984375	64.416176
30348.409574	-1981.383333	1187.861328	23.880123
30348.409574	-1981.383333	1186.738281	14.983931
30348.409574	-1981.383333	1185.614258	12.374800
30348.409574	-1981.383333	1184.491211	219.651016
30348.409574	-1981.383333	1183.367188	38.253258
30348.409574	-1981.383333	1182.243164	128.339920
30348.409574	-1981.383333	1181.119141	194.753983
30348.409574	-1981.383333	1179.994141	118.743668
30348.409574	-1981.383333	1178.869141	149.013809
30348.409574	-1981.383333	1177.744141	73.932785
30348.409574	-1981.383333	1176.619141	74.517914
30348.409574	-1981.383333	1175.493164	39.468548
30348.409574	-1981.383333	1174.368164	11.304634
30348.409574	-1981.383333	1173.242188	-15.556817
30348.409574	-1981.383333	1172.115234	25.619249
30348.409574	-1981.383333	1170.989258	151.037460
30348.409574	-1981.383333	1169.862305	75.511208
30348.409574	-1981.383333	1168.735352	110.433487
30348.409574	-1981.383333	1167.608398	37.697109
30348.409574	-1981.383333	1166.481445	51.565033
30348.409574	-1981.383333	1165.353516	-17.791838
30348.409574	-1981.383333	1164.225586	79.618179
30348.409574	-1981.383333	1163.097656	-77.154350
30348.409574	-1981.383333	1161.968750	-115.411720
30348.409574	-1981.383333	1160.840820	19.584721
30348.409574	-1981.383333	1159.711914	-42.171234
30348.409574	-1981.383333	1158.583008	-103.942680
30348.409574	-1981.383333	1157.453125	-119.506081
30348.409574	-1981.383333	1156.324219	-58.838448
30348.409574	-1981.383333	1155.194336	8.925452
30348.409574	-1981.383333	1154.064453	-58.422211
30348.409574	-1981.383333	1152.933594	-102.482666
30348.409574	-1981.383333	1151.803711	-49.784527
30348.409574	-1981.383333	1150.672852	7.514851
30348.409574	-1981.383333	1149.541992	-35.274704
30348.409574	-1981.383333	1148.411133	-24.073294
30348.409574	-1981.383333	1147.279297	-23.270805
30348.409574	-1981.383333	1146.147461	0.357213
30348.409574	-1981.383333	1145.015625	-35.663048
30348.409574	-1981.383333	1143.883789	35.672153
30348.409574	-1981.383333	1142.750977	98.630577
30348.409574	-1981.383333	1141.619141	98.635651
30348.409574	-1981.383333	1140.486328	-47.068939
30348.409574	-1981.383333	1139.352539	79.485352
30348.409574	-1981.383333	1138.219727	0.458885
30348.409574	-1981.383333	1137.085938	47.046417
30348.409574	-1981.383333	1135.952148	72.836380
30348.409574	-1981.383333	1134.818359	122.152359
30348.409574	-1981.383333	1133.683594	62.100845
30348.409574	-1981.383333	1132.549805	67.267738
30348.409574	-1981.383333	1131.415039	75.623962
30348.409574	-1981.383333	1130.279297	66.315804
30348.409574	-1981.383333	1129.144531	125.280861
30348.409574	-1981.383333	1128.008789	126.214066
30348.409574	-1981.383333	1126.873047	121.293396
30348.409574	-1981.383333	1125.737305	102.442078
30348.409574	-1981.383333	1124.601563	119.531593
30348.409574	-1981.383333	1123.464844	223.410431
30348.409574	-1981.383333	1122.328125	19.842157
30348.409574	-1981.383333	1121.191406	71.789055
30348.409574	-1981.383333	1120.054688	97.597717
30348.409574	-1981.383333	1118.916992	152.008179
30348.409574	-1981.383333	1117.779297	169.413956
30348.409574	-1981.383333	1116.641602	141.121628
30348.409574	-1981.383333	1115.503906	129.585190
30348.409574	-1981.383333	1114.365234	-1.499819
30348.409574	-1981.383333	1113.226563	190.737762
30348.409574	-1981.383333	1112.087891	49.836937
30348.409574	-1981.383333	1110.949219	120.801537
30348.409574	-1981.383333	1109.809570	153.267929
30348.409574	-1981.383333	1108.669922	6.406704
30348.409574	-1981.383333	1107.530273	164.354034
30348.409574	-1981.383333	1106.390625	108.468277
30348.409574	-1981.383333	1105.250000	156.301727
30348.409574	-1981.383333	1104.109375	36.104179
30348.409574	-1981.383333	1102.968750	120.463493
30348.409574	-1981.383333	1101.828125	158.943100
30348.409574	-1981.383333	1100.686523	55.071297
30348.409574	-1981.383333	1099.544922	87.970558
30348.409574	-1981.383333	1098.403320	84.869850
30348.409574	-1981.383333	1097.261719	9.581661
30348.409574	-1981.383333	1096.120117	-13.052730
30348.409574	-1981.383333	1094.977539	55.545654
30348.409574	-1981.383333	1093.834961	16.303623
30348.409574	-1981.383333	1092.691406	137.470520
30348.409574	-1981.383333	1091.548828	84.064194
30348.409574	-1981.383333	1090.405273	197.731781
30348.409574	-1981.383333	1089.261719	50.276176
30348.409574	-1981.383333	1088.118164	102.932724
30348.409574	-1981.383333	1086.973633	19.983381
30348.409574	-1981.383333	1085.829102	191.288742
30348.409574	-1981.383333	1084.684570	80.856148
30348.409574	-1981.383333	1083.540039	67.131416
30348.409574	-1981.383333	1082.395508	116.812813
30348.409574	-1981.383333	1081.250000	60.439510
30348.409574	-1981.383333	1080.104492	99.149094
30348.409574	-1981.383333	1078.958984	163.265335
30348.409574	-1981.383333	1077.812500	78.421577
30348.409574	-1981.383333	1076.666016	70.998169
30348.409574	-1981.383333	1075.519531	76.263214
30348.409574	-1981.383333	1074.373047	-18.483431
30348.409574	-1981.383333	1073.226563	42.571266
30348.409574	-1981.383333	1072.079102	77.511734
30348.409574	-1981.383333	1070.931641	188.846375
30348.409574	-1981.383333	1069.784180	63.986866
30348.409574	-1981.383333	1068.635742	95.854500
30348.409574	-1981.383333	1067.487305	61.012924
30348.409574	-1981.383333	1066.338867	35.874813
30348.409574	-1981.383333	1065.190430	82.033989
30348.409574	-1981.383333	1064.041992	135.932419
30348.409574	-1981.383333	1062.892578	233.803772
30348.409574	-1981.383333	1061.743164	201.146912
30348.409574	-1981.383333	1060.593750	82.798355
30348.409574	-1981.383333	1059.443359	87.501968
30348.409574	-1981.383333	1058.292969	105.872887
30348.409574	-1981.383333	1057.142578	152.042557
30348.409574	-1981.383333	1055.992188	103.811386
30348.409574	-1981.383333	1054.841797	83.139893
30348.409574	-1981.383333	1053.690430	114.622459
30348.409574	-1981.383333	1052.539063	41.443195
30348.409574	-1981.383333	1051.387695	-15.668785
30348.409574	-1981.383333	1050.235352	-42.542030
30348.409574	-1981.383333	1049.083984	-54.830162
30348.409574	-1981.383333	1047.931641	-32.499489
30348.409574	-1981.383333	1046.778320	-51.012363
30348.409574	-1981.383333	1045.625977	-27.685839
30348.409574	-1981.383333	1044.472656	-72.286156
30348.409574	-1981.383333	1043.319336	139.889084
30348.409574	-1981.383333	1042.166016	69.022133
30348.409574	-1981.383333	1041.012695	8.784019
30348.409574	-1981.383333	1039.858398	22.643879
30348.409574	-1981.383333	1038.704102	-125.863770
30348.409574	-1981.383333	1037.549805	58.376450
30348.409574	-1981.383333	1036.394531	124.315536
30348.409574	-1981.383333	1035.239258	128.017395
30348.409574	-1981.383333	1034.083984	26.000711
30348.409574	-1981.383333	1032.928711	197.608414
30348.409574	-1981.383333	1031.773438	114.396332
30348.409574	-1981.383333	1030.617188	-4.924373
30348.409574	-1981.383333	1029.460938	78.627296
30348.409574	-1981.383333	1028.304688	226.395248
30348.409574	-1981.383333	1027.147461	64.100861
30348.409574	-1981.383333	1025.991211	-68.682526
30348.409574	-1981.383333	1024.833984	27.649778
30348.409574	-1981.383333	1023.675781	80.350807
30348.409574	-1981.383333	1022.518555	47.996475
30348.409574	-1981.383333	1021.360352	119.268982
30348.409574	-1981.383333	1020.202148	0.623148
30348.409574	-1981.383333	1019.043945	-33.728458
30348.409574	-1981.383333	1017.884766	-31.798487
30348.409574	-1981.383333	1016.726563	82.059982
30348.409574	-1981.383333	1015.567383	62.469894
30348.409574	-1981.383333	1014.407227	-173.236603
30348.409574	-1981.383333	1013.248047	-54.294289
30348.409574	-1981.383333	1012.087891	25.498272
30348.409574	-1981.383333	1010.927734	-81.423965
30348.409574	-1981.383333	1009.767578	28.564682
30348.409574	-1981.383333	1008.606445	-67.628647
30348.409574	-1981.383333	1007.446289	116.247276
30348.409574	-1981.383333	1006.285156	138.675964
30348.409574	-1981.383333	1005.123047	32.966141
30348.409574	-1981.383333	1003.961914	-3.124976
30348.409574	-1981.383333	1002.799805	32.797142
30348.409574	-1981.383333	1001.637695	80.605591
30348.409574	-1981.383333	1000.475586	51.808399
30348.409574	-1981.383333	999.312500	168.827209
30348.409574	-1981.383333	998.149414	-40.556103
30348.409574	-1981.383333	996.986328	119.734818
30348.409574	-1981.383333	995.823242	-126.195320
30348.409574	-1981.383333	994.659180	-108.941017
30348.409574	-1981.383333	993.496094	25.006691
30348.409574	-1981.383333	992.332031	84.920975
30348.409574	-1981.383333	991.166992	-122.748299
30348.409574	-1981.383333	990.002930	5.627576
30348.409574	-1981.383333	988.837891	-102.888779
30348.409574	-1981.383333	987.672852	65.501717
30348.409574	-1981.383333	986.506836	-13.178343
30348.409574	-1981.383333	985.341797	-43.847023
30348.409574	-1981.383333	984.175781	-41.265053
30348.409574	-1981.383333	983.009766	-18.390606
30348.409574	-1981.383333	981.843750	26.257494
30348.409574	-1981.383333	980.676758	-8.241594
30348.409574	-1981.383333	979.509766	15.616888
30348.409574	-1981.383333	978.342773	62.580235
30348.409574	-1981.383333	977.175781	33.898182
30348.409574	-1981.383333	976.007813	61.906677
30348.409574	-1981.383333	974.839844	173.754089
30348.409574	-1981.383333	973.671875	63.842484
30348.409574	-1981.383333	972.503906	72.835190
30348.409574	-1981.383333	971.334961	5.541249
30348.409574	-1981.383333	970.166016	-50.575985
30348.409574	-1981.383333	968.997070	-55.488453
30348.409574	-1981.383333	967.828125	-59.887329
30348.409574	-1981.383333	966.658203	28.816654
30348.409574	-1981.383333	965.488281	79.908684
30348.409574	-1981.383333	964.318359	54.263004
30348.409574	-1981.383333	963.148438	2.287077
30348.409574	-1981.383333	961.977539	-6.269230
30348.409574	-1981.383333	960.806641	-89.882408
30348.409574	-1981.383333	959.635742	-18.498512
30348.409574	-1981.383333	958.463867	-72.690948
30348.409574	-1981.383333	957.292969	-61.895256
30348.409574	-1981.383333	956.121094	28.165848
30348.409574	-1981.383333	954.948242	-36.994259
30348.409574	-1981.383333	953.776367	10.479961
30348.409574	-1981.383333	952.603516	-103.501465
30348.409574	-1981.383333	951.430664	-94.535057
30348.409574	-1981.383333	950.257813	7.090341
30348.409574	-1981.383333	949.084961	9.694773
30348.409574	-1981.383333	947.911133	-34.180500
30348.409574	-1981.383333	946.737305	-44.092911
30348.409574	-1981.383333	945.563477	196.024658
30348.409574	-1981.383333	944.388672	-83.394966
30348.409574	-1981.383333	943.213867	72.686020
30348.409574	-1981.383333	942.039063	62.919701
30348.409574	-1981.383333	940.864258	85.307259
30348.409574	-1981.383333	939.688477	18.597912
30348.409574	-1981.383333	938.513672	-60.451733
30348.409574	-1981.383333	937.337891	-23.266327
30348.409574	-1981.383333	936.161133	-55.151836
30348.409574	-1981.383333	934.985352	21.521442
30348.409574	-1981.383333	933.808594	51.244331
30348.409574	-1981.383333	932.631836	53.744633
30348.409574	-1981.383333	931.454102	1.941424
30348.409574	-1981.383333	930.277344	29.262789
30348.409574	-1981.383333	929.099609	150.420197
30348.409574	-1981.383333	927.921875	110.877800
30348.409574	-1981.383333	926.743164	-25.034222
30348.409574	-1981.383333	925.565430	21.969677
30348.409574	-1981.383333	924.386719	-113.914711
30348.409574	-1981.383333	923.208008	46.722099
30348.409574	-1981.383333	922.028320	-2.669629
30348.409574	-1981.383333	920.849609	24.515020
30348.409574	-1981.383333	919.669922	25.546022
30348.409574	-1981.383333	919.474609	-111.114250
30348.409574	-1981.383333	918.309570	-14.816010
30348.409574	-1981.383333	917.143555	120.930641
30348.409574	-1981.383333	915.977539	86.345253
30348.409574	-1981.383333	914.810547	162.795044
30348.409574	-1981.383333	913.644531	150.406937
30348.409574	-1981.383333	912.477539	31.973774
30348.409574	-1981.383333	911.310547	39.336212
30348.409574	-1981.383333	910.143555	-108.615936
30348.409574	-1981.383333	908.975586	73.760887
30348.409574	-1981.383333	907.807617	120.528519
30348.409574	-1981.383333	906.639648	71.189575
30348.409574	-1981.383333	905.471680	-88.976990
30348.409574	-1981.383333	904.303711	88.310226
30348.409574	-1981.383333	903.134766	-10.243697
30348.409574	-1981.383333	901.965820	2.016818
30348.409574	-1981.383333	900.796875	-5.419797
30348.409574	-1981.383333	899.626953	-113.743507
30348.409574	-1981.383333	898.457031	-54.731350
30348.409574	-1981.383333	897.287109	-177.762573
30348.409574	-1981.383333	896.117188	90.266487
30348.409574	-1981.383333	894.947266	-15.536631
30348.409574	-1981.383333	893.776367	23.735754
30348.409574	-1981.383333	892.605469	-23.028358
30348.409574	-1981.383333	891.434570	60.456802
30348.409574	-1981.383333	890.262695	-42.801003
30348.409574	-1981.383333	889.091797	57.845192
30348.409574	-1981.383333	887.919922	43.032833
30348.409574	-1981.383333	886.748047	-42.974590
30348.409574	-1981.383333	885.575195	13.425386
30348.409574	-1981.383333	884.403320	69.800629
30348.409574	-1981.383333	883.230469	-45.604507
30348.409574	-1981.383333	882.057617	3.400219
30348.409574	-1981.383333	880.883789	-1.572976
30348.409574	-1981.383333	879.710938	91.541809
30348.409574	-1981.383333	878.537109	-63.000332
30348.409574	-1981.383333	877.362305	20.286041
30348.409574	-1981.383333	876.188477	-50.854954
30348.409574	-1981.383333	875.013672	-70.511986
30348.409574	-1981.383333	873.839844	-26.470242
30348.409574	-1981.383333	872.664063	5.309837
30348.409574	-1981.383333	871.489258	-109.843483
30348.409574	-1981.383333	870.313477	-51.128246
30348.409574	-1981.383333	869.138672	-53.628983
30348.409574	-1981.383333	867.962891	49.100788
30348.409574	-1981.383333	866.786133	-63.516514
30348.409574	-1981.383333	865.610352	68.528816
30348.409574	-1981.383333	864.433594	-39.153175
30348.409574	-1981.383333	863.256836	-24.531984
30348.409574	-1981.383333	862.079102	-71.031570
30348.409574	-1981.383333	860.902344	-244.608078
30348.409574	-1981.383333	859.724609	11.972076
30348.409574	-1981.383333	858.546875	156.063095
30348.409574	-1981.383333	857.368164	-139.580750
30348.409574	-1981.383333	856.190430	55.769428
30348.409574	-1981.383333	855.011719	-27.306616
30348.409574	-1981.383333	853.833008	-39.553802
30348.409574	-1981.383333	852.654297	-15.185486
30348.409574	-1981.383333	851.474609	16.495928
30348.409574	-1981.383333	850.294922	-34.782814
30348.409574	-1981.383333	849.115234	-76.282440
30348.409574	-1981.383333	847.935547	30.993626
30348.409574	-1981.383333	846.754883	111.408020
30348.409574	-1981.383333	845.575195	-66.599976
30348.409574	-1981.383333	844.393555	-8.129478
30348.409574	-1981.383333	843.212891	-13.034996
30348.409574	-1981.383333	842.032227	16.168644
30348.409574	-1981.383333	840.850586	-71.548523
30348.409574	-1981.383333	839.668945	20.971849
30348.409574	-1981.383333	838.486328	74.502037
30348.409574	-1981.383333	837.304688	-86.193031
30348.409574	-1981.383333	836.122070	120.658279
30348.409574	-1981.383333	834.939453	-88.640213
30348.409574	-1981.383333	833.756836	25.689289
30348.409574	-1981.383333	832.573242	-35.140522
30348.409574	-1981.383333	831.389648	79.133148
30348.409574	-1981.383333	830.206055	-37.596680
30348.409574	-1981.383333	829.022461	-44.899403
30348.409574	-1981.383333	827.838867	23.136049
30348.409574	-1981.383333	826.654297	-13.328916
30348.409574	-1981.383333	825.469727	-18.199978
30348.409574	-1981.383333	824.284180	-47.353825
30348.409574	-1981.383333	823.099609	42.482716
30348.409574	-1981.383333	821.914063	200.256531
30348.409574	-1981.383333	820.728516	18.167877
30348.409574	-1981.383333	819.542969	-6.114385
30348.409574	-1981.383333	818.356445	-42.516277
30348.409574	-1981.383333	817.169922	-76.477692
30348.409574	-1981.383333	815.983398	-120.125191
30348.409574	-1981.383333	814.796875	-129.810440
30348.409574	-1981.383333	813.609375	37.469719
30348.409574	-1981.383333	812.422852	-93.425148
30348.409574	-1981.383333	811.235352	78.623680
30348.409574	-1981.383333	810.046875	175.500854
30348.409574	-1981.383333	808.859375	68.878418
30348.409574	-1981.383333	807.670898	-3.797267
30348.409574	-1981.383333	806.482422	136.614441
30348.409574	-1981.383333	805.293945	-1.404182
30348.409574	-1981.383333	804.104492	32.462502
30348.409574	-1981.383333	802.915039	54.215481
30348.409574	-1981.383333	801.725586	-47.416882
30348.409574	-1981.383333	800.536133	-15.985023
30348.409574	-1981.383333	799.345703	-16.002930
30348.409574	-1981.383333	798.155273	-49.869038
30348.409574	-1981.383333	796.964844	119.313957
30348.409574	-1981.383333	795.774414	46.763176
30348.409574	-1981.383333	794.583008	90.214607
30348.409574	-1981.383333	793.392578	92.579071
30348.409574	-1981.383333	792.200195	-78.946861
30348.409574	-1981.383333	791.008789	-23.432192
30348.409574	-1981.383333	789.816406	-88.648438
30348.409574	-1981.383333	788.625000	39.247337
30348.409574	-1981.383333	787.432617	104.346382
30348.409574	-1981.383333	786.239258	19.833569
30348.409574	-1981.383333	785.046875	12.538654
30348.409574	-1981.383333	783.853516	149.939575
30348.409574	-1981.383333	782.660156	-52.686806
30348.409574	-1981.383333	781.465820	-47.920990
30348.409574	-1981.383333	780.272461	-115.465416
30348.409574	-1981.383333	779.078125	123.033798
30348.409574	-1981.383333	777.883789	-19.209988
30348.409574	-1981.383333	776.688477	-4.840270
30348.409574	-1981.383333	775.494141	120.290627
30348.409574	-1981.383333	774.298828	69.608795
30348.409574	-1981.383333	773.103516	91.154762
30348.409574	-1981.383333	771.907227	64.554527
30348.409574	-1981.383333	770.711914	83.674049
30348.409574	-1981.383333	769.515625	-27.123610
30348.409574	-1981.383333	768.318359	20.856121
30348.409574	-1981.383333	767.122070	15.905987
30348.409574	-1981.383333	765.924805	-39.534824
30348.409574	-1981.383333	764.727539	30.027351
30348.409574	-1981.383333	763.530273	20.249496
30348.409574	-1981.383333	762.333008	46.506851
30348.409574	-1981.383333	761.134766	-1.719678
30348.409574	-1981.383333	759.936523	180.618759
30348.409574	-1981.383333	758.738281	74.739693
30348.409574	-1981.383333	757.540039	-67.113495
30348.409574	-1981.383333	756.340820	-16.908171
30348.409574	-1981.383333	755.141602	57.262447
30348.409574	-1981.383333	753.942383	64.216949
30348.409574	-1981.383333	752.742188	111.935188
30348.409574	-1981.383333	751.541992	104.466545
30348.409574	-1981.383333	750.341797	108.978233
30348.409574	-1981.383333	749.141602	39.166279
30348.409574	-1981.383333	747.941406	-21.041855
30348.409574	-1981.383333	746.740234	69.718887
30348.409574	-1981.383333	745.539063	45.440304
30348.409574	-1981.383333	744.337891	16.369682
30348.409574	-1981.383333	743.135742	-5.517117
30348.409574	-1981.383333	741.933594	-39.378654
30348.409574	-1981.383333	740.731445	89.526489
30348.409574	-1981.383333	739.529297	98.708771
30348.409574	-1981.383333	738.326172	55.236786
30348.409574	-1981.383333	737.124023	176.823578
30348.409574	-1981.383333	735.919922	11.353177
30348.409574	-1981.383333	734.716797	171.127502
30348.409574	-1981.383333	733.513672	132.399719
30348.409574	-1981.383333	732.309570	194.057678
30348.409574	-1981.383333	731.105469	21.492710
30348.409574	-1981.383333	729.900391	176.292847
30348.409574	-1981.383333	728.696289	75.429596
30348.409574	-1981.383333	727.491211	5.638375
30348.409574	-1981.383333	726.286133	-56.978008
30348.409574	-1981.383333	725.080078	-26.486858
30348.409574	-1981.383333	723.874023	-167.862488
30348.409574	-1981.383333	722.668945	-20.476604
30348.409574	-1981.383333	721.461914	48.104622
30348.409574	-1981.383333	720.255859	128.564453
30348.409574	-1981.383333	719.048828	11.048762
30348.409574	-1981.383333	717.841797	162.969528
30348.409574	-1981.383333	716.634766	-54.653992
30348.409574	-1981.383333	715.427734	-10.062812
30348.409574	-1981.383333	714.219727	32.107773
30348.409574	-1981.383333	713.011719	107.590614
30348.409574	-1981.383333	711.803711	23.452333
30348.409574	-1981.383333	710.594727	25.049763
30348.409574	-1981.383333	709.385742	183.746674
30348.409574	-1981.383333	708.176758	35.319633
30348.409574	-1981.383333	706.967773	63.025703
30348.409574	-1981.383333	705.758789	-28.257948
30348.409574	-1981.383333	704.548828	32.706787
30348.409574	-1981.383333	703.338867	17.523512
30348.409574	-1981.383333	702.127930	-42.850948
30348.409574	-1981.383333	700.917969	32.273426
30348.409574	-1981.383333	699.707031	62.187500
30348.409574	-1981.383333	698.496094	-12.485032
30348.409574	-1981.383333	697.285156	98.150108
30348.409574	-1981.383333	696.073242	237.215668
30348.409574	-1981.383333	694.861328	110.239731
30348.409574	-1981.383333	693.649414	109.121445
30348.409574	-1981.383333	692.436523	72.374626
30348.409574	-1981.383333	691.224609	128.170105
30348.409574	-1981.383333	690.011719	72.402931
30348.409574	-1981.383333	688.798828	237.242401
30348.409574	-1981.383333	687.584961	22.524038
30348.409574	-1981.383333	686.372070	-54.603630
30348.409574	-1981.383333	685.158203	105.338791
30348.409574	-1981.383333	683.943359	222.524338
30348.409574	-1981.383333	682.729492	176.128067
30348.409574	-1981.383333	681.514648	167.630676
30348.409574	-1981.383333	680.299805	71.469238
30348.409574	-1981.383333	679.084961	186.085907
30348.409574	-1981.383333	677.869141	222.494278
30348.409574	-1981.383333	676.653320	114.462059
30348.409574	-1981.383333	675.437500	146.080338
30348.409574	-1981.383333	674.221680	220.247360
30348.409574	-1981.383333	673.004883	41.228622
30348.409574	-1981.383333	671.789063	117.693726
30348.409574	-1981.383333	670.571289	139.709488
30348.409574	-1981.383333	669.354492	90.762459
30348.409574	-1981.383333	668.136719	115.079506
30348.409574	-1981.383333	666.919922	94.456902
30348.409574	-1981.383333	665.701172	123.428490
30348.409574	-1981.383333	664.483398	98.027985
30348.409574	-1981.383333	663.264648	164.712570
30348.409574	-1981.383333	662.045898	143.975357
30348.409574	-1981.383333	660.827148	153.905060
30348.409574	-1981.383333	659.608398	52.871181
30348.409574	-1981.383333	658.388672	83.990570
30348.409574	-1981.383333	657.168945	-31.203037
30348.409574	-1981.383333	655.949219	-26.086702
30348.409574	-1981.383333	654.728516	96.904594
30348.409574	-1981.383333	653.507813	137.293472
30348.409574	-1981.383333	652.287109	229.491943
30348.409574	-1981.383333	651.066406	135.441315
30348.409574	-1981.383333	649.844727	112.083511
30348.409574	-1981.383333	648.623047	114.616539
30348.409574	-1981.383333	647.401367	-24.195496
30348.409574	-1981.383333	646.179688	199.642456
30348.409574	-1981.383333	644.957031	-5.111354
30348.409574	-1981.383333	643.734375	-28.575680
30348.409574	-1981.383333	642.511719	42.065853
30348.409574	-1981.383333	641.289063	164.404022
30348.409574	-1981.383333	640.065430	46.732662
30348.409574	-1981.383333	638.841797	79.587440
30348.409574	-1981.383333	637.618164	-26.325104
30348.409574	-1981.383333	636.393555	-19.392849
30348.409574	-1981.383333	635.168945	46.259830
30348.409574	-1981.383333	633.944336	62.507950
30348.409574	-1981.383333	632.719727	116.304657
30348.409574	-1981.383333	631.494141	-34.294632
30348.409574	-1981.383333	630.269531	-93.280556
30348.409574	-1981.383333	629.042969	59.019348
30348.409574	-1981.383333	627.817383	-9.416394
30348.409574	-1981.383333	626.590820	128.655716
30348.409574	-1981.383333	625.365234	139.941605
30348.409574	-1981.383333	624.137695	59.703751
30348.409574	-1981.383333	622.911133	80.314598
30348.409574	-1981.383333	621.683594	154.811920
30348.409574	-1981.383333	620.456055	-0.490769
30348.409574	-1981.383333	619.228516	34.084396
30348.409574	-1981.383333	618.000977	129.537537
30348.409574	-1981.383333	616.772461	91.379929
30348.409574	-1981.383333	615.543945	29.784111
30348.409574	-1981.383333	614.314453	85.269142
30348.409574	-1981.383333	613.085938	-2.116215
30348.409574	-1981.383333	611.856445	20.518522
30348.409574	-1981.383333	610.626953	-83.261383
30348.409574	-1981.383333	609.397461	35.249340
30348.409574	-1981.383333	608.166992	109.231285
30348.409574	-1981.383333	606.936523	21.775700
30348.409574	-1981.383333	605.706055	4.475081
30348.409574	-1981.383333	604.474609	-10.512470
30348.409574	-1981.383333	603.244141	-4.485888
30348.409574	-1981.383333	602.012695	-19.525200
30348.409574	-1981.383333	600.780273	-57.951996
30348.409574	-1981.383333	599.548828	-54.345806
30348.409574	-1981.383333	598.316406	-78.795555
30348.409574	-1981.383333	597.083984	-5.201934
30348.409574	-1981.383333	595.851563	9.973928
30348.409574	-1981.383333	594.618164	167.474991
30348.409574	-1981.383333	593.384766	42.551048
30348.409574	-1981.383333	592.151367	20.296171
30348.409574	-1981.383333	590.917969	74.989983
30348.409574	-1981.383333	589.683594	-108.214439
30348.409574	-1981.383333	588.449219	42.011925
30348.409574	-1981.383333	587.214844	24.328117
30348.409574	-1981.383333	585.979492	71.873024
30348.409574	-1981.383333	584.745117	-43.714504
30348.409574	-1981.383333	583.509766	-28.836758
30348.409574	-1981.383333	582.273438	-100.160393
30348.409574	-1981.383333	581.038086	7.807110
30348.409574	-1981.383333	579.801758	-19.313198
30348.409574	-1981.383333	578.565430	-60.409840
30348.409574	-1981.383333	577.329102	-71.263145
30348.409574	-1981.383333	576.091797	-12.346609
30348.409574	-1981.383333	574.854492	-62.792820
30348.409574	-1981.383333	573.617188	58.837158
30348.409574	-1981.383333	572.378906	89.721169
30348.409574	-1981.383333	571.141602	-18.888649
30348.409574	-1981.383333	569.903320	-141.418808
30348.409574	-1981.383333	568.664063	-87.342476
30348.409574	-1981.383333	567.425781	117.681450
30348.409574	-1981.383333	566.186523	60.165848
30348.409574	-1981.383333	564.947266	4.977843
30348.409574	-1981.383333	563.708008	-31.633995
30348.409574	-1981.383333	562.467773	82.608719
30348.409574	-1981.383333	561.227539	-95.585518
30348.409574	-1981.383333	559.987305	-78.848503
30348.409574	-1981.383333	558.747070	-78.370590
30348.409574	-1981.383333	557.505859	70.500114
30348.409574	-1981.383333	556.264648	-49.645489
30348.409574	-1981.383333	555.023438	-30.677933
30348.409574	-1981.383333	553.781250	11.438959
30348.409574	-1981.383333	552.539063	-13.666766
30348.409574	-1981.383333	551.296875	53.882919
30348.409574	-1981.383333	550.054688	49.597401
30348.409574	-1981.383333	548.811523	70.769669
30348.409574	-1981.383333	547.569336	57.199795
30348.409574	-1981.383333	546.325195	-48.958065
30348.409574	-1981.383333	545.082031	6.899498
30348.409574	-1981.383333	543.837891	-124.669479
30348.409574	-1981.383333	542.593750	-128.977264
30348.409574	-1981.383333	541.349609	-38.479794
30348.409574	-1981.383333	540.105469	119.018883
30348.409574	-1981.383333	538.860352	-28.675074
30348.409574	-1981.383333	537.615234	-86.183479
30348.409574	-1981.383333	536.369141	-28.150841
30348.409574	-1981.383333	535.124023	-20.965441
30348.409574	-1981.383333	533.877930	-94.622017
30348.409574	-1981.383333	532.631836	51.104805
30348.409574	-1981.383333	531.384766	14.390820
30348.409574	-1981.383333	530.138672	76.937614
30348.409574	-1981.383333	528.891602	35.615177
30348.409574	-1981.383333	527.643555	21.990561
30348.409574	-1981.383333	526.396484	-3.158482
30348.409574	-1981.383333	525.148438	-122.846725
30348.409574	-1981.383333	523.900391	114.876312
30348.409574	-1981.383333	522.652344	140.434097
30348.409574	-1981.383333	521.403320	99.148422
30348.409574	-1981.383333	520.154297	-45.799301
30348.409574	-1981.383333	518.905273	-40.949955
30348.409574	-1981.383333	517.656250	-247.981155
30348.409574	-1981.383333	516.406250	-95.720032
30348.409574	-1981.383333	515.156250	-30.997915
30348.409574	-1981.383333	513.906250	1.479743
30348.409574	-1981.383333	512.655273	40.850647
30348.409574	-1981.383333	511.404297	89.413811
30348.409574	-1981.383333	510.153320	-124.248650
30348.409574	-1981.383333	508.902344	55.422421
30348.409574	-1981.383333	507.650391	-43.170631
30348.409574	-1981.383333	506.398438	-118.725922
30348.409574	-1981.383333	505.146484	-102.314217
30348.409574	-1981.383333	503.893555	-30.758259
30348.409574	-1981.383333	502.641602	-140.694199
30348.409574	-1981.383333	501.388672	-23.206079
30348.409574	-1981.383333	500.134766	55.206135
30348.409574	-1981.383333	498.881836	135.894958
30348.409574	-1981.383333	497.627930	23.765631
30348.409574	-1981.383333	496.374023	-10.283950
30348.409574	-1981.383333	495.119141	-113.132721
30348.409574	-1981.383333	493.865234	40.971577
30348.409574	-1981.383333	492.610352	-22.831900
30348.409574	-1981.383333	491.355469	-38.446163
30348.409574	-1981.383333	490.099609	-102.177429
30348.409574	-1981.383333	488.843750	-81.073296
30348.409574	-1981.383333	487.587891	-103.494820
30348.409574	-1981.383333	486.332031	-82.367516
30348.409574	-1981.383333	485.075195	-3.980043
30348.409574	-1981.383333	483.818359	-21.778124
30348.409574	-1981.383333	482.561523	-2.924656
30348.409574	-1981.383333	481.304688	-20.682177
30348.409574	-1981.383333	480.046875	94.301216
30348.409574	-1981.383333	478.789063	88.001022
30348.409574	-1981.383333	477.531250	141.189270
30348.409574	-1981.383333	476.272461	-13.726497
30348.409574	-1981.383333	475.013672	-24.522896
30348.409574	-1981.383333	473.754883	-60.441166
30348.409574	-1981.383333	472.496094	-82.615166
30348.409574	-1981.383333	471.236328	-75.061790
30348.409574	-1981.383333	469.976563	74.131622
30348.409574	-1981.383333	468.716797	-137.564911
30348.409574	-1981.383333	467.456055	105.225220
30348.409574	-1981.383333	466.196289	14.635783
30348.409574	-1981.383333	464.935547	83.862518
30348.409574	-1981.383333	463.673828	182.737122
30348.409574	-1981.383333	462.413086	119.610451
30348.409574	-1981.383333	461.151367	97.579056
30348.409574	-1981.383333	459.889648	139.421814
30348.409574	-1981.383333	458.626953	69.544357
30348.409574	-1981.383333	457.364258	72.650246
30348.409574	-1981.383333	456.101563	119.065956
30348.409574	-1981.383333	454.838867	76.615959
30348.409574	-1981.383333	453.575195	91.141266
30348.409574	-1981.383333	452.312500	46.458908
30348.409574	-1981.383333	451.047852	-11.859736
30348.409574	-1981.383333	449.784180	91.483177
30348.409574	-1981.383333	448.519531	78.713699
30348.409574	-1981.383333	447.254883	136.494766
30348.409574	-1981.383333	445.990234	44.109394
30348.409574	-1981.383333	444.725586	188.310730
30348.409574	-1981.383333	443.459961	141.437347
30348.409574	-1981.383333	442.194336	19.560577
30348.409574	-1981.383333	440.927734	81.845985
30348.409574	-1981.383333	439.662109	66.839302
30348.409574	-1981.383333	438.395508	144.985764
30348.409574	-1981.383333	437.127930	79.985809
30348.409574	-1981.383333	435.861328	223.942535
30348.409574	-1981.383333	434.593750	63.575825
30348.409574	-1981.383333	433.326172	134.810410
30348.409574	-1981.383333	432.058594	97.063683
30348.409574	-1981.383333	430.790039	45.701633
30348.409574	-1981.383333	429.521484	148.605789
30348.409574	-1981.383333	428.252930	172.063828
30348.409574	-1981.383333	426.984375	227.234924
30348.409574	-1981.383333	425.714844	223.411377
30348.409574	-1981.383333	424.445313	79.032951
30348.409574	-1981.383333	423.174805	245.140701
30348.409574	-1981.383333	421.905273	130.209503
30348.409574	-1981.383333	420.634766	191.968506
30348.409574	-1981.383333	419.364258	156.282898
30348.409574	-1981.383333	418.092773	168.114563
30348.409574	-1981.383333	416.822266	87.087997
30348.409574	-1981.383333	415.550781	92.044464
30348.409574	-1981.383333	414.278320	142.196060
30348.409574	-1981.383333	413.006836	242.039215
30348.409574	-1981.383333	411.734375	194.766602
30348.409574	-1981.383333	410.461914	72.830124
30348.409574	-1981.383333	409.188477	138.513199
30348.409574	-1981.383333	407.916016	124.989326
30348.409574	-1981.383333	406.642578	204.039078
30348.409574	-1981.383333	405.368164	38.972645
30348.409574	-1981.383333	404.094727	122.354057
30348.409574	-1981.383333	402.820313	15.911795
30348.409574	-1981.383333	401.545898	-40.911198
30348.409574	-1981.383333	400.270508	69.222130
30348.409574	-1981.383333	398.996094	-96.124252
30348.409574	-1981.383333	397.720703	36.313988
30348.409574	-1981.383333	396.444336	10.666625
30348.409574	-1981.383333	395.168945	77.375069
30348.409574	-1981.383333	393.892578	10.885200
30348.409574	-1981.383333	392.616211	43.476234
30348.409574	-1981.383333	391.339844	37.593407
30348.409574	-1981.383333	390.062500	-24.775604
30348.409574	-1981.383333	388.785156	119.987015
30348.409574	-1981.383333	387.507813	142.893295
30348.409574	-1981.383333	386.229492	170.115997
30348.409574	-1981.383333	384.951172	111.593925
30348.409574	-1981.383333	383.672852	113.683258
30348.409574	-1981.383333	382.394531	-10.447103
30348.409574	-1981.383333	381.115234	166.755997
30348.409574	-1981.383333	379.835938	87.234482
30348.409574	-1981.383333	378.556641	110.977417
30348.409574	-1981.383333	377.277344	120.988289
30348.409574	-1981.383333	375.997070	4.864511
30348.409574	-1981.383333	374.716797	131.268936
30348.409574	-1981.383333	373.435547	131.522736
30348.409574	-1981.383333	372.155273	-63.930969
30348.409574	-1981.383333	370.874023	164.909958
30348.409574	-1981.383333	369.591797	85.719719
30348.409574	-1981.383333	368.310547	208.323288
30348.409574	-1981.383333	367.028320	92.634262
30348.409574	-1981.383333	365.746094	30.530405
30348.409574	-1981.383333	364.463867	-16.175365
30348.409574	-1981.383333	363.180664	8.564096
30348.409574	-1981.383333	361.897461	46.390572
30348.409574	-1981.383333	360.614258	-1.369730
30348.409574	-1981.383333	359.330078	37.921864
30348.409574	-1981.383333	358.045898	-37.497761
30348.409574	-1981.383333	356.761719	-7.983970
30348.409574	-1981.383333	355.477539	81.576797
30348.409574	-1981.383333	354.192383	40.751842
30348.409574	-1981.383333	352.907227	39.797508
30348.409574	-1981.383333	351.622070	24.944532
30348.409574	-1981.383333	350.336914	-12.765634
30348.409574	-1981.383333	349.050781	-24.114662
30348.409574	-1981.383333	347.764648	-18.074734
30348.409574	-1981.383333	346.477539	-55.076500
30348.409574	-1981.383333	345.191406	-12.091376
30348.409574	-1981.383333	343.904297	-56.894764
30348.409574	-1981.383333	342.616211	-12.861259
30348.409574	-1981.383333	341.329102	-87.875443
30348.409574	-1981.383333	340.041016	-114.332184
30348.409574	-1981.383333	338.752930	1.550424
30348.409574	-1981.383333	337.463867	-53.017635
30348.409574	-1981.383333	336.175781	23.516771
30348.409574	-1981.383333	334.886719	-235.542114
30348.409574	-1981.383333	333.596680	-171.599365
30348.409574	-1981.383333	332.307617	-130.715225
30348.409574	-1981.383333	331.017578	-21.464462
30348.409574	-1981.383333	329.727539	40.122845
30348.409574	-1981.383333	328.436523	-119.894760
30348.409574	-1981.383333	327.146484	-82.226593
30348.409574	-1981.383333	325.855469	57.091450
30348.409574	-1981.383333	324.563477	52.838814
30348.409574	-1981.383333	323.272461	-50.313545
30348.409574	-1981.383333	321.980469	23.838268
30348.409574	-1981.383333	320.688477	-18.788116
30348.409574	-1981.383333	319.395508	-55.707199
30348.409574	-1981.383333	318.103516	28.850256
30348.409574	-1981.383333	316.810547	-54.588531
30348.409574	-1981.383333	315.516602	-248.091812
30348.409574	-1981.383333	314.223633	-10.997240
30348.409574	-1981.383333	312.929688	-13.112039
30348.409574	-1981.383333	311.635742	74.807541
30348.409574	-1981.383333	310.340820	-36.358646
30348.409574	-1981.383333	309.045898	-79.769211
30348.409574	-1981.383333	307.750977	4.498225
30348.409574	-1981.383333	306.456055	118.576889
30348.409574	-1981.383333	305.160156	69.141846
30348.409574	-1981.383333	303.865234	51.752045
30348.409574	-1981.383333	302.568359	57.370144
30348.409574	-1981.383333	301.272461	48.315193
30348.409574	-1981.383333	299.975586	46.683281
30348.409574	-1981.383333	298.678711	356.434082
