#X		#Y		#Wave		#Intensity
29969.294681	-1198.855000	1999.980469	19.194841
29969.294681	-1198.855000	1999.016602	-23.971361
29969.294681	-1198.855000	1998.052734	-62.695000
29969.294681	-1198.855000	1997.087891	27.428911
29969.294681	-1198.855000	1996.123047	-36.123421
29969.294681	-1198.855000	1995.158203	-35.271137
29969.294681	-1198.855000	1994.193359	7.660091
29969.294681	-1198.855000	1993.228516	18.359474
29969.294681	-1198.855000	1992.262695	-50.196465
29969.294681	-1198.855000	1991.297852	22.347944
29969.294681	-1198.855000	1990.332031	-33.853115
29969.294681	-1198.855000	1989.366211	23.770836
29969.294681	-1198.855000	1988.399414	-54.717411
29969.294681	-1198.855000	1987.433594	57.267872
29969.294681	-1198.855000	1986.466797	-36.073463
29969.294681	-1198.855000	1985.500977	-15.655661
29969.294681	-1198.855000	1984.534180	-19.985277
29969.294681	-1198.855000	1983.567383	39.934921
29969.294681	-1198.855000	1982.599609	33.092808
29969.294681	-1198.855000	1981.632813	6.473848
29969.294681	-1198.855000	1980.665039	-39.912838
29969.294681	-1198.855000	1979.697266	52.016888
29969.294681	-1198.855000	1978.729492	30.307411
29969.294681	-1198.855000	1977.761719	-33.377769
29969.294681	-1198.855000	1976.792969	46.120186
29969.294681	-1198.855000	1975.825195	-0.289627
29969.294681	-1198.855000	1974.856445	34.736137
29969.294681	-1198.855000	1973.887695	8.061619
29969.294681	-1198.855000	1972.918945	121.987938
29969.294681	-1198.855000	1971.949219	-28.021273
29969.294681	-1198.855000	1970.980469	120.373764
29969.294681	-1198.855000	1970.010742	81.343628
29969.294681	-1198.855000	1969.041016	15.208479
29969.294681	-1198.855000	1968.071289	57.523746
29969.294681	-1198.855000	1967.101563	55.467415
29969.294681	-1198.855000	1966.130859	122.381912
29969.294681	-1198.855000	1965.161133	75.970505
29969.294681	-1198.855000	1964.190430	9.870433
29969.294681	-1198.855000	1963.219727	39.811947
29969.294681	-1198.855000	1962.249023	30.353334
29969.294681	-1198.855000	1961.277344	136.568146
29969.294681	-1198.855000	1960.306641	1.593440
29969.294681	-1198.855000	1959.334961	29.041466
29969.294681	-1198.855000	1958.363281	7.281591
29969.294681	-1198.855000	1957.391602	61.767540
29969.294681	-1198.855000	1956.419922	-4.252537
29969.294681	-1198.855000	1955.447266	-50.583351
29969.294681	-1198.855000	1954.474609	-25.616312
29969.294681	-1198.855000	1953.501953	-39.978798
29969.294681	-1198.855000	1952.529297	-2.737887
29969.294681	-1198.855000	1951.556641	34.489517
29969.294681	-1198.855000	1950.583984	44.686600
29969.294681	-1198.855000	1949.610352	57.334732
29969.294681	-1198.855000	1948.636719	6.143500
29969.294681	-1198.855000	1947.663086	53.163689
29969.294681	-1198.855000	1946.689453	134.528107
29969.294681	-1198.855000	1945.715820	-12.343595
29969.294681	-1198.855000	1944.741211	34.657848
29969.294681	-1198.855000	1943.767578	-38.548233
29969.294681	-1198.855000	1942.792969	8.445414
29969.294681	-1198.855000	1941.818359	87.300926
29969.294681	-1198.855000	1940.842773	-47.158100
29969.294681	-1198.855000	1939.868164	-17.337837
29969.294681	-1198.855000	1938.892578	130.104263
29969.294681	-1198.855000	1937.916992	32.475307
29969.294681	-1198.855000	1936.941406	20.627010
29969.294681	-1198.855000	1935.965820	55.323425
29969.294681	-1198.855000	1934.990234	1.852766
29969.294681	-1198.855000	1934.013672	2.268819
29969.294681	-1198.855000	1933.037109	-29.134056
29969.294681	-1198.855000	1932.060547	-50.731243
29969.294681	-1198.855000	1931.083984	5.988104
29969.294681	-1198.855000	1930.107422	23.545803
29969.294681	-1198.855000	1929.129883	-0.483374
29969.294681	-1198.855000	1928.153320	-26.943296
29969.294681	-1198.855000	1927.175781	41.971737
29969.294681	-1198.855000	1926.198242	37.524261
29969.294681	-1198.855000	1925.219727	-67.133316
29969.294681	-1198.855000	1924.242188	-44.667450
29969.294681	-1198.855000	1923.263672	156.158737
29969.294681	-1198.855000	1922.285156	-53.492607
29969.294681	-1198.855000	1921.306641	10.493052
29969.294681	-1198.855000	1920.328125	-37.871559
29969.294681	-1198.855000	1919.349609	-10.525623
29969.294681	-1198.855000	1918.370117	36.342438
29969.294681	-1198.855000	1917.391602	19.743309
29969.294681	-1198.855000	1916.412109	-1.726239
29969.294681	-1198.855000	1915.431641	-64.659447
29969.294681	-1198.855000	1914.452148	-27.553007
29969.294681	-1198.855000	1913.472656	-14.843154
29969.294681	-1198.855000	1912.492188	-11.887977
29969.294681	-1198.855000	1911.511719	-38.183403
29969.294681	-1198.855000	1910.531250	-23.027552
29969.294681	-1198.855000	1909.550781	9.186490
29969.294681	-1198.855000	1908.569336	2.407765
29969.294681	-1198.855000	1907.588867	-50.647636
29969.294681	-1198.855000	1906.607422	20.537046
29969.294681	-1198.855000	1905.625977	30.821054
29969.294681	-1198.855000	1904.644531	-36.804688
29969.294681	-1198.855000	1903.662109	34.350574
29969.294681	-1198.855000	1902.680664	-13.770345
29969.294681	-1198.855000	1901.698242	13.563474
29969.294681	-1198.855000	1900.715820	67.653603
29969.294681	-1198.855000	1899.733398	-2.325939
29969.294681	-1198.855000	1898.750000	34.730888
29969.294681	-1198.855000	1897.767578	-27.912601
29969.294681	-1198.855000	1896.784180	-34.615059
29969.294681	-1198.855000	1895.800781	-19.435059
29969.294681	-1198.855000	1894.817383	0.603651
29969.294681	-1198.855000	1893.833984	-78.978500
29969.294681	-1198.855000	1892.850586	-122.088089
29969.294681	-1198.855000	1891.866211	-7.307039
29969.294681	-1198.855000	1890.881836	-21.266956
29969.294681	-1198.855000	1889.897461	-110.482330
29969.294681	-1198.855000	1888.913086	47.937622
29969.294681	-1198.855000	1887.927734	84.952003
29969.294681	-1198.855000	1886.943359	-23.634027
29969.294681	-1198.855000	1885.958008	81.317070
29969.294681	-1198.855000	1884.972656	-17.519480
29969.294681	-1198.855000	1883.987305	7.367470
29969.294681	-1198.855000	1883.001953	92.866249
29969.294681	-1198.855000	1882.015625	42.576832
29969.294681	-1198.855000	1881.029297	50.480347
29969.294681	-1198.855000	1880.042969	55.960732
29969.294681	-1198.855000	1879.056641	-74.239929
29969.294681	-1198.855000	1878.070313	-44.508465
29969.294681	-1198.855000	1877.083984	-12.363041
29969.294681	-1198.855000	1876.096680	-50.452930
29969.294681	-1198.855000	1875.109375	76.107262
29969.294681	-1198.855000	1874.122070	-10.392531
29969.294681	-1198.855000	1873.134766	-21.832302
29969.294681	-1198.855000	1872.146484	-38.106186
29969.294681	-1198.855000	1871.159180	-18.081995
29969.294681	-1198.855000	1870.170898	69.662315
29969.294681	-1198.855000	1869.182617	-33.674656
29969.294681	-1198.855000	1868.194336	46.789555
29969.294681	-1198.855000	1867.205078	30.526051
29969.294681	-1198.855000	1866.216797	-7.481682
29969.294681	-1198.855000	1865.227539	53.603210
29969.294681	-1198.855000	1864.238281	-32.714771
29969.294681	-1198.855000	1863.249023	103.239067
29969.294681	-1198.855000	1862.259766	19.361589
29969.294681	-1198.855000	1861.269531	15.201302
29969.294681	-1198.855000	1860.279297	23.114992
29969.294681	-1198.855000	1859.290039	-41.387234
29969.294681	-1198.855000	1858.298828	65.482224
29969.294681	-1198.855000	1857.308594	42.015869
29969.294681	-1198.855000	1856.318359	16.146482
29969.294681	-1198.855000	1855.327148	-2.478290
29969.294681	-1198.855000	1854.335938	31.958290
29969.294681	-1198.855000	1853.344727	92.904358
29969.294681	-1198.855000	1852.353516	35.705505
29969.294681	-1198.855000	1851.362305	-43.163761
29969.294681	-1198.855000	1850.370117	51.496929
29969.294681	-1198.855000	1849.377930	64.205490
29969.294681	-1198.855000	1848.385742	50.412018
29969.294681	-1198.855000	1847.393555	70.340279
29969.294681	-1198.855000	1846.401367	63.773129
29969.294681	-1198.855000	1845.408203	66.836479
29969.294681	-1198.855000	1844.415039	31.385170
29969.294681	-1198.855000	1843.421875	-13.679784
29969.294681	-1198.855000	1842.428711	73.607582
29969.294681	-1198.855000	1841.435547	28.549412
29969.294681	-1198.855000	1840.441406	118.197411
29969.294681	-1198.855000	1839.448242	46.692741
29969.294681	-1198.855000	1838.454102	47.341309
29969.294681	-1198.855000	1837.459961	-2.492772
29969.294681	-1198.855000	1836.464844	-42.697254
29969.294681	-1198.855000	1835.470703	114.154694
29969.294681	-1198.855000	1834.475586	33.097233
29969.294681	-1198.855000	1833.480469	24.129499
29969.294681	-1198.855000	1832.485352	10.360044
29969.294681	-1198.855000	1831.490234	73.430138
29969.294681	-1198.855000	1830.495117	28.443449
29969.294681	-1198.855000	1829.499023	-9.329326
29969.294681	-1198.855000	1828.502930	56.100464
29969.294681	-1198.855000	1827.506836	-15.258720
29969.294681	-1198.855000	1826.510742	62.136738
29969.294681	-1198.855000	1825.513672	-9.203209
29969.294681	-1198.855000	1824.517578	41.778927
29969.294681	-1198.855000	1823.520508	56.775009
29969.294681	-1198.855000	1822.523438	-40.899883
29969.294681	-1198.855000	1821.526367	53.188507
29969.294681	-1198.855000	1820.529297	-58.831722
29969.294681	-1198.855000	1819.531250	78.340141
29969.294681	-1198.855000	1818.533203	35.812176
29969.294681	-1198.855000	1817.535156	34.008869
29969.294681	-1198.855000	1816.537109	60.935276
29969.294681	-1198.855000	1815.539063	-55.786346
29969.294681	-1198.855000	1814.540039	88.417900
29969.294681	-1198.855000	1813.541992	105.736191
29969.294681	-1198.855000	1812.542969	44.089115
29969.294681	-1198.855000	1811.543945	1.598192
29969.294681	-1198.855000	1810.543945	76.309250
29969.294681	-1198.855000	1809.544922	-14.003082
29969.294681	-1198.855000	1808.544922	72.628639
29969.294681	-1198.855000	1807.544922	32.538357
29969.294681	-1198.855000	1806.544922	6.798287
29969.294681	-1198.855000	1805.544922	0.178891
29969.294681	-1198.855000	1804.544922	48.503605
29969.294681	-1198.855000	1803.543945	63.365852
29969.294681	-1198.855000	1802.542969	28.069574
29969.294681	-1198.855000	1801.541992	-0.054704
29969.294681	-1198.855000	1800.541016	-1.914249
29969.294681	-1198.855000	1799.539063	58.275028
29969.294681	-1198.855000	1798.538086	42.079109
29969.294681	-1198.855000	1797.536133	37.812550
29969.294681	-1198.855000	1796.534180	78.864525
29969.294681	-1198.855000	1795.532227	22.116600
29969.294681	-1198.855000	1794.529297	96.527412
29969.294681	-1198.855000	1793.527344	75.548248
29969.294681	-1198.855000	1792.524414	114.159157
29969.294681	-1198.855000	1791.521484	76.492752
29969.294681	-1198.855000	1790.518555	-1.668514
29969.294681	-1198.855000	1789.514648	70.270218
29969.294681	-1198.855000	1788.511719	-19.778051
29969.294681	-1198.855000	1787.507813	56.890091
29969.294681	-1198.855000	1786.503906	9.722470
29969.294681	-1198.855000	1785.500000	-39.812416
29969.294681	-1198.855000	1784.496094	3.483416
29969.294681	-1198.855000	1783.491211	37.238750
29969.294681	-1198.855000	1782.486328	97.145584
29969.294681	-1198.855000	1781.481445	149.889450
29969.294681	-1198.855000	1780.476563	-51.848736
29969.294681	-1198.855000	1779.471680	-18.127335
29969.294681	-1198.855000	1778.465820	-1.065372
29969.294681	-1198.855000	1777.460938	20.740246
29969.294681	-1198.855000	1776.455078	30.650095
29969.294681	-1198.855000	1775.449219	-49.730953
29969.294681	-1198.855000	1774.442383	-46.948689
29969.294681	-1198.855000	1773.436523	-153.418350
29969.294681	-1198.855000	1772.429688	96.320732
29969.294681	-1198.855000	1771.422852	15.967921
29969.294681	-1198.855000	1770.416016	11.595989
29969.294681	-1198.855000	1769.409180	16.713497
29969.294681	-1198.855000	1768.402344	71.651031
29969.294681	-1198.855000	1767.394531	107.583725
29969.294681	-1198.855000	1766.386719	72.344292
29969.294681	-1198.855000	1765.378906	67.941048
29969.294681	-1198.855000	1764.371094	39.825932
29969.294681	-1198.855000	1763.362305	120.755615
29969.294681	-1198.855000	1762.354492	16.792505
29969.294681	-1198.855000	1761.345703	-4.203147
29969.294681	-1198.855000	1760.336914	62.460526
29969.294681	-1198.855000	1759.328125	67.510124
29969.294681	-1198.855000	1758.318359	46.501625
29969.294681	-1198.855000	1757.308594	-50.270546
29969.294681	-1198.855000	1756.299805	28.170185
29969.294681	-1198.855000	1755.290039	68.705757
29969.294681	-1198.855000	1754.279297	38.228775
29969.294681	-1198.855000	1753.269531	-56.119648
29969.294681	-1198.855000	1752.258789	48.262627
29969.294681	-1198.855000	1751.249023	22.525753
29969.294681	-1198.855000	1750.238281	-31.581656
29969.294681	-1198.855000	1749.226563	56.173592
29969.294681	-1198.855000	1748.215820	20.981482
29969.294681	-1198.855000	1747.204102	9.429713
29969.294681	-1198.855000	1746.193359	75.851349
29969.294681	-1198.855000	1745.181641	118.619247
29969.294681	-1198.855000	1744.168945	95.232719
29969.294681	-1198.855000	1743.157227	45.877392
29969.294681	-1198.855000	1742.144531	76.808914
29969.294681	-1198.855000	1741.132813	-19.742149
29969.294681	-1198.855000	1740.120117	98.505470
29969.294681	-1198.855000	1739.106445	1.977138
29969.294681	-1198.855000	1738.093750	136.682724
29969.294681	-1198.855000	1737.080078	0.078775
29969.294681	-1198.855000	1736.067383	26.246000
29969.294681	-1198.855000	1735.053711	7.599932
29969.294681	-1198.855000	1734.040039	-11.042437
29969.294681	-1198.855000	1733.025391	-29.682047
29969.294681	-1198.855000	1732.011719	95.428566
29969.294681	-1198.855000	1730.997070	39.073090
29969.294681	-1198.855000	1729.982422	-29.041573
29969.294681	-1198.855000	1728.967773	18.268005
29969.294681	-1198.855000	1727.952148	-33.340916
29969.294681	-1198.855000	1726.937500	-42.555420
29969.294681	-1198.855000	1725.921875	0.012664
29969.294681	-1198.855000	1724.906250	-20.977842
29969.294681	-1198.855000	1723.890625	-27.845705
29969.294681	-1198.855000	1722.875000	-11.188733
29969.294681	-1198.855000	1721.858398	-72.157051
29969.294681	-1198.855000	1720.841797	-3.770770
29969.294681	-1198.855000	1719.825195	38.725563
29969.294681	-1198.855000	1718.808594	-41.028557
29969.294681	-1198.855000	1717.791992	-19.696611
29969.294681	-1198.855000	1716.774414	27.470695
29969.294681	-1198.855000	1715.756836	4.140025
29969.294681	-1198.855000	1714.739258	-14.485895
29969.294681	-1198.855000	1713.721680	-11.970688
29969.294681	-1198.855000	1712.704102	6.977735
29969.294681	-1198.855000	1711.685547	-4.601290
29969.294681	-1198.855000	1710.667969	-88.933365
29969.294681	-1198.855000	1709.649414	35.609417
29969.294681	-1198.855000	1708.630859	-11.163708
29969.294681	-1198.855000	1707.611328	14.794419
29969.294681	-1198.855000	1706.592773	113.445213
29969.294681	-1198.855000	1705.573242	-125.591232
29969.294681	-1198.855000	1704.553711	99.639099
29969.294681	-1198.855000	1703.534180	-38.517731
29969.294681	-1198.855000	1702.513672	-66.482590
29969.294681	-1198.855000	1701.494141	74.258446
29969.294681	-1198.855000	1700.473633	34.569595
29969.294681	-1198.855000	1699.453125	-61.314098
29969.294681	-1198.855000	1698.432617	-28.371532
29969.294681	-1198.855000	1697.412109	-28.218073
29969.294681	-1198.855000	1696.390625	65.563072
29969.294681	-1198.855000	1695.369141	18.892006
29969.294681	-1198.855000	1694.347656	-37.119843
29969.294681	-1198.855000	1693.326172	-67.376648
29969.294681	-1198.855000	1692.304688	45.053333
29969.294681	-1198.855000	1691.282227	-10.930911
29969.294681	-1198.855000	1690.260742	-76.243217
29969.294681	-1198.855000	1689.238281	75.863487
29969.294681	-1198.855000	1688.214844	26.918625
29969.294681	-1198.855000	1687.192383	-10.321489
29969.294681	-1198.855000	1686.168945	36.556984
29969.294681	-1198.855000	1685.146484	64.733940
29969.294681	-1198.855000	1684.123047	144.277512
29969.294681	-1198.855000	1683.099609	188.768936
29969.294681	-1198.855000	1682.075195	172.548370
29969.294681	-1198.855000	1681.051758	163.339645
29969.294681	-1198.855000	1680.027344	151.801254
29969.294681	-1198.855000	1679.002930	168.266357
29969.294681	-1198.855000	1677.978516	114.748741
29969.294681	-1198.855000	1676.953125	117.224831
29969.294681	-1198.855000	1675.928711	171.002167
29969.294681	-1198.855000	1674.903320	217.766113
29969.294681	-1198.855000	1673.877930	159.627441
29969.294681	-1198.855000	1672.852539	150.451950
29969.294681	-1198.855000	1671.826172	1.485398
29969.294681	-1198.855000	1670.800781	76.211784
29969.294681	-1198.855000	1669.774414	-5.134389
29969.294681	-1198.855000	1668.748047	123.127174
29969.294681	-1198.855000	1667.721680	127.951180
29969.294681	-1198.855000	1666.694336	114.154182
29969.294681	-1198.855000	1665.667969	56.150330
29969.294681	-1198.855000	1664.640625	56.340904
29969.294681	-1198.855000	1663.613281	203.095154
29969.294681	-1198.855000	1662.585938	173.028931
29969.294681	-1198.855000	1661.557617	122.048134
29969.294681	-1198.855000	1660.530273	191.992432
29969.294681	-1198.855000	1659.501953	152.659393
29969.294681	-1198.855000	1658.473633	183.068863
29969.294681	-1198.855000	1657.444336	157.702713
29969.294681	-1198.855000	1656.416016	76.595627
29969.294681	-1198.855000	1655.386719	111.661179
29969.294681	-1198.855000	1654.358398	146.719666
29969.294681	-1198.855000	1653.328125	160.870316
29969.294681	-1198.855000	1652.298828	79.844948
29969.294681	-1198.855000	1651.269531	210.062958
29969.294681	-1198.855000	1650.239258	80.338776
29969.294681	-1198.855000	1649.208984	106.114075
29969.294681	-1198.855000	1648.178711	11.265689
29969.294681	-1198.855000	1647.148438	157.652390
29969.294681	-1198.855000	1646.117188	218.195053
29969.294681	-1198.855000	1645.086914	148.899445
29969.294681	-1198.855000	1644.055664	116.720749
29969.294681	-1198.855000	1643.024414	144.812286
29969.294681	-1198.855000	1641.992188	258.623810
29969.294681	-1198.855000	1640.960938	212.563812
29969.294681	-1198.855000	1639.928711	157.262848
29969.294681	-1198.855000	1638.896484	143.670609
29969.294681	-1198.855000	1637.864258	97.679276
29969.294681	-1198.855000	1636.832031	176.705002
29969.294681	-1198.855000	1635.798828	149.251999
29969.294681	-1198.855000	1634.766602	80.170830
29969.294681	-1198.855000	1633.733398	196.188080
29969.294681	-1198.855000	1632.699219	171.081970
29969.294681	-1198.855000	1631.666016	321.738647
29969.294681	-1198.855000	1630.632813	141.732925
29969.294681	-1198.855000	1629.598633	114.364212
29969.294681	-1198.855000	1628.564453	177.146561
29969.294681	-1198.855000	1627.530273	179.836411
29969.294681	-1198.855000	1626.495117	302.661713
29969.294681	-1198.855000	1625.460938	323.821014
29969.294681	-1198.855000	1624.425781	224.897018
29969.294681	-1198.855000	1623.390625	391.536011
29969.294681	-1198.855000	1622.355469	271.879486
29969.294681	-1198.855000	1621.319336	281.521881
29969.294681	-1198.855000	1620.284180	392.700165
29969.294681	-1198.855000	1619.248047	333.122437
29969.294681	-1198.855000	1618.211914	430.425415
29969.294681	-1198.855000	1617.174805	465.433044
29969.294681	-1198.855000	1616.138672	396.681854
29969.294681	-1198.855000	1615.101563	325.660950
29969.294681	-1198.855000	1614.065430	289.250305
29969.294681	-1198.855000	1613.027344	305.861328
29969.294681	-1198.855000	1611.990234	338.604523
29969.294681	-1198.855000	1610.953125	283.814148
29969.294681	-1198.855000	1609.915039	330.386261
29969.294681	-1198.855000	1608.876953	259.520447
29969.294681	-1198.855000	1607.838867	218.620407
29969.294681	-1198.855000	1606.800781	292.829041
29969.294681	-1198.855000	1605.761719	291.079071
29969.294681	-1198.855000	1604.723633	335.356476
29969.294681	-1198.855000	1603.684570	294.515320
29969.294681	-1198.855000	1602.644531	364.093323
29969.294681	-1198.855000	1601.605469	337.081055
29969.294681	-1198.855000	1600.566406	349.172943
29969.294681	-1198.855000	1599.526367	386.554199
29969.294681	-1198.855000	1598.486328	269.961914
29969.294681	-1198.855000	1597.446289	220.057602
29969.294681	-1198.855000	1596.405273	312.607758
29969.294681	-1198.855000	1595.365234	288.001740
29969.294681	-1198.855000	1594.324219	398.896301
29969.294681	-1198.855000	1593.283203	388.080750
29969.294681	-1198.855000	1592.242188	296.943604
29969.294681	-1198.855000	1591.200195	322.894531
29969.294681	-1198.855000	1590.159180	403.915466
29969.294681	-1198.855000	1589.117188	475.740021
29969.294681	-1198.855000	1588.075195	331.953033
29969.294681	-1198.855000	1587.032227	435.891479
29969.294681	-1198.855000	1585.990234	415.998169
29969.294681	-1198.855000	1584.947266	391.539948
29969.294681	-1198.855000	1583.904297	428.982239
29969.294681	-1198.855000	1582.861328	367.895233
29969.294681	-1198.855000	1581.818359	446.589050
29969.294681	-1198.855000	1580.775391	344.320618
29969.294681	-1198.855000	1579.731445	354.314148
29969.294681	-1198.855000	1578.687500	295.630463
29969.294681	-1198.855000	1577.643555	388.063385
29969.294681	-1198.855000	1576.598633	295.092529
29969.294681	-1198.855000	1575.554688	376.074799
29969.294681	-1198.855000	1574.509766	157.343613
29969.294681	-1198.855000	1573.464844	272.657288
29969.294681	-1198.855000	1572.419922	413.094543
29969.294681	-1198.855000	1571.374023	253.971451
29969.294681	-1198.855000	1570.329102	291.517059
29969.294681	-1198.855000	1569.283203	164.504959
29969.294681	-1198.855000	1568.237305	208.935776
29969.294681	-1198.855000	1567.191406	223.663330
29969.294681	-1198.855000	1566.144531	197.283829
29969.294681	-1198.855000	1565.098633	218.887283
29969.294681	-1198.855000	1564.051758	165.148224
29969.294681	-1198.855000	1563.004883	205.040146
29969.294681	-1198.855000	1561.957031	89.729385
29969.294681	-1198.855000	1560.910156	120.521385
29969.294681	-1198.855000	1559.862305	133.063705
29969.294681	-1198.855000	1558.814453	214.046082
29969.294681	-1198.855000	1557.766602	142.213196
29969.294681	-1198.855000	1556.718750	72.703033
29969.294681	-1198.855000	1555.669922	160.532333
29969.294681	-1198.855000	1554.621094	88.796059
29969.294681	-1198.855000	1553.573242	62.678673
29969.294681	-1198.855000	1552.523438	111.770706
29969.294681	-1198.855000	1551.474609	90.244423
29969.294681	-1198.855000	1550.424805	253.213684
29969.294681	-1198.855000	1549.375000	92.801445
29969.294681	-1198.855000	1548.325195	48.570957
29969.294681	-1198.855000	1547.275391	45.342823
29969.294681	-1198.855000	1546.225586	39.855602
29969.294681	-1198.855000	1545.174805	170.897171
29969.294681	-1198.855000	1544.124023	74.427567
29969.294681	-1198.855000	1543.073242	80.355003
29969.294681	-1198.855000	1542.022461	170.427811
29969.294681	-1198.855000	1540.970703	-0.960858
29969.294681	-1198.855000	1539.919922	-4.067670
29969.294681	-1198.855000	1538.868164	-27.610479
29969.294681	-1198.855000	1537.815430	19.305311
29969.294681	-1198.855000	1536.763672	79.847748
29969.294681	-1198.855000	1535.710938	76.789536
29969.294681	-1198.855000	1534.659180	162.305969
29969.294681	-1198.855000	1533.606445	63.912762
29969.294681	-1198.855000	1532.552734	90.413902
29969.294681	-1198.855000	1531.500000	80.610840
29969.294681	-1198.855000	1530.446289	25.448538
29969.294681	-1198.855000	1529.393555	147.264984
29969.294681	-1198.855000	1528.338867	235.028641
29969.294681	-1198.855000	1527.285156	93.748383
29969.294681	-1198.855000	1526.231445	127.108749
29969.294681	-1198.855000	1525.176758	133.271423
29969.294681	-1198.855000	1524.122070	164.376297
29969.294681	-1198.855000	1523.067383	77.664093
29969.294681	-1198.855000	1522.012695	106.534233
29969.294681	-1198.855000	1520.957031	108.230484
29969.294681	-1198.855000	1519.901367	198.255203
29969.294681	-1198.855000	1518.845703	104.876724
29969.294681	-1198.855000	1517.790039	122.465149
29969.294681	-1198.855000	1516.734375	26.907448
29969.294681	-1198.855000	1515.677734	101.102959
29969.294681	-1198.855000	1514.621094	120.991966
29969.294681	-1198.855000	1513.564453	36.848640
29969.294681	-1198.855000	1512.507813	68.081169
29969.294681	-1198.855000	1511.450195	99.317963
29969.294681	-1198.855000	1510.393555	40.141560
29969.294681	-1198.855000	1509.335938	-16.735159
29969.294681	-1198.855000	1508.278320	125.264221
29969.294681	-1198.855000	1507.219727	122.643402
29969.294681	-1198.855000	1506.162109	13.884462
29969.294681	-1198.855000	1505.103516	58.740429
29969.294681	-1198.855000	1504.044922	60.698059
29969.294681	-1198.855000	1502.986328	119.102783
29969.294681	-1198.855000	1501.926758	51.118542
29969.294681	-1198.855000	1500.868164	102.765091
29969.294681	-1198.855000	1499.808594	-8.019341
29969.294681	-1198.855000	1498.749023	52.672821
29969.294681	-1198.855000	1497.688477	18.645939
29969.294681	-1198.855000	1496.628906	34.249237
29969.294681	-1198.855000	1495.568359	-17.761551
29969.294681	-1198.855000	1494.507813	-22.408121
29969.294681	-1198.855000	1493.447266	-31.543287
29969.294681	-1198.855000	1492.386719	53.958656
29969.294681	-1198.855000	1491.325195	-29.483349
29969.294681	-1198.855000	1490.263672	-106.120308
29969.294681	-1198.855000	1489.202148	-180.459335
29969.294681	-1198.855000	1488.140625	44.630882
29969.294681	-1198.855000	1487.079102	67.097084
29969.294681	-1198.855000	1486.016602	141.323380
29969.294681	-1198.855000	1484.954102	94.054276
29969.294681	-1198.855000	1483.891602	28.825867
29969.294681	-1198.855000	1482.829102	-11.623843
29969.294681	-1198.855000	1481.765625	-7.074035
29969.294681	-1198.855000	1480.702148	87.400658
29969.294681	-1198.855000	1479.638672	-60.851673
29969.294681	-1198.855000	1478.575195	4.429436
29969.294681	-1198.855000	1477.511719	98.881386
29969.294681	-1198.855000	1476.447266	58.575165
29969.294681	-1198.855000	1475.382813	99.113052
29969.294681	-1198.855000	1474.318359	43.163715
29969.294681	-1198.855000	1473.253906	36.555218
29969.294681	-1198.855000	1472.189453	77.137360
29969.294681	-1198.855000	1471.124023	95.290527
29969.294681	-1198.855000	1470.058594	158.347885
29969.294681	-1198.855000	1468.993164	3.814018
29969.294681	-1198.855000	1467.927734	131.829498
29969.294681	-1198.855000	1466.861328	190.425613
29969.294681	-1198.855000	1465.794922	161.562210
29969.294681	-1198.855000	1464.728516	161.783401
29969.294681	-1198.855000	1463.662109	124.016129
29969.294681	-1198.855000	1462.594727	131.149918
29969.294681	-1198.855000	1461.528320	227.652618
29969.294681	-1198.855000	1460.460938	263.806061
29969.294681	-1198.855000	1459.393555	208.106781
29969.294681	-1198.855000	1458.326172	159.323792
29969.294681	-1198.855000	1457.257813	173.088593
29969.294681	-1198.855000	1456.189453	269.655334
29969.294681	-1198.855000	1455.121094	211.730698
29969.294681	-1198.855000	1454.052734	216.901794
29969.294681	-1198.855000	1452.984375	135.038651
29969.294681	-1198.855000	1451.915039	177.394943
29969.294681	-1198.855000	1450.845703	86.909042
29969.294681	-1198.855000	1449.776367	158.753220
29969.294681	-1198.855000	1448.707031	219.185471
29969.294681	-1198.855000	1447.636719	219.339615
29969.294681	-1198.855000	1446.567383	186.861618
29969.294681	-1198.855000	1445.497070	238.345871
29969.294681	-1198.855000	1444.425781	254.194427
29969.294681	-1198.855000	1443.355469	192.773376
29969.294681	-1198.855000	1442.285156	227.103790
29969.294681	-1198.855000	1441.213867	229.810532
29969.294681	-1198.855000	1440.142578	203.878693
29969.294681	-1198.855000	1439.070313	264.228333
29969.294681	-1198.855000	1437.999023	103.663391
29969.294681	-1198.855000	1436.926758	245.192062
29969.294681	-1198.855000	1435.854492	247.631653
29969.294681	-1198.855000	1434.782227	206.189590
29969.294681	-1198.855000	1433.709961	190.087021
29969.294681	-1198.855000	1432.636719	202.603882
29969.294681	-1198.855000	1431.563477	178.714462
29969.294681	-1198.855000	1430.490234	231.001175
29969.294681	-1198.855000	1429.416992	182.851166
29969.294681	-1198.855000	1428.343750	162.603439
29969.294681	-1198.855000	1427.269531	181.637878
29969.294681	-1198.855000	1426.195313	134.865479
29969.294681	-1198.855000	1425.121094	230.306870
29969.294681	-1198.855000	1424.046875	292.106262
29969.294681	-1198.855000	1422.971680	138.759293
29969.294681	-1198.855000	1421.896484	257.325104
29969.294681	-1198.855000	1420.821289	128.246704
29969.294681	-1198.855000	1419.746094	211.329178
29969.294681	-1198.855000	1418.669922	215.090195
29969.294681	-1198.855000	1417.594727	280.893036
29969.294681	-1198.855000	1416.518555	248.553467
29969.294681	-1198.855000	1415.442383	233.301163
29969.294681	-1198.855000	1414.365234	131.614273
29969.294681	-1198.855000	1413.289063	265.275452
29969.294681	-1198.855000	1412.211914	214.148148
29969.294681	-1198.855000	1411.134766	115.263474
29969.294681	-1198.855000	1410.057617	146.653824
29969.294681	-1198.855000	1408.979492	28.007854
29969.294681	-1198.855000	1407.902344	118.971405
29969.294681	-1198.855000	1406.824219	71.589851
29969.294681	-1198.855000	1405.746094	-21.592260
29969.294681	-1198.855000	1404.666992	-70.444588
29969.294681	-1198.855000	1403.588867	79.529709
29969.294681	-1198.855000	1402.509766	35.388527
29969.294681	-1198.855000	1401.430664	34.899277
29969.294681	-1198.855000	1400.351563	-1.486486
29969.294681	-1198.855000	1399.271484	-84.754097
29969.294681	-1198.855000	1398.192383	-39.721279
29969.294681	-1198.855000	1397.112305	13.508109
29969.294681	-1198.855000	1396.031250	40.572659
29969.294681	-1198.855000	1394.951172	-46.002625
29969.294681	-1198.855000	1393.871094	-23.721128
29969.294681	-1198.855000	1392.790039	16.259003
29969.294681	-1198.855000	1391.708984	-2.097157
29969.294681	-1198.855000	1390.626953	84.394798
29969.294681	-1198.855000	1389.545898	61.886982
29969.294681	-1198.855000	1388.463867	115.242706
29969.294681	-1198.855000	1387.381836	-42.187500
29969.294681	-1198.855000	1386.299805	77.087967
29969.294681	-1198.855000	1385.217773	100.762337
29969.294681	-1198.855000	1384.134766	55.489319
29969.294681	-1198.855000	1383.051758	101.865257
29969.294681	-1198.855000	1381.968750	55.562885
29969.294681	-1198.855000	1380.885742	54.454174
29969.294681	-1198.855000	1379.802734	137.820999
29969.294681	-1198.855000	1378.718750	87.767014
29969.294681	-1198.855000	1377.634766	116.023079
29969.294681	-1198.855000	1376.550781	90.065147
29969.294681	-1198.855000	1375.465820	142.668289
29969.294681	-1198.855000	1374.381836	104.119682
29969.294681	-1198.855000	1373.296875	81.472771
29969.294681	-1198.855000	1372.211914	96.778175
29969.294681	-1198.855000	1371.126953	97.160545
29969.294681	-1198.855000	1370.041016	175.264374
29969.294681	-1198.855000	1368.955078	118.801895
29969.294681	-1198.855000	1367.869141	198.257111
29969.294681	-1198.855000	1366.783203	80.486374
29969.294681	-1198.855000	1365.697266	115.915092
29969.294681	-1198.855000	1364.610352	114.711250
29969.294681	-1198.855000	1363.523438	214.631210
29969.294681	-1198.855000	1362.436523	126.863106
29969.294681	-1198.855000	1361.349609	127.385818
29969.294681	-1198.855000	1360.261719	203.377609
29969.294681	-1198.855000	1359.174805	149.458206
29969.294681	-1198.855000	1358.086914	275.365814
29969.294681	-1198.855000	1356.998047	175.246796
29969.294681	-1198.855000	1355.910156	127.596146
29969.294681	-1198.855000	1354.821289	230.350555
29969.294681	-1198.855000	1353.732422	151.116470
29969.294681	-1198.855000	1352.643555	166.957718
29969.294681	-1198.855000	1351.554688	203.709167
29969.294681	-1198.855000	1350.464844	143.357452
29969.294681	-1198.855000	1349.375000	265.338318
29969.294681	-1198.855000	1348.285156	234.474686
29969.294681	-1198.855000	1347.195313	333.304962
29969.294681	-1198.855000	1346.105469	370.913300
29969.294681	-1198.855000	1345.014648	258.112549
29969.294681	-1198.855000	1343.923828	160.859879
29969.294681	-1198.855000	1342.833008	449.512634
29969.294681	-1198.855000	1341.741211	300.334076
29969.294681	-1198.855000	1340.650391	404.389862
29969.294681	-1198.855000	1339.558594	387.883911
29969.294681	-1198.855000	1338.466797	454.306366
29969.294681	-1198.855000	1337.374023	395.811920
29969.294681	-1198.855000	1336.282227	314.012756
29969.294681	-1198.855000	1335.189453	339.698578
29969.294681	-1198.855000	1334.096680	434.699371
29969.294681	-1198.855000	1333.003906	518.331360
29969.294681	-1198.855000	1331.910156	462.238831
29969.294681	-1198.855000	1330.817383	355.486023
29969.294681	-1198.855000	1329.723633	417.007233
29969.294681	-1198.855000	1328.629883	363.522064
29969.294681	-1198.855000	1327.535156	282.046783
29969.294681	-1198.855000	1326.441406	363.934021
29969.294681	-1198.855000	1325.346680	322.677582
29969.294681	-1198.855000	1324.251953	292.419739
29969.294681	-1198.855000	1323.156250	225.305374
29969.294681	-1198.855000	1322.061523	385.271851
29969.294681	-1198.855000	1320.965820	318.610901
29969.294681	-1198.855000	1319.870117	177.246155
29969.294681	-1198.855000	1318.774414	252.921951
29969.294681	-1198.855000	1317.678711	226.797821
29969.294681	-1198.855000	1316.582031	218.847351
29969.294681	-1198.855000	1315.485352	228.846268
29969.294681	-1198.855000	1314.388672	177.922638
29969.294681	-1198.855000	1313.291016	165.050537
29969.294681	-1198.855000	1312.194336	217.253220
29969.294681	-1198.855000	1311.096680	125.208145
29969.294681	-1198.855000	1309.999023	104.320457
29969.294681	-1198.855000	1308.901367	144.759720
29969.294681	-1198.855000	1307.802734	137.145035
29969.294681	-1198.855000	1306.705078	28.421520
29969.294681	-1198.855000	1305.606445	70.578667
29969.294681	-1198.855000	1304.506836	17.894695
29969.294681	-1198.855000	1303.408203	11.440465
29969.294681	-1198.855000	1302.308594	-75.741547
29969.294681	-1198.855000	1301.208984	12.675175
29969.294681	-1198.855000	1300.109375	70.813339
29969.294681	-1198.855000	1299.009766	91.421867
29969.294681	-1198.855000	1297.909180	44.466049
29969.294681	-1198.855000	1296.808594	27.536562
29969.294681	-1198.855000	1295.708008	11.018565
29969.294681	-1198.855000	1294.607422	-2.128318
29969.294681	-1198.855000	1293.506836	9.449823
29969.294681	-1198.855000	1292.405273	-4.397199
29969.294681	-1198.855000	1291.303711	-28.554293
29969.294681	-1198.855000	1290.202148	40.534111
29969.294681	-1198.855000	1289.099609	18.029112
29969.294681	-1198.855000	1287.998047	29.203220
29969.294681	-1198.855000	1286.895508	40.860889
29969.294681	-1198.855000	1285.792969	-32.571259
29969.294681	-1198.855000	1284.689453	-48.469734
29969.294681	-1198.855000	1283.586914	-26.510983
29969.294681	-1198.855000	1282.483398	91.983223
29969.294681	-1198.855000	1281.379883	37.676319
29969.294681	-1198.855000	1280.276367	-2.795299
29969.294681	-1198.855000	1279.171875	-17.952671
29969.294681	-1198.855000	1278.067383	-35.784939
29969.294681	-1198.855000	1276.962891	-18.216503
29969.294681	-1198.855000	1275.858398	-46.517223
29969.294681	-1198.855000	1274.753906	-10.168865
29969.294681	-1198.855000	1273.648438	-73.247406
29969.294681	-1198.855000	1272.542969	8.128630
29969.294681	-1198.855000	1271.437500	-1.427559
29969.294681	-1198.855000	1270.331055	-120.513184
29969.294681	-1198.855000	1269.225586	-48.024632
29969.294681	-1198.855000	1268.119141	-6.155278
29969.294681	-1198.855000	1267.012695	-29.299759
29969.294681	-1198.855000	1265.906250	-19.579733
29969.294681	-1198.855000	1264.798828	-23.495499
29969.294681	-1198.855000	1263.691406	-49.016151
29969.294681	-1198.855000	1262.583984	75.273521
29969.294681	-1198.855000	1261.476563	90.054848
29969.294681	-1198.855000	1260.368164	22.468138
29969.294681	-1198.855000	1259.260742	80.373650
29969.294681	-1198.855000	1258.152344	57.845074
29969.294681	-1198.855000	1257.043945	125.687248
29969.294681	-1198.855000	1255.934570	62.549770
29969.294681	-1198.855000	1254.825195	63.099804
29969.294681	-1198.855000	1253.716797	59.047974
29969.294681	-1198.855000	1252.606445	145.730881
29969.294681	-1198.855000	1251.497070	169.368179
29969.294681	-1198.855000	1250.387695	60.403419
29969.294681	-1198.855000	1249.277344	112.083351
29969.294681	-1198.855000	1248.166992	102.124947
29969.294681	-1198.855000	1247.055664	28.810614
29969.294681	-1198.855000	1245.945313	-58.404121
29969.294681	-1198.855000	1244.833984	-31.382391
29969.294681	-1198.855000	1243.722656	72.028839
29969.294681	-1198.855000	1242.611328	14.243813
29969.294681	-1198.855000	1241.499023	13.286612
29969.294681	-1198.855000	1240.387695	68.025650
29969.294681	-1198.855000	1239.275391	31.842154
29969.294681	-1198.855000	1238.162109	70.564171
29969.294681	-1198.855000	1237.049805	11.202242
29969.294681	-1198.855000	1235.936523	-45.765759
29969.294681	-1198.855000	1234.823242	-24.622065
29969.294681	-1198.855000	1233.709961	61.458954
29969.294681	-1198.855000	1232.596680	41.360554
29969.294681	-1198.855000	1231.482422	6.790861
29969.294681	-1198.855000	1230.369141	46.700645
29969.294681	-1198.855000	1229.253906	7.648726
29969.294681	-1198.855000	1228.139648	0.250015
29969.294681	-1198.855000	1227.025391	1.575194
29969.294681	-1198.855000	1225.910156	-96.640030
29969.294681	-1198.855000	1224.794922	-42.620228
29969.294681	-1198.855000	1223.679688	6.830598
29969.294681	-1198.855000	1222.563477	-10.079931
29969.294681	-1198.855000	1221.447266	8.072305
29969.294681	-1198.855000	1220.331055	-14.680020
29969.294681	-1198.855000	1219.214844	-51.708286
29969.294681	-1198.855000	1218.098633	-51.560627
29969.294681	-1198.855000	1216.981445	-10.515274
29969.294681	-1198.855000	1215.864258	25.411240
29969.294681	-1198.855000	1214.747070	-61.262081
29969.294681	-1198.855000	1213.629883	-33.025745
29969.294681	-1198.855000	1212.511719	-49.692432
29969.294681	-1198.855000	1211.393555	-41.803791
29969.294681	-1198.855000	1210.275391	50.886482
29969.294681	-1198.855000	1209.157227	45.234795
29969.294681	-1198.855000	1208.038086	-4.348632
29969.294681	-1198.855000	1206.918945	-64.538002
29969.294681	-1198.855000	1205.799805	-23.680277
29969.294681	-1198.855000	1204.680664	48.549229
29969.294681	-1198.855000	1203.560547	-8.207594
29969.294681	-1198.855000	1202.441406	-3.708740
29969.294681	-1198.855000	1201.321289	32.556404
29969.294681	-1198.855000	1200.200195	-6.620450
29969.294681	-1198.855000	1199.080078	28.010057
29969.294681	-1198.855000	1197.958984	-40.819317
29969.294681	-1198.855000	1196.837891	-63.563488
29969.294681	-1198.855000	1195.716797	-2.063300
29969.294681	-1198.855000	1194.594727	64.960312
29969.294681	-1198.855000	1193.473633	31.831476
29969.294681	-1198.855000	1192.351563	-8.718808
29969.294681	-1198.855000	1191.229492	7.325274
29969.294681	-1198.855000	1190.106445	-6.550684
29969.294681	-1198.855000	1188.984375	29.123966
29969.294681	-1198.855000	1187.861328	16.556269
29969.294681	-1198.855000	1186.738281	-17.970362
29969.294681	-1198.855000	1185.614258	-26.595104
29969.294681	-1198.855000	1184.491211	-1.498635
29969.294681	-1198.855000	1183.367188	58.570732
29969.294681	-1198.855000	1182.243164	14.567819
29969.294681	-1198.855000	1181.119141	55.613464
29969.294681	-1198.855000	1179.994141	0.671257
29969.294681	-1198.855000	1178.869141	-28.562998
29969.294681	-1198.855000	1177.744141	-31.767532
29969.294681	-1198.855000	1176.619141	55.485867
29969.294681	-1198.855000	1175.493164	50.890507
29969.294681	-1198.855000	1174.368164	76.630798
29969.294681	-1198.855000	1173.242188	14.524991
29969.294681	-1198.855000	1172.115234	64.017159
29969.294681	-1198.855000	1170.989258	-8.937750
29969.294681	-1198.855000	1169.862305	-9.646263
29969.294681	-1198.855000	1168.735352	60.533035
29969.294681	-1198.855000	1167.608398	43.405071
29969.294681	-1198.855000	1166.481445	13.246706
29969.294681	-1198.855000	1165.353516	-4.858174
29969.294681	-1198.855000	1164.225586	26.959412
29969.294681	-1198.855000	1163.097656	4.866457
29969.294681	-1198.855000	1161.968750	83.160217
29969.294681	-1198.855000	1160.840820	73.706635
29969.294681	-1198.855000	1159.711914	97.974228
29969.294681	-1198.855000	1158.583008	97.758049
29969.294681	-1198.855000	1157.453125	47.734470
29969.294681	-1198.855000	1156.324219	60.031937
29969.294681	-1198.855000	1155.194336	54.601845
29969.294681	-1198.855000	1154.064453	16.403070
29969.294681	-1198.855000	1152.933594	13.927665
29969.294681	-1198.855000	1151.803711	32.475971
29969.294681	-1198.855000	1150.672852	95.231781
29969.294681	-1198.855000	1149.541992	-27.501766
29969.294681	-1198.855000	1148.411133	7.255804
29969.294681	-1198.855000	1147.279297	34.756531
29969.294681	-1198.855000	1146.147461	48.628757
29969.294681	-1198.855000	1145.015625	-32.844299
29969.294681	-1198.855000	1143.883789	68.047585
29969.294681	-1198.855000	1142.750977	88.615990
29969.294681	-1198.855000	1141.619141	41.878647
29969.294681	-1198.855000	1140.486328	111.981911
29969.294681	-1198.855000	1139.352539	93.791260
29969.294681	-1198.855000	1138.219727	73.025871
29969.294681	-1198.855000	1137.085938	224.878937
29969.294681	-1198.855000	1135.952148	208.467148
29969.294681	-1198.855000	1134.818359	241.695053
29969.294681	-1198.855000	1133.683594	193.086868
29969.294681	-1198.855000	1132.549805	162.773666
29969.294681	-1198.855000	1131.415039	186.515762
29969.294681	-1198.855000	1130.279297	183.347809
29969.294681	-1198.855000	1129.144531	130.773743
29969.294681	-1198.855000	1128.008789	108.022827
29969.294681	-1198.855000	1126.873047	103.977890
29969.294681	-1198.855000	1125.737305	89.897987
29969.294681	-1198.855000	1124.601563	44.379337
29969.294681	-1198.855000	1123.464844	85.716125
29969.294681	-1198.855000	1122.328125	36.951111
29969.294681	-1198.855000	1121.191406	92.469337
29969.294681	-1198.855000	1120.054688	20.226385
29969.294681	-1198.855000	1118.916992	54.594559
29969.294681	-1198.855000	1117.779297	16.325134
29969.294681	-1198.855000	1116.641602	-28.419994
29969.294681	-1198.855000	1115.503906	-38.769463
29969.294681	-1198.855000	1114.365234	-82.818527
29969.294681	-1198.855000	1113.226563	11.075236
29969.294681	-1198.855000	1112.087891	-0.888444
29969.294681	-1198.855000	1110.949219	54.730648
29969.294681	-1198.855000	1109.809570	47.643887
29969.294681	-1198.855000	1108.669922	55.982227
29969.294681	-1198.855000	1107.530273	-21.132467
29969.294681	-1198.855000	1106.390625	25.382837
29969.294681	-1198.855000	1105.250000	80.909172
29969.294681	-1198.855000	1104.109375	127.225716
29969.294681	-1198.855000	1102.968750	55.123760
29969.294681	-1198.855000	1101.828125	101.317200
29969.294681	-1198.855000	1100.686523	161.281540
29969.294681	-1198.855000	1099.544922	49.338684
29969.294681	-1198.855000	1098.403320	86.641754
29969.294681	-1198.855000	1097.261719	89.455429
29969.294681	-1198.855000	1096.120117	168.640335
29969.294681	-1198.855000	1094.977539	121.274498
29969.294681	-1198.855000	1093.834961	192.148102
29969.294681	-1198.855000	1092.691406	124.661697
29969.294681	-1198.855000	1091.548828	159.189606
29969.294681	-1198.855000	1090.405273	194.939835
29969.294681	-1198.855000	1089.261719	118.124214
29969.294681	-1198.855000	1088.118164	106.816277
29969.294681	-1198.855000	1086.973633	119.275902
29969.294681	-1198.855000	1085.829102	22.140005
29969.294681	-1198.855000	1084.684570	55.686443
29969.294681	-1198.855000	1083.540039	16.647432
29969.294681	-1198.855000	1082.395508	87.025452
29969.294681	-1198.855000	1081.250000	-52.955769
29969.294681	-1198.855000	1080.104492	14.774046
29969.294681	-1198.855000	1078.958984	11.286224
29969.294681	-1198.855000	1077.812500	68.727341
29969.294681	-1198.855000	1076.666016	98.216263
29969.294681	-1198.855000	1075.519531	9.636328
29969.294681	-1198.855000	1074.373047	93.504181
29969.294681	-1198.855000	1073.226563	96.120140
29969.294681	-1198.855000	1072.079102	77.389565
29969.294681	-1198.855000	1070.931641	3.489926
29969.294681	-1198.855000	1069.784180	61.342411
29969.294681	-1198.855000	1068.635742	0.068905
29969.294681	-1198.855000	1067.487305	71.639381
29969.294681	-1198.855000	1066.338867	48.645683
29969.294681	-1198.855000	1065.190430	113.316841
29969.294681	-1198.855000	1064.041992	97.610176
29969.294681	-1198.855000	1062.892578	65.097740
29969.294681	-1198.855000	1061.743164	-46.609100
29969.294681	-1198.855000	1060.593750	-9.838197
29969.294681	-1198.855000	1059.443359	-62.159580
29969.294681	-1198.855000	1058.292969	-0.276348
29969.294681	-1198.855000	1057.142578	16.732197
29969.294681	-1198.855000	1055.992188	-37.675907
29969.294681	-1198.855000	1054.841797	-48.372929
29969.294681	-1198.855000	1053.690430	24.052031
29969.294681	-1198.855000	1052.539063	-77.682961
29969.294681	-1198.855000	1051.387695	17.539080
29969.294681	-1198.855000	1050.235352	21.897604
29969.294681	-1198.855000	1049.083984	-107.746223
29969.294681	-1198.855000	1047.931641	-105.076981
29969.294681	-1198.855000	1046.778320	-8.860274
29969.294681	-1198.855000	1045.625977	-23.040337
29969.294681	-1198.855000	1044.472656	-84.953873
29969.294681	-1198.855000	1043.319336	-37.893051
29969.294681	-1198.855000	1042.166016	-46.081467
29969.294681	-1198.855000	1041.012695	28.216513
29969.294681	-1198.855000	1039.858398	-27.504259
29969.294681	-1198.855000	1038.704102	-23.269337
29969.294681	-1198.855000	1037.549805	1.286308
29969.294681	-1198.855000	1036.394531	23.189259
29969.294681	-1198.855000	1035.239258	65.551422
29969.294681	-1198.855000	1034.083984	104.660187
29969.294681	-1198.855000	1032.928711	-32.209522
29969.294681	-1198.855000	1031.773438	75.964554
29969.294681	-1198.855000	1030.617188	70.860603
29969.294681	-1198.855000	1029.460938	4.361781
29969.294681	-1198.855000	1028.304688	82.789398
29969.294681	-1198.855000	1027.147461	78.403191
29969.294681	-1198.855000	1025.991211	44.972126
29969.294681	-1198.855000	1024.833984	33.682854
29969.294681	-1198.855000	1023.675781	46.520264
29969.294681	-1198.855000	1022.518555	-32.750801
29969.294681	-1198.855000	1021.360352	0.717173
29969.294681	-1198.855000	1020.202148	-74.030289
29969.294681	-1198.855000	1019.043945	36.727554
29969.294681	-1198.855000	1017.884766	46.447174
29969.294681	-1198.855000	1016.726563	64.467163
29969.294681	-1198.855000	1015.567383	-8.974601
29969.294681	-1198.855000	1014.407227	10.971271
29969.294681	-1198.855000	1013.248047	-1.909354
29969.294681	-1198.855000	1012.087891	-35.962593
29969.294681	-1198.855000	1010.927734	-113.297211
29969.294681	-1198.855000	1009.767578	0.516756
29969.294681	-1198.855000	1008.606445	21.399143
29969.294681	-1198.855000	1007.446289	48.060154
29969.294681	-1198.855000	1006.285156	43.867027
29969.294681	-1198.855000	1005.123047	16.888142
29969.294681	-1198.855000	1003.961914	-6.165072
29969.294681	-1198.855000	1002.799805	-17.300386
29969.294681	-1198.855000	1001.637695	40.091221
29969.294681	-1198.855000	1000.475586	-55.653797
29969.294681	-1198.855000	999.312500	52.841408
29969.294681	-1198.855000	998.149414	15.804519
29969.294681	-1198.855000	996.986328	42.922325
29969.294681	-1198.855000	995.823242	-29.981668
29969.294681	-1198.855000	994.659180	-14.569433
29969.294681	-1198.855000	993.496094	42.044075
29969.294681	-1198.855000	992.332031	-4.670687
29969.294681	-1198.855000	991.166992	-26.221272
29969.294681	-1198.855000	990.002930	3.659701
29969.294681	-1198.855000	988.837891	-2.064403
29969.294681	-1198.855000	987.672852	18.705202
29969.294681	-1198.855000	986.506836	35.244026
29969.294681	-1198.855000	985.341797	-42.406616
29969.294681	-1198.855000	984.175781	-14.074146
29969.294681	-1198.855000	983.009766	-31.115824
29969.294681	-1198.855000	981.843750	32.983498
29969.294681	-1198.855000	980.676758	56.415337
29969.294681	-1198.855000	979.509766	35.486736
29969.294681	-1198.855000	978.342773	2.971145
29969.294681	-1198.855000	977.175781	-7.459548
29969.294681	-1198.855000	976.007813	4.227715
29969.294681	-1198.855000	974.839844	7.840227
29969.294681	-1198.855000	973.671875	30.693672
29969.294681	-1198.855000	972.503906	53.590549
29969.294681	-1198.855000	971.334961	53.374702
29969.294681	-1198.855000	970.166016	47.671543
29969.294681	-1198.855000	968.997070	97.364861
29969.294681	-1198.855000	967.828125	10.351155
29969.294681	-1198.855000	966.658203	57.265514
29969.294681	-1198.855000	965.488281	31.602009
29969.294681	-1198.855000	964.318359	5.680953
29969.294681	-1198.855000	963.148438	-65.082855
29969.294681	-1198.855000	961.977539	70.014038
29969.294681	-1198.855000	960.806641	70.643669
29969.294681	-1198.855000	959.635742	-21.617054
29969.294681	-1198.855000	958.463867	-2.958485
29969.294681	-1198.855000	957.292969	95.758644
29969.294681	-1198.855000	956.121094	45.563511
29969.294681	-1198.855000	954.948242	-27.990414
29969.294681	-1198.855000	953.776367	118.563293
29969.294681	-1198.855000	952.603516	-12.956643
29969.294681	-1198.855000	951.430664	-10.320309
29969.294681	-1198.855000	950.257813	46.522102
29969.294681	-1198.855000	949.084961	51.775658
29969.294681	-1198.855000	947.911133	49.840313
29969.294681	-1198.855000	946.737305	8.923529
29969.294681	-1198.855000	945.563477	-39.094090
29969.294681	-1198.855000	944.388672	-47.735691
29969.294681	-1198.855000	943.213867	-19.294550
29969.294681	-1198.855000	942.039063	0.204182
29969.294681	-1198.855000	940.864258	-3.787846
29969.294681	-1198.855000	939.688477	-26.201017
29969.294681	-1198.855000	938.513672	13.908658
29969.294681	-1198.855000	937.337891	-76.005127
29969.294681	-1198.855000	936.161133	6.117908
29969.294681	-1198.855000	934.985352	23.123621
29969.294681	-1198.855000	933.808594	-34.228645
29969.294681	-1198.855000	932.631836	61.675560
29969.294681	-1198.855000	931.454102	55.435131
29969.294681	-1198.855000	930.277344	32.951836
29969.294681	-1198.855000	929.099609	35.994282
29969.294681	-1198.855000	927.921875	43.652264
29969.294681	-1198.855000	926.743164	28.118176
29969.294681	-1198.855000	925.565430	-1.339261
29969.294681	-1198.855000	924.386719	64.343468
29969.294681	-1198.855000	923.208008	-50.938179
29969.294681	-1198.855000	922.028320	5.449100
29969.294681	-1198.855000	920.849609	40.942745
29969.294681	-1198.855000	919.669922	42.144329
29969.294681	-1198.855000	919.474609	-13.794259
29969.294681	-1198.855000	918.309570	17.036036
29969.294681	-1198.855000	917.143555	38.583790
29969.294681	-1198.855000	915.977539	92.557465
29969.294681	-1198.855000	914.810547	0.573255
29969.294681	-1198.855000	913.644531	-126.115707
29969.294681	-1198.855000	912.477539	1.949790
29969.294681	-1198.855000	911.310547	-29.774958
29969.294681	-1198.855000	910.143555	-26.770445
29969.294681	-1198.855000	908.975586	84.993576
29969.294681	-1198.855000	907.807617	-9.200950
29969.294681	-1198.855000	906.639648	51.621300
29969.294681	-1198.855000	905.471680	-17.092936
29969.294681	-1198.855000	904.303711	-30.288256
29969.294681	-1198.855000	903.134766	18.937151
29969.294681	-1198.855000	901.965820	91.252937
29969.294681	-1198.855000	900.796875	-23.636333
29969.294681	-1198.855000	899.626953	62.517090
29969.294681	-1198.855000	898.457031	30.831598
29969.294681	-1198.855000	897.287109	107.696800
29969.294681	-1198.855000	896.117188	57.539188
29969.294681	-1198.855000	894.947266	88.194412
29969.294681	-1198.855000	893.776367	58.829166
29969.294681	-1198.855000	892.605469	77.930489
29969.294681	-1198.855000	891.434570	-4.486995
29969.294681	-1198.855000	890.262695	-10.756371
29969.294681	-1198.855000	889.091797	24.482740
29969.294681	-1198.855000	887.919922	-32.518299
29969.294681	-1198.855000	886.748047	-11.124239
29969.294681	-1198.855000	885.575195	-12.787066
29969.294681	-1198.855000	884.403320	24.718359
29969.294681	-1198.855000	883.230469	119.799629
29969.294681	-1198.855000	882.057617	-1.666061
29969.294681	-1198.855000	880.883789	51.927158
29969.294681	-1198.855000	879.710938	52.541748
29969.294681	-1198.855000	878.537109	-27.410088
29969.294681	-1198.855000	877.362305	-82.016533
29969.294681	-1198.855000	876.188477	33.661945
29969.294681	-1198.855000	875.013672	-89.953194
29969.294681	-1198.855000	873.839844	-75.524460
29969.294681	-1198.855000	872.664063	-81.798195
29969.294681	-1198.855000	871.489258	-7.607977
29969.294681	-1198.855000	870.313477	-41.481831
29969.294681	-1198.855000	869.138672	-29.384737
29969.294681	-1198.855000	867.962891	134.346924
29969.294681	-1198.855000	866.786133	-23.589397
29969.294681	-1198.855000	865.610352	-27.588842
29969.294681	-1198.855000	864.433594	-47.662613
29969.294681	-1198.855000	863.256836	-60.844608
29969.294681	-1198.855000	862.079102	-9.756803
29969.294681	-1198.855000	860.902344	-25.243042
29969.294681	-1198.855000	859.724609	-17.782578
29969.294681	-1198.855000	858.546875	5.728156
29969.294681	-1198.855000	857.368164	29.226255
29969.294681	-1198.855000	856.190430	-0.026638
29969.294681	-1198.855000	855.011719	-20.100618
29969.294681	-1198.855000	853.833008	-51.630146
29969.294681	-1198.855000	852.654297	-2.948528
29969.294681	-1198.855000	851.474609	-23.020781
29969.294681	-1198.855000	850.294922	-72.865631
29969.294681	-1198.855000	849.115234	76.542252
29969.294681	-1198.855000	847.935547	97.666695
29969.294681	-1198.855000	846.754883	11.189873
29969.294681	-1198.855000	845.575195	36.887894
29969.294681	-1198.855000	844.393555	-86.159645
29969.294681	-1198.855000	843.212891	-76.474098
29969.294681	-1198.855000	842.032227	77.299805
29969.294681	-1198.855000	840.850586	9.189208
29969.294681	-1198.855000	839.668945	21.122915
29969.294681	-1198.855000	838.486328	44.477169
29969.294681	-1198.855000	837.304688	47.248104
29969.294681	-1198.855000	836.122070	13.455346
29969.294681	-1198.855000	834.939453	-52.310173
29969.294681	-1198.855000	833.756836	149.169754
29969.294681	-1198.855000	832.573242	-10.228634
29969.294681	-1198.855000	831.389648	-41.717140
29969.294681	-1198.855000	830.206055	40.929527
29969.294681	-1198.855000	829.022461	87.024063
29969.294681	-1198.855000	827.838867	7.605969
29969.294681	-1198.855000	826.654297	-37.566727
29969.294681	-1198.855000	825.469727	113.411163
29969.294681	-1198.855000	824.284180	52.264210
29969.294681	-1198.855000	823.099609	18.493046
29969.294681	-1198.855000	821.914063	123.765633
29969.294681	-1198.855000	820.728516	19.341162
29969.294681	-1198.855000	819.542969	-39.479385
29969.294681	-1198.855000	818.356445	56.613018
29969.294681	-1198.855000	817.169922	50.178127
29969.294681	-1198.855000	815.983398	41.463444
29969.294681	-1198.855000	814.796875	-49.205154
29969.294681	-1198.855000	813.609375	44.511616
29969.294681	-1198.855000	812.422852	-16.550325
29969.294681	-1198.855000	811.235352	-16.166466
29969.294681	-1198.855000	810.046875	-15.788286
29969.294681	-1198.855000	808.859375	45.983395
29969.294681	-1198.855000	807.670898	-1.409409
29969.294681	-1198.855000	806.482422	-23.784098
29969.294681	-1198.855000	805.293945	-64.337013
29969.294681	-1198.855000	804.104492	-57.162495
29969.294681	-1198.855000	802.915039	-2.290828
29969.294681	-1198.855000	801.725586	-6.501110
29969.294681	-1198.855000	800.536133	0.638006
29969.294681	-1198.855000	799.345703	-5.853837
29969.294681	-1198.855000	798.155273	30.778021
29969.294681	-1198.855000	796.964844	-48.350742
29969.294681	-1198.855000	795.774414	81.287163
29969.294681	-1198.855000	794.583008	-13.711240
29969.294681	-1198.855000	793.392578	104.512596
29969.294681	-1198.855000	792.200195	-29.011671
29969.294681	-1198.855000	791.008789	14.340993
29969.294681	-1198.855000	789.816406	73.535149
29969.294681	-1198.855000	788.625000	48.851768
29969.294681	-1198.855000	787.432617	71.750504
29969.294681	-1198.855000	786.239258	-32.215736
29969.294681	-1198.855000	785.046875	-4.794508
29969.294681	-1198.855000	783.853516	38.458187
29969.294681	-1198.855000	782.660156	36.410854
29969.294681	-1198.855000	781.465820	77.360161
29969.294681	-1198.855000	780.272461	66.239738
29969.294681	-1198.855000	779.078125	68.691299
29969.294681	-1198.855000	777.883789	89.229622
29969.294681	-1198.855000	776.688477	-34.977325
29969.294681	-1198.855000	775.494141	21.733652
29969.294681	-1198.855000	774.298828	-5.222845
29969.294681	-1198.855000	773.103516	-16.355694
29969.294681	-1198.855000	771.907227	10.920789
29969.294681	-1198.855000	770.711914	-88.329285
29969.294681	-1198.855000	769.515625	-33.961376
29969.294681	-1198.855000	768.318359	-33.818310
29969.294681	-1198.855000	767.122070	-35.940910
29969.294681	-1198.855000	765.924805	101.874649
29969.294681	-1198.855000	764.727539	41.035065
29969.294681	-1198.855000	763.530273	14.056419
29969.294681	-1198.855000	762.333008	20.917442
29969.294681	-1198.855000	761.134766	106.703766
29969.294681	-1198.855000	759.936523	79.704681
29969.294681	-1198.855000	758.738281	68.489494
29969.294681	-1198.855000	757.540039	95.586990
29969.294681	-1198.855000	756.340820	-95.916252
29969.294681	-1198.855000	755.141602	7.788632
29969.294681	-1198.855000	753.942383	1.070504
29969.294681	-1198.855000	752.742188	43.891666
29969.294681	-1198.855000	751.541992	3.379845
29969.294681	-1198.855000	750.341797	52.919296
29969.294681	-1198.855000	749.141602	37.162338
29969.294681	-1198.855000	747.941406	30.404362
29969.294681	-1198.855000	746.740234	52.886688
29969.294681	-1198.855000	745.539063	48.361111
29969.294681	-1198.855000	744.337891	73.062225
29969.294681	-1198.855000	743.135742	37.042130
29969.294681	-1198.855000	741.933594	90.940086
29969.294681	-1198.855000	740.731445	95.365952
29969.294681	-1198.855000	739.529297	113.262810
29969.294681	-1198.855000	738.326172	101.940804
29969.294681	-1198.855000	737.124023	149.008621
29969.294681	-1198.855000	735.919922	292.602722
29969.294681	-1198.855000	734.716797	290.204559
29969.294681	-1198.855000	733.513672	413.491211
29969.294681	-1198.855000	732.309570	395.343781
29969.294681	-1198.855000	731.105469	496.104279
29969.294681	-1198.855000	729.900391	464.471466
29969.294681	-1198.855000	728.696289	417.144470
29969.294681	-1198.855000	727.491211	463.999786
29969.294681	-1198.855000	726.286133	398.742035
29969.294681	-1198.855000	725.080078	420.910950
29969.294681	-1198.855000	723.874023	227.949661
29969.294681	-1198.855000	722.668945	138.113052
29969.294681	-1198.855000	721.461914	75.183815
29969.294681	-1198.855000	720.255859	54.819458
29969.294681	-1198.855000	719.048828	177.743088
29969.294681	-1198.855000	717.841797	38.713028
29969.294681	-1198.855000	716.634766	16.105259
29969.294681	-1198.855000	715.427734	-2.026496
29969.294681	-1198.855000	714.219727	-17.922518
29969.294681	-1198.855000	713.011719	26.565929
29969.294681	-1198.855000	711.803711	75.499405
29969.294681	-1198.855000	710.594727	28.273108
29969.294681	-1198.855000	709.385742	68.227936
29969.294681	-1198.855000	708.176758	36.648090
29969.294681	-1198.855000	706.967773	22.946672
29969.294681	-1198.855000	705.758789	27.111980
29969.294681	-1198.855000	704.548828	0.001591
29969.294681	-1198.855000	703.338867	-29.338966
29969.294681	-1198.855000	702.127930	-105.554077
29969.294681	-1198.855000	700.917969	-7.662040
29969.294681	-1198.855000	699.707031	41.090343
29969.294681	-1198.855000	698.496094	36.271824
29969.294681	-1198.855000	697.285156	64.903427
29969.294681	-1198.855000	696.073242	48.915195
29969.294681	-1198.855000	694.861328	-36.189274
29969.294681	-1198.855000	693.649414	23.620569
29969.294681	-1198.855000	692.436523	20.997410
29969.294681	-1198.855000	691.224609	49.560043
29969.294681	-1198.855000	690.011719	9.045933
29969.294681	-1198.855000	688.798828	-0.279080
29969.294681	-1198.855000	687.584961	26.018433
29969.294681	-1198.855000	686.372070	70.106636
29969.294681	-1198.855000	685.158203	65.201225
29969.294681	-1198.855000	683.943359	82.542694
29969.294681	-1198.855000	682.729492	162.163757
29969.294681	-1198.855000	681.514648	50.448772
29969.294681	-1198.855000	680.299805	56.638729
29969.294681	-1198.855000	679.084961	160.648239
29969.294681	-1198.855000	677.869141	100.107933
29969.294681	-1198.855000	676.653320	101.814499
29969.294681	-1198.855000	675.437500	99.068291
29969.294681	-1198.855000	674.221680	118.530975
29969.294681	-1198.855000	673.004883	109.103691
29969.294681	-1198.855000	671.789063	84.128357
29969.294681	-1198.855000	670.571289	105.778496
29969.294681	-1198.855000	669.354492	-16.866625
29969.294681	-1198.855000	668.136719	133.494476
29969.294681	-1198.855000	666.919922	50.817295
29969.294681	-1198.855000	665.701172	14.751106
29969.294681	-1198.855000	664.483398	56.315456
29969.294681	-1198.855000	663.264648	84.551033
29969.294681	-1198.855000	662.045898	110.550499
29969.294681	-1198.855000	660.827148	154.262894
29969.294681	-1198.855000	659.608398	109.312561
29969.294681	-1198.855000	658.388672	232.748764
29969.294681	-1198.855000	657.168945	174.496490
29969.294681	-1198.855000	655.949219	209.271851
29969.294681	-1198.855000	654.728516	175.389496
29969.294681	-1198.855000	653.507813	145.941910
29969.294681	-1198.855000	652.287109	103.221153
29969.294681	-1198.855000	651.066406	73.787590
29969.294681	-1198.855000	649.844727	130.634811
29969.294681	-1198.855000	648.623047	121.099937
29969.294681	-1198.855000	647.401367	146.942581
29969.294681	-1198.855000	646.179688	150.660110
29969.294681	-1198.855000	644.957031	176.472412
29969.294681	-1198.855000	643.734375	118.293320
29969.294681	-1198.855000	642.511719	183.858002
29969.294681	-1198.855000	641.289063	189.747833
29969.294681	-1198.855000	640.065430	113.916573
29969.294681	-1198.855000	638.841797	130.846420
29969.294681	-1198.855000	637.618164	48.425381
29969.294681	-1198.855000	636.393555	58.728798
29969.294681	-1198.855000	635.168945	51.369484
29969.294681	-1198.855000	633.944336	-55.267464
29969.294681	-1198.855000	632.719727	7.969889
29969.294681	-1198.855000	631.494141	38.096802
29969.294681	-1198.855000	630.269531	32.930428
29969.294681	-1198.855000	629.042969	100.500481
29969.294681	-1198.855000	627.817383	20.383869
29969.294681	-1198.855000	626.590820	76.901031
29969.294681	-1198.855000	625.365234	10.030056
29969.294681	-1198.855000	624.137695	26.872135
29969.294681	-1198.855000	622.911133	4.068190
29969.294681	-1198.855000	621.683594	56.117592
29969.294681	-1198.855000	620.456055	61.919590
29969.294681	-1198.855000	619.228516	10.501616
29969.294681	-1198.855000	618.000977	75.702629
29969.294681	-1198.855000	616.772461	165.066406
29969.294681	-1198.855000	615.543945	107.048111
29969.294681	-1198.855000	614.314453	38.056278
29969.294681	-1198.855000	613.085938	10.855177
29969.294681	-1198.855000	611.856445	117.720985
29969.294681	-1198.855000	610.626953	145.436768
29969.294681	-1198.855000	609.397461	-6.998120
29969.294681	-1198.855000	608.166992	9.742549
29969.294681	-1198.855000	606.936523	-6.465134
29969.294681	-1198.855000	605.706055	-70.968002
29969.294681	-1198.855000	604.474609	-54.235744
29969.294681	-1198.855000	603.244141	-61.652954
29969.294681	-1198.855000	602.012695	27.464205
29969.294681	-1198.855000	600.780273	-54.553864
29969.294681	-1198.855000	599.548828	-26.888138
29969.294681	-1198.855000	598.316406	-71.592583
29969.294681	-1198.855000	597.083984	-48.326012
29969.294681	-1198.855000	595.851563	1.227337
29969.294681	-1198.855000	594.618164	37.609234
29969.294681	-1198.855000	593.384766	-35.562756
29969.294681	-1198.855000	592.151367	-29.857647
29969.294681	-1198.855000	590.917969	-48.245331
29969.294681	-1198.855000	589.683594	-79.764130
29969.294681	-1198.855000	588.449219	20.058270
29969.294681	-1198.855000	587.214844	6.040047
29969.294681	-1198.855000	585.979492	-82.363716
29969.294681	-1198.855000	584.745117	-28.548311
29969.294681	-1198.855000	583.509766	36.176121
29969.294681	-1198.855000	582.273438	-15.014328
29969.294681	-1198.855000	581.038086	-123.022026
29969.294681	-1198.855000	579.801758	-18.985498
29969.294681	-1198.855000	578.565430	-102.914612
29969.294681	-1198.855000	577.329102	-44.808327
29969.294681	-1198.855000	576.091797	-47.886158
29969.294681	-1198.855000	574.854492	-40.045914
29969.294681	-1198.855000	573.617188	18.003475
29969.294681	-1198.855000	572.378906	3.994390
29969.294681	-1198.855000	571.141602	-31.833439
29969.294681	-1198.855000	569.903320	26.171465
29969.294681	-1198.855000	568.664063	47.066029
29969.294681	-1198.855000	567.425781	17.789438
29969.294681	-1198.855000	566.186523	19.049313
29969.294681	-1198.855000	564.947266	72.627029
29969.294681	-1198.855000	563.708008	86.948639
29969.294681	-1198.855000	562.467773	-57.808426
29969.294681	-1198.855000	561.227539	34.960686
29969.294681	-1198.855000	559.987305	47.098282
29969.294681	-1198.855000	558.747070	107.137581
29969.294681	-1198.855000	557.505859	25.631973
29969.294681	-1198.855000	556.264648	-77.607399
29969.294681	-1198.855000	555.023438	93.404572
29969.294681	-1198.855000	553.781250	90.278152
29969.294681	-1198.855000	552.539063	-32.491695
29969.294681	-1198.855000	551.296875	55.751526
29969.294681	-1198.855000	550.054688	-29.996588
29969.294681	-1198.855000	548.811523	3.856615
29969.294681	-1198.855000	547.569336	-34.030220
29969.294681	-1198.855000	546.325195	-56.692108
29969.294681	-1198.855000	545.082031	-31.549646
29969.294681	-1198.855000	543.837891	-12.936096
29969.294681	-1198.855000	542.593750	112.076836
29969.294681	-1198.855000	541.349609	89.396591
29969.294681	-1198.855000	540.105469	64.553871
29969.294681	-1198.855000	538.860352	41.889580
29969.294681	-1198.855000	537.615234	38.761196
29969.294681	-1198.855000	536.369141	70.340416
29969.294681	-1198.855000	535.124023	-4.367723
29969.294681	-1198.855000	533.877930	118.274178
29969.294681	-1198.855000	532.631836	37.079624
29969.294681	-1198.855000	531.384766	64.288643
29969.294681	-1198.855000	530.138672	39.476826
29969.294681	-1198.855000	528.891602	88.334015
29969.294681	-1198.855000	527.643555	87.348373
29969.294681	-1198.855000	526.396484	95.023468
29969.294681	-1198.855000	525.148438	111.352325
29969.294681	-1198.855000	523.900391	125.506821
29969.294681	-1198.855000	522.652344	74.727058
29969.294681	-1198.855000	521.403320	125.659737
29969.294681	-1198.855000	520.154297	122.486229
29969.294681	-1198.855000	518.905273	95.519859
29969.294681	-1198.855000	517.656250	44.776329
29969.294681	-1198.855000	516.406250	149.703323
29969.294681	-1198.855000	515.156250	62.218037
29969.294681	-1198.855000	513.906250	102.260712
29969.294681	-1198.855000	512.655273	-28.394838
29969.294681	-1198.855000	511.404297	18.120478
29969.294681	-1198.855000	510.153320	19.261030
29969.294681	-1198.855000	508.902344	67.895493
29969.294681	-1198.855000	507.650391	25.842073
29969.294681	-1198.855000	506.398438	39.912697
29969.294681	-1198.855000	505.146484	34.552670
29969.294681	-1198.855000	503.893555	57.232006
29969.294681	-1198.855000	502.641602	-2.060428
29969.294681	-1198.855000	501.388672	-48.396580
29969.294681	-1198.855000	500.134766	-47.292377
29969.294681	-1198.855000	498.881836	-0.933035
29969.294681	-1198.855000	497.627930	23.849678
29969.294681	-1198.855000	496.374023	-61.261745
29969.294681	-1198.855000	495.119141	10.893761
29969.294681	-1198.855000	493.865234	-24.664427
29969.294681	-1198.855000	492.610352	56.047020
29969.294681	-1198.855000	491.355469	46.306267
29969.294681	-1198.855000	490.099609	-15.090675
29969.294681	-1198.855000	488.843750	18.201000
29969.294681	-1198.855000	487.587891	-6.614275
29969.294681	-1198.855000	486.332031	5.132759
29969.294681	-1198.855000	485.075195	-62.696548
29969.294681	-1198.855000	483.818359	-29.468344
29969.294681	-1198.855000	482.561523	-34.954807
29969.294681	-1198.855000	481.304688	-55.493324
29969.294681	-1198.855000	480.046875	-20.178450
29969.294681	-1198.855000	478.789063	32.290894
29969.294681	-1198.855000	477.531250	-22.650501
29969.294681	-1198.855000	476.272461	-62.554295
29969.294681	-1198.855000	475.013672	24.190144
29969.294681	-1198.855000	473.754883	18.599352
29969.294681	-1198.855000	472.496094	73.072174
29969.294681	-1198.855000	471.236328	67.439171
29969.294681	-1198.855000	469.976563	111.119064
29969.294681	-1198.855000	468.716797	45.405670
29969.294681	-1198.855000	467.456055	50.445381
29969.294681	-1198.855000	466.196289	128.336563
29969.294681	-1198.855000	464.935547	21.888443
29969.294681	-1198.855000	463.673828	3.301957
29969.294681	-1198.855000	462.413086	57.528057
29969.294681	-1198.855000	461.151367	118.131683
29969.294681	-1198.855000	459.889648	65.213432
29969.294681	-1198.855000	458.626953	93.633308
29969.294681	-1198.855000	457.364258	98.475555
29969.294681	-1198.855000	456.101563	99.010628
29969.294681	-1198.855000	454.838867	146.580490
29969.294681	-1198.855000	453.575195	31.561625
29969.294681	-1198.855000	452.312500	-29.979155
29969.294681	-1198.855000	451.047852	26.052725
29969.294681	-1198.855000	449.784180	60.658371
29969.294681	-1198.855000	448.519531	-5.214064
29969.294681	-1198.855000	447.254883	127.592896
29969.294681	-1198.855000	445.990234	144.970657
29969.294681	-1198.855000	444.725586	143.088181
29969.294681	-1198.855000	443.459961	254.324982
29969.294681	-1198.855000	442.194336	68.779022
29969.294681	-1198.855000	440.927734	39.061897
29969.294681	-1198.855000	439.662109	201.344971
29969.294681	-1198.855000	438.395508	105.408081
29969.294681	-1198.855000	437.127930	84.114807
29969.294681	-1198.855000	435.861328	169.401749
29969.294681	-1198.855000	434.593750	214.104660
29969.294681	-1198.855000	433.326172	243.825653
29969.294681	-1198.855000	432.058594	162.685623
29969.294681	-1198.855000	430.790039	207.225449
29969.294681	-1198.855000	429.521484	215.489868
29969.294681	-1198.855000	428.252930	166.207153
29969.294681	-1198.855000	426.984375	142.443649
29969.294681	-1198.855000	425.714844	225.063950
29969.294681	-1198.855000	424.445313	250.138260
29969.294681	-1198.855000	423.174805	151.744904
29969.294681	-1198.855000	421.905273	234.147430
29969.294681	-1198.855000	420.634766	239.895340
29969.294681	-1198.855000	419.364258	105.251785
29969.294681	-1198.855000	418.092773	172.552124
29969.294681	-1198.855000	416.822266	110.120201
29969.294681	-1198.855000	415.550781	147.518265
29969.294681	-1198.855000	414.278320	106.231422
29969.294681	-1198.855000	413.006836	145.607178
29969.294681	-1198.855000	411.734375	32.007195
29969.294681	-1198.855000	410.461914	134.932510
29969.294681	-1198.855000	409.188477	184.676208
29969.294681	-1198.855000	407.916016	157.933243
29969.294681	-1198.855000	406.642578	109.908722
29969.294681	-1198.855000	405.368164	195.458633
29969.294681	-1198.855000	404.094727	183.343628
29969.294681	-1198.855000	402.820313	183.872620
29969.294681	-1198.855000	401.545898	201.277313
29969.294681	-1198.855000	400.270508	146.531281
29969.294681	-1198.855000	398.996094	218.856705
29969.294681	-1198.855000	397.720703	170.311646
29969.294681	-1198.855000	396.444336	161.935699
29969.294681	-1198.855000	395.168945	257.229889
29969.294681	-1198.855000	393.892578	259.237122
29969.294681	-1198.855000	392.616211	106.639252
29969.294681	-1198.855000	391.339844	159.269409
29969.294681	-1198.855000	390.062500	148.304230
29969.294681	-1198.855000	388.785156	31.482294
29969.294681	-1198.855000	387.507813	151.453293
29969.294681	-1198.855000	386.229492	87.321465
29969.294681	-1198.855000	384.951172	103.431267
29969.294681	-1198.855000	383.672852	96.175186
29969.294681	-1198.855000	382.394531	48.662926
29969.294681	-1198.855000	381.115234	70.759987
29969.294681	-1198.855000	379.835938	67.384239
29969.294681	-1198.855000	378.556641	23.769089
29969.294681	-1198.855000	377.277344	89.821945
29969.294681	-1198.855000	375.997070	39.632885
29969.294681	-1198.855000	374.716797	113.831902
29969.294681	-1198.855000	373.435547	-25.213383
29969.294681	-1198.855000	372.155273	6.515079
29969.294681	-1198.855000	370.874023	23.325745
29969.294681	-1198.855000	369.591797	48.416016
29969.294681	-1198.855000	368.310547	12.229252
29969.294681	-1198.855000	367.028320	1.194733
29969.294681	-1198.855000	365.746094	17.404308
29969.294681	-1198.855000	364.463867	88.221306
29969.294681	-1198.855000	363.180664	21.957207
29969.294681	-1198.855000	361.897461	1.884247
29969.294681	-1198.855000	360.614258	-20.447365
29969.294681	-1198.855000	359.330078	-9.266925
29969.294681	-1198.855000	358.045898	-15.093480
29969.294681	-1198.855000	356.761719	69.369141
29969.294681	-1198.855000	355.477539	8.496175
29969.294681	-1198.855000	354.192383	-92.487541
29969.294681	-1198.855000	352.907227	-8.605857
29969.294681	-1198.855000	351.622070	-32.141388
29969.294681	-1198.855000	350.336914	91.241859
29969.294681	-1198.855000	349.050781	54.700592
29969.294681	-1198.855000	347.764648	-74.442482
29969.294681	-1198.855000	346.477539	-58.834518
29969.294681	-1198.855000	345.191406	-3.538846
29969.294681	-1198.855000	343.904297	20.031418
29969.294681	-1198.855000	342.616211	-97.237221
29969.294681	-1198.855000	341.329102	30.826086
29969.294681	-1198.855000	340.041016	30.644531
29969.294681	-1198.855000	338.752930	17.656038
29969.294681	-1198.855000	337.463867	-75.241135
29969.294681	-1198.855000	336.175781	-27.865263
29969.294681	-1198.855000	334.886719	15.054681
29969.294681	-1198.855000	333.596680	17.893810
29969.294681	-1198.855000	332.307617	133.625763
29969.294681	-1198.855000	331.017578	-60.940842
29969.294681	-1198.855000	329.727539	-21.138725
29969.294681	-1198.855000	328.436523	143.996597
29969.294681	-1198.855000	327.146484	82.745964
29969.294681	-1198.855000	325.855469	21.246582
29969.294681	-1198.855000	324.563477	43.183201
29969.294681	-1198.855000	323.272461	8.366466
29969.294681	-1198.855000	321.980469	-32.999401
29969.294681	-1198.855000	320.688477	40.365910
29969.294681	-1198.855000	319.395508	90.404312
29969.294681	-1198.855000	318.103516	0.109557
29969.294681	-1198.855000	316.810547	41.182724
29969.294681	-1198.855000	315.516602	-32.976089
29969.294681	-1198.855000	314.223633	-40.565586
29969.294681	-1198.855000	312.929688	43.399933
29969.294681	-1198.855000	311.635742	18.449442
29969.294681	-1198.855000	310.340820	-65.270111
29969.294681	-1198.855000	309.045898	-28.251383
29969.294681	-1198.855000	307.750977	-24.965769
29969.294681	-1198.855000	306.456055	34.295193
29969.294681	-1198.855000	305.160156	91.084923
29969.294681	-1198.855000	303.865234	-35.964478
29969.294681	-1198.855000	302.568359	43.020847
29969.294681	-1198.855000	301.272461	-30.512875
29969.294681	-1198.855000	299.975586	22.699854
29969.294681	-1198.855000	298.678711	98.428421
