#X		#Y		#Wave		#Intensity
29950.742021	-1609.236667	1999.980469	5.704448
29950.742021	-1609.236667	1999.016602	131.748962
29950.742021	-1609.236667	1998.052734	28.039139
29950.742021	-1609.236667	1997.087891	23.442085
29950.742021	-1609.236667	1996.123047	-13.412483
29950.742021	-1609.236667	1995.158203	61.173069
29950.742021	-1609.236667	1994.193359	155.498886
29950.742021	-1609.236667	1993.228516	4.591667
29950.742021	-1609.236667	1992.262695	-215.628174
29950.742021	-1609.236667	1991.297852	7.284461
29950.742021	-1609.236667	1990.332031	96.425911
29950.742021	-1609.236667	1989.366211	-39.681362
29950.742021	-1609.236667	1988.399414	111.205078
29950.742021	-1609.236667	1987.433594	242.210220
29950.742021	-1609.236667	1986.466797	135.713211
29950.742021	-1609.236667	1985.500977	-25.177450
29950.742021	-1609.236667	1984.534180	41.394718
29950.742021	-1609.236667	1983.567383	-47.808483
29950.742021	-1609.236667	1982.599609	-45.577190
29950.742021	-1609.236667	1981.632813	-16.199215
29950.742021	-1609.236667	1980.665039	94.656189
29950.742021	-1609.236667	1979.697266	136.285049
29950.742021	-1609.236667	1978.729492	-27.091988
29950.742021	-1609.236667	1977.761719	21.892216
29950.742021	-1609.236667	1976.792969	117.731400
29950.742021	-1609.236667	1975.825195	-23.420620
29950.742021	-1609.236667	1974.856445	60.000809
29950.742021	-1609.236667	1973.887695	126.097420
29950.742021	-1609.236667	1972.918945	-19.988380
29950.742021	-1609.236667	1971.949219	75.644165
29950.742021	-1609.236667	1970.980469	92.315025
29950.742021	-1609.236667	1970.010742	2.949849
29950.742021	-1609.236667	1969.041016	34.373051
29950.742021	-1609.236667	1968.071289	68.228897
29950.742021	-1609.236667	1967.101563	-109.844223
29950.742021	-1609.236667	1966.130859	-36.600079
29950.742021	-1609.236667	1965.161133	-15.121892
29950.742021	-1609.236667	1964.190430	163.929703
29950.742021	-1609.236667	1963.219727	163.167221
29950.742021	-1609.236667	1962.249023	-169.931198
29950.742021	-1609.236667	1961.277344	-89.447609
29950.742021	-1609.236667	1960.306641	173.083664
29950.742021	-1609.236667	1959.334961	248.523224
29950.742021	-1609.236667	1958.363281	70.560745
29950.742021	-1609.236667	1957.391602	224.660614
29950.742021	-1609.236667	1956.419922	157.391693
29950.742021	-1609.236667	1955.447266	141.759644
29950.742021	-1609.236667	1954.474609	62.213875
29950.742021	-1609.236667	1953.501953	162.082977
29950.742021	-1609.236667	1952.529297	70.254112
29950.742021	-1609.236667	1951.556641	66.885925
29950.742021	-1609.236667	1950.583984	-93.684235
29950.742021	-1609.236667	1949.610352	131.334290
29950.742021	-1609.236667	1948.636719	137.744385
29950.742021	-1609.236667	1947.663086	95.048401
29950.742021	-1609.236667	1946.689453	275.699829
29950.742021	-1609.236667	1945.715820	98.013489
29950.742021	-1609.236667	1944.741211	219.696899
29950.742021	-1609.236667	1943.767578	127.923912
29950.742021	-1609.236667	1942.792969	126.916824
29950.742021	-1609.236667	1941.818359	268.119141
29950.742021	-1609.236667	1940.842773	124.878975
29950.742021	-1609.236667	1939.868164	194.933594
29950.742021	-1609.236667	1938.892578	-41.378532
29950.742021	-1609.236667	1937.916992	156.076492
29950.742021	-1609.236667	1936.941406	-16.459887
29950.742021	-1609.236667	1935.965820	-27.284288
29950.742021	-1609.236667	1934.990234	13.314448
29950.742021	-1609.236667	1934.013672	-17.112570
29950.742021	-1609.236667	1933.037109	-108.730293
29950.742021	-1609.236667	1932.060547	108.060112
29950.742021	-1609.236667	1931.083984	-0.686491
29950.742021	-1609.236667	1930.107422	86.325981
29950.742021	-1609.236667	1929.129883	9.412242
29950.742021	-1609.236667	1928.153320	-160.410156
29950.742021	-1609.236667	1927.175781	175.977264
29950.742021	-1609.236667	1926.198242	-106.280907
29950.742021	-1609.236667	1925.219727	56.418079
29950.742021	-1609.236667	1924.242188	179.953094
29950.742021	-1609.236667	1923.263672	115.298035
29950.742021	-1609.236667	1922.285156	31.118940
29950.742021	-1609.236667	1921.306641	69.091698
29950.742021	-1609.236667	1920.328125	33.785721
29950.742021	-1609.236667	1919.349609	35.113213
29950.742021	-1609.236667	1918.370117	212.192459
29950.742021	-1609.236667	1917.391602	42.634754
29950.742021	-1609.236667	1916.412109	39.068180
29950.742021	-1609.236667	1915.431641	59.894165
29950.742021	-1609.236667	1914.452148	-31.494785
29950.742021	-1609.236667	1913.472656	23.474669
29950.742021	-1609.236667	1912.492188	-138.592896
29950.742021	-1609.236667	1911.511719	169.908920
29950.742021	-1609.236667	1910.531250	229.674500
29950.742021	-1609.236667	1909.550781	82.271217
29950.742021	-1609.236667	1908.569336	-57.771580
29950.742021	-1609.236667	1907.588867	75.075325
29950.742021	-1609.236667	1906.607422	-57.613766
29950.742021	-1609.236667	1905.625977	-39.276417
29950.742021	-1609.236667	1904.644531	-16.079632
29950.742021	-1609.236667	1903.662109	167.764694
29950.742021	-1609.236667	1902.680664	49.747658
29950.742021	-1609.236667	1901.698242	-73.097488
29950.742021	-1609.236667	1900.715820	220.124695
29950.742021	-1609.236667	1899.733398	19.449308
29950.742021	-1609.236667	1898.750000	-18.213503
29950.742021	-1609.236667	1897.767578	-106.925362
29950.742021	-1609.236667	1896.784180	161.758057
29950.742021	-1609.236667	1895.800781	60.883537
29950.742021	-1609.236667	1894.817383	229.790878
29950.742021	-1609.236667	1893.833984	141.083496
29950.742021	-1609.236667	1892.850586	86.413704
29950.742021	-1609.236667	1891.866211	-79.964684
29950.742021	-1609.236667	1890.881836	42.687504
29950.742021	-1609.236667	1889.897461	12.333078
29950.742021	-1609.236667	1888.913086	100.929962
29950.742021	-1609.236667	1887.927734	36.588413
29950.742021	-1609.236667	1886.943359	113.006592
29950.742021	-1609.236667	1885.958008	-21.677916
29950.742021	-1609.236667	1884.972656	108.074837
29950.742021	-1609.236667	1883.987305	-157.525284
29950.742021	-1609.236667	1883.001953	-132.066284
29950.742021	-1609.236667	1882.015625	9.739804
29950.742021	-1609.236667	1881.029297	-204.809265
29950.742021	-1609.236667	1880.042969	38.728794
29950.742021	-1609.236667	1879.056641	161.025726
29950.742021	-1609.236667	1878.070313	-189.103134
29950.742021	-1609.236667	1877.083984	-15.957715
29950.742021	-1609.236667	1876.096680	23.930561
29950.742021	-1609.236667	1875.109375	165.484467
29950.742021	-1609.236667	1874.122070	35.868927
29950.742021	-1609.236667	1873.134766	92.650223
29950.742021	-1609.236667	1872.146484	108.266632
29950.742021	-1609.236667	1871.159180	111.776756
29950.742021	-1609.236667	1870.170898	120.114906
29950.742021	-1609.236667	1869.182617	60.730228
29950.742021	-1609.236667	1868.194336	-10.728965
29950.742021	-1609.236667	1867.205078	-89.421097
29950.742021	-1609.236667	1866.216797	187.208557
29950.742021	-1609.236667	1865.227539	265.569855
29950.742021	-1609.236667	1864.238281	114.365837
29950.742021	-1609.236667	1863.249023	76.746796
29950.742021	-1609.236667	1862.259766	155.062195
29950.742021	-1609.236667	1861.269531	-5.718501
29950.742021	-1609.236667	1860.279297	-26.418554
29950.742021	-1609.236667	1859.290039	51.850708
29950.742021	-1609.236667	1858.298828	79.397331
29950.742021	-1609.236667	1857.308594	65.908112
29950.742021	-1609.236667	1856.318359	78.953087
29950.742021	-1609.236667	1855.327148	154.694061
29950.742021	-1609.236667	1854.335938	39.885944
29950.742021	-1609.236667	1853.344727	-89.353249
29950.742021	-1609.236667	1852.353516	41.795685
29950.742021	-1609.236667	1851.362305	-87.413483
29950.742021	-1609.236667	1850.370117	-6.938121
29950.742021	-1609.236667	1849.377930	34.950333
29950.742021	-1609.236667	1848.385742	-19.541222
29950.742021	-1609.236667	1847.393555	7.864421
29950.742021	-1609.236667	1846.401367	-116.450058
29950.742021	-1609.236667	1845.408203	67.427071
29950.742021	-1609.236667	1844.415039	63.478325
29950.742021	-1609.236667	1843.421875	47.487755
29950.742021	-1609.236667	1842.428711	24.274557
29950.742021	-1609.236667	1841.435547	191.107162
29950.742021	-1609.236667	1840.441406	-51.021687
29950.742021	-1609.236667	1839.448242	139.789810
29950.742021	-1609.236667	1838.454102	186.257751
29950.742021	-1609.236667	1837.459961	11.542449
29950.742021	-1609.236667	1836.464844	70.009659
29950.742021	-1609.236667	1835.470703	32.327866
29950.742021	-1609.236667	1834.475586	49.904495
29950.742021	-1609.236667	1833.480469	-28.618652
29950.742021	-1609.236667	1832.485352	-97.517082
29950.742021	-1609.236667	1831.490234	-29.536043
29950.742021	-1609.236667	1830.495117	182.448380
29950.742021	-1609.236667	1829.499023	70.307755
29950.742021	-1609.236667	1828.502930	-15.405919
29950.742021	-1609.236667	1827.506836	47.659798
29950.742021	-1609.236667	1826.510742	81.902245
29950.742021	-1609.236667	1825.513672	53.758389
29950.742021	-1609.236667	1824.517578	-0.762241
29950.742021	-1609.236667	1823.520508	110.151871
29950.742021	-1609.236667	1822.523438	307.305756
29950.742021	-1609.236667	1821.526367	108.929756
29950.742021	-1609.236667	1820.529297	116.686874
29950.742021	-1609.236667	1819.531250	-33.692047
29950.742021	-1609.236667	1818.533203	141.727936
29950.742021	-1609.236667	1817.535156	70.403778
29950.742021	-1609.236667	1816.537109	68.529701
29950.742021	-1609.236667	1815.539063	124.095863
29950.742021	-1609.236667	1814.540039	-117.163040
29950.742021	-1609.236667	1813.541992	-37.679581
29950.742021	-1609.236667	1812.542969	51.328228
29950.742021	-1609.236667	1811.543945	1.546417
29950.742021	-1609.236667	1810.543945	92.874687
29950.742021	-1609.236667	1809.544922	220.024109
29950.742021	-1609.236667	1808.544922	24.359621
29950.742021	-1609.236667	1807.544922	84.514549
29950.742021	-1609.236667	1806.544922	60.989796
29950.742021	-1609.236667	1805.544922	-7.940282
29950.742021	-1609.236667	1804.544922	40.199829
29950.742021	-1609.236667	1803.543945	128.909378
29950.742021	-1609.236667	1802.542969	129.213379
29950.742021	-1609.236667	1801.541992	12.510204
29950.742021	-1609.236667	1800.541016	8.033211
29950.742021	-1609.236667	1799.539063	63.206398
29950.742021	-1609.236667	1798.538086	34.828068
29950.742021	-1609.236667	1797.536133	111.418152
29950.742021	-1609.236667	1796.534180	-169.835159
29950.742021	-1609.236667	1795.532227	68.905998
29950.742021	-1609.236667	1794.529297	-104.965691
29950.742021	-1609.236667	1793.527344	76.427330
29950.742021	-1609.236667	1792.524414	62.284565
29950.742021	-1609.236667	1791.521484	-168.726227
29950.742021	-1609.236667	1790.518555	88.770912
29950.742021	-1609.236667	1789.514648	196.075851
29950.742021	-1609.236667	1788.511719	172.333847
29950.742021	-1609.236667	1787.507813	15.232594
29950.742021	-1609.236667	1786.503906	-56.116722
29950.742021	-1609.236667	1785.500000	34.410881
29950.742021	-1609.236667	1784.496094	82.050751
29950.742021	-1609.236667	1783.491211	120.135895
29950.742021	-1609.236667	1782.486328	-32.128662
29950.742021	-1609.236667	1781.481445	-20.231207
29950.742021	-1609.236667	1780.476563	27.317513
29950.742021	-1609.236667	1779.471680	148.539963
29950.742021	-1609.236667	1778.465820	-101.144974
29950.742021	-1609.236667	1777.460938	-205.766495
29950.742021	-1609.236667	1776.455078	110.238785
29950.742021	-1609.236667	1775.449219	-70.444527
29950.742021	-1609.236667	1774.442383	136.112213
29950.742021	-1609.236667	1773.436523	178.707031
29950.742021	-1609.236667	1772.429688	74.048744
29950.742021	-1609.236667	1771.422852	118.978279
29950.742021	-1609.236667	1770.416016	180.491760
29950.742021	-1609.236667	1769.409180	-106.886383
29950.742021	-1609.236667	1768.402344	40.032368
29950.742021	-1609.236667	1767.394531	58.775192
29950.742021	-1609.236667	1766.386719	-57.696770
29950.742021	-1609.236667	1765.378906	10.825499
29950.742021	-1609.236667	1764.371094	169.399658
29950.742021	-1609.236667	1763.362305	131.148560
29950.742021	-1609.236667	1762.354492	88.159630
29950.742021	-1609.236667	1761.345703	168.384583
29950.742021	-1609.236667	1760.336914	141.955521
29950.742021	-1609.236667	1759.328125	-10.017130
29950.742021	-1609.236667	1758.318359	77.236885
29950.742021	-1609.236667	1757.308594	38.953255
29950.742021	-1609.236667	1756.299805	-75.081482
29950.742021	-1609.236667	1755.290039	-49.448002
29950.742021	-1609.236667	1754.279297	-61.703892
29950.742021	-1609.236667	1753.269531	-40.844460
29950.742021	-1609.236667	1752.258789	34.395252
29950.742021	-1609.236667	1751.249023	-84.337433
29950.742021	-1609.236667	1750.238281	-2.053962
29950.742021	-1609.236667	1749.226563	6.893171
29950.742021	-1609.236667	1748.215820	-19.630859
29950.742021	-1609.236667	1747.204102	152.349731
29950.742021	-1609.236667	1746.193359	149.408203
29950.742021	-1609.236667	1745.181641	103.927505
29950.742021	-1609.236667	1744.168945	-31.304197
29950.742021	-1609.236667	1743.157227	145.213150
29950.742021	-1609.236667	1742.144531	78.465027
29950.742021	-1609.236667	1741.132813	-4.791629
29950.742021	-1609.236667	1740.120117	-38.472763
29950.742021	-1609.236667	1739.106445	43.463688
29950.742021	-1609.236667	1738.093750	132.435898
29950.742021	-1609.236667	1737.080078	-111.222160
29950.742021	-1609.236667	1736.067383	3.659704
29950.742021	-1609.236667	1735.053711	167.995499
29950.742021	-1609.236667	1734.040039	2.223423
29950.742021	-1609.236667	1733.025391	-10.301550
29950.742021	-1609.236667	1732.011719	43.148472
29950.742021	-1609.236667	1730.997070	-0.034052
29950.742021	-1609.236667	1729.982422	-73.835686
29950.742021	-1609.236667	1728.967773	-126.425247
29950.742021	-1609.236667	1727.952148	51.746555
29950.742021	-1609.236667	1726.937500	215.716309
29950.742021	-1609.236667	1725.921875	87.740662
29950.742021	-1609.236667	1724.906250	112.766678
29950.742021	-1609.236667	1723.890625	41.304287
29950.742021	-1609.236667	1722.875000	-4.266491
29950.742021	-1609.236667	1721.858398	1.908275
29950.742021	-1609.236667	1720.841797	-41.313145
29950.742021	-1609.236667	1719.825195	25.970768
29950.742021	-1609.236667	1718.808594	50.907635
29950.742021	-1609.236667	1717.791992	5.317922
29950.742021	-1609.236667	1716.774414	34.922718
29950.742021	-1609.236667	1715.756836	-1.275126
29950.742021	-1609.236667	1714.739258	-42.167042
29950.742021	-1609.236667	1713.721680	-38.434505
29950.742021	-1609.236667	1712.704102	-65.236526
29950.742021	-1609.236667	1711.685547	15.940916
29950.742021	-1609.236667	1710.667969	-32.003929
29950.742021	-1609.236667	1709.649414	56.156021
29950.742021	-1609.236667	1708.630859	-22.301884
29950.742021	-1609.236667	1707.611328	-51.483765
29950.742021	-1609.236667	1706.592773	17.839746
29950.742021	-1609.236667	1705.573242	-13.701965
29950.742021	-1609.236667	1704.553711	88.386253
29950.742021	-1609.236667	1703.534180	-36.928623
29950.742021	-1609.236667	1702.513672	95.567589
29950.742021	-1609.236667	1701.494141	122.575035
29950.742021	-1609.236667	1700.473633	72.257225
29950.742021	-1609.236667	1699.453125	-43.627960
29950.742021	-1609.236667	1698.432617	37.220463
29950.742021	-1609.236667	1697.412109	-109.063522
29950.742021	-1609.236667	1696.390625	-54.001106
29950.742021	-1609.236667	1695.369141	-169.806061
29950.742021	-1609.236667	1694.347656	-96.048485
29950.742021	-1609.236667	1693.326172	220.969086
29950.742021	-1609.236667	1692.304688	-37.517788
29950.742021	-1609.236667	1691.282227	199.841751
29950.742021	-1609.236667	1690.260742	243.051682
29950.742021	-1609.236667	1689.238281	279.221741
29950.742021	-1609.236667	1688.214844	205.523956
29950.742021	-1609.236667	1687.192383	47.731918
29950.742021	-1609.236667	1686.168945	11.474827
29950.742021	-1609.236667	1685.146484	-129.879028
29950.742021	-1609.236667	1684.123047	-30.648670
29950.742021	-1609.236667	1683.099609	-8.511662
29950.742021	-1609.236667	1682.075195	118.657257
29950.742021	-1609.236667	1681.051758	133.744949
29950.742021	-1609.236667	1680.027344	22.809328
29950.742021	-1609.236667	1679.002930	-4.096682
29950.742021	-1609.236667	1677.978516	-12.335158
29950.742021	-1609.236667	1676.953125	217.305099
29950.742021	-1609.236667	1675.928711	167.048859
29950.742021	-1609.236667	1674.903320	9.566329
29950.742021	-1609.236667	1673.877930	113.195618
29950.742021	-1609.236667	1672.852539	53.655693
29950.742021	-1609.236667	1671.826172	101.309135
29950.742021	-1609.236667	1670.800781	118.662941
29950.742021	-1609.236667	1669.774414	129.017227
29950.742021	-1609.236667	1668.748047	34.580196
29950.742021	-1609.236667	1667.721680	259.132355
29950.742021	-1609.236667	1666.694336	36.676929
29950.742021	-1609.236667	1665.667969	-32.092567
29950.742021	-1609.236667	1664.640625	-12.420942
29950.742021	-1609.236667	1663.613281	-6.715209
29950.742021	-1609.236667	1662.585938	33.875458
29950.742021	-1609.236667	1661.557617	30.264435
29950.742021	-1609.236667	1660.530273	33.633518
29950.742021	-1609.236667	1659.501953	225.285782
29950.742021	-1609.236667	1658.473633	-64.221947
29950.742021	-1609.236667	1657.444336	215.672165
29950.742021	-1609.236667	1656.416016	49.409676
29950.742021	-1609.236667	1655.386719	150.324921
29950.742021	-1609.236667	1654.358398	70.067436
29950.742021	-1609.236667	1653.328125	189.514633
29950.742021	-1609.236667	1652.298828	-9.109818
29950.742021	-1609.236667	1651.269531	66.216873
29950.742021	-1609.236667	1650.239258	88.142487
29950.742021	-1609.236667	1649.208984	186.624252
29950.742021	-1609.236667	1648.178711	171.411407
29950.742021	-1609.236667	1647.148438	33.291355
29950.742021	-1609.236667	1646.117188	175.789825
29950.742021	-1609.236667	1645.086914	241.737900
29950.742021	-1609.236667	1644.055664	117.599945
29950.742021	-1609.236667	1643.024414	271.598755
29950.742021	-1609.236667	1641.992188	179.946625
29950.742021	-1609.236667	1640.960938	97.604485
29950.742021	-1609.236667	1639.928711	283.952759
29950.742021	-1609.236667	1638.896484	109.007164
29950.742021	-1609.236667	1637.864258	105.453529
29950.742021	-1609.236667	1636.832031	185.236435
29950.742021	-1609.236667	1635.798828	170.107285
29950.742021	-1609.236667	1634.766602	344.723206
29950.742021	-1609.236667	1633.733398	267.122925
29950.742021	-1609.236667	1632.699219	41.533276
29950.742021	-1609.236667	1631.666016	273.901367
29950.742021	-1609.236667	1630.632813	254.181747
29950.742021	-1609.236667	1629.598633	308.443298
29950.742021	-1609.236667	1628.564453	307.226044
29950.742021	-1609.236667	1627.530273	306.017578
29950.742021	-1609.236667	1626.495117	284.022522
29950.742021	-1609.236667	1625.460938	128.085312
29950.742021	-1609.236667	1624.425781	332.461670
29950.742021	-1609.236667	1623.390625	257.400543
29950.742021	-1609.236667	1622.355469	362.431519
29950.742021	-1609.236667	1621.319336	492.814941
29950.742021	-1609.236667	1620.284180	364.723267
29950.742021	-1609.236667	1619.248047	363.576355
29950.742021	-1609.236667	1618.211914	558.500122
29950.742021	-1609.236667	1617.174805	296.740295
29950.742021	-1609.236667	1616.138672	408.618652
29950.742021	-1609.236667	1615.101563	338.348114
29950.742021	-1609.236667	1614.065430	390.273865
29950.742021	-1609.236667	1613.027344	476.749939
29950.742021	-1609.236667	1611.990234	169.242096
29950.742021	-1609.236667	1610.953125	474.583069
29950.742021	-1609.236667	1609.915039	236.307755
29950.742021	-1609.236667	1608.876953	481.672760
29950.742021	-1609.236667	1607.838867	469.120758
29950.742021	-1609.236667	1606.800781	405.951752
29950.742021	-1609.236667	1605.761719	453.274933
29950.742021	-1609.236667	1604.723633	479.890320
29950.742021	-1609.236667	1603.684570	511.107758
29950.742021	-1609.236667	1602.644531	567.621948
29950.742021	-1609.236667	1601.605469	566.647705
29950.742021	-1609.236667	1600.566406	432.349030
29950.742021	-1609.236667	1599.526367	178.592941
29950.742021	-1609.236667	1598.486328	428.226746
29950.742021	-1609.236667	1597.446289	266.506561
29950.742021	-1609.236667	1596.405273	449.437164
29950.742021	-1609.236667	1595.365234	361.303650
29950.742021	-1609.236667	1594.324219	507.436676
29950.742021	-1609.236667	1593.283203	361.960815
29950.742021	-1609.236667	1592.242188	195.900696
29950.742021	-1609.236667	1591.200195	475.135284
29950.742021	-1609.236667	1590.159180	368.809753
29950.742021	-1609.236667	1589.117188	443.767700
29950.742021	-1609.236667	1588.075195	413.210693
29950.742021	-1609.236667	1587.032227	511.095917
29950.742021	-1609.236667	1585.990234	414.086945
29950.742021	-1609.236667	1584.947266	310.255981
29950.742021	-1609.236667	1583.904297	268.362244
29950.742021	-1609.236667	1582.861328	421.267242
29950.742021	-1609.236667	1581.818359	633.694824
29950.742021	-1609.236667	1580.775391	562.045593
29950.742021	-1609.236667	1579.731445	364.491730
29950.742021	-1609.236667	1578.687500	375.383972
29950.742021	-1609.236667	1577.643555	562.552612
29950.742021	-1609.236667	1576.598633	520.801758
29950.742021	-1609.236667	1575.554688	280.018127
29950.742021	-1609.236667	1574.509766	307.013611
29950.742021	-1609.236667	1573.464844	526.152649
29950.742021	-1609.236667	1572.419922	262.702087
29950.742021	-1609.236667	1571.374023	461.227661
29950.742021	-1609.236667	1570.329102	161.362076
29950.742021	-1609.236667	1569.283203	67.329567
29950.742021	-1609.236667	1568.237305	279.553009
29950.742021	-1609.236667	1567.191406	167.303116
29950.742021	-1609.236667	1566.144531	338.352814
29950.742021	-1609.236667	1565.098633	239.883408
29950.742021	-1609.236667	1564.051758	346.966980
29950.742021	-1609.236667	1563.004883	52.256763
29950.742021	-1609.236667	1561.957031	284.910553
29950.742021	-1609.236667	1560.910156	131.855530
29950.742021	-1609.236667	1559.862305	152.274323
29950.742021	-1609.236667	1558.814453	145.336639
29950.742021	-1609.236667	1557.766602	195.441147
29950.742021	-1609.236667	1556.718750	-96.467682
29950.742021	-1609.236667	1555.669922	44.899960
29950.742021	-1609.236667	1554.621094	131.534973
29950.742021	-1609.236667	1553.573242	254.624451
29950.742021	-1609.236667	1552.523438	311.615662
29950.742021	-1609.236667	1551.474609	270.663239
29950.742021	-1609.236667	1550.424805	302.628967
29950.742021	-1609.236667	1549.375000	75.030968
29950.742021	-1609.236667	1548.325195	132.117462
29950.742021	-1609.236667	1547.275391	143.686462
29950.742021	-1609.236667	1546.225586	139.347519
29950.742021	-1609.236667	1545.174805	-60.630829
29950.742021	-1609.236667	1544.124023	155.775238
29950.742021	-1609.236667	1543.073242	226.568832
29950.742021	-1609.236667	1542.022461	229.146576
29950.742021	-1609.236667	1540.970703	172.639420
29950.742021	-1609.236667	1539.919922	302.568207
29950.742021	-1609.236667	1538.868164	18.875334
29950.742021	-1609.236667	1537.815430	196.548370
29950.742021	-1609.236667	1536.763672	308.305206
29950.742021	-1609.236667	1535.710938	222.453705
29950.742021	-1609.236667	1534.659180	354.654999
29950.742021	-1609.236667	1533.606445	296.130096
29950.742021	-1609.236667	1532.552734	389.731812
29950.742021	-1609.236667	1531.500000	442.480438
29950.742021	-1609.236667	1530.446289	311.452667
29950.742021	-1609.236667	1529.393555	375.596466
29950.742021	-1609.236667	1528.338867	417.061157
29950.742021	-1609.236667	1527.285156	336.092194
29950.742021	-1609.236667	1526.231445	184.904800
29950.742021	-1609.236667	1525.176758	163.006332
29950.742021	-1609.236667	1524.122070	240.860428
29950.742021	-1609.236667	1523.067383	262.070770
29950.742021	-1609.236667	1522.012695	233.465576
29950.742021	-1609.236667	1520.957031	-100.858849
29950.742021	-1609.236667	1519.901367	-22.892065
29950.742021	-1609.236667	1518.845703	-107.932793
29950.742021	-1609.236667	1517.790039	28.919477
29950.742021	-1609.236667	1516.734375	57.119923
29950.742021	-1609.236667	1515.677734	171.320648
29950.742021	-1609.236667	1514.621094	-71.920219
29950.742021	-1609.236667	1513.564453	-109.213913
29950.742021	-1609.236667	1512.507813	95.499252
29950.742021	-1609.236667	1511.450195	26.598047
29950.742021	-1609.236667	1510.393555	-19.637661
29950.742021	-1609.236667	1509.335938	15.533991
29950.742021	-1609.236667	1508.278320	32.648476
29950.742021	-1609.236667	1507.219727	61.082726
29950.742021	-1609.236667	1506.162109	28.555817
29950.742021	-1609.236667	1505.103516	-10.699921
29950.742021	-1609.236667	1504.044922	-45.392311
29950.742021	-1609.236667	1502.986328	-52.949993
29950.742021	-1609.236667	1501.926758	-186.855255
29950.742021	-1609.236667	1500.868164	-49.907902
29950.742021	-1609.236667	1499.808594	-50.595032
29950.742021	-1609.236667	1498.749023	11.905638
29950.742021	-1609.236667	1497.688477	-29.317759
29950.742021	-1609.236667	1496.628906	33.220840
29950.742021	-1609.236667	1495.568359	-199.524979
29950.742021	-1609.236667	1494.507813	79.443672
29950.742021	-1609.236667	1493.447266	0.069249
29950.742021	-1609.236667	1492.386719	-20.666759
29950.742021	-1609.236667	1491.325195	168.107162
29950.742021	-1609.236667	1490.263672	88.863426
29950.742021	-1609.236667	1489.202148	63.720230
29950.742021	-1609.236667	1488.140625	94.896370
29950.742021	-1609.236667	1487.079102	-130.468460
29950.742021	-1609.236667	1486.016602	85.310883
29950.742021	-1609.236667	1484.954102	-43.159592
29950.742021	-1609.236667	1483.891602	91.614296
29950.742021	-1609.236667	1482.829102	-72.716049
29950.742021	-1609.236667	1481.765625	-173.987839
29950.742021	-1609.236667	1480.702148	-86.367645
29950.742021	-1609.236667	1479.638672	-120.097633
29950.742021	-1609.236667	1478.575195	-12.231503
29950.742021	-1609.236667	1477.511719	14.752260
29950.742021	-1609.236667	1476.447266	21.550791
29950.742021	-1609.236667	1475.382813	-74.914787
29950.742021	-1609.236667	1474.318359	129.560623
29950.742021	-1609.236667	1473.253906	55.579571
29950.742021	-1609.236667	1472.189453	80.561005
29950.742021	-1609.236667	1471.124023	-13.472593
29950.742021	-1609.236667	1470.058594	54.080395
29950.742021	-1609.236667	1468.993164	-5.958738
29950.742021	-1609.236667	1467.927734	-64.015778
29950.742021	-1609.236667	1466.861328	167.177002
29950.742021	-1609.236667	1465.794922	-2.742807
29950.742021	-1609.236667	1464.728516	29.079296
29950.742021	-1609.236667	1463.662109	141.490952
29950.742021	-1609.236667	1462.594727	-164.513443
29950.742021	-1609.236667	1461.528320	44.209141
29950.742021	-1609.236667	1460.460938	84.852623
29950.742021	-1609.236667	1459.393555	153.173538
29950.742021	-1609.236667	1458.326172	46.606453
29950.742021	-1609.236667	1457.257813	131.104889
29950.742021	-1609.236667	1456.189453	149.462387
29950.742021	-1609.236667	1455.121094	139.728745
29950.742021	-1609.236667	1454.052734	312.939056
29950.742021	-1609.236667	1452.984375	58.804234
29950.742021	-1609.236667	1451.915039	169.509415
29950.742021	-1609.236667	1450.845703	81.715172
29950.742021	-1609.236667	1449.776367	137.631393
29950.742021	-1609.236667	1448.707031	118.944588
29950.742021	-1609.236667	1447.636719	285.191559
29950.742021	-1609.236667	1446.567383	387.996796
29950.742021	-1609.236667	1445.497070	322.028748
29950.742021	-1609.236667	1444.425781	182.321625
29950.742021	-1609.236667	1443.355469	32.195045
29950.742021	-1609.236667	1442.285156	203.991547
29950.742021	-1609.236667	1441.213867	106.852608
29950.742021	-1609.236667	1440.142578	203.629852
29950.742021	-1609.236667	1439.070313	247.113266
29950.742021	-1609.236667	1437.999023	190.165085
29950.742021	-1609.236667	1436.926758	161.310699
29950.742021	-1609.236667	1435.854492	190.373276
29950.742021	-1609.236667	1434.782227	268.254059
29950.742021	-1609.236667	1433.709961	212.290924
29950.742021	-1609.236667	1432.636719	-27.418379
29950.742021	-1609.236667	1431.563477	155.794876
29950.742021	-1609.236667	1430.490234	45.103455
29950.742021	-1609.236667	1429.416992	189.497513
29950.742021	-1609.236667	1428.343750	206.445709
29950.742021	-1609.236667	1427.269531	291.590881
29950.742021	-1609.236667	1426.195313	97.992249
29950.742021	-1609.236667	1425.121094	140.284454
29950.742021	-1609.236667	1424.046875	226.381454
29950.742021	-1609.236667	1422.971680	123.389122
29950.742021	-1609.236667	1421.896484	114.970993
29950.742021	-1609.236667	1420.821289	52.623051
29950.742021	-1609.236667	1419.746094	115.911606
29950.742021	-1609.236667	1418.669922	147.660400
29950.742021	-1609.236667	1417.594727	117.998993
29950.742021	-1609.236667	1416.518555	78.049622
29950.742021	-1609.236667	1415.442383	93.887733
29950.742021	-1609.236667	1414.365234	150.242462
29950.742021	-1609.236667	1413.289063	225.767517
29950.742021	-1609.236667	1412.211914	146.459412
29950.742021	-1609.236667	1411.134766	177.685440
29950.742021	-1609.236667	1410.057617	101.651550
29950.742021	-1609.236667	1408.979492	156.415115
29950.742021	-1609.236667	1407.902344	125.511406
29950.742021	-1609.236667	1406.824219	185.562195
29950.742021	-1609.236667	1405.746094	235.788147
29950.742021	-1609.236667	1404.666992	219.362991
29950.742021	-1609.236667	1403.588867	287.210388
29950.742021	-1609.236667	1402.509766	277.928894
29950.742021	-1609.236667	1401.430664	280.169769
29950.742021	-1609.236667	1400.351563	370.248260
29950.742021	-1609.236667	1399.271484	418.375336
29950.742021	-1609.236667	1398.192383	482.385498
29950.742021	-1609.236667	1397.112305	213.135437
29950.742021	-1609.236667	1396.031250	225.072342
29950.742021	-1609.236667	1394.951172	202.072510
29950.742021	-1609.236667	1393.871094	300.852844
29950.742021	-1609.236667	1392.790039	225.955536
29950.742021	-1609.236667	1391.708984	19.381090
29950.742021	-1609.236667	1390.626953	181.371948
29950.742021	-1609.236667	1389.545898	262.059998
29950.742021	-1609.236667	1388.463867	128.239822
29950.742021	-1609.236667	1387.381836	97.464615
29950.742021	-1609.236667	1386.299805	328.588684
29950.742021	-1609.236667	1385.217773	285.419464
29950.742021	-1609.236667	1384.134766	165.232758
29950.742021	-1609.236667	1383.051758	210.648987
29950.742021	-1609.236667	1381.968750	262.687500
29950.742021	-1609.236667	1380.885742	285.513184
29950.742021	-1609.236667	1379.802734	174.775253
29950.742021	-1609.236667	1378.718750	469.363892
29950.742021	-1609.236667	1377.634766	605.335876
29950.742021	-1609.236667	1376.550781	483.571930
29950.742021	-1609.236667	1375.465820	264.949554
29950.742021	-1609.236667	1374.381836	277.777618
29950.742021	-1609.236667	1373.296875	256.069244
29950.742021	-1609.236667	1372.211914	176.926941
29950.742021	-1609.236667	1371.126953	221.562485
29950.742021	-1609.236667	1370.041016	353.958984
29950.742021	-1609.236667	1368.955078	273.513855
29950.742021	-1609.236667	1367.869141	357.435883
29950.742021	-1609.236667	1366.783203	169.586197
29950.742021	-1609.236667	1365.697266	339.836670
29950.742021	-1609.236667	1364.610352	31.716490
29950.742021	-1609.236667	1363.523438	233.255692
29950.742021	-1609.236667	1362.436523	191.170914
29950.742021	-1609.236667	1361.349609	227.074219
29950.742021	-1609.236667	1360.261719	133.033951
29950.742021	-1609.236667	1359.174805	273.432434
29950.742021	-1609.236667	1358.086914	261.488525
29950.742021	-1609.236667	1356.998047	399.213837
29950.742021	-1609.236667	1355.910156	314.328430
29950.742021	-1609.236667	1354.821289	240.987854
29950.742021	-1609.236667	1353.732422	355.942657
29950.742021	-1609.236667	1352.643555	182.420151
29950.742021	-1609.236667	1351.554688	293.394745
29950.742021	-1609.236667	1350.464844	330.351929
29950.742021	-1609.236667	1349.375000	254.269714
29950.742021	-1609.236667	1348.285156	252.765076
29950.742021	-1609.236667	1347.195313	498.409088
29950.742021	-1609.236667	1346.105469	366.673187
29950.742021	-1609.236667	1345.014648	360.989288
29950.742021	-1609.236667	1343.923828	629.220032
29950.742021	-1609.236667	1342.833008	450.387695
29950.742021	-1609.236667	1341.741211	525.790344
29950.742021	-1609.236667	1340.650391	503.176849
29950.742021	-1609.236667	1339.558594	624.674927
29950.742021	-1609.236667	1338.466797	370.469421
29950.742021	-1609.236667	1337.374023	287.363403
29950.742021	-1609.236667	1336.282227	272.339905
29950.742021	-1609.236667	1335.189453	296.646942
29950.742021	-1609.236667	1334.096680	378.154816
29950.742021	-1609.236667	1333.003906	270.234375
29950.742021	-1609.236667	1331.910156	427.941772
29950.742021	-1609.236667	1330.817383	360.454102
29950.742021	-1609.236667	1329.723633	317.882904
29950.742021	-1609.236667	1328.629883	242.318100
29950.742021	-1609.236667	1327.535156	274.153748
29950.742021	-1609.236667	1326.441406	178.769943
29950.742021	-1609.236667	1325.346680	139.677795
29950.742021	-1609.236667	1324.251953	261.063782
29950.742021	-1609.236667	1323.156250	195.291809
29950.742021	-1609.236667	1322.061523	274.850220
29950.742021	-1609.236667	1320.965820	126.122322
29950.742021	-1609.236667	1319.870117	180.427322
29950.742021	-1609.236667	1318.774414	364.308960
29950.742021	-1609.236667	1317.678711	437.256287
29950.742021	-1609.236667	1316.582031	246.883209
29950.742021	-1609.236667	1315.485352	329.444519
29950.742021	-1609.236667	1314.388672	250.576660
29950.742021	-1609.236667	1313.291016	278.543091
29950.742021	-1609.236667	1312.194336	148.355301
29950.742021	-1609.236667	1311.096680	242.770889
29950.742021	-1609.236667	1309.999023	360.479065
29950.742021	-1609.236667	1308.901367	155.667099
29950.742021	-1609.236667	1307.802734	200.708832
29950.742021	-1609.236667	1306.705078	272.190857
29950.742021	-1609.236667	1305.606445	37.647228
29950.742021	-1609.236667	1304.506836	126.567986
29950.742021	-1609.236667	1303.408203	63.350170
29950.742021	-1609.236667	1302.308594	93.421494
29950.742021	-1609.236667	1301.208984	96.624382
29950.742021	-1609.236667	1300.109375	-80.508186
29950.742021	-1609.236667	1299.009766	83.451279
29950.742021	-1609.236667	1297.909180	88.205833
29950.742021	-1609.236667	1296.808594	144.956268
29950.742021	-1609.236667	1295.708008	48.049023
29950.742021	-1609.236667	1294.607422	171.801239
29950.742021	-1609.236667	1293.506836	-72.720909
29950.742021	-1609.236667	1292.405273	40.595848
29950.742021	-1609.236667	1291.303711	-4.577064
29950.742021	-1609.236667	1290.202148	18.201527
29950.742021	-1609.236667	1289.099609	88.962891
29950.742021	-1609.236667	1287.998047	-19.870869
29950.742021	-1609.236667	1286.895508	18.976910
29950.742021	-1609.236667	1285.792969	-72.423958
29950.742021	-1609.236667	1284.689453	-106.287285
29950.742021	-1609.236667	1283.586914	-4.662724
29950.742021	-1609.236667	1282.483398	45.913967
29950.742021	-1609.236667	1281.379883	-44.196423
29950.742021	-1609.236667	1280.276367	55.483410
29950.742021	-1609.236667	1279.171875	-135.191940
29950.742021	-1609.236667	1278.067383	61.991817
29950.742021	-1609.236667	1276.962891	27.581308
29950.742021	-1609.236667	1275.858398	-59.120964
29950.742021	-1609.236667	1274.753906	-64.883789
29950.742021	-1609.236667	1273.648438	29.878920
29950.742021	-1609.236667	1272.542969	-1.944772
29950.742021	-1609.236667	1271.437500	-67.778923
29950.742021	-1609.236667	1270.331055	-77.327469
29950.742021	-1609.236667	1269.225586	42.037457
29950.742021	-1609.236667	1268.119141	44.095745
29950.742021	-1609.236667	1267.012695	-33.729424
29950.742021	-1609.236667	1265.906250	-45.385544
29950.742021	-1609.236667	1264.798828	-3.150733
29950.742021	-1609.236667	1263.691406	-34.244396
29950.742021	-1609.236667	1262.583984	-3.918717
29950.742021	-1609.236667	1261.476563	-39.581154
29950.742021	-1609.236667	1260.368164	-133.572296
29950.742021	-1609.236667	1259.260742	21.298117
29950.742021	-1609.236667	1258.152344	-83.800278
29950.742021	-1609.236667	1257.043945	38.581062
29950.742021	-1609.236667	1255.934570	-18.635750
29950.742021	-1609.236667	1254.825195	-29.642811
29950.742021	-1609.236667	1253.716797	-72.989655
29950.742021	-1609.236667	1252.606445	-135.414322
29950.742021	-1609.236667	1251.497070	-5.585480
29950.742021	-1609.236667	1250.387695	-34.119072
29950.742021	-1609.236667	1249.277344	-80.817566
29950.742021	-1609.236667	1248.166992	-17.578156
29950.742021	-1609.236667	1247.055664	-64.613449
29950.742021	-1609.236667	1245.945313	-89.960808
29950.742021	-1609.236667	1244.833984	2.877625
29950.742021	-1609.236667	1243.722656	-30.572500
29950.742021	-1609.236667	1242.611328	-72.513550
29950.742021	-1609.236667	1241.499023	68.723709
29950.742021	-1609.236667	1240.387695	-49.067032
29950.742021	-1609.236667	1239.275391	-29.552940
29950.742021	-1609.236667	1238.162109	-26.455902
29950.742021	-1609.236667	1237.049805	-68.901184
29950.742021	-1609.236667	1235.936523	-64.928009
29950.742021	-1609.236667	1234.823242	-31.580072
29950.742021	-1609.236667	1233.709961	-22.306807
29950.742021	-1609.236667	1232.596680	-7.937520
29950.742021	-1609.236667	1231.482422	50.956806
29950.742021	-1609.236667	1230.369141	95.468681
29950.742021	-1609.236667	1229.253906	-31.219894
29950.742021	-1609.236667	1228.139648	-84.017899
29950.742021	-1609.236667	1227.025391	-49.894741
29950.742021	-1609.236667	1225.910156	5.644019
29950.742021	-1609.236667	1224.794922	-49.112289
29950.742021	-1609.236667	1223.679688	-60.569149
29950.742021	-1609.236667	1222.563477	-45.231125
29950.742021	-1609.236667	1221.447266	-111.950500
29950.742021	-1609.236667	1220.331055	-12.865158
29950.742021	-1609.236667	1219.214844	-70.071983
29950.742021	-1609.236667	1218.098633	86.948357
29950.742021	-1609.236667	1216.981445	38.685432
29950.742021	-1609.236667	1215.864258	94.985222
29950.742021	-1609.236667	1214.747070	80.606323
29950.742021	-1609.236667	1213.629883	-66.637978
29950.742021	-1609.236667	1212.511719	88.805351
29950.742021	-1609.236667	1211.393555	63.436604
29950.742021	-1609.236667	1210.275391	52.631569
29950.742021	-1609.236667	1209.157227	44.669357
29950.742021	-1609.236667	1208.038086	138.879364
29950.742021	-1609.236667	1206.918945	83.605644
29950.742021	-1609.236667	1205.799805	54.904663
29950.742021	-1609.236667	1204.680664	-3.437634
29950.742021	-1609.236667	1203.560547	33.765560
29950.742021	-1609.236667	1202.441406	30.853964
29950.742021	-1609.236667	1201.321289	-1.210746
29950.742021	-1609.236667	1200.200195	26.822218
29950.742021	-1609.236667	1199.080078	-12.831423
29950.742021	-1609.236667	1197.958984	116.434525
29950.742021	-1609.236667	1196.837891	-0.652055
29950.742021	-1609.236667	1195.716797	-70.587418
29950.742021	-1609.236667	1194.594727	61.229282
29950.742021	-1609.236667	1193.473633	21.773582
29950.742021	-1609.236667	1192.351563	31.083267
29950.742021	-1609.236667	1191.229492	25.339392
29950.742021	-1609.236667	1190.106445	57.221878
29950.742021	-1609.236667	1188.984375	32.349880
29950.742021	-1609.236667	1187.861328	-17.165617
29950.742021	-1609.236667	1186.738281	-36.447243
29950.742021	-1609.236667	1185.614258	114.263031
29950.742021	-1609.236667	1184.491211	-13.461477
29950.742021	-1609.236667	1183.367188	138.083908
29950.742021	-1609.236667	1182.243164	100.241447
29950.742021	-1609.236667	1181.119141	120.162346
29950.742021	-1609.236667	1179.994141	80.221802
29950.742021	-1609.236667	1178.869141	140.731812
29950.742021	-1609.236667	1177.744141	-20.476721
29950.742021	-1609.236667	1176.619141	79.860718
29950.742021	-1609.236667	1175.493164	101.984520
29950.742021	-1609.236667	1174.368164	93.387093
29950.742021	-1609.236667	1173.242188	41.131397
29950.742021	-1609.236667	1172.115234	-62.177258
29950.742021	-1609.236667	1170.989258	67.145966
29950.742021	-1609.236667	1169.862305	-34.062572
29950.742021	-1609.236667	1168.735352	75.429131
29950.742021	-1609.236667	1167.608398	-53.842926
29950.742021	-1609.236667	1166.481445	-148.225540
29950.742021	-1609.236667	1165.353516	-53.856319
29950.742021	-1609.236667	1164.225586	-59.537384
29950.742021	-1609.236667	1163.097656	-75.798164
29950.742021	-1609.236667	1161.968750	22.324314
29950.742021	-1609.236667	1160.840820	0.144942
29950.742021	-1609.236667	1159.711914	1.591732
29950.742021	-1609.236667	1158.583008	-100.189156
29950.742021	-1609.236667	1157.453125	-84.475983
29950.742021	-1609.236667	1156.324219	5.207340
29950.742021	-1609.236667	1155.194336	-4.207325
29950.742021	-1609.236667	1154.064453	17.581495
29950.742021	-1609.236667	1152.933594	-102.248444
29950.742021	-1609.236667	1151.803711	-19.996344
29950.742021	-1609.236667	1150.672852	107.419960
29950.742021	-1609.236667	1149.541992	-50.572998
29950.742021	-1609.236667	1148.411133	95.840096
29950.742021	-1609.236667	1147.279297	135.282272
29950.742021	-1609.236667	1146.147461	125.408607
29950.742021	-1609.236667	1145.015625	-118.663818
29950.742021	-1609.236667	1143.883789	57.188927
29950.742021	-1609.236667	1142.750977	-6.647474
29950.742021	-1609.236667	1141.619141	23.034811
29950.742021	-1609.236667	1140.486328	186.561920
29950.742021	-1609.236667	1139.352539	89.981583
29950.742021	-1609.236667	1138.219727	64.578857
29950.742021	-1609.236667	1137.085938	-113.834839
29950.742021	-1609.236667	1135.952148	62.730652
29950.742021	-1609.236667	1134.818359	98.243988
29950.742021	-1609.236667	1133.683594	142.658173
29950.742021	-1609.236667	1132.549805	122.721245
29950.742021	-1609.236667	1131.415039	226.797287
29950.742021	-1609.236667	1130.279297	357.660583
29950.742021	-1609.236667	1129.144531	118.068085
29950.742021	-1609.236667	1128.008789	352.616180
29950.742021	-1609.236667	1126.873047	284.015839
29950.742021	-1609.236667	1125.737305	257.556061
29950.742021	-1609.236667	1124.601563	197.347122
29950.742021	-1609.236667	1123.464844	136.729614
29950.742021	-1609.236667	1122.328125	376.509277
29950.742021	-1609.236667	1121.191406	192.316879
29950.742021	-1609.236667	1120.054688	248.744202
29950.742021	-1609.236667	1118.916992	289.328033
29950.742021	-1609.236667	1117.779297	237.312698
29950.742021	-1609.236667	1116.641602	219.028168
29950.742021	-1609.236667	1115.503906	207.412888
29950.742021	-1609.236667	1114.365234	129.328842
29950.742021	-1609.236667	1113.226563	243.939301
29950.742021	-1609.236667	1112.087891	-52.196209
29950.742021	-1609.236667	1110.949219	119.585342
29950.742021	-1609.236667	1109.809570	-13.265235
29950.742021	-1609.236667	1108.669922	94.369492
29950.742021	-1609.236667	1107.530273	132.821503
29950.742021	-1609.236667	1106.390625	111.351517
29950.742021	-1609.236667	1105.250000	142.020630
29950.742021	-1609.236667	1104.109375	-1.933542
29950.742021	-1609.236667	1102.968750	69.867867
29950.742021	-1609.236667	1101.828125	219.047867
29950.742021	-1609.236667	1100.686523	194.860886
29950.742021	-1609.236667	1099.544922	352.330719
29950.742021	-1609.236667	1098.403320	252.968079
29950.742021	-1609.236667	1097.261719	148.899902
29950.742021	-1609.236667	1096.120117	146.339020
29950.742021	-1609.236667	1094.977539	291.167755
29950.742021	-1609.236667	1093.834961	367.232239
29950.742021	-1609.236667	1092.691406	76.035873
29950.742021	-1609.236667	1091.548828	143.260254
29950.742021	-1609.236667	1090.405273	228.491257
29950.742021	-1609.236667	1089.261719	159.999893
29950.742021	-1609.236667	1088.118164	160.971680
29950.742021	-1609.236667	1086.973633	283.774200
29950.742021	-1609.236667	1085.829102	72.102318
29950.742021	-1609.236667	1084.684570	95.188438
29950.742021	-1609.236667	1083.540039	119.005196
29950.742021	-1609.236667	1082.395508	-13.986471
29950.742021	-1609.236667	1081.250000	-12.188578
29950.742021	-1609.236667	1080.104492	63.742249
29950.742021	-1609.236667	1078.958984	215.568695
29950.742021	-1609.236667	1077.812500	91.990280
29950.742021	-1609.236667	1076.666016	32.708813
29950.742021	-1609.236667	1075.519531	20.928394
29950.742021	-1609.236667	1074.373047	10.150977
29950.742021	-1609.236667	1073.226563	-102.569733
29950.742021	-1609.236667	1072.079102	-42.644619
29950.742021	-1609.236667	1070.931641	69.765884
29950.742021	-1609.236667	1069.784180	-9.104807
29950.742021	-1609.236667	1068.635742	47.597015
29950.742021	-1609.236667	1067.487305	-65.052689
29950.742021	-1609.236667	1066.338867	147.253708
29950.742021	-1609.236667	1065.190430	96.980057
29950.742021	-1609.236667	1064.041992	160.201599
29950.742021	-1609.236667	1062.892578	34.064930
29950.742021	-1609.236667	1061.743164	126.951759
29950.742021	-1609.236667	1060.593750	178.965607
29950.742021	-1609.236667	1059.443359	-39.151237
29950.742021	-1609.236667	1058.292969	-63.661560
29950.742021	-1609.236667	1057.142578	36.211990
29950.742021	-1609.236667	1055.992188	33.989941
29950.742021	-1609.236667	1054.841797	24.891062
29950.742021	-1609.236667	1053.690430	-18.854134
29950.742021	-1609.236667	1052.539063	91.950615
29950.742021	-1609.236667	1051.387695	12.584618
29950.742021	-1609.236667	1050.235352	-192.272415
29950.742021	-1609.236667	1049.083984	-50.708351
29950.742021	-1609.236667	1047.931641	-28.920464
29950.742021	-1609.236667	1046.778320	123.728935
29950.742021	-1609.236667	1045.625977	-10.845984
29950.742021	-1609.236667	1044.472656	35.750202
29950.742021	-1609.236667	1043.319336	106.822266
29950.742021	-1609.236667	1042.166016	66.773544
29950.742021	-1609.236667	1041.012695	80.895096
29950.742021	-1609.236667	1039.858398	31.434870
29950.742021	-1609.236667	1038.704102	202.387131
29950.742021	-1609.236667	1037.549805	7.143533
29950.742021	-1609.236667	1036.394531	202.951965
29950.742021	-1609.236667	1035.239258	-35.867058
29950.742021	-1609.236667	1034.083984	100.921837
29950.742021	-1609.236667	1032.928711	132.897781
29950.742021	-1609.236667	1031.773438	23.261028
29950.742021	-1609.236667	1030.617188	95.943985
29950.742021	-1609.236667	1029.460938	40.637329
29950.742021	-1609.236667	1028.304688	-18.686239
29950.742021	-1609.236667	1027.147461	101.153709
29950.742021	-1609.236667	1025.991211	-4.951624
29950.742021	-1609.236667	1024.833984	33.659351
29950.742021	-1609.236667	1023.675781	-92.407883
29950.742021	-1609.236667	1022.518555	-23.879255
29950.742021	-1609.236667	1021.360352	21.772982
29950.742021	-1609.236667	1020.202148	-51.661762
29950.742021	-1609.236667	1019.043945	-60.442234
29950.742021	-1609.236667	1017.884766	-1.646875
29950.742021	-1609.236667	1016.726563	122.904770
29950.742021	-1609.236667	1015.567383	-110.478439
29950.742021	-1609.236667	1014.407227	-65.984955
29950.742021	-1609.236667	1013.248047	-85.491867
29950.742021	-1609.236667	1012.087891	27.198286
29950.742021	-1609.236667	1010.927734	163.185577
29950.742021	-1609.236667	1009.767578	30.663406
29950.742021	-1609.236667	1008.606445	49.877457
29950.742021	-1609.236667	1007.446289	54.055260
29950.742021	-1609.236667	1006.285156	-130.465210
29950.742021	-1609.236667	1005.123047	40.465466
29950.742021	-1609.236667	1003.961914	1.768265
29950.742021	-1609.236667	1002.799805	36.648273
29950.742021	-1609.236667	1001.637695	-36.934975
29950.742021	-1609.236667	1000.475586	-45.581032
29950.742021	-1609.236667	999.312500	-70.455444
29950.742021	-1609.236667	998.149414	-9.429698
29950.742021	-1609.236667	996.986328	-98.932449
29950.742021	-1609.236667	995.823242	134.770737
29950.742021	-1609.236667	994.659180	-63.283604
29950.742021	-1609.236667	993.496094	-39.495560
29950.742021	-1609.236667	992.332031	-46.250107
29950.742021	-1609.236667	991.166992	-23.450537
29950.742021	-1609.236667	990.002930	35.789234
29950.742021	-1609.236667	988.837891	11.905472
29950.742021	-1609.236667	987.672852	157.725037
29950.742021	-1609.236667	986.506836	241.542221
29950.742021	-1609.236667	985.341797	4.114309
29950.742021	-1609.236667	984.175781	94.769058
29950.742021	-1609.236667	983.009766	88.055069
29950.742021	-1609.236667	981.843750	78.435280
29950.742021	-1609.236667	980.676758	276.574066
29950.742021	-1609.236667	979.509766	112.063950
29950.742021	-1609.236667	978.342773	208.762451
29950.742021	-1609.236667	977.175781	203.091476
29950.742021	-1609.236667	976.007813	143.429214
29950.742021	-1609.236667	974.839844	49.013786
29950.742021	-1609.236667	973.671875	-87.656715
29950.742021	-1609.236667	972.503906	67.251747
29950.742021	-1609.236667	971.334961	181.383911
29950.742021	-1609.236667	970.166016	-34.806236
29950.742021	-1609.236667	968.997070	45.844437
29950.742021	-1609.236667	967.828125	113.398491
29950.742021	-1609.236667	966.658203	176.673462
29950.742021	-1609.236667	965.488281	-63.832672
29950.742021	-1609.236667	964.318359	32.334236
29950.742021	-1609.236667	963.148438	114.244553
29950.742021	-1609.236667	961.977539	72.518517
29950.742021	-1609.236667	960.806641	-12.162271
29950.742021	-1609.236667	959.635742	-72.269440
29950.742021	-1609.236667	958.463867	143.678543
29950.742021	-1609.236667	957.292969	0.533212
29950.742021	-1609.236667	956.121094	84.391350
29950.742021	-1609.236667	954.948242	6.209037
29950.742021	-1609.236667	953.776367	13.527317
29950.742021	-1609.236667	952.603516	16.188032
29950.742021	-1609.236667	951.430664	47.037910
29950.742021	-1609.236667	950.257813	56.207851
29950.742021	-1609.236667	949.084961	32.348301
29950.742021	-1609.236667	947.911133	-136.364975
29950.742021	-1609.236667	946.737305	-88.568611
29950.742021	-1609.236667	945.563477	-49.451031
29950.742021	-1609.236667	944.388672	11.574627
29950.742021	-1609.236667	943.213867	93.082695
29950.742021	-1609.236667	942.039063	-68.655289
29950.742021	-1609.236667	940.864258	-9.581675
29950.742021	-1609.236667	939.688477	159.843506
29950.742021	-1609.236667	938.513672	68.038483
29950.742021	-1609.236667	937.337891	-32.792843
29950.742021	-1609.236667	936.161133	50.742119
29950.742021	-1609.236667	934.985352	152.727676
29950.742021	-1609.236667	933.808594	92.290527
29950.742021	-1609.236667	932.631836	16.093937
29950.742021	-1609.236667	931.454102	-42.000919
29950.742021	-1609.236667	930.277344	-100.145973
29950.742021	-1609.236667	929.099609	-20.954866
29950.742021	-1609.236667	927.921875	211.163452
29950.742021	-1609.236667	926.743164	128.273254
29950.742021	-1609.236667	925.565430	344.553711
29950.742021	-1609.236667	924.386719	122.189957
29950.742021	-1609.236667	923.208008	-16.911514
29950.742021	-1609.236667	922.028320	-3.088816
29950.742021	-1609.236667	920.849609	64.672272
29950.742021	-1609.236667	919.669922	66.692535
29950.742021	-1609.236667	919.474609	49.578033
29950.742021	-1609.236667	918.309570	36.367188
29950.742021	-1609.236667	917.143555	261.279083
29950.742021	-1609.236667	915.977539	0.948816
29950.742021	-1609.236667	914.810547	-10.027245
29950.742021	-1609.236667	913.644531	77.774414
29950.742021	-1609.236667	912.477539	212.668594
29950.742021	-1609.236667	911.310547	194.891983
29950.742021	-1609.236667	910.143555	152.430908
29950.742021	-1609.236667	908.975586	47.166866
29950.742021	-1609.236667	907.807617	101.175430
29950.742021	-1609.236667	906.639648	-107.204514
29950.742021	-1609.236667	905.471680	-160.819626
29950.742021	-1609.236667	904.303711	195.762711
29950.742021	-1609.236667	903.134766	148.812637
29950.742021	-1609.236667	901.965820	-63.929211
29950.742021	-1609.236667	900.796875	-144.430603
29950.742021	-1609.236667	899.626953	200.621521
29950.742021	-1609.236667	898.457031	243.234436
29950.742021	-1609.236667	897.287109	-38.793026
29950.742021	-1609.236667	896.117188	-164.038971
29950.742021	-1609.236667	894.947266	44.188976
29950.742021	-1609.236667	893.776367	12.926499
29950.742021	-1609.236667	892.605469	37.588123
29950.742021	-1609.236667	891.434570	-58.537083
29950.742021	-1609.236667	890.262695	-16.001377
29950.742021	-1609.236667	889.091797	129.337860
29950.742021	-1609.236667	887.919922	236.613388
29950.742021	-1609.236667	886.748047	111.436073
29950.742021	-1609.236667	885.575195	-89.660446
29950.742021	-1609.236667	884.403320	30.964561
29950.742021	-1609.236667	883.230469	-22.660702
29950.742021	-1609.236667	882.057617	95.649849
29950.742021	-1609.236667	880.883789	62.104630
29950.742021	-1609.236667	879.710938	84.358086
29950.742021	-1609.236667	878.537109	-132.168076
29950.742021	-1609.236667	877.362305	79.728241
29950.742021	-1609.236667	876.188477	-2.899022
29950.742021	-1609.236667	875.013672	68.370781
29950.742021	-1609.236667	873.839844	39.268372
29950.742021	-1609.236667	872.664063	10.170757
29950.742021	-1609.236667	871.489258	-83.559830
29950.742021	-1609.236667	870.313477	-170.575577
29950.742021	-1609.236667	869.138672	167.933914
29950.742021	-1609.236667	867.962891	-19.347654
29950.742021	-1609.236667	866.786133	80.701271
29950.742021	-1609.236667	865.610352	9.264644
29950.742021	-1609.236667	864.433594	-15.406968
29950.742021	-1609.236667	863.256836	37.813076
29950.742021	-1609.236667	862.079102	-102.575958
29950.742021	-1609.236667	860.902344	-231.796783
29950.742021	-1609.236667	859.724609	46.038284
29950.742021	-1609.236667	858.546875	190.328888
29950.742021	-1609.236667	857.368164	-63.400860
29950.742021	-1609.236667	856.190430	-85.874084
29950.742021	-1609.236667	855.011719	-92.791550
29950.742021	-1609.236667	853.833008	-17.509945
29950.742021	-1609.236667	852.654297	68.836914
29950.742021	-1609.236667	851.474609	30.767731
29950.742021	-1609.236667	850.294922	74.859436
29950.742021	-1609.236667	849.115234	65.642273
29950.742021	-1609.236667	847.935547	123.003899
29950.742021	-1609.236667	846.754883	-94.836319
29950.742021	-1609.236667	845.575195	-101.827942
29950.742021	-1609.236667	844.393555	-0.134652
29950.742021	-1609.236667	843.212891	-49.301807
29950.742021	-1609.236667	842.032227	-23.071987
29950.742021	-1609.236667	840.850586	145.011902
29950.742021	-1609.236667	839.668945	171.169449
29950.742021	-1609.236667	838.486328	73.214149
29950.742021	-1609.236667	837.304688	-11.419615
29950.742021	-1609.236667	836.122070	-31.795214
29950.742021	-1609.236667	834.939453	206.926102
29950.742021	-1609.236667	833.756836	78.001137
29950.742021	-1609.236667	832.573242	-22.104315
29950.742021	-1609.236667	831.389648	172.171188
29950.742021	-1609.236667	830.206055	36.659641
29950.742021	-1609.236667	829.022461	-63.410488
29950.742021	-1609.236667	827.838867	-74.980164
29950.742021	-1609.236667	826.654297	-37.906384
29950.742021	-1609.236667	825.469727	-14.125220
29950.742021	-1609.236667	824.284180	29.529741
29950.742021	-1609.236667	823.099609	2.433521
29950.742021	-1609.236667	821.914063	-95.367622
29950.742021	-1609.236667	820.728516	60.902168
29950.742021	-1609.236667	819.542969	-52.355286
29950.742021	-1609.236667	818.356445	35.364265
29950.742021	-1609.236667	817.169922	-9.426460
29950.742021	-1609.236667	815.983398	25.250023
29950.742021	-1609.236667	814.796875	-34.993053
29950.742021	-1609.236667	813.609375	10.681047
29950.742021	-1609.236667	812.422852	16.617245
29950.742021	-1609.236667	811.235352	20.333775
29950.742021	-1609.236667	810.046875	6.396959
29950.742021	-1609.236667	808.859375	-16.365797
29950.742021	-1609.236667	807.670898	22.582232
29950.742021	-1609.236667	806.482422	61.500919
29950.742021	-1609.236667	805.293945	62.937080
29950.742021	-1609.236667	804.104492	240.575027
29950.742021	-1609.236667	802.915039	184.690277
29950.742021	-1609.236667	801.725586	91.385323
29950.742021	-1609.236667	800.536133	-56.927303
29950.742021	-1609.236667	799.345703	-37.926128
29950.742021	-1609.236667	798.155273	49.266464
29950.742021	-1609.236667	796.964844	46.211452
29950.742021	-1609.236667	795.774414	7.952728
29950.742021	-1609.236667	794.583008	-138.056458
29950.742021	-1609.236667	793.392578	8.391952
29950.742021	-1609.236667	792.200195	148.173431
29950.742021	-1609.236667	791.008789	254.917267
29950.742021	-1609.236667	789.816406	166.050491
29950.742021	-1609.236667	788.625000	15.696750
29950.742021	-1609.236667	787.432617	106.986168
29950.742021	-1609.236667	786.239258	-10.382134
29950.742021	-1609.236667	785.046875	19.374754
29950.742021	-1609.236667	783.853516	93.005028
29950.742021	-1609.236667	782.660156	113.922104
29950.742021	-1609.236667	781.465820	-49.481438
29950.742021	-1609.236667	780.272461	43.816174
29950.742021	-1609.236667	779.078125	-31.809513
29950.742021	-1609.236667	777.883789	-221.436737
29950.742021	-1609.236667	776.688477	86.632210
29950.742021	-1609.236667	775.494141	109.629639
29950.742021	-1609.236667	774.298828	86.585808
29950.742021	-1609.236667	773.103516	72.300919
29950.742021	-1609.236667	771.907227	84.291016
29950.742021	-1609.236667	770.711914	-92.073318
29950.742021	-1609.236667	769.515625	84.127235
29950.742021	-1609.236667	768.318359	58.850094
29950.742021	-1609.236667	767.122070	136.429794
29950.742021	-1609.236667	765.924805	115.497017
29950.742021	-1609.236667	764.727539	147.062012
29950.742021	-1609.236667	763.530273	287.958710
29950.742021	-1609.236667	762.333008	54.846241
29950.742021	-1609.236667	761.134766	156.319626
29950.742021	-1609.236667	759.936523	41.336468
29950.742021	-1609.236667	758.738281	59.694542
29950.742021	-1609.236667	757.540039	-33.402580
29950.742021	-1609.236667	756.340820	124.738228
29950.742021	-1609.236667	755.141602	84.051643
29950.742021	-1609.236667	753.942383	-22.141571
29950.742021	-1609.236667	752.742188	72.540627
29950.742021	-1609.236667	751.541992	215.184830
29950.742021	-1609.236667	750.341797	-41.588421
29950.742021	-1609.236667	749.141602	26.809223
29950.742021	-1609.236667	747.941406	184.595001
29950.742021	-1609.236667	746.740234	45.705101
29950.742021	-1609.236667	745.539063	118.354103
29950.742021	-1609.236667	744.337891	140.817368
29950.742021	-1609.236667	743.135742	315.818634
29950.742021	-1609.236667	741.933594	120.297119
29950.742021	-1609.236667	740.731445	53.375858
29950.742021	-1609.236667	739.529297	132.399536
29950.742021	-1609.236667	738.326172	106.845757
29950.742021	-1609.236667	737.124023	140.070709
29950.742021	-1609.236667	735.919922	197.209412
29950.742021	-1609.236667	734.716797	297.832825
29950.742021	-1609.236667	733.513672	468.024017
29950.742021	-1609.236667	732.309570	159.544769
29950.742021	-1609.236667	731.105469	227.438873
29950.742021	-1609.236667	729.900391	404.010071
29950.742021	-1609.236667	728.696289	445.702606
29950.742021	-1609.236667	727.491211	191.756699
29950.742021	-1609.236667	726.286133	298.635223
29950.742021	-1609.236667	725.080078	92.590073
29950.742021	-1609.236667	723.874023	23.462055
29950.742021	-1609.236667	722.668945	67.276611
29950.742021	-1609.236667	721.461914	74.143883
29950.742021	-1609.236667	720.255859	-23.208904
29950.742021	-1609.236667	719.048828	61.773254
29950.742021	-1609.236667	717.841797	16.506924
29950.742021	-1609.236667	716.634766	-78.654877
29950.742021	-1609.236667	715.427734	19.247812
29950.742021	-1609.236667	714.219727	47.698223
29950.742021	-1609.236667	713.011719	-60.471001
29950.742021	-1609.236667	711.803711	258.414459
29950.742021	-1609.236667	710.594727	-10.160726
29950.742021	-1609.236667	709.385742	-29.465921
29950.742021	-1609.236667	708.176758	61.700542
29950.742021	-1609.236667	706.967773	-159.069046
29950.742021	-1609.236667	705.758789	-150.233185
29950.742021	-1609.236667	704.548828	172.495987
29950.742021	-1609.236667	703.338867	-24.401329
29950.742021	-1609.236667	702.127930	-108.704201
29950.742021	-1609.236667	700.917969	64.475151
29950.742021	-1609.236667	699.707031	-134.491287
29950.742021	-1609.236667	698.496094	-0.342451
29950.742021	-1609.236667	697.285156	6.162881
29950.742021	-1609.236667	696.073242	27.780239
29950.742021	-1609.236667	694.861328	55.854710
29950.742021	-1609.236667	693.649414	34.201748
29950.742021	-1609.236667	692.436523	88.152046
29950.742021	-1609.236667	691.224609	-28.570436
29950.742021	-1609.236667	690.011719	105.237144
29950.742021	-1609.236667	688.798828	68.408714
29950.742021	-1609.236667	687.584961	22.943377
29950.742021	-1609.236667	686.372070	59.489525
29950.742021	-1609.236667	685.158203	-65.822845
29950.742021	-1609.236667	683.943359	115.224037
29950.742021	-1609.236667	682.729492	106.383148
29950.742021	-1609.236667	681.514648	267.876190
29950.742021	-1609.236667	680.299805	233.103165
29950.742021	-1609.236667	679.084961	131.510361
29950.742021	-1609.236667	677.869141	90.280922
29950.742021	-1609.236667	676.653320	178.320679
29950.742021	-1609.236667	675.437500	-114.956223
29950.742021	-1609.236667	674.221680	151.802826
29950.742021	-1609.236667	673.004883	325.848236
29950.742021	-1609.236667	671.789063	129.545578
29950.742021	-1609.236667	670.571289	249.682114
29950.742021	-1609.236667	669.354492	109.390617
29950.742021	-1609.236667	668.136719	44.435535
29950.742021	-1609.236667	666.919922	89.186409
29950.742021	-1609.236667	665.701172	88.742874
29950.742021	-1609.236667	664.483398	66.783791
29950.742021	-1609.236667	663.264648	-60.508053
29950.742021	-1609.236667	662.045898	42.185009
29950.742021	-1609.236667	660.827148	54.577423
29950.742021	-1609.236667	659.608398	174.356308
29950.742021	-1609.236667	658.388672	100.776848
29950.742021	-1609.236667	657.168945	274.142609
29950.742021	-1609.236667	655.949219	-5.548237
29950.742021	-1609.236667	654.728516	-109.140144
29950.742021	-1609.236667	653.507813	38.362877
29950.742021	-1609.236667	652.287109	132.153320
29950.742021	-1609.236667	651.066406	-153.769669
29950.742021	-1609.236667	649.844727	-141.501068
29950.742021	-1609.236667	648.623047	145.185150
29950.742021	-1609.236667	647.401367	28.739801
29950.742021	-1609.236667	646.179688	19.485746
29950.742021	-1609.236667	644.957031	-15.492805
29950.742021	-1609.236667	643.734375	24.507273
29950.742021	-1609.236667	642.511719	15.214621
29950.742021	-1609.236667	641.289063	121.543427
29950.742021	-1609.236667	640.065430	52.260487
29950.742021	-1609.236667	638.841797	132.821899
29950.742021	-1609.236667	637.618164	172.676056
29950.742021	-1609.236667	636.393555	135.475433
29950.742021	-1609.236667	635.168945	87.581474
29950.742021	-1609.236667	633.944336	14.031414
29950.742021	-1609.236667	632.719727	51.682819
29950.742021	-1609.236667	631.494141	121.368828
29950.742021	-1609.236667	630.269531	-65.456306
29950.742021	-1609.236667	629.042969	-34.265152
29950.742021	-1609.236667	627.817383	84.492302
29950.742021	-1609.236667	626.590820	122.021202
29950.742021	-1609.236667	625.365234	20.718283
29950.742021	-1609.236667	624.137695	216.207535
29950.742021	-1609.236667	622.911133	131.977570
29950.742021	-1609.236667	621.683594	96.854561
29950.742021	-1609.236667	620.456055	53.199081
29950.742021	-1609.236667	619.228516	111.942924
29950.742021	-1609.236667	618.000977	-17.029957
29950.742021	-1609.236667	616.772461	77.927925
29950.742021	-1609.236667	615.543945	-36.084541
29950.742021	-1609.236667	614.314453	28.973684
29950.742021	-1609.236667	613.085938	-1.897957
29950.742021	-1609.236667	611.856445	56.711544
29950.742021	-1609.236667	610.626953	-74.285408
29950.742021	-1609.236667	609.397461	11.976576
29950.742021	-1609.236667	608.166992	44.963299
29950.742021	-1609.236667	606.936523	24.708275
29950.742021	-1609.236667	605.706055	42.758541
29950.742021	-1609.236667	604.474609	-115.812218
29950.742021	-1609.236667	603.244141	-40.322304
29950.742021	-1609.236667	602.012695	-81.852531
29950.742021	-1609.236667	600.780273	-29.814390
29950.742021	-1609.236667	599.548828	-292.446075
29950.742021	-1609.236667	598.316406	110.300476
29950.742021	-1609.236667	597.083984	-105.518219
29950.742021	-1609.236667	595.851563	-11.066574
29950.742021	-1609.236667	594.618164	-12.249956
29950.742021	-1609.236667	593.384766	-11.318963
29950.742021	-1609.236667	592.151367	-224.842789
29950.742021	-1609.236667	590.917969	-7.361323
29950.742021	-1609.236667	589.683594	57.210251
29950.742021	-1609.236667	588.449219	138.721939
29950.742021	-1609.236667	587.214844	12.290101
29950.742021	-1609.236667	585.979492	85.274918
29950.742021	-1609.236667	584.745117	-0.818034
29950.742021	-1609.236667	583.509766	165.404358
29950.742021	-1609.236667	582.273438	-105.092972
29950.742021	-1609.236667	581.038086	92.852814
29950.742021	-1609.236667	579.801758	-48.288082
29950.742021	-1609.236667	578.565430	-66.517197
29950.742021	-1609.236667	577.329102	69.853065
29950.742021	-1609.236667	576.091797	-7.695089
29950.742021	-1609.236667	574.854492	50.263550
29950.742021	-1609.236667	573.617188	17.183180
29950.742021	-1609.236667	572.378906	104.720764
29950.742021	-1609.236667	571.141602	-19.339725
29950.742021	-1609.236667	569.903320	-39.715706
29950.742021	-1609.236667	568.664063	-77.008690
29950.742021	-1609.236667	567.425781	-72.006958
29950.742021	-1609.236667	566.186523	78.831787
29950.742021	-1609.236667	564.947266	-28.220566
29950.742021	-1609.236667	563.708008	95.064545
29950.742021	-1609.236667	562.467773	-92.231194
29950.742021	-1609.236667	561.227539	-21.798800
29950.742021	-1609.236667	559.987305	-109.763245
29950.742021	-1609.236667	558.747070	-90.033714
29950.742021	-1609.236667	557.505859	163.952896
29950.742021	-1609.236667	556.264648	-52.733723
29950.742021	-1609.236667	555.023438	-123.767403
29950.742021	-1609.236667	553.781250	37.237164
29950.742021	-1609.236667	552.539063	151.772522
29950.742021	-1609.236667	551.296875	-68.971931
29950.742021	-1609.236667	550.054688	89.788910
29950.742021	-1609.236667	548.811523	-6.524544
29950.742021	-1609.236667	547.569336	-3.774824
29950.742021	-1609.236667	546.325195	-28.421310
29950.742021	-1609.236667	545.082031	62.771549
29950.742021	-1609.236667	543.837891	40.212921
29950.742021	-1609.236667	542.593750	85.021271
29950.742021	-1609.236667	541.349609	207.677902
29950.742021	-1609.236667	540.105469	33.572300
29950.742021	-1609.236667	538.860352	29.941133
29950.742021	-1609.236667	537.615234	108.335449
29950.742021	-1609.236667	536.369141	58.406910
29950.742021	-1609.236667	535.124023	4.289050
29950.742021	-1609.236667	533.877930	91.018768
29950.742021	-1609.236667	532.631836	144.076752
29950.742021	-1609.236667	531.384766	29.012053
29950.742021	-1609.236667	530.138672	237.490387
29950.742021	-1609.236667	528.891602	17.425503
29950.742021	-1609.236667	527.643555	-30.377287
29950.742021	-1609.236667	526.396484	22.598326
29950.742021	-1609.236667	525.148438	167.889023
29950.742021	-1609.236667	523.900391	-108.674980
29950.742021	-1609.236667	522.652344	21.871721
29950.742021	-1609.236667	521.403320	41.181473
29950.742021	-1609.236667	520.154297	203.069794
29950.742021	-1609.236667	518.905273	-27.190355
29950.742021	-1609.236667	517.656250	-18.403172
29950.742021	-1609.236667	516.406250	7.129447
29950.742021	-1609.236667	515.156250	30.541323
29950.742021	-1609.236667	513.906250	20.410988
29950.742021	-1609.236667	512.655273	31.210855
29950.742021	-1609.236667	511.404297	-54.329597
29950.742021	-1609.236667	510.153320	151.139572
29950.742021	-1609.236667	508.902344	6.970213
29950.742021	-1609.236667	507.650391	38.617016
29950.742021	-1609.236667	506.398438	3.283020
29950.742021	-1609.236667	505.146484	131.093445
29950.742021	-1609.236667	503.893555	114.533089
29950.742021	-1609.236667	502.641602	227.586945
29950.742021	-1609.236667	501.388672	77.189224
29950.742021	-1609.236667	500.134766	248.668091
29950.742021	-1609.236667	498.881836	351.100311
29950.742021	-1609.236667	497.627930	194.429657
29950.742021	-1609.236667	496.374023	-8.146825
29950.742021	-1609.236667	495.119141	67.046730
29950.742021	-1609.236667	493.865234	16.924028
29950.742021	-1609.236667	492.610352	213.075989
29950.742021	-1609.236667	491.355469	219.222046
29950.742021	-1609.236667	490.099609	114.758530
29950.742021	-1609.236667	488.843750	200.116745
29950.742021	-1609.236667	487.587891	137.342316
29950.742021	-1609.236667	486.332031	289.305023
29950.742021	-1609.236667	485.075195	211.871628
29950.742021	-1609.236667	483.818359	447.034882
29950.742021	-1609.236667	482.561523	563.292419
29950.742021	-1609.236667	481.304688	444.066528
29950.742021	-1609.236667	480.046875	401.905334
29950.742021	-1609.236667	478.789063	407.608185
29950.742021	-1609.236667	477.531250	471.552338
29950.742021	-1609.236667	476.272461	497.953583
29950.742021	-1609.236667	475.013672	420.248962
29950.742021	-1609.236667	473.754883	467.352661
29950.742021	-1609.236667	472.496094	481.101776
29950.742021	-1609.236667	471.236328	667.387451
29950.742021	-1609.236667	469.976563	454.352722
29950.742021	-1609.236667	468.716797	617.581543
29950.742021	-1609.236667	467.456055	556.232361
29950.742021	-1609.236667	466.196289	405.505371
29950.742021	-1609.236667	464.935547	396.030060
29950.742021	-1609.236667	463.673828	355.334229
29950.742021	-1609.236667	462.413086	441.248169
29950.742021	-1609.236667	461.151367	464.770905
29950.742021	-1609.236667	459.889648	567.076477
29950.742021	-1609.236667	458.626953	509.477905
29950.742021	-1609.236667	457.364258	534.807434
29950.742021	-1609.236667	456.101563	555.893555
29950.742021	-1609.236667	454.838867	506.379089
29950.742021	-1609.236667	453.575195	429.841064
29950.742021	-1609.236667	452.312500	500.416748
29950.742021	-1609.236667	451.047852	545.990967
29950.742021	-1609.236667	449.784180	585.235474
29950.742021	-1609.236667	448.519531	450.356415
29950.742021	-1609.236667	447.254883	481.110748
29950.742021	-1609.236667	445.990234	418.569489
29950.742021	-1609.236667	444.725586	444.958893
29950.742021	-1609.236667	443.459961	754.762939
29950.742021	-1609.236667	442.194336	621.502319
29950.742021	-1609.236667	440.927734	676.431213
29950.742021	-1609.236667	439.662109	636.071472
29950.742021	-1609.236667	438.395508	678.311707
29950.742021	-1609.236667	437.127930	648.035522
29950.742021	-1609.236667	435.861328	733.390015
29950.742021	-1609.236667	434.593750	634.640930
29950.742021	-1609.236667	433.326172	504.797150
29950.742021	-1609.236667	432.058594	630.999084
29950.742021	-1609.236667	430.790039	575.251221
29950.742021	-1609.236667	429.521484	422.324402
29950.742021	-1609.236667	428.252930	618.167236
29950.742021	-1609.236667	426.984375	543.392273
29950.742021	-1609.236667	425.714844	602.592957
29950.742021	-1609.236667	424.445313	566.693542
29950.742021	-1609.236667	423.174805	524.433411
29950.742021	-1609.236667	421.905273	556.243469
29950.742021	-1609.236667	420.634766	668.243896
29950.742021	-1609.236667	419.364258	689.305237
29950.742021	-1609.236667	418.092773	708.085754
29950.742021	-1609.236667	416.822266	800.823792
29950.742021	-1609.236667	415.550781	639.941528
29950.742021	-1609.236667	414.278320	579.809692
29950.742021	-1609.236667	413.006836	688.315552
29950.742021	-1609.236667	411.734375	782.124146
29950.742021	-1609.236667	410.461914	684.253662
29950.742021	-1609.236667	409.188477	557.365234
29950.742021	-1609.236667	407.916016	623.657593
29950.742021	-1609.236667	406.642578	852.133545
29950.742021	-1609.236667	405.368164	652.533936
29950.742021	-1609.236667	404.094727	802.242859
29950.742021	-1609.236667	402.820313	719.340637
29950.742021	-1609.236667	401.545898	658.791077
29950.742021	-1609.236667	400.270508	688.359314
29950.742021	-1609.236667	398.996094	518.379822
29950.742021	-1609.236667	397.720703	567.886597
29950.742021	-1609.236667	396.444336	426.101685
29950.742021	-1609.236667	395.168945	581.700378
29950.742021	-1609.236667	393.892578	394.162018
29950.742021	-1609.236667	392.616211	590.045654
29950.742021	-1609.236667	391.339844	539.330383
29950.742021	-1609.236667	390.062500	471.857941
29950.742021	-1609.236667	388.785156	350.732758
29950.742021	-1609.236667	387.507813	399.431305
29950.742021	-1609.236667	386.229492	414.915222
29950.742021	-1609.236667	384.951172	315.243164
29950.742021	-1609.236667	383.672852	452.852112
29950.742021	-1609.236667	382.394531	510.102600
29950.742021	-1609.236667	381.115234	517.740417
29950.742021	-1609.236667	379.835938	217.836426
29950.742021	-1609.236667	378.556641	284.007477
29950.742021	-1609.236667	377.277344	560.473755
29950.742021	-1609.236667	375.997070	394.399719
29950.742021	-1609.236667	374.716797	358.832458
29950.742021	-1609.236667	373.435547	425.028046
29950.742021	-1609.236667	372.155273	370.069855
29950.742021	-1609.236667	370.874023	259.410889
29950.742021	-1609.236667	369.591797	307.669373
29950.742021	-1609.236667	368.310547	365.600159
29950.742021	-1609.236667	367.028320	255.418976
29950.742021	-1609.236667	365.746094	365.304749
29950.742021	-1609.236667	364.463867	215.230423
29950.742021	-1609.236667	363.180664	417.800598
29950.742021	-1609.236667	361.897461	266.565918
29950.742021	-1609.236667	360.614258	280.072845
29950.742021	-1609.236667	359.330078	150.106445
29950.742021	-1609.236667	358.045898	333.674072
29950.742021	-1609.236667	356.761719	277.900482
29950.742021	-1609.236667	355.477539	268.369293
29950.742021	-1609.236667	354.192383	249.976837
29950.742021	-1609.236667	352.907227	289.988190
29950.742021	-1609.236667	351.622070	207.008591
29950.742021	-1609.236667	350.336914	318.890106
29950.742021	-1609.236667	349.050781	75.567833
29950.742021	-1609.236667	347.764648	77.964127
29950.742021	-1609.236667	346.477539	26.617836
29950.742021	-1609.236667	345.191406	155.661331
29950.742021	-1609.236667	343.904297	-98.755302
29950.742021	-1609.236667	342.616211	22.445950
29950.742021	-1609.236667	341.329102	-5.715951
29950.742021	-1609.236667	340.041016	129.950348
29950.742021	-1609.236667	338.752930	169.109558
29950.742021	-1609.236667	337.463867	-140.273438
29950.742021	-1609.236667	336.175781	94.213058
29950.742021	-1609.236667	334.886719	118.344620
29950.742021	-1609.236667	333.596680	29.741768
29950.742021	-1609.236667	332.307617	-15.100479
29950.742021	-1609.236667	331.017578	-109.696007
29950.742021	-1609.236667	329.727539	-30.700794
29950.742021	-1609.236667	328.436523	112.119942
29950.742021	-1609.236667	327.146484	69.190773
29950.742021	-1609.236667	325.855469	61.666046
29950.742021	-1609.236667	324.563477	71.243675
29950.742021	-1609.236667	323.272461	77.687004
29950.742021	-1609.236667	321.980469	147.801559
29950.742021	-1609.236667	320.688477	-24.502073
29950.742021	-1609.236667	319.395508	63.432095
29950.742021	-1609.236667	318.103516	-34.233536
29950.742021	-1609.236667	316.810547	-50.107288
29950.742021	-1609.236667	315.516602	-77.427795
29950.742021	-1609.236667	314.223633	-22.989168
29950.742021	-1609.236667	312.929688	-61.045288
29950.742021	-1609.236667	311.635742	-61.993469
29950.742021	-1609.236667	310.340820	4.417201
29950.742021	-1609.236667	309.045898	41.062023
29950.742021	-1609.236667	307.750977	-172.516983
29950.742021	-1609.236667	306.456055	-72.035027
29950.742021	-1609.236667	305.160156	-104.550941
29950.742021	-1609.236667	303.865234	-53.639473
29950.742021	-1609.236667	302.568359	50.144203
29950.742021	-1609.236667	301.272461	29.113173
29950.742021	-1609.236667	299.975586	277.075623
29950.742021	-1609.236667	298.678711	325.380829
