#X		#Y		#Wave		#Intensity
29941.101596	-1535.786667	1999.980469	35.036987
29941.101596	-1535.786667	1999.016602	132.183105
29941.101596	-1535.786667	1998.052734	-23.985392
29941.101596	-1535.786667	1997.087891	-23.917593
29941.101596	-1535.786667	1996.123047	8.415946
29941.101596	-1535.786667	1995.158203	144.835419
29941.101596	-1535.786667	1994.193359	130.175705
29941.101596	-1535.786667	1993.228516	-82.529831
29941.101596	-1535.786667	1992.262695	58.935940
29941.101596	-1535.786667	1991.297852	9.796268
29941.101596	-1535.786667	1990.332031	42.392963
29941.101596	-1535.786667	1989.366211	35.432293
29941.101596	-1535.786667	1988.399414	-25.910088
29941.101596	-1535.786667	1987.433594	-35.240776
29941.101596	-1535.786667	1986.466797	-7.430617
29941.101596	-1535.786667	1985.500977	32.774265
29941.101596	-1535.786667	1984.534180	30.975908
29941.101596	-1535.786667	1983.567383	-12.801908
29941.101596	-1535.786667	1982.599609	29.965752
29941.101596	-1535.786667	1981.632813	6.044023
29941.101596	-1535.786667	1980.665039	6.868115
29941.101596	-1535.786667	1979.697266	34.894367
29941.101596	-1535.786667	1978.729492	-3.731125
29941.101596	-1535.786667	1977.761719	81.136780
29941.101596	-1535.786667	1976.792969	121.570236
29941.101596	-1535.786667	1975.825195	60.829967
29941.101596	-1535.786667	1974.856445	61.829014
29941.101596	-1535.786667	1973.887695	-25.960724
29941.101596	-1535.786667	1972.918945	-34.758247
29941.101596	-1535.786667	1971.949219	-6.534606
29941.101596	-1535.786667	1970.980469	-69.528038
29941.101596	-1535.786667	1970.010742	-31.398600
29941.101596	-1535.786667	1969.041016	31.387831
29941.101596	-1535.786667	1968.071289	91.709030
29941.101596	-1535.786667	1967.101563	43.616879
29941.101596	-1535.786667	1966.130859	-66.023972
29941.101596	-1535.786667	1965.161133	-121.417732
29941.101596	-1535.786667	1964.190430	15.304980
29941.101596	-1535.786667	1963.219727	38.739544
29941.101596	-1535.786667	1962.249023	-38.743961
29941.101596	-1535.786667	1961.277344	6.875566
29941.101596	-1535.786667	1960.306641	67.259048
29941.101596	-1535.786667	1959.334961	4.622072
29941.101596	-1535.786667	1958.363281	-1.401887
29941.101596	-1535.786667	1957.391602	-17.247105
29941.101596	-1535.786667	1956.419922	-1.107847
29941.101596	-1535.786667	1955.447266	27.329647
29941.101596	-1535.786667	1954.474609	48.394405
29941.101596	-1535.786667	1953.501953	17.855104
29941.101596	-1535.786667	1952.529297	53.678425
29941.101596	-1535.786667	1951.556641	47.736343
29941.101596	-1535.786667	1950.583984	58.998993
29941.101596	-1535.786667	1949.610352	-18.138411
29941.101596	-1535.786667	1948.636719	-46.134171
29941.101596	-1535.786667	1947.663086	-76.566452
29941.101596	-1535.786667	1946.689453	69.730492
29941.101596	-1535.786667	1945.715820	78.564034
29941.101596	-1535.786667	1944.741211	11.345349
29941.101596	-1535.786667	1943.767578	-109.806259
29941.101596	-1535.786667	1942.792969	33.959949
29941.101596	-1535.786667	1941.818359	-11.128022
29941.101596	-1535.786667	1940.842773	-39.033665
29941.101596	-1535.786667	1939.868164	18.864279
29941.101596	-1535.786667	1938.892578	-11.479122
29941.101596	-1535.786667	1937.916992	75.801620
29941.101596	-1535.786667	1936.941406	-25.577082
29941.101596	-1535.786667	1935.965820	-73.031128
29941.101596	-1535.786667	1934.990234	-51.897812
29941.101596	-1535.786667	1934.013672	-74.841431
29941.101596	-1535.786667	1933.037109	9.933460
29941.101596	-1535.786667	1932.060547	121.600121
29941.101596	-1535.786667	1931.083984	39.912857
29941.101596	-1535.786667	1930.107422	-41.743137
29941.101596	-1535.786667	1929.129883	38.073345
29941.101596	-1535.786667	1928.153320	10.252666
29941.101596	-1535.786667	1927.175781	112.036209
29941.101596	-1535.786667	1926.198242	18.203377
29941.101596	-1535.786667	1925.219727	22.175156
29941.101596	-1535.786667	1924.242188	-42.281837
29941.101596	-1535.786667	1923.263672	-6.538734
29941.101596	-1535.786667	1922.285156	97.590889
29941.101596	-1535.786667	1921.306641	-23.025284
29941.101596	-1535.786667	1920.328125	83.506813
29941.101596	-1535.786667	1919.349609	-37.065723
29941.101596	-1535.786667	1918.370117	-30.659754
29941.101596	-1535.786667	1917.391602	2.588344
29941.101596	-1535.786667	1916.412109	-12.982327
29941.101596	-1535.786667	1915.431641	56.839226
29941.101596	-1535.786667	1914.452148	-19.723240
29941.101596	-1535.786667	1913.472656	42.751339
29941.101596	-1535.786667	1912.492188	10.102965
29941.101596	-1535.786667	1911.511719	-27.412502
29941.101596	-1535.786667	1910.531250	-8.856741
29941.101596	-1535.786667	1909.550781	26.746910
29941.101596	-1535.786667	1908.569336	-40.001038
29941.101596	-1535.786667	1907.588867	75.977272
29941.101596	-1535.786667	1906.607422	174.858109
29941.101596	-1535.786667	1905.625977	42.357338
29941.101596	-1535.786667	1904.644531	80.331055
29941.101596	-1535.786667	1903.662109	179.141495
29941.101596	-1535.786667	1902.680664	17.494516
29941.101596	-1535.786667	1901.698242	55.436481
29941.101596	-1535.786667	1900.715820	0.909635
29941.101596	-1535.786667	1899.733398	-46.304623
29941.101596	-1535.786667	1898.750000	-35.139458
29941.101596	-1535.786667	1897.767578	136.497040
29941.101596	-1535.786667	1896.784180	52.801598
29941.101596	-1535.786667	1895.800781	61.495079
29941.101596	-1535.786667	1894.817383	36.157734
29941.101596	-1535.786667	1893.833984	83.715279
29941.101596	-1535.786667	1892.850586	17.074633
29941.101596	-1535.786667	1891.866211	127.755013
29941.101596	-1535.786667	1890.881836	116.970963
29941.101596	-1535.786667	1889.897461	21.209017
29941.101596	-1535.786667	1888.913086	44.421024
29941.101596	-1535.786667	1887.927734	-12.472194
29941.101596	-1535.786667	1886.943359	-110.600494
29941.101596	-1535.786667	1885.958008	53.317020
29941.101596	-1535.786667	1884.972656	42.522778
29941.101596	-1535.786667	1883.987305	22.025784
29941.101596	-1535.786667	1883.001953	47.599693
29941.101596	-1535.786667	1882.015625	51.339134
29941.101596	-1535.786667	1881.029297	-29.761959
29941.101596	-1535.786667	1880.042969	44.255138
29941.101596	-1535.786667	1879.056641	77.049103
29941.101596	-1535.786667	1878.070313	-50.056358
29941.101596	-1535.786667	1877.083984	52.968292
29941.101596	-1535.786667	1876.096680	5.812391
29941.101596	-1535.786667	1875.109375	24.036812
29941.101596	-1535.786667	1874.122070	-110.251022
29941.101596	-1535.786667	1873.134766	91.908836
29941.101596	-1535.786667	1872.146484	39.915684
29941.101596	-1535.786667	1871.159180	7.290275
29941.101596	-1535.786667	1870.170898	25.465452
29941.101596	-1535.786667	1869.182617	29.117130
29941.101596	-1535.786667	1868.194336	-30.104046
29941.101596	-1535.786667	1867.205078	-40.961174
29941.101596	-1535.786667	1866.216797	-27.649971
29941.101596	-1535.786667	1865.227539	43.646137
29941.101596	-1535.786667	1864.238281	6.185385
29941.101596	-1535.786667	1863.249023	14.629645
29941.101596	-1535.786667	1862.259766	73.782890
29941.101596	-1535.786667	1861.269531	29.073895
29941.101596	-1535.786667	1860.279297	-13.210279
29941.101596	-1535.786667	1859.290039	86.931328
29941.101596	-1535.786667	1858.298828	32.572094
29941.101596	-1535.786667	1857.308594	26.486088
29941.101596	-1535.786667	1856.318359	112.069611
29941.101596	-1535.786667	1855.327148	19.125431
29941.101596	-1535.786667	1854.335938	-112.374771
29941.101596	-1535.786667	1853.344727	-14.776926
29941.101596	-1535.786667	1852.353516	82.777878
29941.101596	-1535.786667	1851.362305	-22.166386
29941.101596	-1535.786667	1850.370117	-25.868746
29941.101596	-1535.786667	1849.377930	37.884209
29941.101596	-1535.786667	1848.385742	94.380585
29941.101596	-1535.786667	1847.393555	88.231743
29941.101596	-1535.786667	1846.401367	-74.436325
29941.101596	-1535.786667	1845.408203	10.920320
29941.101596	-1535.786667	1844.415039	31.249243
29941.101596	-1535.786667	1843.421875	17.872492
29941.101596	-1535.786667	1842.428711	-2.723580
29941.101596	-1535.786667	1841.435547	32.012569
29941.101596	-1535.786667	1840.441406	-75.178619
29941.101596	-1535.786667	1839.448242	-83.739372
29941.101596	-1535.786667	1838.454102	37.529411
29941.101596	-1535.786667	1837.459961	-16.734959
29941.101596	-1535.786667	1836.464844	39.570965
29941.101596	-1535.786667	1835.470703	21.359497
29941.101596	-1535.786667	1834.475586	87.235703
29941.101596	-1535.786667	1833.480469	76.215813
29941.101596	-1535.786667	1832.485352	127.635788
29941.101596	-1535.786667	1831.490234	44.566952
29941.101596	-1535.786667	1830.495117	38.345753
29941.101596	-1535.786667	1829.499023	20.119308
29941.101596	-1535.786667	1828.502930	78.687080
29941.101596	-1535.786667	1827.506836	7.663343
29941.101596	-1535.786667	1826.510742	30.217075
29941.101596	-1535.786667	1825.513672	-43.181141
29941.101596	-1535.786667	1824.517578	140.027115
29941.101596	-1535.786667	1823.520508	49.842045
29941.101596	-1535.786667	1822.523438	91.524574
29941.101596	-1535.786667	1821.526367	15.751479
29941.101596	-1535.786667	1820.529297	16.679035
29941.101596	-1535.786667	1819.531250	39.161095
29941.101596	-1535.786667	1818.533203	78.396332
29941.101596	-1535.786667	1817.535156	148.743896
29941.101596	-1535.786667	1816.537109	144.834427
29941.101596	-1535.786667	1815.539063	-79.318390
29941.101596	-1535.786667	1814.540039	-8.997926
29941.101596	-1535.786667	1813.541992	27.789389
29941.101596	-1535.786667	1812.542969	43.023888
29941.101596	-1535.786667	1811.543945	-70.926048
29941.101596	-1535.786667	1810.543945	39.975517
29941.101596	-1535.786667	1809.544922	143.657486
29941.101596	-1535.786667	1808.544922	-8.515556
29941.101596	-1535.786667	1807.544922	171.614319
29941.101596	-1535.786667	1806.544922	21.872835
29941.101596	-1535.786667	1805.544922	-70.471947
29941.101596	-1535.786667	1804.544922	-55.284996
29941.101596	-1535.786667	1803.543945	67.372169
29941.101596	-1535.786667	1802.542969	-36.885441
29941.101596	-1535.786667	1801.541992	-28.892542
29941.101596	-1535.786667	1800.541016	29.221729
29941.101596	-1535.786667	1799.539063	-17.705719
29941.101596	-1535.786667	1798.538086	69.008995
29941.101596	-1535.786667	1797.536133	22.081411
29941.101596	-1535.786667	1796.534180	44.340664
29941.101596	-1535.786667	1795.532227	-33.578236
29941.101596	-1535.786667	1794.529297	38.744854
29941.101596	-1535.786667	1793.527344	63.357132
29941.101596	-1535.786667	1792.524414	59.351532
29941.101596	-1535.786667	1791.521484	36.277912
29941.101596	-1535.786667	1790.518555	13.207809
29941.101596	-1535.786667	1789.514648	66.369431
29941.101596	-1535.786667	1788.511719	121.888885
29941.101596	-1535.786667	1787.507813	15.455008
29941.101596	-1535.786667	1786.503906	23.335438
29941.101596	-1535.786667	1785.500000	93.096832
29941.101596	-1535.786667	1784.496094	20.032404
29941.101596	-1535.786667	1783.491211	-55.390167
29941.101596	-1535.786667	1782.486328	-49.902973
29941.101596	-1535.786667	1781.481445	62.612148
29941.101596	-1535.786667	1780.476563	25.258707
29941.101596	-1535.786667	1779.471680	21.201258
29941.101596	-1535.786667	1778.465820	-39.913349
29941.101596	-1535.786667	1777.460938	79.623848
29941.101596	-1535.786667	1776.455078	13.758172
29941.101596	-1535.786667	1775.449219	-4.570817
29941.101596	-1535.786667	1774.442383	-49.028297
29941.101596	-1535.786667	1773.436523	-60.223877
29941.101596	-1535.786667	1772.429688	130.410538
29941.101596	-1535.786667	1771.422852	31.334032
29941.101596	-1535.786667	1770.416016	-77.204605
29941.101596	-1535.786667	1769.409180	75.338326
29941.101596	-1535.786667	1768.402344	130.537994
29941.101596	-1535.786667	1767.394531	-70.491997
29941.101596	-1535.786667	1766.386719	32.138390
29941.101596	-1535.786667	1765.378906	42.242134
29941.101596	-1535.786667	1764.371094	47.594860
29941.101596	-1535.786667	1763.362305	-18.173990
29941.101596	-1535.786667	1762.354492	46.427387
29941.101596	-1535.786667	1761.345703	-40.652905
29941.101596	-1535.786667	1760.336914	-75.585350
29941.101596	-1535.786667	1759.328125	78.980873
29941.101596	-1535.786667	1758.318359	131.649536
29941.101596	-1535.786667	1757.308594	122.731880
29941.101596	-1535.786667	1756.299805	59.365528
29941.101596	-1535.786667	1755.290039	22.052006
29941.101596	-1535.786667	1754.279297	-27.085909
29941.101596	-1535.786667	1753.269531	20.793756
29941.101596	-1535.786667	1752.258789	35.531601
29941.101596	-1535.786667	1751.249023	-58.531845
29941.101596	-1535.786667	1750.238281	50.787502
29941.101596	-1535.786667	1749.226563	60.765247
29941.101596	-1535.786667	1748.215820	11.642584
29941.101596	-1535.786667	1747.204102	-37.468212
29941.101596	-1535.786667	1746.193359	-10.955814
29941.101596	-1535.786667	1745.181641	-43.518753
29941.101596	-1535.786667	1744.168945	-19.391191
29941.101596	-1535.786667	1743.157227	-37.782822
29941.101596	-1535.786667	1742.144531	-1.872184
29941.101596	-1535.786667	1741.132813	-131.216354
29941.101596	-1535.786667	1740.120117	-3.270040
29941.101596	-1535.786667	1739.106445	56.190868
29941.101596	-1535.786667	1738.093750	54.286308
29941.101596	-1535.786667	1737.080078	19.353071
29941.101596	-1535.786667	1736.067383	24.519182
29941.101596	-1535.786667	1735.053711	57.970043
29941.101596	-1535.786667	1734.040039	-19.394409
29941.101596	-1535.786667	1733.025391	-49.598198
29941.101596	-1535.786667	1732.011719	21.533127
29941.101596	-1535.786667	1730.997070	-107.631966
29941.101596	-1535.786667	1729.982422	-17.685465
29941.101596	-1535.786667	1728.967773	100.481995
29941.101596	-1535.786667	1727.952148	46.705963
29941.101596	-1535.786667	1726.937500	70.634834
29941.101596	-1535.786667	1725.921875	129.853577
29941.101596	-1535.786667	1724.906250	-102.768112
29941.101596	-1535.786667	1723.890625	-22.375505
29941.101596	-1535.786667	1722.875000	-22.002071
29941.101596	-1535.786667	1721.858398	41.866920
29941.101596	-1535.786667	1720.841797	-16.574083
29941.101596	-1535.786667	1719.825195	19.044035
29941.101596	-1535.786667	1718.808594	40.538147
29941.101596	-1535.786667	1717.791992	-8.487268
29941.101596	-1535.786667	1716.774414	-50.452568
29941.101596	-1535.786667	1715.756836	-59.518265
29941.101596	-1535.786667	1714.739258	-5.168990
29941.101596	-1535.786667	1713.721680	60.895039
29941.101596	-1535.786667	1712.704102	47.097870
29941.101596	-1535.786667	1711.685547	-23.041416
29941.101596	-1535.786667	1710.667969	0.722168
29941.101596	-1535.786667	1709.649414	10.388947
29941.101596	-1535.786667	1708.630859	-38.607311
29941.101596	-1535.786667	1707.611328	-40.679440
29941.101596	-1535.786667	1706.592773	8.838740
29941.101596	-1535.786667	1705.573242	-35.460938
29941.101596	-1535.786667	1704.553711	-21.142239
29941.101596	-1535.786667	1703.534180	9.571428
29941.101596	-1535.786667	1702.513672	-51.128300
29941.101596	-1535.786667	1701.494141	-25.120110
29941.101596	-1535.786667	1700.473633	-8.500212
29941.101596	-1535.786667	1699.453125	22.158869
29941.101596	-1535.786667	1698.432617	-15.107726
29941.101596	-1535.786667	1697.412109	13.186316
29941.101596	-1535.786667	1696.390625	41.460873
29941.101596	-1535.786667	1695.369141	-0.490352
29941.101596	-1535.786667	1694.347656	-42.432503
29941.101596	-1535.786667	1693.326172	-21.202017
29941.101596	-1535.786667	1692.304688	-9.342610
29941.101596	-1535.786667	1691.282227	-9.188340
29941.101596	-1535.786667	1690.260742	72.791420
29941.101596	-1535.786667	1689.238281	40.189789
29941.101596	-1535.786667	1688.214844	-104.590179
29941.101596	-1535.786667	1687.192383	5.378414
29941.101596	-1535.786667	1686.168945	-69.266174
29941.101596	-1535.786667	1685.146484	-10.747902
29941.101596	-1535.786667	1684.123047	52.409847
29941.101596	-1535.786667	1683.099609	38.485233
29941.101596	-1535.786667	1682.075195	-12.793591
29941.101596	-1535.786667	1681.051758	5.961284
29941.101596	-1535.786667	1680.027344	71.370956
29941.101596	-1535.786667	1679.002930	87.753662
29941.101596	-1535.786667	1677.978516	31.811289
29941.101596	-1535.786667	1676.953125	99.487297
29941.101596	-1535.786667	1675.928711	176.458984
29941.101596	-1535.786667	1674.903320	10.938677
29941.101596	-1535.786667	1673.877930	57.580833
29941.101596	-1535.786667	1672.852539	-12.321337
29941.101596	-1535.786667	1671.826172	-0.657412
29941.101596	-1535.786667	1670.800781	-44.911175
29941.101596	-1535.786667	1669.774414	-16.956518
29941.101596	-1535.786667	1668.748047	-112.434860
29941.101596	-1535.786667	1667.721680	-21.632572
29941.101596	-1535.786667	1666.694336	48.176949
29941.101596	-1535.786667	1665.667969	-61.243675
29941.101596	-1535.786667	1664.640625	-54.291100
29941.101596	-1535.786667	1663.613281	22.441879
29941.101596	-1535.786667	1662.585938	22.383732
29941.101596	-1535.786667	1661.557617	-24.192327
29941.101596	-1535.786667	1660.530273	31.544010
29941.101596	-1535.786667	1659.501953	89.574699
29941.101596	-1535.786667	1658.473633	105.742279
29941.101596	-1535.786667	1657.444336	28.948599
29941.101596	-1535.786667	1656.416016	10.259370
29941.101596	-1535.786667	1655.386719	-22.367905
29941.101596	-1535.786667	1654.358398	7.714052
29941.101596	-1535.786667	1653.328125	60.992470
29941.101596	-1535.786667	1652.298828	142.101730
29941.101596	-1535.786667	1651.269531	9.645111
29941.101596	-1535.786667	1650.239258	60.550781
29941.101596	-1535.786667	1649.208984	111.429657
29941.101596	-1535.786667	1648.178711	99.652359
29941.101596	-1535.786667	1647.148438	157.447678
29941.101596	-1535.786667	1646.117188	110.869743
29941.101596	-1535.786667	1645.086914	64.304977
29941.101596	-1535.786667	1644.055664	91.919258
29941.101596	-1535.786667	1643.024414	112.564003
29941.101596	-1535.786667	1641.992188	49.783337
29941.101596	-1535.786667	1640.960938	160.756668
29941.101596	-1535.786667	1639.928711	181.353714
29941.101596	-1535.786667	1638.896484	56.055557
29941.101596	-1535.786667	1637.864258	118.323647
29941.101596	-1535.786667	1636.832031	57.883366
29941.101596	-1535.786667	1635.798828	122.425781
29941.101596	-1535.786667	1634.766602	198.507324
29941.101596	-1535.786667	1633.733398	-16.927389
29941.101596	-1535.786667	1632.699219	121.582092
29941.101596	-1535.786667	1631.666016	77.352028
29941.101596	-1535.786667	1630.632813	127.923317
29941.101596	-1535.786667	1629.598633	143.793655
29941.101596	-1535.786667	1628.564453	88.008156
29941.101596	-1535.786667	1627.530273	113.110069
29941.101596	-1535.786667	1626.495117	140.503799
29941.101596	-1535.786667	1625.460938	149.404846
29941.101596	-1535.786667	1624.425781	95.943497
29941.101596	-1535.786667	1623.390625	63.276474
29941.101596	-1535.786667	1622.355469	192.202408
29941.101596	-1535.786667	1621.319336	309.530487
29941.101596	-1535.786667	1620.284180	163.755539
29941.101596	-1535.786667	1619.248047	214.127441
29941.101596	-1535.786667	1618.211914	285.232880
29941.101596	-1535.786667	1617.174805	169.505768
29941.101596	-1535.786667	1616.138672	148.352859
29941.101596	-1535.786667	1615.101563	145.642166
29941.101596	-1535.786667	1614.065430	99.137627
29941.101596	-1535.786667	1613.027344	167.858856
29941.101596	-1535.786667	1611.990234	144.393799
29941.101596	-1535.786667	1610.953125	295.993958
29941.101596	-1535.786667	1609.915039	210.319077
29941.101596	-1535.786667	1608.876953	156.907547
29941.101596	-1535.786667	1607.838867	144.949112
29941.101596	-1535.786667	1606.800781	151.403091
29941.101596	-1535.786667	1605.761719	210.775131
29941.101596	-1535.786667	1604.723633	260.917389
29941.101596	-1535.786667	1603.684570	182.216110
29941.101596	-1535.786667	1602.644531	351.922607
29941.101596	-1535.786667	1601.605469	211.139984
29941.101596	-1535.786667	1600.566406	258.921814
29941.101596	-1535.786667	1599.526367	207.842285
29941.101596	-1535.786667	1598.486328	161.373718
29941.101596	-1535.786667	1597.446289	271.156311
29941.101596	-1535.786667	1596.405273	153.469864
29941.101596	-1535.786667	1595.365234	226.454224
29941.101596	-1535.786667	1594.324219	122.591042
29941.101596	-1535.786667	1593.283203	179.471024
29941.101596	-1535.786667	1592.242188	174.349609
29941.101596	-1535.786667	1591.200195	143.979523
29941.101596	-1535.786667	1590.159180	164.097549
29941.101596	-1535.786667	1589.117188	195.671387
29941.101596	-1535.786667	1588.075195	192.825470
29941.101596	-1535.786667	1587.032227	-0.355245
29941.101596	-1535.786667	1585.990234	42.683704
29941.101596	-1535.786667	1584.947266	129.252533
29941.101596	-1535.786667	1583.904297	277.661469
29941.101596	-1535.786667	1582.861328	123.552956
29941.101596	-1535.786667	1581.818359	168.808167
29941.101596	-1535.786667	1580.775391	127.005318
29941.101596	-1535.786667	1579.731445	149.333130
29941.101596	-1535.786667	1578.687500	135.016403
29941.101596	-1535.786667	1577.643555	93.232979
29941.101596	-1535.786667	1576.598633	159.026764
29941.101596	-1535.786667	1575.554688	240.811188
29941.101596	-1535.786667	1574.509766	66.331215
29941.101596	-1535.786667	1573.464844	164.104889
29941.101596	-1535.786667	1572.419922	206.953369
29941.101596	-1535.786667	1571.374023	110.309731
29941.101596	-1535.786667	1570.329102	201.151840
29941.101596	-1535.786667	1569.283203	184.535004
29941.101596	-1535.786667	1568.237305	213.623260
29941.101596	-1535.786667	1567.191406	240.413513
29941.101596	-1535.786667	1566.144531	73.035416
29941.101596	-1535.786667	1565.098633	156.931198
29941.101596	-1535.786667	1564.051758	176.858765
29941.101596	-1535.786667	1563.004883	132.857941
29941.101596	-1535.786667	1561.957031	152.776810
29941.101596	-1535.786667	1560.910156	186.379913
29941.101596	-1535.786667	1559.862305	133.270370
29941.101596	-1535.786667	1558.814453	175.983353
29941.101596	-1535.786667	1557.766602	38.512848
29941.101596	-1535.786667	1556.718750	47.023285
29941.101596	-1535.786667	1555.669922	107.959724
29941.101596	-1535.786667	1554.621094	116.449104
29941.101596	-1535.786667	1553.573242	56.572971
29941.101596	-1535.786667	1552.523438	1.272232
29941.101596	-1535.786667	1551.474609	91.779305
29941.101596	-1535.786667	1550.424805	41.047436
29941.101596	-1535.786667	1549.375000	33.597862
29941.101596	-1535.786667	1548.325195	-17.103233
29941.101596	-1535.786667	1547.275391	61.952568
29941.101596	-1535.786667	1546.225586	-0.112538
29941.101596	-1535.786667	1545.174805	37.953648
29941.101596	-1535.786667	1544.124023	87.378662
29941.101596	-1535.786667	1543.073242	29.892609
29941.101596	-1535.786667	1542.022461	-2.557854
29941.101596	-1535.786667	1540.970703	126.414734
29941.101596	-1535.786667	1539.919922	-24.234194
29941.101596	-1535.786667	1538.868164	-56.654640
29941.101596	-1535.786667	1537.815430	49.532192
29941.101596	-1535.786667	1536.763672	51.186501
29941.101596	-1535.786667	1535.710938	75.550888
29941.101596	-1535.786667	1534.659180	29.517036
29941.101596	-1535.786667	1533.606445	33.446693
29941.101596	-1535.786667	1532.552734	69.152016
29941.101596	-1535.786667	1531.500000	-17.698971
29941.101596	-1535.786667	1530.446289	31.619280
29941.101596	-1535.786667	1529.393555	15.136856
29941.101596	-1535.786667	1528.338867	37.215210
29941.101596	-1535.786667	1527.285156	79.697495
29941.101596	-1535.786667	1526.231445	-52.403538
29941.101596	-1535.786667	1525.176758	8.216122
29941.101596	-1535.786667	1524.122070	12.158979
29941.101596	-1535.786667	1523.067383	-15.618044
29941.101596	-1535.786667	1522.012695	13.252373
29941.101596	-1535.786667	1520.957031	-21.304398
29941.101596	-1535.786667	1519.901367	46.055592
29941.101596	-1535.786667	1518.845703	-4.335253
29941.101596	-1535.786667	1517.790039	8.676773
29941.101596	-1535.786667	1516.734375	-68.836662
29941.101596	-1535.786667	1515.677734	-78.437958
29941.101596	-1535.786667	1514.621094	-31.476549
29941.101596	-1535.786667	1513.564453	-47.858543
29941.101596	-1535.786667	1512.507813	-55.184639
29941.101596	-1535.786667	1511.450195	-42.157833
29941.101596	-1535.786667	1510.393555	-40.431526
29941.101596	-1535.786667	1509.335938	-70.342758
29941.101596	-1535.786667	1508.278320	-84.420670
29941.101596	-1535.786667	1507.219727	-28.458830
29941.101596	-1535.786667	1506.162109	-13.167552
29941.101596	-1535.786667	1505.103516	-65.623825
29941.101596	-1535.786667	1504.044922	44.502068
29941.101596	-1535.786667	1502.986328	-1.162291
29941.101596	-1535.786667	1501.926758	-89.684357
29941.101596	-1535.786667	1500.868164	0.090489
29941.101596	-1535.786667	1499.808594	-38.754536
29941.101596	-1535.786667	1498.749023	26.174232
29941.101596	-1535.786667	1497.688477	-5.884728
29941.101596	-1535.786667	1496.628906	-87.523933
29941.101596	-1535.786667	1495.568359	-69.943779
29941.101596	-1535.786667	1494.507813	-43.349037
29941.101596	-1535.786667	1493.447266	-0.985419
29941.101596	-1535.786667	1492.386719	-5.940184
29941.101596	-1535.786667	1491.325195	52.177784
29941.101596	-1535.786667	1490.263672	42.723019
29941.101596	-1535.786667	1489.202148	-4.995261
29941.101596	-1535.786667	1488.140625	32.850967
29941.101596	-1535.786667	1487.079102	-10.329957
29941.101596	-1535.786667	1486.016602	106.269867
29941.101596	-1535.786667	1484.954102	101.349670
29941.101596	-1535.786667	1483.891602	69.448891
29941.101596	-1535.786667	1482.829102	71.301796
29941.101596	-1535.786667	1481.765625	70.912857
29941.101596	-1535.786667	1480.702148	169.440002
29941.101596	-1535.786667	1479.638672	112.866295
29941.101596	-1535.786667	1478.575195	112.503609
29941.101596	-1535.786667	1477.511719	168.303268
29941.101596	-1535.786667	1476.447266	206.136749
29941.101596	-1535.786667	1475.382813	44.122589
29941.101596	-1535.786667	1474.318359	149.263885
29941.101596	-1535.786667	1473.253906	171.383255
29941.101596	-1535.786667	1472.189453	99.295067
29941.101596	-1535.786667	1471.124023	45.085171
29941.101596	-1535.786667	1470.058594	35.950706
29941.101596	-1535.786667	1468.993164	167.896454
29941.101596	-1535.786667	1467.927734	75.655434
29941.101596	-1535.786667	1466.861328	120.183205
29941.101596	-1535.786667	1465.794922	46.083824
29941.101596	-1535.786667	1464.728516	-34.728500
29941.101596	-1535.786667	1463.662109	65.972427
29941.101596	-1535.786667	1462.594727	12.052834
29941.101596	-1535.786667	1461.528320	125.743080
29941.101596	-1535.786667	1460.460938	-24.200836
29941.101596	-1535.786667	1459.393555	69.604881
29941.101596	-1535.786667	1458.326172	15.784142
29941.101596	-1535.786667	1457.257813	-67.204010
29941.101596	-1535.786667	1456.189453	86.897469
29941.101596	-1535.786667	1455.121094	39.797218
29941.101596	-1535.786667	1454.052734	-31.765148
29941.101596	-1535.786667	1452.984375	171.626511
29941.101596	-1535.786667	1451.915039	71.073639
29941.101596	-1535.786667	1450.845703	-29.304232
29941.101596	-1535.786667	1449.776367	37.084820
29941.101596	-1535.786667	1448.707031	-20.645802
29941.101596	-1535.786667	1447.636719	37.062412
29941.101596	-1535.786667	1446.567383	50.102093
29941.101596	-1535.786667	1445.497070	30.607733
29941.101596	-1535.786667	1444.425781	104.354385
29941.101596	-1535.786667	1443.355469	54.541496
29941.101596	-1535.786667	1442.285156	128.856979
29941.101596	-1535.786667	1441.213867	-68.683289
29941.101596	-1535.786667	1440.142578	28.570358
29941.101596	-1535.786667	1439.070313	39.773460
29941.101596	-1535.786667	1437.999023	90.930000
29941.101596	-1535.786667	1436.926758	-1.617311
29941.101596	-1535.786667	1435.854492	-49.234970
29941.101596	-1535.786667	1434.782227	-18.993910
29941.101596	-1535.786667	1433.709961	7.333276
29941.101596	-1535.786667	1432.636719	93.836525
29941.101596	-1535.786667	1431.563477	-3.916876
29941.101596	-1535.786667	1430.490234	-13.429747
29941.101596	-1535.786667	1429.416992	-13.619217
29941.101596	-1535.786667	1428.343750	-25.391922
29941.101596	-1535.786667	1427.269531	40.942238
29941.101596	-1535.786667	1426.195313	57.178753
29941.101596	-1535.786667	1425.121094	33.950050
29941.101596	-1535.786667	1424.046875	24.231808
29941.101596	-1535.786667	1422.971680	10.200029
29941.101596	-1535.786667	1421.896484	30.107410
29941.101596	-1535.786667	1420.821289	107.230171
29941.101596	-1535.786667	1419.746094	141.262741
29941.101596	-1535.786667	1418.669922	135.169998
29941.101596	-1535.786667	1417.594727	157.002243
29941.101596	-1535.786667	1416.518555	93.474754
29941.101596	-1535.786667	1415.442383	236.169983
29941.101596	-1535.786667	1414.365234	118.679085
29941.101596	-1535.786667	1413.289063	125.727020
29941.101596	-1535.786667	1412.211914	46.507969
29941.101596	-1535.786667	1411.134766	144.464172
29941.101596	-1535.786667	1410.057617	20.920654
29941.101596	-1535.786667	1408.979492	35.261375
29941.101596	-1535.786667	1407.902344	74.488472
29941.101596	-1535.786667	1406.824219	176.310944
29941.101596	-1535.786667	1405.746094	53.664330
29941.101596	-1535.786667	1404.666992	28.293482
29941.101596	-1535.786667	1403.588867	241.331512
29941.101596	-1535.786667	1402.509766	80.099854
29941.101596	-1535.786667	1401.430664	52.623329
29941.101596	-1535.786667	1400.351563	183.743561
29941.101596	-1535.786667	1399.271484	112.627357
29941.101596	-1535.786667	1398.192383	239.372986
29941.101596	-1535.786667	1397.112305	138.889435
29941.101596	-1535.786667	1396.031250	103.641907
29941.101596	-1535.786667	1394.951172	287.773743
29941.101596	-1535.786667	1393.871094	61.835281
29941.101596	-1535.786667	1392.790039	213.636520
29941.101596	-1535.786667	1391.708984	259.416718
29941.101596	-1535.786667	1390.626953	321.960938
29941.101596	-1535.786667	1389.545898	266.984406
29941.101596	-1535.786667	1388.463867	364.537689
29941.101596	-1535.786667	1387.381836	448.757477
29941.101596	-1535.786667	1386.299805	369.297089
29941.101596	-1535.786667	1385.217773	494.568024
29941.101596	-1535.786667	1384.134766	749.563660
29941.101596	-1535.786667	1383.051758	695.222107
29941.101596	-1535.786667	1381.968750	860.439148
29941.101596	-1535.786667	1380.885742	819.894104
29941.101596	-1535.786667	1379.802734	1062.552734
29941.101596	-1535.786667	1378.718750	1064.940674
29941.101596	-1535.786667	1377.634766	973.266846
29941.101596	-1535.786667	1376.550781	1010.976074
29941.101596	-1535.786667	1375.465820	887.387390
29941.101596	-1535.786667	1374.381836	765.299927
29941.101596	-1535.786667	1373.296875	759.873718
29941.101596	-1535.786667	1372.211914	582.978638
29941.101596	-1535.786667	1371.126953	478.451080
29941.101596	-1535.786667	1370.041016	352.681061
29941.101596	-1535.786667	1368.955078	400.202911
29941.101596	-1535.786667	1367.869141	270.910675
29941.101596	-1535.786667	1366.783203	268.164734
29941.101596	-1535.786667	1365.697266	365.433868
29941.101596	-1535.786667	1364.610352	244.610229
29941.101596	-1535.786667	1363.523438	268.760986
29941.101596	-1535.786667	1362.436523	337.094147
29941.101596	-1535.786667	1361.349609	268.617828
29941.101596	-1535.786667	1360.261719	395.918762
29941.101596	-1535.786667	1359.174805	324.865204
29941.101596	-1535.786667	1358.086914	362.958618
29941.101596	-1535.786667	1356.998047	250.355606
29941.101596	-1535.786667	1355.910156	365.972046
29941.101596	-1535.786667	1354.821289	327.556885
29941.101596	-1535.786667	1353.732422	358.227875
29941.101596	-1535.786667	1352.643555	283.413239
29941.101596	-1535.786667	1351.554688	228.934753
29941.101596	-1535.786667	1350.464844	374.083221
29941.101596	-1535.786667	1349.375000	207.253922
29941.101596	-1535.786667	1348.285156	282.697327
29941.101596	-1535.786667	1347.195313	246.496185
29941.101596	-1535.786667	1346.105469	173.875854
29941.101596	-1535.786667	1345.014648	231.880386
29941.101596	-1535.786667	1343.923828	167.786545
29941.101596	-1535.786667	1342.833008	225.277420
29941.101596	-1535.786667	1341.741211	165.944489
29941.101596	-1535.786667	1340.650391	228.205597
29941.101596	-1535.786667	1339.558594	102.288177
29941.101596	-1535.786667	1338.466797	85.679565
29941.101596	-1535.786667	1337.374023	91.291870
29941.101596	-1535.786667	1336.282227	32.867962
29941.101596	-1535.786667	1335.189453	99.952072
29941.101596	-1535.786667	1334.096680	56.749969
29941.101596	-1535.786667	1333.003906	51.245506
29941.101596	-1535.786667	1331.910156	52.114552
29941.101596	-1535.786667	1330.817383	-9.183911
29941.101596	-1535.786667	1329.723633	77.645256
29941.101596	-1535.786667	1328.629883	40.152447
29941.101596	-1535.786667	1327.535156	-34.506432
29941.101596	-1535.786667	1326.441406	28.123304
29941.101596	-1535.786667	1325.346680	-87.650131
29941.101596	-1535.786667	1324.251953	25.204290
29941.101596	-1535.786667	1323.156250	31.943855
29941.101596	-1535.786667	1322.061523	-54.913177
29941.101596	-1535.786667	1320.965820	-49.521347
29941.101596	-1535.786667	1319.870117	-14.407575
29941.101596	-1535.786667	1318.774414	-52.285534
29941.101596	-1535.786667	1317.678711	-103.906494
29941.101596	-1535.786667	1316.582031	-103.240356
29941.101596	-1535.786667	1315.485352	1.806234
29941.101596	-1535.786667	1314.388672	-83.351242
29941.101596	-1535.786667	1313.291016	-62.656281
29941.101596	-1535.786667	1312.194336	-27.727428
29941.101596	-1535.786667	1311.096680	-55.965023
29941.101596	-1535.786667	1309.999023	-126.755775
29941.101596	-1535.786667	1308.901367	-52.516743
29941.101596	-1535.786667	1307.802734	-76.702080
29941.101596	-1535.786667	1306.705078	-91.944435
29941.101596	-1535.786667	1305.606445	-4.377866
29941.101596	-1535.786667	1304.506836	-71.575630
29941.101596	-1535.786667	1303.408203	0.714508
29941.101596	-1535.786667	1302.308594	12.418665
29941.101596	-1535.786667	1301.208984	28.627266
29941.101596	-1535.786667	1300.109375	38.571186
29941.101596	-1535.786667	1299.009766	-16.395889
29941.101596	-1535.786667	1297.909180	64.107712
29941.101596	-1535.786667	1296.808594	158.754379
29941.101596	-1535.786667	1295.708008	37.468842
29941.101596	-1535.786667	1294.607422	-24.989239
29941.101596	-1535.786667	1293.506836	-69.058907
29941.101596	-1535.786667	1292.405273	33.093491
29941.101596	-1535.786667	1291.303711	83.959587
29941.101596	-1535.786667	1290.202148	70.747055
29941.101596	-1535.786667	1289.099609	138.393845
29941.101596	-1535.786667	1287.998047	-29.219139
29941.101596	-1535.786667	1286.895508	18.658625
29941.101596	-1535.786667	1285.792969	-15.837523
29941.101596	-1535.786667	1284.689453	-58.415085
29941.101596	-1535.786667	1283.586914	51.302811
29941.101596	-1535.786667	1282.483398	56.692535
29941.101596	-1535.786667	1281.379883	20.757526
29941.101596	-1535.786667	1280.276367	39.861683
29941.101596	-1535.786667	1279.171875	37.616184
29941.101596	-1535.786667	1278.067383	20.006100
29941.101596	-1535.786667	1276.962891	3.002022
29941.101596	-1535.786667	1275.858398	45.398270
29941.101596	-1535.786667	1274.753906	-39.693459
29941.101596	-1535.786667	1273.648438	-9.527395
29941.101596	-1535.786667	1272.542969	-45.396877
29941.101596	-1535.786667	1271.437500	-150.735855
29941.101596	-1535.786667	1270.331055	-46.650585
29941.101596	-1535.786667	1269.225586	-6.394738
29941.101596	-1535.786667	1268.119141	-22.303236
29941.101596	-1535.786667	1267.012695	-23.575010
29941.101596	-1535.786667	1265.906250	45.794941
29941.101596	-1535.786667	1264.798828	43.390373
29941.101596	-1535.786667	1263.691406	49.918312
29941.101596	-1535.786667	1262.583984	24.846163
29941.101596	-1535.786667	1261.476563	50.914513
29941.101596	-1535.786667	1260.368164	66.228409
29941.101596	-1535.786667	1259.260742	23.310272
29941.101596	-1535.786667	1258.152344	39.583241
29941.101596	-1535.786667	1257.043945	-8.344872
29941.101596	-1535.786667	1255.934570	62.139328
29941.101596	-1535.786667	1254.825195	43.336258
29941.101596	-1535.786667	1253.716797	2.995250
29941.101596	-1535.786667	1252.606445	-16.283638
29941.101596	-1535.786667	1251.497070	122.938560
29941.101596	-1535.786667	1250.387695	-56.218880
29941.101596	-1535.786667	1249.277344	65.719070
29941.101596	-1535.786667	1248.166992	97.809822
29941.101596	-1535.786667	1247.055664	19.404171
29941.101596	-1535.786667	1245.945313	-27.746040
29941.101596	-1535.786667	1244.833984	-29.901728
29941.101596	-1535.786667	1243.722656	-127.232094
29941.101596	-1535.786667	1242.611328	-30.627420
29941.101596	-1535.786667	1241.499023	-10.075986
29941.101596	-1535.786667	1240.387695	-52.561661
29941.101596	-1535.786667	1239.275391	-44.683628
29941.101596	-1535.786667	1238.162109	18.191782
29941.101596	-1535.786667	1237.049805	38.951721
29941.101596	-1535.786667	1235.936523	48.820309
29941.101596	-1535.786667	1234.823242	51.284981
29941.101596	-1535.786667	1233.709961	13.182007
29941.101596	-1535.786667	1232.596680	35.649647
29941.101596	-1535.786667	1231.482422	13.665053
29941.101596	-1535.786667	1230.369141	-30.232901
29941.101596	-1535.786667	1229.253906	49.632214
29941.101596	-1535.786667	1228.139648	-24.192978
29941.101596	-1535.786667	1227.025391	1.389047
29941.101596	-1535.786667	1225.910156	83.926765
29941.101596	-1535.786667	1224.794922	-4.371047
29941.101596	-1535.786667	1223.679688	164.425613
29941.101596	-1535.786667	1222.563477	51.174080
29941.101596	-1535.786667	1221.447266	105.398048
29941.101596	-1535.786667	1220.331055	95.555351
29941.101596	-1535.786667	1219.214844	42.531799
29941.101596	-1535.786667	1218.098633	29.080637
29941.101596	-1535.786667	1216.981445	179.704758
29941.101596	-1535.786667	1215.864258	103.663147
29941.101596	-1535.786667	1214.747070	133.763245
29941.101596	-1535.786667	1213.629883	181.515121
29941.101596	-1535.786667	1212.511719	153.275467
29941.101596	-1535.786667	1211.393555	165.159927
29941.101596	-1535.786667	1210.275391	243.996918
29941.101596	-1535.786667	1209.157227	230.654190
29941.101596	-1535.786667	1208.038086	177.577332
29941.101596	-1535.786667	1206.918945	282.671478
29941.101596	-1535.786667	1205.799805	246.453049
29941.101596	-1535.786667	1204.680664	291.859131
29941.101596	-1535.786667	1203.560547	298.262085
29941.101596	-1535.786667	1202.441406	227.284088
29941.101596	-1535.786667	1201.321289	280.828979
29941.101596	-1535.786667	1200.200195	296.441254
29941.101596	-1535.786667	1199.080078	344.491364
29941.101596	-1535.786667	1197.958984	370.339233
29941.101596	-1535.786667	1196.837891	420.110657
29941.101596	-1535.786667	1195.716797	479.479492
29941.101596	-1535.786667	1194.594727	642.730530
29941.101596	-1535.786667	1193.473633	680.093079
29941.101596	-1535.786667	1192.351563	713.516846
29941.101596	-1535.786667	1191.229492	643.307617
29941.101596	-1535.786667	1190.106445	755.076782
29941.101596	-1535.786667	1188.984375	816.816528
29941.101596	-1535.786667	1187.861328	804.682739
29941.101596	-1535.786667	1186.738281	736.665466
29941.101596	-1535.786667	1185.614258	560.399780
29941.101596	-1535.786667	1184.491211	475.123444
29941.101596	-1535.786667	1183.367188	367.348602
29941.101596	-1535.786667	1182.243164	274.703461
29941.101596	-1535.786667	1181.119141	174.730484
29941.101596	-1535.786667	1179.994141	280.997253
29941.101596	-1535.786667	1178.869141	110.356766
29941.101596	-1535.786667	1177.744141	160.553696
29941.101596	-1535.786667	1176.619141	119.590790
29941.101596	-1535.786667	1175.493164	89.389832
29941.101596	-1535.786667	1174.368164	37.095482
29941.101596	-1535.786667	1173.242188	41.825645
29941.101596	-1535.786667	1172.115234	125.986153
29941.101596	-1535.786667	1170.989258	5.022185
29941.101596	-1535.786667	1169.862305	46.113682
29941.101596	-1535.786667	1168.735352	12.835797
29941.101596	-1535.786667	1167.608398	24.327269
29941.101596	-1535.786667	1166.481445	27.273455
29941.101596	-1535.786667	1165.353516	113.258499
29941.101596	-1535.786667	1164.225586	-69.627304
29941.101596	-1535.786667	1163.097656	-22.950302
29941.101596	-1535.786667	1161.968750	-38.484749
29941.101596	-1535.786667	1160.840820	97.666924
29941.101596	-1535.786667	1159.711914	46.415619
29941.101596	-1535.786667	1158.583008	75.746895
29941.101596	-1535.786667	1157.453125	108.137955
29941.101596	-1535.786667	1156.324219	31.033743
29941.101596	-1535.786667	1155.194336	-15.726130
29941.101596	-1535.786667	1154.064453	16.028217
29941.101596	-1535.786667	1152.933594	19.638502
29941.101596	-1535.786667	1151.803711	3.461279
29941.101596	-1535.786667	1150.672852	55.870586
29941.101596	-1535.786667	1149.541992	9.407896
29941.101596	-1535.786667	1148.411133	51.161407
29941.101596	-1535.786667	1147.279297	13.627368
29941.101596	-1535.786667	1146.147461	-17.253572
29941.101596	-1535.786667	1145.015625	12.545749
29941.101596	-1535.786667	1143.883789	-21.448965
29941.101596	-1535.786667	1142.750977	-66.639664
29941.101596	-1535.786667	1141.619141	-26.387524
29941.101596	-1535.786667	1140.486328	26.590883
29941.101596	-1535.786667	1139.352539	26.185270
29941.101596	-1535.786667	1138.219727	52.050583
29941.101596	-1535.786667	1137.085938	-10.768034
29941.101596	-1535.786667	1135.952148	17.282391
29941.101596	-1535.786667	1134.818359	114.088409
29941.101596	-1535.786667	1133.683594	80.107178
29941.101596	-1535.786667	1132.549805	73.525665
29941.101596	-1535.786667	1131.415039	158.092606
29941.101596	-1535.786667	1130.279297	56.069527
29941.101596	-1535.786667	1129.144531	172.110214
29941.101596	-1535.786667	1128.008789	217.604752
29941.101596	-1535.786667	1126.873047	253.225739
29941.101596	-1535.786667	1125.737305	193.624664
29941.101596	-1535.786667	1124.601563	214.256653
29941.101596	-1535.786667	1123.464844	210.618896
29941.101596	-1535.786667	1122.328125	286.195099
29941.101596	-1535.786667	1121.191406	226.613235
29941.101596	-1535.786667	1120.054688	194.092194
29941.101596	-1535.786667	1118.916992	194.942566
29941.101596	-1535.786667	1117.779297	114.192276
29941.101596	-1535.786667	1116.641602	87.323349
29941.101596	-1535.786667	1115.503906	133.420578
29941.101596	-1535.786667	1114.365234	114.147133
29941.101596	-1535.786667	1113.226563	85.101006
29941.101596	-1535.786667	1112.087891	78.889717
29941.101596	-1535.786667	1110.949219	91.505051
29941.101596	-1535.786667	1109.809570	-0.603714
29941.101596	-1535.786667	1108.669922	-13.433281
29941.101596	-1535.786667	1107.530273	100.465424
29941.101596	-1535.786667	1106.390625	36.504116
29941.101596	-1535.786667	1105.250000	-74.985138
29941.101596	-1535.786667	1104.109375	31.686781
29941.101596	-1535.786667	1102.968750	35.922810
29941.101596	-1535.786667	1101.828125	201.355621
29941.101596	-1535.786667	1100.686523	120.915146
29941.101596	-1535.786667	1099.544922	0.084253
29941.101596	-1535.786667	1098.403320	13.370364
29941.101596	-1535.786667	1097.261719	111.119537
29941.101596	-1535.786667	1096.120117	108.790138
29941.101596	-1535.786667	1094.977539	122.520821
29941.101596	-1535.786667	1093.834961	131.974884
29941.101596	-1535.786667	1092.691406	147.126434
29941.101596	-1535.786667	1091.548828	97.678268
29941.101596	-1535.786667	1090.405273	18.921942
29941.101596	-1535.786667	1089.261719	-29.155710
29941.101596	-1535.786667	1088.118164	-35.272823
29941.101596	-1535.786667	1086.973633	19.971657
29941.101596	-1535.786667	1085.829102	27.064356
29941.101596	-1535.786667	1084.684570	47.191677
29941.101596	-1535.786667	1083.540039	9.980701
29941.101596	-1535.786667	1082.395508	94.008461
29941.101596	-1535.786667	1081.250000	46.197948
29941.101596	-1535.786667	1080.104492	161.421585
29941.101596	-1535.786667	1078.958984	90.749069
29941.101596	-1535.786667	1077.812500	97.577019
29941.101596	-1535.786667	1076.666016	170.749069
29941.101596	-1535.786667	1075.519531	127.322731
29941.101596	-1535.786667	1074.373047	278.722961
29941.101596	-1535.786667	1073.226563	321.433990
29941.101596	-1535.786667	1072.079102	249.744278
29941.101596	-1535.786667	1070.931641	152.341736
29941.101596	-1535.786667	1069.784180	223.268509
29941.101596	-1535.786667	1068.635742	244.995087
29941.101596	-1535.786667	1067.487305	167.822510
29941.101596	-1535.786667	1066.338867	97.399826
29941.101596	-1535.786667	1065.190430	127.680817
29941.101596	-1535.786667	1064.041992	120.119743
29941.101596	-1535.786667	1062.892578	-32.902782
29941.101596	-1535.786667	1061.743164	28.620613
29941.101596	-1535.786667	1060.593750	73.833641
29941.101596	-1535.786667	1059.443359	11.384966
29941.101596	-1535.786667	1058.292969	85.307869
29941.101596	-1535.786667	1057.142578	146.505356
29941.101596	-1535.786667	1055.992188	51.708786
29941.101596	-1535.786667	1054.841797	68.814575
29941.101596	-1535.786667	1053.690430	-54.983009
29941.101596	-1535.786667	1052.539063	18.658949
29941.101596	-1535.786667	1051.387695	-27.871433
29941.101596	-1535.786667	1050.235352	10.257536
29941.101596	-1535.786667	1049.083984	9.331969
29941.101596	-1535.786667	1047.931641	70.330978
29941.101596	-1535.786667	1046.778320	-32.067787
29941.101596	-1535.786667	1045.625977	22.275854
29941.101596	-1535.786667	1044.472656	-32.324326
29941.101596	-1535.786667	1043.319336	35.782074
29941.101596	-1535.786667	1042.166016	-19.567848
29941.101596	-1535.786667	1041.012695	62.327274
29941.101596	-1535.786667	1039.858398	-47.381618
29941.101596	-1535.786667	1038.704102	11.133415
29941.101596	-1535.786667	1037.549805	-55.481674
29941.101596	-1535.786667	1036.394531	10.349802
29941.101596	-1535.786667	1035.239258	15.912128
29941.101596	-1535.786667	1034.083984	19.988710
29941.101596	-1535.786667	1032.928711	-57.159019
29941.101596	-1535.786667	1031.773438	14.865393
29941.101596	-1535.786667	1030.617188	64.665680
29941.101596	-1535.786667	1029.460938	24.588215
29941.101596	-1535.786667	1028.304688	95.257225
29941.101596	-1535.786667	1027.147461	26.608944
29941.101596	-1535.786667	1025.991211	82.889465
29941.101596	-1535.786667	1024.833984	-87.308273
29941.101596	-1535.786667	1023.675781	-31.556347
29941.101596	-1535.786667	1022.518555	-169.709412
29941.101596	-1535.786667	1021.360352	69.498238
29941.101596	-1535.786667	1020.202148	45.434341
29941.101596	-1535.786667	1019.043945	33.265862
29941.101596	-1535.786667	1017.884766	19.904533
29941.101596	-1535.786667	1016.726563	-89.799820
29941.101596	-1535.786667	1015.567383	58.693073
29941.101596	-1535.786667	1014.407227	-72.227676
29941.101596	-1535.786667	1013.248047	13.640859
29941.101596	-1535.786667	1012.087891	22.990252
29941.101596	-1535.786667	1010.927734	100.904388
29941.101596	-1535.786667	1009.767578	125.110817
29941.101596	-1535.786667	1008.606445	55.420593
29941.101596	-1535.786667	1007.446289	91.939613
29941.101596	-1535.786667	1006.285156	89.988731
29941.101596	-1535.786667	1005.123047	82.467323
29941.101596	-1535.786667	1003.961914	156.015549
29941.101596	-1535.786667	1002.799805	187.881912
29941.101596	-1535.786667	1001.637695	157.702682
29941.101596	-1535.786667	1000.475586	115.497139
29941.101596	-1535.786667	999.312500	94.101189
29941.101596	-1535.786667	998.149414	69.748528
29941.101596	-1535.786667	996.986328	32.369106
29941.101596	-1535.786667	995.823242	66.279114
29941.101596	-1535.786667	994.659180	90.648857
29941.101596	-1535.786667	993.496094	148.630707
29941.101596	-1535.786667	992.332031	100.239059
29941.101596	-1535.786667	991.166992	254.718323
29941.101596	-1535.786667	990.002930	160.455032
29941.101596	-1535.786667	988.837891	154.958435
29941.101596	-1535.786667	987.672852	209.320999
29941.101596	-1535.786667	986.506836	350.893646
29941.101596	-1535.786667	985.341797	643.572083
29941.101596	-1535.786667	984.175781	913.757202
29941.101596	-1535.786667	983.009766	1320.410278
29941.101596	-1535.786667	981.843750	1699.125854
29941.101596	-1535.786667	980.676758	1954.704956
29941.101596	-1535.786667	979.509766	2278.451172
29941.101596	-1535.786667	978.342773	1918.218262
29941.101596	-1535.786667	977.175781	1667.147217
29941.101596	-1535.786667	976.007813	1363.560425
29941.101596	-1535.786667	974.839844	1113.014893
29941.101596	-1535.786667	973.671875	747.122498
29941.101596	-1535.786667	972.503906	631.833862
29941.101596	-1535.786667	971.334961	441.129028
29941.101596	-1535.786667	970.166016	142.757401
29941.101596	-1535.786667	968.997070	270.288849
29941.101596	-1535.786667	967.828125	231.240738
29941.101596	-1535.786667	966.658203	100.934570
29941.101596	-1535.786667	965.488281	129.100983
29941.101596	-1535.786667	964.318359	158.253235
29941.101596	-1535.786667	963.148438	102.707794
29941.101596	-1535.786667	961.977539	-56.600647
29941.101596	-1535.786667	960.806641	-41.366657
29941.101596	-1535.786667	959.635742	88.655678
29941.101596	-1535.786667	958.463867	116.482071
29941.101596	-1535.786667	957.292969	-10.856906
29941.101596	-1535.786667	956.121094	18.726961
29941.101596	-1535.786667	954.948242	-126.441566
29941.101596	-1535.786667	953.776367	90.792648
29941.101596	-1535.786667	952.603516	118.432076
29941.101596	-1535.786667	951.430664	62.073261
29941.101596	-1535.786667	950.257813	38.577866
29941.101596	-1535.786667	949.084961	78.084641
29941.101596	-1535.786667	947.911133	3.564054
29941.101596	-1535.786667	946.737305	-10.483988
29941.101596	-1535.786667	945.563477	72.890312
29941.101596	-1535.786667	944.388672	28.403728
29941.101596	-1535.786667	943.213867	55.992973
29941.101596	-1535.786667	942.039063	-41.542053
29941.101596	-1535.786667	940.864258	-48.846767
29941.101596	-1535.786667	939.688477	-9.445395
29941.101596	-1535.786667	938.513672	24.948837
29941.101596	-1535.786667	937.337891	-35.586651
29941.101596	-1535.786667	936.161133	-21.892612
29941.101596	-1535.786667	934.985352	49.735760
29941.101596	-1535.786667	933.808594	63.332123
29941.101596	-1535.786667	932.631836	-48.350792
29941.101596	-1535.786667	931.454102	-62.522572
29941.101596	-1535.786667	930.277344	-53.565987
29941.101596	-1535.786667	929.099609	24.935127
29941.101596	-1535.786667	927.921875	47.753071
29941.101596	-1535.786667	926.743164	-33.686039
29941.101596	-1535.786667	925.565430	-61.829094
29941.101596	-1535.786667	924.386719	-8.908934
29941.101596	-1535.786667	923.208008	23.144880
29941.101596	-1535.786667	922.028320	11.185683
29941.101596	-1535.786667	920.849609	87.193893
29941.101596	-1535.786667	919.669922	87.416359
29941.101596	-1535.786667	919.474609	112.278481
29941.101596	-1535.786667	918.309570	70.192101
29941.101596	-1535.786667	917.143555	88.269402
29941.101596	-1535.786667	915.977539	67.004936
29941.101596	-1535.786667	914.810547	96.620407
29941.101596	-1535.786667	913.644531	33.722542
29941.101596	-1535.786667	912.477539	104.926743
29941.101596	-1535.786667	911.310547	39.722965
29941.101596	-1535.786667	910.143555	23.065176
29941.101596	-1535.786667	908.975586	-2.836439
29941.101596	-1535.786667	907.807617	-24.116409
29941.101596	-1535.786667	906.639648	111.647255
29941.101596	-1535.786667	905.471680	9.520093
29941.101596	-1535.786667	904.303711	13.618194
29941.101596	-1535.786667	903.134766	1.549901
29941.101596	-1535.786667	901.965820	-19.752140
29941.101596	-1535.786667	900.796875	-1.832737
29941.101596	-1535.786667	899.626953	-34.675114
29941.101596	-1535.786667	898.457031	-30.613207
29941.101596	-1535.786667	897.287109	-54.229416
29941.101596	-1535.786667	896.117188	18.976374
29941.101596	-1535.786667	894.947266	103.668343
29941.101596	-1535.786667	893.776367	-12.155806
29941.101596	-1535.786667	892.605469	42.543072
29941.101596	-1535.786667	891.434570	-57.112595
29941.101596	-1535.786667	890.262695	91.976929
29941.101596	-1535.786667	889.091797	33.780987
29941.101596	-1535.786667	887.919922	-12.888534
29941.101596	-1535.786667	886.748047	85.447243
29941.101596	-1535.786667	885.575195	128.511795
29941.101596	-1535.786667	884.403320	-49.299446
29941.101596	-1535.786667	883.230469	-3.938076
29941.101596	-1535.786667	882.057617	68.993256
29941.101596	-1535.786667	880.883789	13.137463
29941.101596	-1535.786667	879.710938	-42.701809
29941.101596	-1535.786667	878.537109	-43.367786
29941.101596	-1535.786667	877.362305	68.548576
29941.101596	-1535.786667	876.188477	33.389534
29941.101596	-1535.786667	875.013672	21.206610
29941.101596	-1535.786667	873.839844	25.097446
29941.101596	-1535.786667	872.664063	113.926712
29941.101596	-1535.786667	871.489258	55.810925
29941.101596	-1535.786667	870.313477	-89.492615
29941.101596	-1535.786667	869.138672	-69.543213
29941.101596	-1535.786667	867.962891	23.799717
29941.101596	-1535.786667	866.786133	89.577530
29941.101596	-1535.786667	865.610352	84.239731
29941.101596	-1535.786667	864.433594	-56.360966
29941.101596	-1535.786667	863.256836	7.086193
29941.101596	-1535.786667	862.079102	-18.869961
29941.101596	-1535.786667	860.902344	58.281387
29941.101596	-1535.786667	859.724609	-61.600975
29941.101596	-1535.786667	858.546875	-89.830315
29941.101596	-1535.786667	857.368164	-8.145406
29941.101596	-1535.786667	856.190430	36.873768
29941.101596	-1535.786667	855.011719	-0.525858
29941.101596	-1535.786667	853.833008	-8.165831
29941.101596	-1535.786667	852.654297	32.238621
29941.101596	-1535.786667	851.474609	-14.298128
29941.101596	-1535.786667	850.294922	10.075230
29941.101596	-1535.786667	849.115234	-2.148039
29941.101596	-1535.786667	847.935547	6.204287
29941.101596	-1535.786667	846.754883	-12.876379
29941.101596	-1535.786667	845.575195	-20.526861
29941.101596	-1535.786667	844.393555	-5.331966
29941.101596	-1535.786667	843.212891	32.694675
29941.101596	-1535.786667	842.032227	127.793739
29941.101596	-1535.786667	840.850586	99.560143
29941.101596	-1535.786667	839.668945	94.162590
29941.101596	-1535.786667	838.486328	-9.370922
29941.101596	-1535.786667	837.304688	51.421452
29941.101596	-1535.786667	836.122070	71.123466
29941.101596	-1535.786667	834.939453	40.637466
29941.101596	-1535.786667	833.756836	60.329021
29941.101596	-1535.786667	832.573242	111.928276
29941.101596	-1535.786667	831.389648	92.842957
29941.101596	-1535.786667	830.206055	50.974270
29941.101596	-1535.786667	829.022461	54.690208
29941.101596	-1535.786667	827.838867	72.070702
29941.101596	-1535.786667	826.654297	-83.649490
29941.101596	-1535.786667	825.469727	13.445666
29941.101596	-1535.786667	824.284180	76.350204
29941.101596	-1535.786667	823.099609	80.048683
29941.101596	-1535.786667	821.914063	83.743958
29941.101596	-1535.786667	820.728516	82.885979
29941.101596	-1535.786667	819.542969	-20.334515
29941.101596	-1535.786667	818.356445	78.893173
29941.101596	-1535.786667	817.169922	87.127869
29941.101596	-1535.786667	815.983398	-2.393291
29941.101596	-1535.786667	814.796875	-48.694901
29941.101596	-1535.786667	813.609375	20.911642
29941.101596	-1535.786667	812.422852	56.410404
29941.101596	-1535.786667	811.235352	-23.948673
29941.101596	-1535.786667	810.046875	72.858398
29941.101596	-1535.786667	808.859375	128.756348
29941.101596	-1535.786667	807.670898	211.870605
29941.101596	-1535.786667	806.482422	97.499741
29941.101596	-1535.786667	805.293945	80.745621
29941.101596	-1535.786667	804.104492	111.638618
29941.101596	-1535.786667	802.915039	201.489761
29941.101596	-1535.786667	801.725586	243.682159
29941.101596	-1535.786667	800.536133	362.941681
29941.101596	-1535.786667	799.345703	414.149536
29941.101596	-1535.786667	798.155273	497.063263
29941.101596	-1535.786667	796.964844	636.587219
29941.101596	-1535.786667	795.774414	687.705750
29941.101596	-1535.786667	794.583008	861.104614
29941.101596	-1535.786667	793.392578	792.143005
29941.101596	-1535.786667	792.200195	974.503540
29941.101596	-1535.786667	791.008789	853.487305
29941.101596	-1535.786667	789.816406	741.572815
29941.101596	-1535.786667	788.625000	550.516907
29941.101596	-1535.786667	787.432617	533.717102
29941.101596	-1535.786667	786.239258	419.676453
29941.101596	-1535.786667	785.046875	296.638855
29941.101596	-1535.786667	783.853516	277.641235
29941.101596	-1535.786667	782.660156	256.391388
29941.101596	-1535.786667	781.465820	291.642487
29941.101596	-1535.786667	780.272461	261.361755
29941.101596	-1535.786667	779.078125	292.079834
29941.101596	-1535.786667	777.883789	218.904343
29941.101596	-1535.786667	776.688477	127.696640
29941.101596	-1535.786667	775.494141	199.055756
29941.101596	-1535.786667	774.298828	191.394638
29941.101596	-1535.786667	773.103516	253.685638
29941.101596	-1535.786667	771.907227	76.820930
29941.101596	-1535.786667	770.711914	-18.773140
29941.101596	-1535.786667	769.515625	97.642822
29941.101596	-1535.786667	768.318359	128.338104
29941.101596	-1535.786667	767.122070	77.874298
29941.101596	-1535.786667	765.924805	25.177816
29941.101596	-1535.786667	764.727539	148.247345
29941.101596	-1535.786667	763.530273	48.252552
29941.101596	-1535.786667	762.333008	49.647991
29941.101596	-1535.786667	761.134766	125.349243
29941.101596	-1535.786667	759.936523	104.215103
29941.101596	-1535.786667	758.738281	69.585129
29941.101596	-1535.786667	757.540039	-21.288498
29941.101596	-1535.786667	756.340820	9.366959
29941.101596	-1535.786667	755.141602	93.994751
29941.101596	-1535.786667	753.942383	131.359985
29941.101596	-1535.786667	752.742188	103.504440
29941.101596	-1535.786667	751.541992	129.611588
29941.101596	-1535.786667	750.341797	86.034920
29941.101596	-1535.786667	749.141602	123.369339
29941.101596	-1535.786667	747.941406	201.125793
29941.101596	-1535.786667	746.740234	90.177109
29941.101596	-1535.786667	745.539063	179.134979
29941.101596	-1535.786667	744.337891	373.577972
29941.101596	-1535.786667	743.135742	235.724319
29941.101596	-1535.786667	741.933594	232.581024
29941.101596	-1535.786667	740.731445	171.100647
29941.101596	-1535.786667	739.529297	271.161774
29941.101596	-1535.786667	738.326172	276.981720
29941.101596	-1535.786667	737.124023	170.680847
29941.101596	-1535.786667	735.919922	272.918030
29941.101596	-1535.786667	734.716797	231.661209
29941.101596	-1535.786667	733.513672	141.119385
29941.101596	-1535.786667	732.309570	209.688049
29941.101596	-1535.786667	731.105469	155.026260
29941.101596	-1535.786667	729.900391	234.757996
29941.101596	-1535.786667	728.696289	236.087662
29941.101596	-1535.786667	727.491211	165.779694
29941.101596	-1535.786667	726.286133	95.499466
29941.101596	-1535.786667	725.080078	103.565071
29941.101596	-1535.786667	723.874023	31.086224
29941.101596	-1535.786667	722.668945	-48.074192
29941.101596	-1535.786667	721.461914	-44.461987
29941.101596	-1535.786667	720.255859	17.277304
29941.101596	-1535.786667	719.048828	45.458637
29941.101596	-1535.786667	717.841797	11.049630
29941.101596	-1535.786667	716.634766	97.309952
29941.101596	-1535.786667	715.427734	9.285397
29941.101596	-1535.786667	714.219727	-2.767498
29941.101596	-1535.786667	713.011719	32.074696
29941.101596	-1535.786667	711.803711	28.946638
29941.101596	-1535.786667	710.594727	188.756470
29941.101596	-1535.786667	709.385742	67.316765
29941.101596	-1535.786667	708.176758	86.485092
29941.101596	-1535.786667	706.967773	90.027451
29941.101596	-1535.786667	705.758789	115.866814
29941.101596	-1535.786667	704.548828	83.719170
29941.101596	-1535.786667	703.338867	49.351936
29941.101596	-1535.786667	702.127930	68.485970
29941.101596	-1535.786667	700.917969	-19.350576
29941.101596	-1535.786667	699.707031	13.148856
29941.101596	-1535.786667	698.496094	58.994865
29941.101596	-1535.786667	697.285156	-24.343189
29941.101596	-1535.786667	696.073242	52.652641
29941.101596	-1535.786667	694.861328	-39.561977
29941.101596	-1535.786667	693.649414	59.650532
29941.101596	-1535.786667	692.436523	3.064197
29941.101596	-1535.786667	691.224609	-4.562804
29941.101596	-1535.786667	690.011719	45.634624
29941.101596	-1535.786667	688.798828	-2.033835
29941.101596	-1535.786667	687.584961	28.122831
29941.101596	-1535.786667	686.372070	-19.532688
29941.101596	-1535.786667	685.158203	-58.285233
29941.101596	-1535.786667	683.943359	-23.709169
29941.101596	-1535.786667	682.729492	53.051132
29941.101596	-1535.786667	681.514648	-16.801645
29941.101596	-1535.786667	680.299805	59.912563
29941.101596	-1535.786667	679.084961	114.389420
29941.101596	-1535.786667	677.869141	73.401199
29941.101596	-1535.786667	676.653320	59.051071
29941.101596	-1535.786667	675.437500	111.254913
29941.101596	-1535.786667	674.221680	116.851456
29941.101596	-1535.786667	673.004883	9.343160
29941.101596	-1535.786667	671.789063	205.614075
29941.101596	-1535.786667	670.571289	109.200668
29941.101596	-1535.786667	669.354492	21.685085
29941.101596	-1535.786667	668.136719	16.179060
29941.101596	-1535.786667	666.919922	43.896023
29941.101596	-1535.786667	665.701172	69.377998
29941.101596	-1535.786667	664.483398	-0.372651
29941.101596	-1535.786667	663.264648	-76.743980
29941.101596	-1535.786667	662.045898	30.616756
29941.101596	-1535.786667	660.827148	20.640818
29941.101596	-1535.786667	659.608398	4.023128
29941.101596	-1535.786667	658.388672	29.430389
29941.101596	-1535.786667	657.168945	21.645802
29941.101596	-1535.786667	655.949219	-19.310026
29941.101596	-1535.786667	654.728516	70.164406
29941.101596	-1535.786667	653.507813	99.919205
29941.101596	-1535.786667	652.287109	30.219379
29941.101596	-1535.786667	651.066406	-77.016273
29941.101596	-1535.786667	649.844727	32.233887
29941.101596	-1535.786667	648.623047	-46.270329
29941.101596	-1535.786667	647.401367	-38.649170
29941.101596	-1535.786667	646.179688	63.871391
29941.101596	-1535.786667	644.957031	16.274395
29941.101596	-1535.786667	643.734375	76.798203
29941.101596	-1535.786667	642.511719	137.285446
29941.101596	-1535.786667	641.289063	69.822441
29941.101596	-1535.786667	640.065430	-6.443280
29941.101596	-1535.786667	638.841797	-9.940052
29941.101596	-1535.786667	637.618164	15.205528
29941.101596	-1535.786667	636.393555	-67.645134
29941.101596	-1535.786667	635.168945	19.165085
29941.101596	-1535.786667	633.944336	46.456135
29941.101596	-1535.786667	632.719727	84.734726
29941.101596	-1535.786667	631.494141	10.698909
29941.101596	-1535.786667	630.269531	84.164139
29941.101596	-1535.786667	629.042969	73.956696
29941.101596	-1535.786667	627.817383	17.535954
29941.101596	-1535.786667	626.590820	51.318596
29941.101596	-1535.786667	625.365234	137.859177
29941.101596	-1535.786667	624.137695	4.461161
29941.101596	-1535.786667	622.911133	88.750801
29941.101596	-1535.786667	621.683594	27.926439
29941.101596	-1535.786667	620.456055	90.173904
29941.101596	-1535.786667	619.228516	22.757740
29941.101596	-1535.786667	618.000977	-49.036015
29941.101596	-1535.786667	616.772461	2.167595
29941.101596	-1535.786667	615.543945	-153.052246
29941.101596	-1535.786667	614.314453	45.199169
29941.101596	-1535.786667	613.085938	-26.592955
29941.101596	-1535.786667	611.856445	101.305229
29941.101596	-1535.786667	610.626953	90.928528
29941.101596	-1535.786667	609.397461	8.164062
29941.101596	-1535.786667	608.166992	-10.988265
29941.101596	-1535.786667	606.936523	-93.724808
29941.101596	-1535.786667	605.706055	-38.351067
29941.101596	-1535.786667	604.474609	-4.930385
29941.101596	-1535.786667	603.244141	-61.366535
29941.101596	-1535.786667	602.012695	-23.602823
29941.101596	-1535.786667	600.780273	-84.421318
29941.101596	-1535.786667	599.548828	-2.906369
29941.101596	-1535.786667	598.316406	-135.972778
29941.101596	-1535.786667	597.083984	24.278917
29941.101596	-1535.786667	595.851563	-45.309044
29941.101596	-1535.786667	594.618164	-51.439968
29941.101596	-1535.786667	593.384766	-24.774412
29941.101596	-1535.786667	592.151367	-6.882235
29941.101596	-1535.786667	590.917969	63.458706
29941.101596	-1535.786667	589.683594	-41.112892
29941.101596	-1535.786667	588.449219	-64.796097
29941.101596	-1535.786667	587.214844	-55.710793
29941.101596	-1535.786667	585.979492	-59.751759
29941.101596	-1535.786667	584.745117	-76.909035
29941.101596	-1535.786667	583.509766	41.302502
29941.101596	-1535.786667	582.273438	-65.405510
29941.101596	-1535.786667	581.038086	0.341467
29941.101596	-1535.786667	579.801758	59.497990
29941.101596	-1535.786667	578.565430	16.076775
29941.101596	-1535.786667	577.329102	77.355675
29941.101596	-1535.786667	576.091797	16.472586
29941.101596	-1535.786667	574.854492	25.368246
29941.101596	-1535.786667	573.617188	49.503628
29941.101596	-1535.786667	572.378906	56.177975
29941.101596	-1535.786667	571.141602	43.226246
29941.101596	-1535.786667	569.903320	47.690983
29941.101596	-1535.786667	568.664063	12.935001
29941.101596	-1535.786667	567.425781	54.391472
29941.101596	-1535.786667	566.186523	139.354111
29941.101596	-1535.786667	564.947266	150.263565
29941.101596	-1535.786667	563.708008	80.639656
29941.101596	-1535.786667	562.467773	34.961033
29941.101596	-1535.786667	561.227539	-6.362395
29941.101596	-1535.786667	559.987305	117.592308
29941.101596	-1535.786667	558.747070	106.678749
29941.101596	-1535.786667	557.505859	154.445602
29941.101596	-1535.786667	556.264648	119.593140
29941.101596	-1535.786667	555.023438	258.566284
29941.101596	-1535.786667	553.781250	210.642685
29941.101596	-1535.786667	552.539063	258.288544
29941.101596	-1535.786667	551.296875	310.242981
29941.101596	-1535.786667	550.054688	349.135742
29941.101596	-1535.786667	548.811523	318.541138
29941.101596	-1535.786667	547.569336	287.947662
29941.101596	-1535.786667	546.325195	200.942429
29941.101596	-1535.786667	545.082031	153.006226
29941.101596	-1535.786667	543.837891	120.256462
29941.101596	-1535.786667	542.593750	-10.059560
29941.101596	-1535.786667	541.349609	15.741670
29941.101596	-1535.786667	540.105469	-27.832617
29941.101596	-1535.786667	538.860352	6.601885
29941.101596	-1535.786667	537.615234	-69.472366
29941.101596	-1535.786667	536.369141	-82.718430
29941.101596	-1535.786667	535.124023	62.103420
29941.101596	-1535.786667	533.877930	79.119759
29941.101596	-1535.786667	532.631836	83.130241
29941.101596	-1535.786667	531.384766	41.682476
29941.101596	-1535.786667	530.138672	2.405933
29941.101596	-1535.786667	528.891602	56.145149
29941.101596	-1535.786667	527.643555	-19.906826
29941.101596	-1535.786667	526.396484	16.495504
29941.101596	-1535.786667	525.148438	42.061634
29941.101596	-1535.786667	523.900391	74.090088
29941.101596	-1535.786667	522.652344	17.504177
29941.101596	-1535.786667	521.403320	38.701336
29941.101596	-1535.786667	520.154297	105.235497
29941.101596	-1535.786667	518.905273	165.253601
29941.101596	-1535.786667	517.656250	54.684608
29941.101596	-1535.786667	516.406250	80.132965
29941.101596	-1535.786667	515.156250	-4.494086
29941.101596	-1535.786667	513.906250	-45.943623
29941.101596	-1535.786667	512.655273	57.135872
29941.101596	-1535.786667	511.404297	56.647762
29941.101596	-1535.786667	510.153320	10.873785
29941.101596	-1535.786667	508.902344	-88.779305
29941.101596	-1535.786667	507.650391	-87.105034
29941.101596	-1535.786667	506.398438	-14.333051
29941.101596	-1535.786667	505.146484	32.549831
29941.101596	-1535.786667	503.893555	-4.593654
29941.101596	-1535.786667	502.641602	16.414158
29941.101596	-1535.786667	501.388672	-27.180784
29941.101596	-1535.786667	500.134766	-4.039849
29941.101596	-1535.786667	498.881836	-23.951895
29941.101596	-1535.786667	497.627930	-0.832613
29941.101596	-1535.786667	496.374023	95.406006
29941.101596	-1535.786667	495.119141	-36.361130
29941.101596	-1535.786667	493.865234	109.286140
29941.101596	-1535.786667	492.610352	128.037338
29941.101596	-1535.786667	491.355469	138.179916
29941.101596	-1535.786667	490.099609	4.350041
29941.101596	-1535.786667	488.843750	145.548325
29941.101596	-1535.786667	487.587891	41.836548
29941.101596	-1535.786667	486.332031	62.710342
29941.101596	-1535.786667	485.075195	-73.148506
29941.101596	-1535.786667	483.818359	82.956421
29941.101596	-1535.786667	482.561523	39.421623
29941.101596	-1535.786667	481.304688	73.139931
29941.101596	-1535.786667	480.046875	55.360504
29941.101596	-1535.786667	478.789063	-18.170446
29941.101596	-1535.786667	477.531250	30.541224
29941.101596	-1535.786667	476.272461	55.649685
29941.101596	-1535.786667	475.013672	-60.701145
29941.101596	-1535.786667	473.754883	-54.869194
29941.101596	-1535.786667	472.496094	17.368912
29941.101596	-1535.786667	471.236328	83.148766
29941.101596	-1535.786667	469.976563	-45.957264
29941.101596	-1535.786667	468.716797	32.653561
29941.101596	-1535.786667	467.456055	17.053104
29941.101596	-1535.786667	466.196289	-0.678129
29941.101596	-1535.786667	464.935547	-18.402487
29941.101596	-1535.786667	463.673828	-6.173499
29941.101596	-1535.786667	462.413086	87.316841
29941.101596	-1535.786667	461.151367	28.964478
29941.101596	-1535.786667	459.889648	103.170052
29941.101596	-1535.786667	458.626953	-49.192856
29941.101596	-1535.786667	457.364258	-34.827389
29941.101596	-1535.786667	456.101563	90.617409
29941.101596	-1535.786667	454.838867	38.742462
29941.101596	-1535.786667	453.575195	-87.844795
29941.101596	-1535.786667	452.312500	107.986259
29941.101596	-1535.786667	451.047852	39.069904
29941.101596	-1535.786667	449.784180	-51.151405
29941.101596	-1535.786667	448.519531	99.746269
29941.101596	-1535.786667	447.254883	18.086025
29941.101596	-1535.786667	445.990234	70.812698
29941.101596	-1535.786667	444.725586	219.461670
29941.101596	-1535.786667	443.459961	107.992073
29941.101596	-1535.786667	442.194336	186.244507
29941.101596	-1535.786667	440.927734	209.066254
29941.101596	-1535.786667	439.662109	199.928528
29941.101596	-1535.786667	438.395508	209.963181
29941.101596	-1535.786667	437.127930	171.020203
29941.101596	-1535.786667	435.861328	140.612976
29941.101596	-1535.786667	434.593750	246.435043
29941.101596	-1535.786667	433.326172	43.665234
29941.101596	-1535.786667	432.058594	240.945404
29941.101596	-1535.786667	430.790039	202.043808
29941.101596	-1535.786667	429.521484	133.388199
29941.101596	-1535.786667	428.252930	307.135010
29941.101596	-1535.786667	426.984375	304.380829
29941.101596	-1535.786667	425.714844	359.005096
29941.101596	-1535.786667	424.445313	383.859589
29941.101596	-1535.786667	423.174805	427.818542
29941.101596	-1535.786667	421.905273	509.986328
29941.101596	-1535.786667	420.634766	598.484924
29941.101596	-1535.786667	419.364258	642.362671
29941.101596	-1535.786667	418.092773	715.930054
29941.101596	-1535.786667	416.822266	507.247253
29941.101596	-1535.786667	415.550781	515.038452
29941.101596	-1535.786667	414.278320	380.712402
29941.101596	-1535.786667	413.006836	303.694977
29941.101596	-1535.786667	411.734375	381.469238
29941.101596	-1535.786667	410.461914	338.383728
29941.101596	-1535.786667	409.188477	276.234741
29941.101596	-1535.786667	407.916016	127.238274
29941.101596	-1535.786667	406.642578	279.085876
29941.101596	-1535.786667	405.368164	87.773613
29941.101596	-1535.786667	404.094727	192.959579
29941.101596	-1535.786667	402.820313	29.243088
29941.101596	-1535.786667	401.545898	108.970505
29941.101596	-1535.786667	400.270508	129.399536
29941.101596	-1535.786667	398.996094	107.494797
29941.101596	-1535.786667	397.720703	5.208803
29941.101596	-1535.786667	396.444336	105.945183
29941.101596	-1535.786667	395.168945	22.690670
29941.101596	-1535.786667	393.892578	95.858696
29941.101596	-1535.786667	392.616211	54.858803
29941.101596	-1535.786667	391.339844	104.698906
29941.101596	-1535.786667	390.062500	74.221809
29941.101596	-1535.786667	388.785156	22.611069
29941.101596	-1535.786667	387.507813	78.671036
29941.101596	-1535.786667	386.229492	52.347263
29941.101596	-1535.786667	384.951172	142.074615
29941.101596	-1535.786667	383.672852	50.268089
29941.101596	-1535.786667	382.394531	118.786171
29941.101596	-1535.786667	381.115234	48.033482
29941.101596	-1535.786667	379.835938	103.784531
29941.101596	-1535.786667	378.556641	151.033325
29941.101596	-1535.786667	377.277344	185.567245
29941.101596	-1535.786667	375.997070	264.285553
29941.101596	-1535.786667	374.716797	334.488953
29941.101596	-1535.786667	373.435547	320.351532
29941.101596	-1535.786667	372.155273	325.116486
29941.101596	-1535.786667	370.874023	504.563019
29941.101596	-1535.786667	369.591797	406.012970
29941.101596	-1535.786667	368.310547	410.559875
29941.101596	-1535.786667	367.028320	492.880035
29941.101596	-1535.786667	365.746094	461.497864
29941.101596	-1535.786667	364.463867	356.443207
29941.101596	-1535.786667	363.180664	327.045502
29941.101596	-1535.786667	361.897461	341.721832
29941.101596	-1535.786667	360.614258	270.132080
29941.101596	-1535.786667	359.330078	362.377563
29941.101596	-1535.786667	358.045898	183.481216
29941.101596	-1535.786667	356.761719	73.874031
29941.101596	-1535.786667	355.477539	86.004005
29941.101596	-1535.786667	354.192383	154.701187
29941.101596	-1535.786667	352.907227	164.483139
29941.101596	-1535.786667	351.622070	172.043793
29941.101596	-1535.786667	350.336914	112.340157
29941.101596	-1535.786667	349.050781	-29.275654
29941.101596	-1535.786667	347.764648	45.044029
29941.101596	-1535.786667	346.477539	-42.256401
29941.101596	-1535.786667	345.191406	-22.750399
29941.101596	-1535.786667	343.904297	0.785805
29941.101596	-1535.786667	342.616211	15.771645
29941.101596	-1535.786667	341.329102	9.645598
29941.101596	-1535.786667	340.041016	-2.931479
29941.101596	-1535.786667	338.752930	-91.058266
29941.101596	-1535.786667	337.463867	-108.150940
29941.101596	-1535.786667	336.175781	-83.556534
29941.101596	-1535.786667	334.886719	-0.577339
29941.101596	-1535.786667	333.596680	-53.826157
29941.101596	-1535.786667	332.307617	51.713844
29941.101596	-1535.786667	331.017578	-43.766651
29941.101596	-1535.786667	329.727539	-3.526969
29941.101596	-1535.786667	328.436523	55.274387
29941.101596	-1535.786667	327.146484	13.507103
29941.101596	-1535.786667	325.855469	52.994545
29941.101596	-1535.786667	324.563477	-43.573814
29941.101596	-1535.786667	323.272461	10.015962
29941.101596	-1535.786667	321.980469	-32.741890
29941.101596	-1535.786667	320.688477	36.969543
29941.101596	-1535.786667	319.395508	43.743370
29941.101596	-1535.786667	318.103516	-74.973755
29941.101596	-1535.786667	316.810547	96.029106
29941.101596	-1535.786667	315.516602	87.261078
29941.101596	-1535.786667	314.223633	61.496670
29941.101596	-1535.786667	312.929688	-54.247192
29941.101596	-1535.786667	311.635742	-16.043041
29941.101596	-1535.786667	310.340820	0.940104
29941.101596	-1535.786667	309.045898	-11.620542
29941.101596	-1535.786667	307.750977	69.180618
29941.101596	-1535.786667	306.456055	-12.882648
29941.101596	-1535.786667	305.160156	75.410065
29941.101596	-1535.786667	303.865234	104.974014
29941.101596	-1535.786667	302.568359	15.450999
29941.101596	-1535.786667	301.272461	85.754395
29941.101596	-1535.786667	299.975586	84.835190
29941.101596	-1535.786667	298.678711	110.488724
