#X		#Y		#Wave		#Intensity
29533.065426	-1076.438333	1999.980469	-15.587794
29533.065426	-1076.438333	1999.016602	-12.515671
29533.065426	-1076.438333	1998.052734	-45.770782
29533.065426	-1076.438333	1997.087891	9.904510
29533.065426	-1076.438333	1996.123047	35.535683
29533.065426	-1076.438333	1995.158203	-58.031075
29533.065426	-1076.438333	1994.193359	-45.336464
29533.065426	-1076.438333	1993.228516	-65.103989
29533.065426	-1076.438333	1992.262695	73.334824
29533.065426	-1076.438333	1991.297852	201.567764
29533.065426	-1076.438333	1990.332031	54.798931
29533.065426	-1076.438333	1989.366211	-119.369255
29533.065426	-1076.438333	1988.399414	20.500597
29533.065426	-1076.438333	1987.433594	58.681145
29533.065426	-1076.438333	1986.466797	-7.231984
29533.065426	-1076.438333	1985.500977	-1.622303
29533.065426	-1076.438333	1984.534180	248.531891
29533.065426	-1076.438333	1983.567383	90.571274
29533.065426	-1076.438333	1982.599609	-15.619715
29533.065426	-1076.438333	1981.632813	-3.353775
29533.065426	-1076.438333	1980.665039	60.612804
29533.065426	-1076.438333	1979.697266	-4.044652
29533.065426	-1076.438333	1978.729492	143.530060
29533.065426	-1076.438333	1977.761719	21.779394
29533.065426	-1076.438333	1976.792969	8.538630
29533.065426	-1076.438333	1975.825195	-91.222076
29533.065426	-1076.438333	1974.856445	48.270470
29533.065426	-1076.438333	1973.887695	46.952480
29533.065426	-1076.438333	1972.918945	-77.825546
29533.065426	-1076.438333	1971.949219	66.135567
29533.065426	-1076.438333	1970.980469	94.035187
29533.065426	-1076.438333	1970.010742	45.387730
29533.065426	-1076.438333	1969.041016	188.906296
29533.065426	-1076.438333	1968.071289	137.582367
29533.065426	-1076.438333	1967.101563	-51.800247
29533.065426	-1076.438333	1966.130859	47.014870
29533.065426	-1076.438333	1965.161133	7.776465
29533.065426	-1076.438333	1964.190430	-238.388718
29533.065426	-1076.438333	1963.219727	15.257224
29533.065426	-1076.438333	1962.249023	-80.819824
29533.065426	-1076.438333	1961.277344	79.023270
29533.065426	-1076.438333	1960.306641	167.376343
29533.065426	-1076.438333	1959.334961	122.774460
29533.065426	-1076.438333	1958.363281	181.435867
29533.065426	-1076.438333	1957.391602	-116.588623
29533.065426	-1076.438333	1956.419922	160.817566
29533.065426	-1076.438333	1955.447266	128.303421
29533.065426	-1076.438333	1954.474609	-19.774269
29533.065426	-1076.438333	1953.501953	33.670029
29533.065426	-1076.438333	1952.529297	168.131927
29533.065426	-1076.438333	1951.556641	44.559093
29533.065426	-1076.438333	1950.583984	132.219894
29533.065426	-1076.438333	1949.610352	3.709258
29533.065426	-1076.438333	1948.636719	27.435450
29533.065426	-1076.438333	1947.663086	65.848694
29533.065426	-1076.438333	1946.689453	-18.496851
29533.065426	-1076.438333	1945.715820	-4.685317
29533.065426	-1076.438333	1944.741211	70.428444
29533.065426	-1076.438333	1943.767578	111.152489
29533.065426	-1076.438333	1942.792969	14.498826
29533.065426	-1076.438333	1941.818359	145.899750
29533.065426	-1076.438333	1940.842773	68.849136
29533.065426	-1076.438333	1939.868164	-3.284086
29533.065426	-1076.438333	1938.892578	59.379810
29533.065426	-1076.438333	1937.916992	-17.653383
29533.065426	-1076.438333	1936.941406	96.411392
29533.065426	-1076.438333	1935.965820	-14.909690
29533.065426	-1076.438333	1934.990234	55.016174
29533.065426	-1076.438333	1934.013672	100.423988
29533.065426	-1076.438333	1933.037109	-32.888279
29533.065426	-1076.438333	1932.060547	-11.964296
29533.065426	-1076.438333	1931.083984	-125.635880
29533.065426	-1076.438333	1930.107422	-21.523491
29533.065426	-1076.438333	1929.129883	23.840940
29533.065426	-1076.438333	1928.153320	196.364243
29533.065426	-1076.438333	1927.175781	-29.741287
29533.065426	-1076.438333	1926.198242	196.513794
29533.065426	-1076.438333	1925.219727	-19.727377
29533.065426	-1076.438333	1924.242188	-69.701790
29533.065426	-1076.438333	1923.263672	-2.374094
29533.065426	-1076.438333	1922.285156	25.847445
29533.065426	-1076.438333	1921.306641	154.204636
29533.065426	-1076.438333	1920.328125	16.344028
29533.065426	-1076.438333	1919.349609	73.864258
29533.065426	-1076.438333	1918.370117	-90.769592
29533.065426	-1076.438333	1917.391602	47.305607
29533.065426	-1076.438333	1916.412109	41.365185
29533.065426	-1076.438333	1915.431641	152.539841
29533.065426	-1076.438333	1914.452148	95.375610
29533.065426	-1076.438333	1913.472656	-5.657268
29533.065426	-1076.438333	1912.492188	83.546204
29533.065426	-1076.438333	1911.511719	-93.004898
29533.065426	-1076.438333	1910.531250	-1.362246
29533.065426	-1076.438333	1909.550781	-36.467205
29533.065426	-1076.438333	1908.569336	-95.917053
29533.065426	-1076.438333	1907.588867	3.011542
29533.065426	-1076.438333	1906.607422	-27.176819
29533.065426	-1076.438333	1905.625977	-57.344936
29533.065426	-1076.438333	1904.644531	-48.537395
29533.065426	-1076.438333	1903.662109	-5.646527
29533.065426	-1076.438333	1902.680664	29.937920
29533.065426	-1076.438333	1901.698242	16.848890
29533.065426	-1076.438333	1900.715820	-44.885036
29533.065426	-1076.438333	1899.733398	119.628395
29533.065426	-1076.438333	1898.750000	140.599274
29533.065426	-1076.438333	1897.767578	122.666893
29533.065426	-1076.438333	1896.784180	197.126740
29533.065426	-1076.438333	1895.800781	-61.428848
29533.065426	-1076.438333	1894.817383	-62.285000
29533.065426	-1076.438333	1893.833984	140.960129
29533.065426	-1076.438333	1892.850586	18.614132
29533.065426	-1076.438333	1891.866211	127.052475
29533.065426	-1076.438333	1890.881836	14.474764
29533.065426	-1076.438333	1889.897461	18.480501
29533.065426	-1076.438333	1888.913086	95.310776
29533.065426	-1076.438333	1887.927734	-92.428078
29533.065426	-1076.438333	1886.943359	66.899437
29533.065426	-1076.438333	1885.958008	24.802000
29533.065426	-1076.438333	1884.972656	-43.961361
29533.065426	-1076.438333	1883.987305	-32.669197
29533.065426	-1076.438333	1883.001953	-69.877426
29533.065426	-1076.438333	1882.015625	65.046562
29533.065426	-1076.438333	1881.029297	15.707891
29533.065426	-1076.438333	1880.042969	70.588196
29533.065426	-1076.438333	1879.056641	-39.313816
29533.065426	-1076.438333	1878.070313	-30.480410
29533.065426	-1076.438333	1877.083984	-31.344543
29533.065426	-1076.438333	1876.096680	13.791695
29533.065426	-1076.438333	1875.109375	71.008461
29533.065426	-1076.438333	1874.122070	120.932808
29533.065426	-1076.438333	1873.134766	153.887589
29533.065426	-1076.438333	1872.146484	-43.055836
29533.065426	-1076.438333	1871.159180	-43.974541
29533.065426	-1076.438333	1870.170898	-15.881675
29533.065426	-1076.438333	1869.182617	14.605637
29533.065426	-1076.438333	1868.194336	78.917610
29533.065426	-1076.438333	1867.205078	-86.469719
29533.065426	-1076.438333	1866.216797	236.423782
29533.065426	-1076.438333	1865.227539	170.114090
29533.065426	-1076.438333	1864.238281	62.737041
29533.065426	-1076.438333	1863.249023	64.084618
29533.065426	-1076.438333	1862.259766	164.434158
29533.065426	-1076.438333	1861.269531	-20.215467
29533.065426	-1076.438333	1860.279297	-173.432022
29533.065426	-1076.438333	1859.290039	132.013214
29533.065426	-1076.438333	1858.298828	123.578056
29533.065426	-1076.438333	1857.308594	185.097153
29533.065426	-1076.438333	1856.318359	7.732828
29533.065426	-1076.438333	1855.327148	-7.989358
29533.065426	-1076.438333	1854.335938	14.850750
29533.065426	-1076.438333	1853.344727	-181.757614
29533.065426	-1076.438333	1852.353516	-19.135294
29533.065426	-1076.438333	1851.362305	179.547287
29533.065426	-1076.438333	1850.370117	81.721764
29533.065426	-1076.438333	1849.377930	73.043297
29533.065426	-1076.438333	1848.385742	4.112929
29533.065426	-1076.438333	1847.393555	48.366673
29533.065426	-1076.438333	1846.401367	126.278618
29533.065426	-1076.438333	1845.408203	-70.331566
29533.065426	-1076.438333	1844.415039	58.042034
29533.065426	-1076.438333	1843.421875	215.206528
29533.065426	-1076.438333	1842.428711	-41.581268
29533.065426	-1076.438333	1841.435547	-26.473696
29533.065426	-1076.438333	1840.441406	96.817474
29533.065426	-1076.438333	1839.448242	49.283108
29533.065426	-1076.438333	1838.454102	-171.391464
29533.065426	-1076.438333	1837.459961	-14.622410
29533.065426	-1076.438333	1836.464844	-55.041565
29533.065426	-1076.438333	1835.470703	144.805206
29533.065426	-1076.438333	1834.475586	-44.680332
29533.065426	-1076.438333	1833.480469	118.957458
29533.065426	-1076.438333	1832.485352	135.985229
29533.065426	-1076.438333	1831.490234	52.107113
29533.065426	-1076.438333	1830.495117	35.427670
29533.065426	-1076.438333	1829.499023	-84.512878
29533.065426	-1076.438333	1828.502930	4.319003
29533.065426	-1076.438333	1827.506836	-72.492126
29533.065426	-1076.438333	1826.510742	83.360939
29533.065426	-1076.438333	1825.513672	-17.536821
29533.065426	-1076.438333	1824.517578	78.182007
29533.065426	-1076.438333	1823.520508	63.516815
29533.065426	-1076.438333	1822.523438	-37.497997
29533.065426	-1076.438333	1821.526367	-45.066895
29533.065426	-1076.438333	1820.529297	-9.563747
29533.065426	-1076.438333	1819.531250	40.233818
29533.065426	-1076.438333	1818.533203	20.486439
29533.065426	-1076.438333	1817.535156	-75.951698
29533.065426	-1076.438333	1816.537109	14.341948
29533.065426	-1076.438333	1815.539063	-46.280853
29533.065426	-1076.438333	1814.540039	-97.378258
29533.065426	-1076.438333	1813.541992	-12.118037
29533.065426	-1076.438333	1812.542969	-39.412663
29533.065426	-1076.438333	1811.543945	98.289162
29533.065426	-1076.438333	1810.543945	135.414902
29533.065426	-1076.438333	1809.544922	67.248039
29533.065426	-1076.438333	1808.544922	63.581192
29533.065426	-1076.438333	1807.544922	50.282375
29533.065426	-1076.438333	1806.544922	22.576502
29533.065426	-1076.438333	1805.544922	11.533233
29533.065426	-1076.438333	1804.544922	76.866280
29533.065426	-1076.438333	1803.543945	48.943645
29533.065426	-1076.438333	1802.542969	109.312935
29533.065426	-1076.438333	1801.541992	-7.097734
29533.065426	-1076.438333	1800.541016	110.397568
29533.065426	-1076.438333	1799.539063	160.938583
29533.065426	-1076.438333	1798.538086	142.186920
29533.065426	-1076.438333	1797.536133	-55.574467
29533.065426	-1076.438333	1796.534180	-110.221306
29533.065426	-1076.438333	1795.532227	16.323055
29533.065426	-1076.438333	1794.529297	-76.633514
29533.065426	-1076.438333	1793.527344	-129.102371
29533.065426	-1076.438333	1792.524414	47.178680
29533.065426	-1076.438333	1791.521484	423.488708
29533.065426	-1076.438333	1790.518555	27.606066
29533.065426	-1076.438333	1789.514648	17.695265
29533.065426	-1076.438333	1788.511719	22.000662
29533.065426	-1076.438333	1787.507813	121.464920
29533.065426	-1076.438333	1786.503906	8.914916
29533.065426	-1076.438333	1785.500000	-20.365047
29533.065426	-1076.438333	1784.496094	202.551437
29533.065426	-1076.438333	1783.491211	99.305542
29533.065426	-1076.438333	1782.486328	34.076569
29533.065426	-1076.438333	1781.481445	235.184525
29533.065426	-1076.438333	1780.476563	77.035378
29533.065426	-1076.438333	1779.471680	49.629822
29533.065426	-1076.438333	1778.465820	388.229797
29533.065426	-1076.438333	1777.460938	82.520569
29533.065426	-1076.438333	1776.455078	159.416824
29533.065426	-1076.438333	1775.449219	129.282639
29533.065426	-1076.438333	1774.442383	25.426537
29533.065426	-1076.438333	1773.436523	-99.846344
29533.065426	-1076.438333	1772.429688	140.504074
29533.065426	-1076.438333	1771.422852	204.995056
29533.065426	-1076.438333	1770.416016	62.869190
29533.065426	-1076.438333	1769.409180	186.499878
29533.065426	-1076.438333	1768.402344	167.631638
29533.065426	-1076.438333	1767.394531	58.528603
29533.065426	-1076.438333	1766.386719	25.273512
29533.065426	-1076.438333	1765.378906	122.364838
29533.065426	-1076.438333	1764.371094	205.103348
29533.065426	-1076.438333	1763.362305	249.785080
29533.065426	-1076.438333	1762.354492	313.327576
29533.065426	-1076.438333	1761.345703	132.684738
29533.065426	-1076.438333	1760.336914	148.653763
29533.065426	-1076.438333	1759.328125	361.123383
29533.065426	-1076.438333	1758.318359	258.444000
29533.065426	-1076.438333	1757.308594	212.539124
29533.065426	-1076.438333	1756.299805	199.711472
29533.065426	-1076.438333	1755.290039	217.558578
29533.065426	-1076.438333	1754.279297	131.178467
29533.065426	-1076.438333	1753.269531	132.289139
29533.065426	-1076.438333	1752.258789	-3.897593
29533.065426	-1076.438333	1751.249023	181.530472
29533.065426	-1076.438333	1750.238281	182.351776
29533.065426	-1076.438333	1749.226563	301.279633
29533.065426	-1076.438333	1748.215820	150.622299
29533.065426	-1076.438333	1747.204102	153.533234
29533.065426	-1076.438333	1746.193359	76.028580
29533.065426	-1076.438333	1745.181641	192.165787
29533.065426	-1076.438333	1744.168945	230.217850
29533.065426	-1076.438333	1743.157227	55.648212
29533.065426	-1076.438333	1742.144531	62.841518
29533.065426	-1076.438333	1741.132813	159.653656
29533.065426	-1076.438333	1740.120117	164.288345
29533.065426	-1076.438333	1739.106445	180.621155
29533.065426	-1076.438333	1738.093750	159.123764
29533.065426	-1076.438333	1737.080078	-48.801846
29533.065426	-1076.438333	1736.067383	40.417397
29533.065426	-1076.438333	1735.053711	37.551361
29533.065426	-1076.438333	1734.040039	48.744030
29533.065426	-1076.438333	1733.025391	88.119553
29533.065426	-1076.438333	1732.011719	254.654526
29533.065426	-1076.438333	1730.997070	58.203705
29533.065426	-1076.438333	1729.982422	87.877739
29533.065426	-1076.438333	1728.967773	-122.765732
29533.065426	-1076.438333	1727.952148	-22.606783
29533.065426	-1076.438333	1726.937500	70.378899
29533.065426	-1076.438333	1725.921875	73.792435
29533.065426	-1076.438333	1724.906250	-172.329773
29533.065426	-1076.438333	1723.890625	-63.156082
29533.065426	-1076.438333	1722.875000	69.419540
29533.065426	-1076.438333	1721.858398	88.957596
29533.065426	-1076.438333	1720.841797	-4.465122
29533.065426	-1076.438333	1719.825195	26.675447
29533.065426	-1076.438333	1718.808594	57.724663
29533.065426	-1076.438333	1717.791992	-19.423756
29533.065426	-1076.438333	1716.774414	255.826035
29533.065426	-1076.438333	1715.756836	-25.883307
29533.065426	-1076.438333	1714.739258	-136.097977
29533.065426	-1076.438333	1713.721680	-86.657120
29533.065426	-1076.438333	1712.704102	-34.962368
29533.065426	-1076.438333	1711.685547	-32.670589
29533.065426	-1076.438333	1710.667969	23.540413
29533.065426	-1076.438333	1709.649414	-47.071594
29533.065426	-1076.438333	1708.630859	41.808964
29533.065426	-1076.438333	1707.611328	-141.527725
29533.065426	-1076.438333	1706.592773	-127.853134
29533.065426	-1076.438333	1705.573242	-55.648247
29533.065426	-1076.438333	1704.553711	-154.675308
29533.065426	-1076.438333	1703.534180	25.187586
29533.065426	-1076.438333	1702.513672	195.527267
29533.065426	-1076.438333	1701.494141	-32.558937
29533.065426	-1076.438333	1700.473633	-70.891396
29533.065426	-1076.438333	1699.453125	169.432053
29533.065426	-1076.438333	1698.432617	25.571461
29533.065426	-1076.438333	1697.412109	33.878296
29533.065426	-1076.438333	1696.390625	25.721319
29533.065426	-1076.438333	1695.369141	-1.216746
29533.065426	-1076.438333	1694.347656	16.250555
29533.065426	-1076.438333	1693.326172	66.402466
29533.065426	-1076.438333	1692.304688	4.206705
29533.065426	-1076.438333	1691.282227	-86.099022
29533.065426	-1076.438333	1690.260742	87.783165
29533.065426	-1076.438333	1689.238281	130.622620
29533.065426	-1076.438333	1688.214844	-6.580812
29533.065426	-1076.438333	1687.192383	148.309937
29533.065426	-1076.438333	1686.168945	76.460449
29533.065426	-1076.438333	1685.146484	-7.079900
29533.065426	-1076.438333	1684.123047	131.201965
29533.065426	-1076.438333	1683.099609	234.356659
29533.065426	-1076.438333	1682.075195	447.126434
29533.065426	-1076.438333	1681.051758	129.964355
29533.065426	-1076.438333	1680.027344	337.906647
29533.065426	-1076.438333	1679.002930	466.397675
29533.065426	-1076.438333	1677.978516	282.219757
29533.065426	-1076.438333	1676.953125	321.943085
29533.065426	-1076.438333	1675.928711	405.924500
29533.065426	-1076.438333	1674.903320	398.896179
29533.065426	-1076.438333	1673.877930	482.730408
29533.065426	-1076.438333	1672.852539	380.061096
29533.065426	-1076.438333	1671.826172	426.492554
29533.065426	-1076.438333	1670.800781	510.153442
29533.065426	-1076.438333	1669.774414	437.684753
29533.065426	-1076.438333	1668.748047	579.437622
29533.065426	-1076.438333	1667.721680	534.848633
29533.065426	-1076.438333	1666.694336	608.939941
29533.065426	-1076.438333	1665.667969	506.114044
29533.065426	-1076.438333	1664.640625	675.514587
29533.065426	-1076.438333	1663.613281	912.283813
29533.065426	-1076.438333	1662.585938	972.162109
29533.065426	-1076.438333	1661.557617	831.987000
29533.065426	-1076.438333	1660.530273	1117.325317
29533.065426	-1076.438333	1659.501953	1274.663086
29533.065426	-1076.438333	1658.473633	1064.707397
29533.065426	-1076.438333	1657.444336	1458.942017
29533.065426	-1076.438333	1656.416016	1346.557007
29533.065426	-1076.438333	1655.386719	1547.751465
29533.065426	-1076.438333	1654.358398	1491.085327
29533.065426	-1076.438333	1653.328125	1794.279541
29533.065426	-1076.438333	1652.298828	1693.428223
29533.065426	-1076.438333	1651.269531	1801.484863
29533.065426	-1076.438333	1650.239258	2020.851440
29533.065426	-1076.438333	1649.208984	2033.634155
29533.065426	-1076.438333	1648.178711	2053.356934
29533.065426	-1076.438333	1647.148438	1966.378174
29533.065426	-1076.438333	1646.117188	2060.264893
29533.065426	-1076.438333	1645.086914	2239.895508
29533.065426	-1076.438333	1644.055664	2421.751465
29533.065426	-1076.438333	1643.024414	2232.750732
29533.065426	-1076.438333	1641.992188	2572.057617
29533.065426	-1076.438333	1640.960938	2468.796875
29533.065426	-1076.438333	1639.928711	2423.458740
29533.065426	-1076.438333	1638.896484	2480.019775
29533.065426	-1076.438333	1637.864258	2728.710449
29533.065426	-1076.438333	1636.832031	2576.867188
29533.065426	-1076.438333	1635.798828	2718.974609
29533.065426	-1076.438333	1634.766602	2865.670410
29533.065426	-1076.438333	1633.733398	2713.880127
29533.065426	-1076.438333	1632.699219	2744.854736
29533.065426	-1076.438333	1631.666016	2847.521973
29533.065426	-1076.438333	1630.632813	2538.625244
29533.065426	-1076.438333	1629.598633	2551.143066
29533.065426	-1076.438333	1628.564453	2739.307373
29533.065426	-1076.438333	1627.530273	2603.921387
29533.065426	-1076.438333	1626.495117	2699.602051
29533.065426	-1076.438333	1625.460938	2933.857422
29533.065426	-1076.438333	1624.425781	2807.773682
29533.065426	-1076.438333	1623.390625	2947.268311
29533.065426	-1076.438333	1622.355469	3250.621338
29533.065426	-1076.438333	1621.319336	3373.841064
29533.065426	-1076.438333	1620.284180	3501.661133
29533.065426	-1076.438333	1619.248047	3500.244141
29533.065426	-1076.438333	1618.211914	3847.142090
29533.065426	-1076.438333	1617.174805	3663.502686
29533.065426	-1076.438333	1616.138672	3975.696289
29533.065426	-1076.438333	1615.101563	4059.559814
29533.065426	-1076.438333	1614.065430	4378.519043
29533.065426	-1076.438333	1613.027344	4812.571777
29533.065426	-1076.438333	1611.990234	4953.903320
29533.065426	-1076.438333	1610.953125	5231.113770
29533.065426	-1076.438333	1609.915039	5446.051758
29533.065426	-1076.438333	1608.876953	5670.148438
29533.065426	-1076.438333	1607.838867	5884.982422
29533.065426	-1076.438333	1606.800781	5961.669434
29533.065426	-1076.438333	1605.761719	6224.745117
29533.065426	-1076.438333	1604.723633	6335.920410
29533.065426	-1076.438333	1603.684570	6152.638184
29533.065426	-1076.438333	1602.644531	6236.234863
29533.065426	-1076.438333	1601.605469	5961.146973
29533.065426	-1076.438333	1600.566406	5635.631836
29533.065426	-1076.438333	1599.526367	5464.272949
29533.065426	-1076.438333	1598.486328	5044.834961
29533.065426	-1076.438333	1597.446289	4896.724609
29533.065426	-1076.438333	1596.405273	4280.083984
29533.065426	-1076.438333	1595.365234	4299.935059
29533.065426	-1076.438333	1594.324219	4012.115234
29533.065426	-1076.438333	1593.283203	3788.741699
29533.065426	-1076.438333	1592.242188	3712.409912
29533.065426	-1076.438333	1591.200195	3473.209229
29533.065426	-1076.438333	1590.159180	3534.744141
29533.065426	-1076.438333	1589.117188	3355.425293
29533.065426	-1076.438333	1588.075195	3189.994385
29533.065426	-1076.438333	1587.032227	3219.588135
29533.065426	-1076.438333	1585.990234	3295.095459
29533.065426	-1076.438333	1584.947266	3294.976807
29533.065426	-1076.438333	1583.904297	3152.829590
29533.065426	-1076.438333	1582.861328	3178.065918
29533.065426	-1076.438333	1581.818359	3423.282227
29533.065426	-1076.438333	1580.775391	3354.675293
29533.065426	-1076.438333	1579.731445	3297.599121
29533.065426	-1076.438333	1578.687500	3387.142822
29533.065426	-1076.438333	1577.643555	3076.127441
29533.065426	-1076.438333	1576.598633	3344.317383
29533.065426	-1076.438333	1575.554688	3250.949951
29533.065426	-1076.438333	1574.509766	3265.202148
29533.065426	-1076.438333	1573.464844	3139.995361
29533.065426	-1076.438333	1572.419922	3081.229004
29533.065426	-1076.438333	1571.374023	3173.450928
29533.065426	-1076.438333	1570.329102	3181.143799
29533.065426	-1076.438333	1569.283203	3031.198242
29533.065426	-1076.438333	1568.237305	3041.342773
29533.065426	-1076.438333	1567.191406	2923.623535
29533.065426	-1076.438333	1566.144531	2897.385254
29533.065426	-1076.438333	1565.098633	3095.053223
29533.065426	-1076.438333	1564.051758	3240.198486
29533.065426	-1076.438333	1563.004883	3417.328613
29533.065426	-1076.438333	1561.957031	3646.955811
29533.065426	-1076.438333	1560.910156	3605.040771
29533.065426	-1076.438333	1559.862305	3770.830078
29533.065426	-1076.438333	1558.814453	3774.687988
29533.065426	-1076.438333	1557.766602	4122.999512
29533.065426	-1076.438333	1556.718750	4115.562012
29533.065426	-1076.438333	1555.669922	3989.664307
29533.065426	-1076.438333	1554.621094	4100.945313
29533.065426	-1076.438333	1553.573242	3922.879639
29533.065426	-1076.438333	1552.523438	3767.738525
29533.065426	-1076.438333	1551.474609	3817.771729
29533.065426	-1076.438333	1550.424805	3651.512451
29533.065426	-1076.438333	1549.375000	3617.479492
29533.065426	-1076.438333	1548.325195	3255.733398
29533.065426	-1076.438333	1547.275391	2860.086426
29533.065426	-1076.438333	1546.225586	2876.583252
29533.065426	-1076.438333	1545.174805	2840.833496
29533.065426	-1076.438333	1544.124023	2636.866211
29533.065426	-1076.438333	1543.073242	2578.635010
29533.065426	-1076.438333	1542.022461	2591.017090
29533.065426	-1076.438333	1540.970703	2396.608154
29533.065426	-1076.438333	1539.919922	2172.838867
29533.065426	-1076.438333	1538.868164	2135.597656
29533.065426	-1076.438333	1537.815430	2273.416016
29533.065426	-1076.438333	1536.763672	2479.443359
29533.065426	-1076.438333	1535.710938	2185.829590
29533.065426	-1076.438333	1534.659180	2362.486816
29533.065426	-1076.438333	1533.606445	2382.523926
29533.065426	-1076.438333	1532.552734	2693.190430
29533.065426	-1076.438333	1531.500000	2688.409668
29533.065426	-1076.438333	1530.446289	2808.523438
29533.065426	-1076.438333	1529.393555	2910.560303
29533.065426	-1076.438333	1528.338867	2828.942139
29533.065426	-1076.438333	1527.285156	2917.545410
29533.065426	-1076.438333	1526.231445	2582.272705
29533.065426	-1076.438333	1525.176758	2625.775391
29533.065426	-1076.438333	1524.122070	2594.588867
29533.065426	-1076.438333	1523.067383	2636.034424
29533.065426	-1076.438333	1522.012695	2686.640625
29533.065426	-1076.438333	1520.957031	2388.542969
29533.065426	-1076.438333	1519.901367	2362.413818
29533.065426	-1076.438333	1518.845703	2329.620361
29533.065426	-1076.438333	1517.790039	2090.975342
29533.065426	-1076.438333	1516.734375	1777.861328
29533.065426	-1076.438333	1515.677734	1666.360107
29533.065426	-1076.438333	1514.621094	1432.863770
29533.065426	-1076.438333	1513.564453	1224.460571
29533.065426	-1076.438333	1512.507813	1226.562134
29533.065426	-1076.438333	1511.450195	1095.388550
29533.065426	-1076.438333	1510.393555	645.677063
29533.065426	-1076.438333	1509.335938	783.851563
29533.065426	-1076.438333	1508.278320	452.114990
29533.065426	-1076.438333	1507.219727	351.053833
29533.065426	-1076.438333	1506.162109	295.335205
29533.065426	-1076.438333	1505.103516	47.812572
29533.065426	-1076.438333	1504.044922	-48.217983
29533.065426	-1076.438333	1502.986328	-207.287338
29533.065426	-1076.438333	1501.926758	-59.244934
29533.065426	-1076.438333	1500.868164	133.998947
29533.065426	-1076.438333	1499.808594	65.600639
29533.065426	-1076.438333	1498.749023	49.233501
29533.065426	-1076.438333	1497.688477	75.841499
29533.065426	-1076.438333	1496.628906	-71.030602
29533.065426	-1076.438333	1495.568359	372.864288
29533.065426	-1076.438333	1494.507813	640.925598
29533.065426	-1076.438333	1493.447266	679.177917
29533.065426	-1076.438333	1492.386719	1105.026855
29533.065426	-1076.438333	1491.325195	1283.075317
29533.065426	-1076.438333	1490.263672	1152.672119
29533.065426	-1076.438333	1489.202148	1479.497437
29533.065426	-1076.438333	1488.140625	1691.523071
29533.065426	-1076.438333	1487.079102	1412.973755
29533.065426	-1076.438333	1486.016602	1280.921631
29533.065426	-1076.438333	1484.954102	1131.057007
29533.065426	-1076.438333	1483.891602	853.178772
29533.065426	-1076.438333	1482.829102	798.167969
29533.065426	-1076.438333	1481.765625	608.402832
29533.065426	-1076.438333	1480.702148	600.913879
29533.065426	-1076.438333	1479.638672	838.514587
29533.065426	-1076.438333	1478.575195	963.774475
29533.065426	-1076.438333	1477.511719	556.762024
29533.065426	-1076.438333	1476.447266	837.262207
29533.065426	-1076.438333	1475.382813	1131.174072
29533.065426	-1076.438333	1474.318359	1380.131348
29533.065426	-1076.438333	1473.253906	1662.903687
29533.065426	-1076.438333	1472.189453	1584.358154
29533.065426	-1076.438333	1471.124023	1600.128296
29533.065426	-1076.438333	1470.058594	1799.997925
29533.065426	-1076.438333	1468.993164	1954.788330
29533.065426	-1076.438333	1467.927734	1932.710449
29533.065426	-1076.438333	1466.861328	1805.534912
29533.065426	-1076.438333	1465.794922	1806.158081
29533.065426	-1076.438333	1464.728516	1589.946411
29533.065426	-1076.438333	1463.662109	1458.974976
29533.065426	-1076.438333	1462.594727	1180.552734
29533.065426	-1076.438333	1461.528320	1003.067444
29533.065426	-1076.438333	1460.460938	658.365845
29533.065426	-1076.438333	1459.393555	345.442383
29533.065426	-1076.438333	1458.326172	414.789154
29533.065426	-1076.438333	1457.257813	148.990189
29533.065426	-1076.438333	1456.189453	183.461456
29533.065426	-1076.438333	1455.121094	-28.000334
29533.065426	-1076.438333	1454.052734	136.141769
29533.065426	-1076.438333	1452.984375	197.012604
29533.065426	-1076.438333	1451.915039	68.721107
29533.065426	-1076.438333	1450.845703	26.599611
29533.065426	-1076.438333	1449.776367	108.215271
29533.065426	-1076.438333	1448.707031	-48.600090
29533.065426	-1076.438333	1447.636719	42.882076
29533.065426	-1076.438333	1446.567383	-67.003929
29533.065426	-1076.438333	1445.497070	-204.179581
29533.065426	-1076.438333	1444.425781	-102.580299
29533.065426	-1076.438333	1443.355469	29.992664
29533.065426	-1076.438333	1442.285156	54.112782
29533.065426	-1076.438333	1441.213867	12.904789
29533.065426	-1076.438333	1440.142578	46.991634
29533.065426	-1076.438333	1439.070313	273.359589
29533.065426	-1076.438333	1437.999023	159.266724
29533.065426	-1076.438333	1436.926758	-1.240764
29533.065426	-1076.438333	1435.854492	158.173416
29533.065426	-1076.438333	1434.782227	118.027451
29533.065426	-1076.438333	1433.709961	248.945007
29533.065426	-1076.438333	1432.636719	223.874924
29533.065426	-1076.438333	1431.563477	235.208649
29533.065426	-1076.438333	1430.490234	194.884232
29533.065426	-1076.438333	1429.416992	79.797760
29533.065426	-1076.438333	1428.343750	73.182190
29533.065426	-1076.438333	1427.269531	359.481079
29533.065426	-1076.438333	1426.195313	44.769760
29533.065426	-1076.438333	1425.121094	98.693298
29533.065426	-1076.438333	1424.046875	62.236568
29533.065426	-1076.438333	1422.971680	405.056427
29533.065426	-1076.438333	1421.896484	452.335144
29533.065426	-1076.438333	1420.821289	200.103470
29533.065426	-1076.438333	1419.746094	380.425354
29533.065426	-1076.438333	1418.669922	339.324280
29533.065426	-1076.438333	1417.594727	401.062378
29533.065426	-1076.438333	1416.518555	380.739014
29533.065426	-1076.438333	1415.442383	397.768066
29533.065426	-1076.438333	1414.365234	216.635406
29533.065426	-1076.438333	1413.289063	165.177383
29533.065426	-1076.438333	1412.211914	433.268646
29533.065426	-1076.438333	1411.134766	424.721039
29533.065426	-1076.438333	1410.057617	331.736145
29533.065426	-1076.438333	1408.979492	226.317856
29533.065426	-1076.438333	1407.902344	383.057251
29533.065426	-1076.438333	1406.824219	263.004852
29533.065426	-1076.438333	1405.746094	326.527557
29533.065426	-1076.438333	1404.666992	235.400192
29533.065426	-1076.438333	1403.588867	167.600632
29533.065426	-1076.438333	1402.509766	204.816925
29533.065426	-1076.438333	1401.430664	135.192871
29533.065426	-1076.438333	1400.351563	293.341095
29533.065426	-1076.438333	1399.271484	230.104248
29533.065426	-1076.438333	1398.192383	516.751099
29533.065426	-1076.438333	1397.112305	383.548889
29533.065426	-1076.438333	1396.031250	546.513733
29533.065426	-1076.438333	1394.951172	740.086670
29533.065426	-1076.438333	1393.871094	529.921021
29533.065426	-1076.438333	1392.790039	560.327881
29533.065426	-1076.438333	1391.708984	453.181458
29533.065426	-1076.438333	1390.626953	603.582031
29533.065426	-1076.438333	1389.545898	760.364014
29533.065426	-1076.438333	1388.463867	743.028564
29533.065426	-1076.438333	1387.381836	820.466125
29533.065426	-1076.438333	1386.299805	743.856628
29533.065426	-1076.438333	1385.217773	789.343689
29533.065426	-1076.438333	1384.134766	1227.237305
29533.065426	-1076.438333	1383.051758	1085.745605
29533.065426	-1076.438333	1381.968750	986.396240
29533.065426	-1076.438333	1380.885742	983.343628
29533.065426	-1076.438333	1379.802734	1044.995239
29533.065426	-1076.438333	1378.718750	817.830139
29533.065426	-1076.438333	1377.634766	853.951721
29533.065426	-1076.438333	1376.550781	790.543701
29533.065426	-1076.438333	1375.465820	849.699768
29533.065426	-1076.438333	1374.381836	755.467468
29533.065426	-1076.438333	1373.296875	790.237183
29533.065426	-1076.438333	1372.211914	872.282654
29533.065426	-1076.438333	1371.126953	744.292480
29533.065426	-1076.438333	1370.041016	839.196777
29533.065426	-1076.438333	1368.955078	669.979797
29533.065426	-1076.438333	1367.869141	599.257935
29533.065426	-1076.438333	1366.783203	723.428772
29533.065426	-1076.438333	1365.697266	781.851685
29533.065426	-1076.438333	1364.610352	802.362427
29533.065426	-1076.438333	1363.523438	823.184143
29533.065426	-1076.438333	1362.436523	853.221252
29533.065426	-1076.438333	1361.349609	1072.834106
29533.065426	-1076.438333	1360.261719	1130.218140
29533.065426	-1076.438333	1359.174805	1379.336304
29533.065426	-1076.438333	1358.086914	1659.259155
29533.065426	-1076.438333	1356.998047	1603.814941
29533.065426	-1076.438333	1355.910156	1682.849121
29533.065426	-1076.438333	1354.821289	1735.985229
29533.065426	-1076.438333	1353.732422	1635.877441
29533.065426	-1076.438333	1352.643555	1511.569580
29533.065426	-1076.438333	1351.554688	1487.301025
29533.065426	-1076.438333	1350.464844	1690.776611
29533.065426	-1076.438333	1349.375000	1372.091431
29533.065426	-1076.438333	1348.285156	1405.057129
29533.065426	-1076.438333	1347.195313	1368.587524
29533.065426	-1076.438333	1346.105469	1231.361572
29533.065426	-1076.438333	1345.014648	1329.334229
29533.065426	-1076.438333	1343.923828	1218.106323
29533.065426	-1076.438333	1342.833008	1282.044922
29533.065426	-1076.438333	1341.741211	1396.759521
29533.065426	-1076.438333	1340.650391	1190.167847
29533.065426	-1076.438333	1339.558594	1269.690186
29533.065426	-1076.438333	1338.466797	1154.210205
29533.065426	-1076.438333	1337.374023	1043.383545
29533.065426	-1076.438333	1336.282227	1094.363525
29533.065426	-1076.438333	1335.189453	1218.306519
29533.065426	-1076.438333	1334.096680	1055.793945
29533.065426	-1076.438333	1333.003906	1147.961548
29533.065426	-1076.438333	1331.910156	1252.776855
29533.065426	-1076.438333	1330.817383	1093.451172
29533.065426	-1076.438333	1329.723633	1275.276123
29533.065426	-1076.438333	1328.629883	1526.851563
29533.065426	-1076.438333	1327.535156	1768.222168
29533.065426	-1076.438333	1326.441406	1679.747437
29533.065426	-1076.438333	1325.346680	1744.338501
29533.065426	-1076.438333	1324.251953	1778.352783
29533.065426	-1076.438333	1323.156250	1976.599854
29533.065426	-1076.438333	1322.061523	1903.387939
29533.065426	-1076.438333	1320.965820	1763.734009
29533.065426	-1076.438333	1319.870117	1833.350830
29533.065426	-1076.438333	1318.774414	1614.532104
29533.065426	-1076.438333	1317.678711	1410.081543
29533.065426	-1076.438333	1316.582031	1369.470337
29533.065426	-1076.438333	1315.485352	1284.932251
29533.065426	-1076.438333	1314.388672	1124.807129
29533.065426	-1076.438333	1313.291016	913.830017
29533.065426	-1076.438333	1312.194336	765.960388
29533.065426	-1076.438333	1311.096680	869.382202
29533.065426	-1076.438333	1309.999023	787.454102
29533.065426	-1076.438333	1308.901367	566.965088
29533.065426	-1076.438333	1307.802734	553.802612
29533.065426	-1076.438333	1306.705078	575.483521
29533.065426	-1076.438333	1305.606445	539.033875
29533.065426	-1076.438333	1304.506836	648.991821
29533.065426	-1076.438333	1303.408203	633.677734
29533.065426	-1076.438333	1302.308594	415.064056
29533.065426	-1076.438333	1301.208984	496.109833
29533.065426	-1076.438333	1300.109375	369.758331
29533.065426	-1076.438333	1299.009766	485.807312
29533.065426	-1076.438333	1297.909180	618.090881
29533.065426	-1076.438333	1296.808594	521.215271
29533.065426	-1076.438333	1295.708008	533.384583
29533.065426	-1076.438333	1294.607422	283.868225
29533.065426	-1076.438333	1293.506836	463.868347
29533.065426	-1076.438333	1292.405273	548.629211
29533.065426	-1076.438333	1291.303711	455.538361
29533.065426	-1076.438333	1290.202148	404.530182
29533.065426	-1076.438333	1289.099609	218.217331
29533.065426	-1076.438333	1287.998047	131.750458
29533.065426	-1076.438333	1286.895508	191.999329
29533.065426	-1076.438333	1285.792969	271.365906
29533.065426	-1076.438333	1284.689453	190.733383
29533.065426	-1076.438333	1283.586914	65.701477
29533.065426	-1076.438333	1282.483398	133.905746
29533.065426	-1076.438333	1281.379883	134.909225
29533.065426	-1076.438333	1280.276367	291.014618
29533.065426	-1076.438333	1279.171875	133.224289
29533.065426	-1076.438333	1278.067383	258.275085
29533.065426	-1076.438333	1276.962891	284.915039
29533.065426	-1076.438333	1275.858398	300.330597
29533.065426	-1076.438333	1274.753906	239.859650
29533.065426	-1076.438333	1273.648438	190.115021
29533.065426	-1076.438333	1272.542969	381.423309
29533.065426	-1076.438333	1271.437500	272.287476
29533.065426	-1076.438333	1270.331055	285.617157
29533.065426	-1076.438333	1269.225586	222.699402
29533.065426	-1076.438333	1268.119141	157.347794
29533.065426	-1076.438333	1267.012695	280.986572
29533.065426	-1076.438333	1265.906250	136.641159
29533.065426	-1076.438333	1264.798828	45.241779
29533.065426	-1076.438333	1263.691406	119.296692
29533.065426	-1076.438333	1262.583984	159.917236
29533.065426	-1076.438333	1261.476563	184.222580
29533.065426	-1076.438333	1260.368164	25.383207
29533.065426	-1076.438333	1259.260742	86.872650
29533.065426	-1076.438333	1258.152344	166.801437
29533.065426	-1076.438333	1257.043945	215.339920
29533.065426	-1076.438333	1255.934570	266.459412
29533.065426	-1076.438333	1254.825195	261.844940
29533.065426	-1076.438333	1253.716797	294.297760
29533.065426	-1076.438333	1252.606445	228.991440
29533.065426	-1076.438333	1251.497070	231.736908
29533.065426	-1076.438333	1250.387695	153.101181
29533.065426	-1076.438333	1249.277344	240.051636
29533.065426	-1076.438333	1248.166992	209.264557
29533.065426	-1076.438333	1247.055664	194.603821
29533.065426	-1076.438333	1245.945313	185.058746
29533.065426	-1076.438333	1244.833984	-60.106911
29533.065426	-1076.438333	1243.722656	146.729507
29533.065426	-1076.438333	1242.611328	144.217514
29533.065426	-1076.438333	1241.499023	-18.087698
29533.065426	-1076.438333	1240.387695	-86.612602
29533.065426	-1076.438333	1239.275391	98.161278
29533.065426	-1076.438333	1238.162109	28.459610
29533.065426	-1076.438333	1237.049805	104.648010
29533.065426	-1076.438333	1235.936523	-37.321526
29533.065426	-1076.438333	1234.823242	33.841805
29533.065426	-1076.438333	1233.709961	48.220192
29533.065426	-1076.438333	1232.596680	-25.821960
29533.065426	-1076.438333	1231.482422	12.583910
29533.065426	-1076.438333	1230.369141	34.238274
29533.065426	-1076.438333	1229.253906	95.279617
29533.065426	-1076.438333	1228.139648	17.422352
29533.065426	-1076.438333	1227.025391	-1.221803
29533.065426	-1076.438333	1225.910156	48.589645
29533.065426	-1076.438333	1224.794922	54.138969
29533.065426	-1076.438333	1223.679688	71.530869
29533.065426	-1076.438333	1222.563477	158.083954
29533.065426	-1076.438333	1221.447266	197.116699
29533.065426	-1076.438333	1220.331055	280.813934
29533.065426	-1076.438333	1219.214844	285.443451
29533.065426	-1076.438333	1218.098633	457.673492
29533.065426	-1076.438333	1216.981445	423.759033
29533.065426	-1076.438333	1215.864258	493.263916
29533.065426	-1076.438333	1214.747070	519.206909
29533.065426	-1076.438333	1213.629883	521.351013
29533.065426	-1076.438333	1212.511719	547.166992
29533.065426	-1076.438333	1211.393555	467.201111
29533.065426	-1076.438333	1210.275391	507.086609
29533.065426	-1076.438333	1209.157227	502.694794
29533.065426	-1076.438333	1208.038086	510.137909
29533.065426	-1076.438333	1206.918945	497.152954
29533.065426	-1076.438333	1205.799805	481.308594
29533.065426	-1076.438333	1204.680664	458.585632
29533.065426	-1076.438333	1203.560547	419.321777
29533.065426	-1076.438333	1202.441406	380.001770
29533.065426	-1076.438333	1201.321289	409.884674
29533.065426	-1076.438333	1200.200195	270.522491
29533.065426	-1076.438333	1199.080078	272.899261
29533.065426	-1076.438333	1197.958984	192.354843
29533.065426	-1076.438333	1196.837891	251.502594
29533.065426	-1076.438333	1195.716797	300.665192
29533.065426	-1076.438333	1194.594727	287.039429
29533.065426	-1076.438333	1193.473633	293.116669
29533.065426	-1076.438333	1192.351563	257.562592
29533.065426	-1076.438333	1191.229492	187.188980
29533.065426	-1076.438333	1190.106445	240.739410
29533.065426	-1076.438333	1188.984375	133.949768
29533.065426	-1076.438333	1187.861328	105.603539
29533.065426	-1076.438333	1186.738281	154.829193
29533.065426	-1076.438333	1185.614258	259.553680
29533.065426	-1076.438333	1184.491211	287.771149
29533.065426	-1076.438333	1183.367188	394.298920
29533.065426	-1076.438333	1182.243164	484.506836
29533.065426	-1076.438333	1181.119141	475.638641
29533.065426	-1076.438333	1179.994141	505.014618
29533.065426	-1076.438333	1178.869141	417.698242
29533.065426	-1076.438333	1177.744141	496.012299
29533.065426	-1076.438333	1176.619141	499.479767
29533.065426	-1076.438333	1175.493164	446.774353
29533.065426	-1076.438333	1174.368164	450.857910
29533.065426	-1076.438333	1173.242188	457.494263
29533.065426	-1076.438333	1172.115234	419.637909
29533.065426	-1076.438333	1170.989258	482.145569
29533.065426	-1076.438333	1169.862305	426.462402
29533.065426	-1076.438333	1168.735352	450.889648
29533.065426	-1076.438333	1167.608398	411.992371
29533.065426	-1076.438333	1166.481445	238.114014
29533.065426	-1076.438333	1165.353516	400.089966
29533.065426	-1076.438333	1164.225586	329.026428
29533.065426	-1076.438333	1163.097656	373.498260
29533.065426	-1076.438333	1161.968750	246.715744
29533.065426	-1076.438333	1160.840820	296.701630
29533.065426	-1076.438333	1159.711914	336.024292
29533.065426	-1076.438333	1158.583008	132.141769
29533.065426	-1076.438333	1157.453125	140.801270
29533.065426	-1076.438333	1156.324219	110.758919
29533.065426	-1076.438333	1155.194336	-61.439789
29533.065426	-1076.438333	1154.064453	-60.294079
29533.065426	-1076.438333	1152.933594	-56.855240
29533.065426	-1076.438333	1151.803711	-78.411110
29533.065426	-1076.438333	1150.672852	-18.353624
29533.065426	-1076.438333	1149.541992	-6.049419
29533.065426	-1076.438333	1148.411133	-175.326340
29533.065426	-1076.438333	1147.279297	-198.207581
29533.065426	-1076.438333	1146.147461	-128.169952
29533.065426	-1076.438333	1145.015625	-202.894791
29533.065426	-1076.438333	1143.883789	-46.613213
29533.065426	-1076.438333	1142.750977	-219.430634
29533.065426	-1076.438333	1141.619141	-179.203644
29533.065426	-1076.438333	1140.486328	-87.616096
29533.065426	-1076.438333	1139.352539	-132.965683
29533.065426	-1076.438333	1138.219727	-126.500656
29533.065426	-1076.438333	1137.085938	-47.529743
29533.065426	-1076.438333	1135.952148	-61.723976
29533.065426	-1076.438333	1134.818359	73.285698
29533.065426	-1076.438333	1133.683594	-2.512303
29533.065426	-1076.438333	1132.549805	43.681728
29533.065426	-1076.438333	1131.415039	158.760208
29533.065426	-1076.438333	1130.279297	99.798096
29533.065426	-1076.438333	1129.144531	107.396751
29533.065426	-1076.438333	1128.008789	151.533218
29533.065426	-1076.438333	1126.873047	59.212299
29533.065426	-1076.438333	1125.737305	92.411026
29533.065426	-1076.438333	1124.601563	-81.403336
29533.065426	-1076.438333	1123.464844	16.634151
29533.065426	-1076.438333	1122.328125	-54.381119
29533.065426	-1076.438333	1121.191406	-57.750401
29533.065426	-1076.438333	1120.054688	30.353474
29533.065426	-1076.438333	1118.916992	26.575510
29533.065426	-1076.438333	1117.779297	106.467918
29533.065426	-1076.438333	1116.641602	98.842766
29533.065426	-1076.438333	1115.503906	-40.429787
29533.065426	-1076.438333	1114.365234	68.125641
29533.065426	-1076.438333	1113.226563	154.447266
29533.065426	-1076.438333	1112.087891	129.341827
29533.065426	-1076.438333	1110.949219	118.617493
29533.065426	-1076.438333	1109.809570	176.146927
29533.065426	-1076.438333	1108.669922	168.506775
29533.065426	-1076.438333	1107.530273	209.966217
29533.065426	-1076.438333	1106.390625	177.108368
29533.065426	-1076.438333	1105.250000	312.402832
29533.065426	-1076.438333	1104.109375	269.643372
29533.065426	-1076.438333	1102.968750	493.201202
29533.065426	-1076.438333	1101.828125	466.240051
29533.065426	-1076.438333	1100.686523	440.207397
29533.065426	-1076.438333	1099.544922	271.898163
29533.065426	-1076.438333	1098.403320	429.181183
29533.065426	-1076.438333	1097.261719	474.090851
29533.065426	-1076.438333	1096.120117	663.083923
29533.065426	-1076.438333	1094.977539	450.143188
29533.065426	-1076.438333	1093.834961	433.686523
29533.065426	-1076.438333	1092.691406	349.237732
29533.065426	-1076.438333	1091.548828	274.596985
29533.065426	-1076.438333	1090.405273	256.759857
29533.065426	-1076.438333	1089.261719	140.952530
29533.065426	-1076.438333	1088.118164	54.911598
29533.065426	-1076.438333	1086.973633	45.905197
29533.065426	-1076.438333	1085.829102	114.693428
29533.065426	-1076.438333	1084.684570	110.790726
29533.065426	-1076.438333	1083.540039	74.760353
29533.065426	-1076.438333	1082.395508	-11.939397
29533.065426	-1076.438333	1081.250000	-34.352615
29533.065426	-1076.438333	1080.104492	51.105808
29533.065426	-1076.438333	1078.958984	123.771141
29533.065426	-1076.438333	1077.812500	169.576202
29533.065426	-1076.438333	1076.666016	167.242508
29533.065426	-1076.438333	1075.519531	179.391479
29533.065426	-1076.438333	1074.373047	124.858429
29533.065426	-1076.438333	1073.226563	215.922501
29533.065426	-1076.438333	1072.079102	221.288239
29533.065426	-1076.438333	1070.931641	176.937729
29533.065426	-1076.438333	1069.784180	175.047134
29533.065426	-1076.438333	1068.635742	61.546917
29533.065426	-1076.438333	1067.487305	56.295330
29533.065426	-1076.438333	1066.338867	78.072044
29533.065426	-1076.438333	1065.190430	211.864746
29533.065426	-1076.438333	1064.041992	218.507813
29533.065426	-1076.438333	1062.892578	212.492081
29533.065426	-1076.438333	1061.743164	242.752716
29533.065426	-1076.438333	1060.593750	359.741791
29533.065426	-1076.438333	1059.443359	109.294716
29533.065426	-1076.438333	1058.292969	276.781433
29533.065426	-1076.438333	1057.142578	246.393723
29533.065426	-1076.438333	1055.992188	193.858124
29533.065426	-1076.438333	1054.841797	359.710236
29533.065426	-1076.438333	1053.690430	209.573837
29533.065426	-1076.438333	1052.539063	130.932388
29533.065426	-1076.438333	1051.387695	276.777069
29533.065426	-1076.438333	1050.235352	45.720299
29533.065426	-1076.438333	1049.083984	-36.287624
29533.065426	-1076.438333	1047.931641	174.801910
29533.065426	-1076.438333	1046.778320	-3.643088
29533.065426	-1076.438333	1045.625977	144.563293
29533.065426	-1076.438333	1044.472656	61.454285
29533.065426	-1076.438333	1043.319336	168.822327
29533.065426	-1076.438333	1042.166016	233.813904
29533.065426	-1076.438333	1041.012695	20.932926
29533.065426	-1076.438333	1039.858398	132.793945
29533.065426	-1076.438333	1038.704102	58.962040
29533.065426	-1076.438333	1037.549805	74.131577
29533.065426	-1076.438333	1036.394531	99.643051
29533.065426	-1076.438333	1035.239258	78.381035
29533.065426	-1076.438333	1034.083984	-46.394192
29533.065426	-1076.438333	1032.928711	130.154327
29533.065426	-1076.438333	1031.773438	1.135021
29533.065426	-1076.438333	1030.617188	-8.287073
29533.065426	-1076.438333	1029.460938	57.431519
29533.065426	-1076.438333	1028.304688	34.516430
29533.065426	-1076.438333	1027.147461	-56.157448
29533.065426	-1076.438333	1025.991211	74.977608
29533.065426	-1076.438333	1024.833984	37.983307
29533.065426	-1076.438333	1023.675781	3.256578
29533.065426	-1076.438333	1022.518555	-33.391960
29533.065426	-1076.438333	1021.360352	33.118248
29533.065426	-1076.438333	1020.202148	17.643982
29533.065426	-1076.438333	1019.043945	2.467536
29533.065426	-1076.438333	1017.884766	-6.565747
29533.065426	-1076.438333	1016.726563	68.951302
29533.065426	-1076.438333	1015.567383	38.462177
29533.065426	-1076.438333	1014.407227	-60.022385
29533.065426	-1076.438333	1013.248047	86.499222
29533.065426	-1076.438333	1012.087891	63.665627
29533.065426	-1076.438333	1010.927734	131.723053
29533.065426	-1076.438333	1009.767578	25.192585
29533.065426	-1076.438333	1008.606445	44.870502
29533.065426	-1076.438333	1007.446289	-119.307198
29533.065426	-1076.438333	1006.285156	-15.644558
29533.065426	-1076.438333	1005.123047	-31.618134
29533.065426	-1076.438333	1003.961914	-54.782471
29533.065426	-1076.438333	1002.799805	57.937618
29533.065426	-1076.438333	1001.637695	115.228050
29533.065426	-1076.438333	1000.475586	88.315987
29533.065426	-1076.438333	999.312500	-58.701744
29533.065426	-1076.438333	998.149414	13.780800
29533.065426	-1076.438333	996.986328	81.723183
29533.065426	-1076.438333	995.823242	-20.452127
29533.065426	-1076.438333	994.659180	10.355520
29533.065426	-1076.438333	993.496094	58.917732
29533.065426	-1076.438333	992.332031	78.828773
29533.065426	-1076.438333	991.166992	90.353333
29533.065426	-1076.438333	990.002930	135.567337
29533.065426	-1076.438333	988.837891	179.445282
29533.065426	-1076.438333	987.672852	196.889221
29533.065426	-1076.438333	986.506836	158.532394
29533.065426	-1076.438333	985.341797	183.833679
29533.065426	-1076.438333	984.175781	111.921249
29533.065426	-1076.438333	983.009766	78.624954
29533.065426	-1076.438333	981.843750	60.317932
29533.065426	-1076.438333	980.676758	-10.582026
29533.065426	-1076.438333	979.509766	35.348740
29533.065426	-1076.438333	978.342773	32.829556
29533.065426	-1076.438333	977.175781	41.606602
29533.065426	-1076.438333	976.007813	121.838326
29533.065426	-1076.438333	974.839844	179.580765
29533.065426	-1076.438333	973.671875	43.353050
29533.065426	-1076.438333	972.503906	89.894028
29533.065426	-1076.438333	971.334961	190.647232
29533.065426	-1076.438333	970.166016	173.811356
29533.065426	-1076.438333	968.997070	146.242401
29533.065426	-1076.438333	967.828125	31.334993
29533.065426	-1076.438333	966.658203	148.034546
29533.065426	-1076.438333	965.488281	116.277580
29533.065426	-1076.438333	964.318359	169.298050
29533.065426	-1076.438333	963.148438	-64.947937
29533.065426	-1076.438333	961.977539	57.604137
29533.065426	-1076.438333	960.806641	28.524609
29533.065426	-1076.438333	959.635742	73.139214
29533.065426	-1076.438333	958.463867	-17.378681
29533.065426	-1076.438333	957.292969	71.783989
29533.065426	-1076.438333	956.121094	-8.394757
29533.065426	-1076.438333	954.948242	290.319458
29533.065426	-1076.438333	953.776367	359.393555
29533.065426	-1076.438333	952.603516	369.719086
29533.065426	-1076.438333	951.430664	270.025085
29533.065426	-1076.438333	950.257813	324.399506
29533.065426	-1076.438333	949.084961	253.147537
29533.065426	-1076.438333	947.911133	192.150421
29533.065426	-1076.438333	946.737305	120.339905
29533.065426	-1076.438333	945.563477	202.692551
29533.065426	-1076.438333	944.388672	346.444611
29533.065426	-1076.438333	943.213867	345.151306
29533.065426	-1076.438333	942.039063	362.693024
29533.065426	-1076.438333	940.864258	516.382751
29533.065426	-1076.438333	939.688477	354.645111
29533.065426	-1076.438333	938.513672	349.828522
29533.065426	-1076.438333	937.337891	367.078186
29533.065426	-1076.438333	936.161133	362.407227
29533.065426	-1076.438333	934.985352	311.480927
29533.065426	-1076.438333	933.808594	446.537292
29533.065426	-1076.438333	932.631836	286.511902
29533.065426	-1076.438333	931.454102	286.858185
29533.065426	-1076.438333	930.277344	389.445496
29533.065426	-1076.438333	929.099609	220.880936
29533.065426	-1076.438333	927.921875	282.534180
29533.065426	-1076.438333	926.743164	212.901138
29533.065426	-1076.438333	925.565430	138.210464
29533.065426	-1076.438333	924.386719	186.244553
29533.065426	-1076.438333	923.208008	58.753902
29533.065426	-1076.438333	922.028320	64.213425
29533.065426	-1076.438333	920.849609	350.764313
29533.065426	-1076.438333	919.669922	354.190430
29533.065426	-1076.438333	919.474609	310.761871
29533.065426	-1076.438333	918.309570	322.960327
29533.065426	-1076.438333	917.143555	192.149948
29533.065426	-1076.438333	915.977539	241.829681
29533.065426	-1076.438333	914.810547	170.668716
29533.065426	-1076.438333	913.644531	211.838455
29533.065426	-1076.438333	912.477539	186.656921
29533.065426	-1076.438333	911.310547	161.493164
29533.065426	-1076.438333	910.143555	85.333817
29533.065426	-1076.438333	908.975586	162.225037
29533.065426	-1076.438333	907.807617	159.205246
29533.065426	-1076.438333	906.639648	-17.144209
29533.065426	-1076.438333	905.471680	-35.400192
29533.065426	-1076.438333	904.303711	-67.229431
29533.065426	-1076.438333	903.134766	-59.970543
29533.065426	-1076.438333	901.965820	-20.443064
29533.065426	-1076.438333	900.796875	-86.177017
29533.065426	-1076.438333	899.626953	-0.808877
29533.065426	-1076.438333	898.457031	-29.163103
29533.065426	-1076.438333	897.287109	-138.933807
29533.065426	-1076.438333	896.117188	-24.737957
29533.065426	-1076.438333	894.947266	-29.293600
29533.065426	-1076.438333	893.776367	-88.092667
29533.065426	-1076.438333	892.605469	-41.750237
29533.065426	-1076.438333	891.434570	-107.278809
29533.065426	-1076.438333	890.262695	-5.003808
29533.065426	-1076.438333	889.091797	-38.298744
29533.065426	-1076.438333	887.919922	-0.422565
29533.065426	-1076.438333	886.748047	-201.336121
29533.065426	-1076.438333	885.575195	-195.584076
29533.065426	-1076.438333	884.403320	-174.589371
29533.065426	-1076.438333	883.230469	-106.197311
29533.065426	-1076.438333	882.057617	-102.121284
29533.065426	-1076.438333	880.883789	64.381676
29533.065426	-1076.438333	879.710938	-75.325851
29533.065426	-1076.438333	878.537109	-79.671158
29533.065426	-1076.438333	877.362305	-31.584795
29533.065426	-1076.438333	876.188477	63.824074
29533.065426	-1076.438333	875.013672	123.719490
29533.065426	-1076.438333	873.839844	78.838402
29533.065426	-1076.438333	872.664063	236.721100
29533.065426	-1076.438333	871.489258	36.475365
29533.065426	-1076.438333	870.313477	27.150049
29533.065426	-1076.438333	869.138672	65.112862
29533.065426	-1076.438333	867.962891	-15.081951
29533.065426	-1076.438333	866.786133	-54.723396
29533.065426	-1076.438333	865.610352	72.705551
29533.065426	-1076.438333	864.433594	-36.074310
29533.065426	-1076.438333	863.256836	-75.644333
29533.065426	-1076.438333	862.079102	211.954300
29533.065426	-1076.438333	860.902344	-4.643353
29533.065426	-1076.438333	859.724609	26.643915
29533.065426	-1076.438333	858.546875	15.802059
29533.065426	-1076.438333	857.368164	45.418804
29533.065426	-1076.438333	856.190430	4.283883
29533.065426	-1076.438333	855.011719	44.024448
29533.065426	-1076.438333	853.833008	-18.952726
29533.065426	-1076.438333	852.654297	121.813698
29533.065426	-1076.438333	851.474609	6.700041
29533.065426	-1076.438333	850.294922	26.271700
29533.065426	-1076.438333	849.115234	-196.425537
29533.065426	-1076.438333	847.935547	-57.362968
29533.065426	-1076.438333	846.754883	-79.790764
29533.065426	-1076.438333	845.575195	-92.110847
29533.065426	-1076.438333	844.393555	-74.147141
29533.065426	-1076.438333	843.212891	0.964017
29533.065426	-1076.438333	842.032227	22.284943
29533.065426	-1076.438333	840.850586	-13.509215
29533.065426	-1076.438333	839.668945	44.787415
29533.065426	-1076.438333	838.486328	-1.044067
29533.065426	-1076.438333	837.304688	58.929173
29533.065426	-1076.438333	836.122070	-32.186527
29533.065426	-1076.438333	834.939453	136.885910
29533.065426	-1076.438333	833.756836	27.356724
29533.065426	-1076.438333	832.573242	-70.368965
29533.065426	-1076.438333	831.389648	4.716349
29533.065426	-1076.438333	830.206055	-9.096076
29533.065426	-1076.438333	829.022461	-37.981300
29533.065426	-1076.438333	827.838867	-65.168594
29533.065426	-1076.438333	826.654297	-33.674706
29533.065426	-1076.438333	825.469727	-0.508322
29533.065426	-1076.438333	824.284180	46.058918
29533.065426	-1076.438333	823.099609	25.617764
29533.065426	-1076.438333	821.914063	85.574440
29533.065426	-1076.438333	820.728516	135.470001
29533.065426	-1076.438333	819.542969	180.331955
29533.065426	-1076.438333	818.356445	111.389633
29533.065426	-1076.438333	817.169922	91.004364
29533.065426	-1076.438333	815.983398	80.671898
29533.065426	-1076.438333	814.796875	45.263470
29533.065426	-1076.438333	813.609375	108.533783
29533.065426	-1076.438333	812.422852	118.284355
29533.065426	-1076.438333	811.235352	149.768600
29533.065426	-1076.438333	810.046875	159.524734
29533.065426	-1076.438333	808.859375	202.693069
29533.065426	-1076.438333	807.670898	123.914261
29533.065426	-1076.438333	806.482422	182.114944
29533.065426	-1076.438333	805.293945	61.638931
29533.065426	-1076.438333	804.104492	88.121773
29533.065426	-1076.438333	802.915039	-68.992340
29533.065426	-1076.438333	801.725586	75.985619
29533.065426	-1076.438333	800.536133	85.773956
29533.065426	-1076.438333	799.345703	115.578499
29533.065426	-1076.438333	798.155273	88.673485
29533.065426	-1076.438333	796.964844	121.801620
29533.065426	-1076.438333	795.774414	239.929733
29533.065426	-1076.438333	794.583008	76.361259
29533.065426	-1076.438333	793.392578	79.479111
29533.065426	-1076.438333	792.200195	95.928429
29533.065426	-1076.438333	791.008789	155.670517
29533.065426	-1076.438333	789.816406	-6.081828
29533.065426	-1076.438333	788.625000	-44.574615
29533.065426	-1076.438333	787.432617	20.148090
29533.065426	-1076.438333	786.239258	4.964673
29533.065426	-1076.438333	785.046875	-70.117455
29533.065426	-1076.438333	783.853516	137.620285
29533.065426	-1076.438333	782.660156	24.283655
29533.065426	-1076.438333	781.465820	-103.972954
29533.065426	-1076.438333	780.272461	-19.395037
29533.065426	-1076.438333	779.078125	91.738380
29533.065426	-1076.438333	777.883789	128.039383
29533.065426	-1076.438333	776.688477	104.510948
29533.065426	-1076.438333	775.494141	114.201103
29533.065426	-1076.438333	774.298828	-15.617523
29533.065426	-1076.438333	773.103516	-57.392891
29533.065426	-1076.438333	771.907227	-140.657700
29533.065426	-1076.438333	770.711914	-54.615852
29533.065426	-1076.438333	769.515625	-49.924477
29533.065426	-1076.438333	768.318359	-51.879601
29533.065426	-1076.438333	767.122070	2.543929
29533.065426	-1076.438333	765.924805	40.351990
29533.065426	-1076.438333	764.727539	-14.714374
29533.065426	-1076.438333	763.530273	-84.690918
29533.065426	-1076.438333	762.333008	44.218151
29533.065426	-1076.438333	761.134766	9.026381
29533.065426	-1076.438333	759.936523	35.126217
29533.065426	-1076.438333	758.738281	11.512172
29533.065426	-1076.438333	757.540039	49.157757
29533.065426	-1076.438333	756.340820	80.150665
29533.065426	-1076.438333	755.141602	-69.303612
29533.065426	-1076.438333	753.942383	32.821159
29533.065426	-1076.438333	752.742188	-90.124680
29533.065426	-1076.438333	751.541992	-26.121162
29533.065426	-1076.438333	750.341797	-51.470661
29533.065426	-1076.438333	749.141602	93.475128
29533.065426	-1076.438333	747.941406	-17.895250
29533.065426	-1076.438333	746.740234	19.510130
29533.065426	-1076.438333	745.539063	-50.531834
29533.065426	-1076.438333	744.337891	-11.531037
29533.065426	-1076.438333	743.135742	-81.583603
29533.065426	-1076.438333	741.933594	-4.658186
29533.065426	-1076.438333	740.731445	30.932581
29533.065426	-1076.438333	739.529297	45.021568
29533.065426	-1076.438333	738.326172	123.444695
29533.065426	-1076.438333	737.124023	185.303619
29533.065426	-1076.438333	735.919922	110.190765
29533.065426	-1076.438333	734.716797	150.529556
29533.065426	-1076.438333	733.513672	189.172470
29533.065426	-1076.438333	732.309570	265.689697
29533.065426	-1076.438333	731.105469	307.529297
29533.065426	-1076.438333	729.900391	199.358093
29533.065426	-1076.438333	728.696289	176.872314
29533.065426	-1076.438333	727.491211	279.557526
29533.065426	-1076.438333	726.286133	-18.036020
29533.065426	-1076.438333	725.080078	82.934128
29533.065426	-1076.438333	723.874023	17.557339
29533.065426	-1076.438333	722.668945	70.672592
29533.065426	-1076.438333	721.461914	1.964613
29533.065426	-1076.438333	720.255859	22.085857
29533.065426	-1076.438333	719.048828	119.471687
29533.065426	-1076.438333	717.841797	147.708206
29533.065426	-1076.438333	716.634766	50.937889
29533.065426	-1076.438333	715.427734	-52.406746
29533.065426	-1076.438333	714.219727	26.679127
29533.065426	-1076.438333	713.011719	166.486832
29533.065426	-1076.438333	711.803711	113.988441
29533.065426	-1076.438333	710.594727	278.274139
29533.065426	-1076.438333	709.385742	265.102173
29533.065426	-1076.438333	708.176758	186.221954
29533.065426	-1076.438333	706.967773	199.249649
29533.065426	-1076.438333	705.758789	123.610023
29533.065426	-1076.438333	704.548828	-14.388670
29533.065426	-1076.438333	703.338867	75.637512
29533.065426	-1076.438333	702.127930	-11.541784
29533.065426	-1076.438333	700.917969	83.271790
29533.065426	-1076.438333	699.707031	-79.376610
29533.065426	-1076.438333	698.496094	54.653969
29533.065426	-1076.438333	697.285156	152.529526
29533.065426	-1076.438333	696.073242	97.953613
29533.065426	-1076.438333	694.861328	277.580505
29533.065426	-1076.438333	693.649414	155.759338
29533.065426	-1076.438333	692.436523	181.295609
29533.065426	-1076.438333	691.224609	88.909363
29533.065426	-1076.438333	690.011719	287.824402
29533.065426	-1076.438333	688.798828	419.517944
29533.065426	-1076.438333	687.584961	277.909637
29533.065426	-1076.438333	686.372070	242.617401
29533.065426	-1076.438333	685.158203	254.709381
29533.065426	-1076.438333	683.943359	341.947266
29533.065426	-1076.438333	682.729492	311.407227
29533.065426	-1076.438333	681.514648	359.267090
29533.065426	-1076.438333	680.299805	282.879974
29533.065426	-1076.438333	679.084961	175.432983
29533.065426	-1076.438333	677.869141	332.546173
29533.065426	-1076.438333	676.653320	344.217377
29533.065426	-1076.438333	675.437500	313.382233
29533.065426	-1076.438333	674.221680	302.088776
29533.065426	-1076.438333	673.004883	246.685440
29533.065426	-1076.438333	671.789063	308.709229
29533.065426	-1076.438333	670.571289	287.465240
29533.065426	-1076.438333	669.354492	339.553528
29533.065426	-1076.438333	668.136719	337.759033
29533.065426	-1076.438333	666.919922	337.535156
29533.065426	-1076.438333	665.701172	405.701111
29533.065426	-1076.438333	664.483398	486.812225
29533.065426	-1076.438333	663.264648	468.459656
29533.065426	-1076.438333	662.045898	450.054047
29533.065426	-1076.438333	660.827148	348.550720
29533.065426	-1076.438333	659.608398	317.032501
29533.065426	-1076.438333	658.388672	252.914307
29533.065426	-1076.438333	657.168945	273.381378
29533.065426	-1076.438333	655.949219	186.399414
29533.065426	-1076.438333	654.728516	146.564316
29533.065426	-1076.438333	653.507813	339.240753
29533.065426	-1076.438333	652.287109	243.984787
29533.065426	-1076.438333	651.066406	137.327072
29533.065426	-1076.438333	649.844727	237.058701
29533.065426	-1076.438333	648.623047	326.935699
29533.065426	-1076.438333	647.401367	202.271042
29533.065426	-1076.438333	646.179688	196.163773
29533.065426	-1076.438333	644.957031	178.629471
29533.065426	-1076.438333	643.734375	128.569458
29533.065426	-1076.438333	642.511719	41.134121
29533.065426	-1076.438333	641.289063	111.088623
29533.065426	-1076.438333	640.065430	189.062668
29533.065426	-1076.438333	638.841797	98.237572
29533.065426	-1076.438333	637.618164	38.201820
29533.065426	-1076.438333	636.393555	13.800801
29533.065426	-1076.438333	635.168945	138.490479
29533.065426	-1076.438333	633.944336	-4.363794
29533.065426	-1076.438333	632.719727	11.582850
29533.065426	-1076.438333	631.494141	71.201561
29533.065426	-1076.438333	630.269531	129.113739
29533.065426	-1076.438333	629.042969	110.825974
29533.065426	-1076.438333	627.817383	139.437057
29533.065426	-1076.438333	626.590820	93.512672
29533.065426	-1076.438333	625.365234	295.158081
29533.065426	-1076.438333	624.137695	179.520493
29533.065426	-1076.438333	622.911133	275.788177
29533.065426	-1076.438333	621.683594	185.958649
29533.065426	-1076.438333	620.456055	303.082886
29533.065426	-1076.438333	619.228516	135.564560
29533.065426	-1076.438333	618.000977	187.876129
29533.065426	-1076.438333	616.772461	220.712616
29533.065426	-1076.438333	615.543945	82.218513
29533.065426	-1076.438333	614.314453	92.329483
29533.065426	-1076.438333	613.085938	13.556188
29533.065426	-1076.438333	611.856445	-36.180641
29533.065426	-1076.438333	610.626953	54.485916
29533.065426	-1076.438333	609.397461	62.746746
29533.065426	-1076.438333	608.166992	54.808849
29533.065426	-1076.438333	606.936523	-174.194550
29533.065426	-1076.438333	605.706055	-12.838639
29533.065426	-1076.438333	604.474609	-70.915024
29533.065426	-1076.438333	603.244141	-35.512764
29533.065426	-1076.438333	602.012695	-53.373825
29533.065426	-1076.438333	600.780273	207.509064
29533.065426	-1076.438333	599.548828	286.165833
29533.065426	-1076.438333	598.316406	495.211182
29533.065426	-1076.438333	597.083984	383.628021
29533.065426	-1076.438333	595.851563	342.886658
29533.065426	-1076.438333	594.618164	218.398880
29533.065426	-1076.438333	593.384766	93.913368
29533.065426	-1076.438333	592.151367	-35.396870
29533.065426	-1076.438333	590.917969	-0.606802
29533.065426	-1076.438333	589.683594	-86.515175
29533.065426	-1076.438333	588.449219	6.062895
29533.065426	-1076.438333	587.214844	0.481182
29533.065426	-1076.438333	585.979492	-3.539587
29533.065426	-1076.438333	584.745117	-41.351196
29533.065426	-1076.438333	583.509766	58.984108
29533.065426	-1076.438333	582.273438	-83.333748
29533.065426	-1076.438333	581.038086	-146.936569
29533.065426	-1076.438333	579.801758	-91.736374
29533.065426	-1076.438333	578.565430	-110.448257
29533.065426	-1076.438333	577.329102	-97.092857
29533.065426	-1076.438333	576.091797	-165.624390
29533.065426	-1076.438333	574.854492	-139.511719
29533.065426	-1076.438333	573.617188	-20.417540
29533.065426	-1076.438333	572.378906	-0.840542
29533.065426	-1076.438333	571.141602	58.776047
29533.065426	-1076.438333	569.903320	91.077942
29533.065426	-1076.438333	568.664063	174.612411
29533.065426	-1076.438333	567.425781	136.306534
29533.065426	-1076.438333	566.186523	387.929932
29533.065426	-1076.438333	564.947266	498.473999
29533.065426	-1076.438333	563.708008	421.594025
29533.065426	-1076.438333	562.467773	479.189636
29533.065426	-1076.438333	561.227539	424.691803
29533.065426	-1076.438333	559.987305	584.617676
29533.065426	-1076.438333	558.747070	576.460876
29533.065426	-1076.438333	557.505859	358.739716
29533.065426	-1076.438333	556.264648	422.543457
29533.065426	-1076.438333	555.023438	641.383850
29533.065426	-1076.438333	553.781250	585.161011
29533.065426	-1076.438333	552.539063	583.277710
29533.065426	-1076.438333	551.296875	562.200317
29533.065426	-1076.438333	550.054688	427.690247
29533.065426	-1076.438333	548.811523	623.823181
29533.065426	-1076.438333	547.569336	617.064148
29533.065426	-1076.438333	546.325195	458.621674
29533.065426	-1076.438333	545.082031	392.808380
29533.065426	-1076.438333	543.837891	395.623871
29533.065426	-1076.438333	542.593750	414.378296
29533.065426	-1076.438333	541.349609	319.860840
29533.065426	-1076.438333	540.105469	225.371918
29533.065426	-1076.438333	538.860352	338.183044
29533.065426	-1076.438333	537.615234	253.271942
29533.065426	-1076.438333	536.369141	310.227448
29533.065426	-1076.438333	535.124023	289.078217
29533.065426	-1076.438333	533.877930	153.230347
29533.065426	-1076.438333	532.631836	157.592270
29533.065426	-1076.438333	531.384766	171.499893
29533.065426	-1076.438333	530.138672	107.391968
29533.065426	-1076.438333	528.891602	262.957794
29533.065426	-1076.438333	527.643555	66.768776
29533.065426	-1076.438333	526.396484	180.909592
29533.065426	-1076.438333	525.148438	231.373749
29533.065426	-1076.438333	523.900391	167.315659
29533.065426	-1076.438333	522.652344	197.096207
29533.065426	-1076.438333	521.403320	177.586884
29533.065426	-1076.438333	520.154297	48.429852
29533.065426	-1076.438333	518.905273	111.596764
29533.065426	-1076.438333	517.656250	-28.597963
29533.065426	-1076.438333	516.406250	44.099449
29533.065426	-1076.438333	515.156250	-37.253883
29533.065426	-1076.438333	513.906250	48.132957
29533.065426	-1076.438333	512.655273	-161.735779
29533.065426	-1076.438333	511.404297	-9.690777
29533.065426	-1076.438333	510.153320	53.454330
29533.065426	-1076.438333	508.902344	16.653440
29533.065426	-1076.438333	507.650391	-24.878799
29533.065426	-1076.438333	506.398438	11.312925
29533.065426	-1076.438333	505.146484	25.310856
29533.065426	-1076.438333	503.893555	-68.454109
29533.065426	-1076.438333	502.641602	50.165047
29533.065426	-1076.438333	501.388672	-18.184462
29533.065426	-1076.438333	500.134766	33.881283
29533.065426	-1076.438333	498.881836	54.275196
29533.065426	-1076.438333	497.627930	63.594692
29533.065426	-1076.438333	496.374023	-31.535873
29533.065426	-1076.438333	495.119141	80.693657
29533.065426	-1076.438333	493.865234	7.789667
29533.065426	-1076.438333	492.610352	200.673737
29533.065426	-1076.438333	491.355469	175.256622
29533.065426	-1076.438333	490.099609	83.462128
29533.065426	-1076.438333	488.843750	-28.821600
29533.065426	-1076.438333	487.587891	70.740540
29533.065426	-1076.438333	486.332031	154.480148
29533.065426	-1076.438333	485.075195	12.299429
29533.065426	-1076.438333	483.818359	173.446106
29533.065426	-1076.438333	482.561523	67.683250
29533.065426	-1076.438333	481.304688	228.790985
29533.065426	-1076.438333	480.046875	325.133759
29533.065426	-1076.438333	478.789063	244.715271
29533.065426	-1076.438333	477.531250	-6.039989
29533.065426	-1076.438333	476.272461	31.987131
29533.065426	-1076.438333	475.013672	-73.491386
29533.065426	-1076.438333	473.754883	24.485809
29533.065426	-1076.438333	472.496094	7.365824
29533.065426	-1076.438333	471.236328	2.876466
29533.065426	-1076.438333	469.976563	-53.590473
29533.065426	-1076.438333	468.716797	-98.990471
29533.065426	-1076.438333	467.456055	-78.209206
29533.065426	-1076.438333	466.196289	-7.032497
29533.065426	-1076.438333	464.935547	111.353073
29533.065426	-1076.438333	463.673828	-47.320293
29533.065426	-1076.438333	462.413086	66.323341
29533.065426	-1076.438333	461.151367	249.148926
29533.065426	-1076.438333	459.889648	265.170502
29533.065426	-1076.438333	458.626953	279.616486
29533.065426	-1076.438333	457.364258	352.233093
29533.065426	-1076.438333	456.101563	467.262634
29533.065426	-1076.438333	454.838867	414.083008
29533.065426	-1076.438333	453.575195	459.910034
29533.065426	-1076.438333	452.312500	579.547913
29533.065426	-1076.438333	451.047852	507.514282
29533.065426	-1076.438333	449.784180	525.007935
29533.065426	-1076.438333	448.519531	416.888885
29533.065426	-1076.438333	447.254883	291.538086
29533.065426	-1076.438333	445.990234	509.879517
29533.065426	-1076.438333	444.725586	364.129883
29533.065426	-1076.438333	443.459961	445.854065
29533.065426	-1076.438333	442.194336	419.311432
29533.065426	-1076.438333	440.927734	351.983948
29533.065426	-1076.438333	439.662109	386.542877
29533.065426	-1076.438333	438.395508	428.882935
29533.065426	-1076.438333	437.127930	316.045135
29533.065426	-1076.438333	435.861328	301.902557
29533.065426	-1076.438333	434.593750	389.513824
29533.065426	-1076.438333	433.326172	304.794617
29533.065426	-1076.438333	432.058594	251.363525
29533.065426	-1076.438333	430.790039	418.573456
29533.065426	-1076.438333	429.521484	330.582367
29533.065426	-1076.438333	428.252930	262.894043
29533.065426	-1076.438333	426.984375	371.902191
29533.065426	-1076.438333	425.714844	385.386017
29533.065426	-1076.438333	424.445313	233.050797
29533.065426	-1076.438333	423.174805	294.827576
29533.065426	-1076.438333	421.905273	448.682312
29533.065426	-1076.438333	420.634766	300.812469
29533.065426	-1076.438333	419.364258	480.930084
29533.065426	-1076.438333	418.092773	398.472839
29533.065426	-1076.438333	416.822266	603.225403
29533.065426	-1076.438333	415.550781	603.251709
29533.065426	-1076.438333	414.278320	640.588745
29533.065426	-1076.438333	413.006836	623.150391
29533.065426	-1076.438333	411.734375	852.045715
29533.065426	-1076.438333	410.461914	852.957520
29533.065426	-1076.438333	409.188477	916.065674
29533.065426	-1076.438333	407.916016	911.929199
29533.065426	-1076.438333	406.642578	912.274231
29533.065426	-1076.438333	405.368164	1032.407227
29533.065426	-1076.438333	404.094727	996.480103
29533.065426	-1076.438333	402.820313	922.958496
29533.065426	-1076.438333	401.545898	916.205017
29533.065426	-1076.438333	400.270508	823.572693
29533.065426	-1076.438333	398.996094	752.528137
29533.065426	-1076.438333	397.720703	572.303589
29533.065426	-1076.438333	396.444336	759.092407
29533.065426	-1076.438333	395.168945	539.495239
29533.065426	-1076.438333	393.892578	500.106934
29533.065426	-1076.438333	392.616211	531.955688
29533.065426	-1076.438333	391.339844	305.399414
29533.065426	-1076.438333	390.062500	479.609741
29533.065426	-1076.438333	388.785156	499.554535
29533.065426	-1076.438333	387.507813	334.247925
29533.065426	-1076.438333	386.229492	285.127258
29533.065426	-1076.438333	384.951172	409.568878
29533.065426	-1076.438333	383.672852	441.948120
29533.065426	-1076.438333	382.394531	393.176086
29533.065426	-1076.438333	381.115234	208.963821
29533.065426	-1076.438333	379.835938	410.729340
29533.065426	-1076.438333	378.556641	238.086731
29533.065426	-1076.438333	377.277344	369.017853
29533.065426	-1076.438333	375.997070	339.671661
29533.065426	-1076.438333	374.716797	325.322906
29533.065426	-1076.438333	373.435547	301.134491
29533.065426	-1076.438333	372.155273	198.936096
29533.065426	-1076.438333	370.874023	261.966644
29533.065426	-1076.438333	369.591797	174.122131
29533.065426	-1076.438333	368.310547	214.248642
29533.065426	-1076.438333	367.028320	64.829163
29533.065426	-1076.438333	365.746094	193.443954
29533.065426	-1076.438333	364.463867	100.029594
29533.065426	-1076.438333	363.180664	143.649368
29533.065426	-1076.438333	361.897461	283.987091
29533.065426	-1076.438333	360.614258	216.288422
29533.065426	-1076.438333	359.330078	188.041748
29533.065426	-1076.438333	358.045898	189.939270
29533.065426	-1076.438333	356.761719	44.200737
29533.065426	-1076.438333	355.477539	232.999481
29533.065426	-1076.438333	354.192383	189.108398
29533.065426	-1076.438333	352.907227	376.029541
29533.065426	-1076.438333	351.622070	370.479553
29533.065426	-1076.438333	350.336914	583.219971
29533.065426	-1076.438333	349.050781	341.088470
29533.065426	-1076.438333	347.764648	193.745316
29533.065426	-1076.438333	346.477539	190.447388
29533.065426	-1076.438333	345.191406	141.390594
29533.065426	-1076.438333	343.904297	63.490490
29533.065426	-1076.438333	342.616211	166.421555
29533.065426	-1076.438333	341.329102	117.124474
29533.065426	-1076.438333	340.041016	-19.658098
29533.065426	-1076.438333	338.752930	-26.618742
29533.065426	-1076.438333	337.463867	-4.037332
29533.065426	-1076.438333	336.175781	-4.271838
29533.065426	-1076.438333	334.886719	-7.385890
29533.065426	-1076.438333	333.596680	-34.967834
29533.065426	-1076.438333	332.307617	-6.937230
29533.065426	-1076.438333	331.017578	31.941326
29533.065426	-1076.438333	329.727539	-18.344664
29533.065426	-1076.438333	328.436523	-113.205833
29533.065426	-1076.438333	327.146484	-75.731300
29533.065426	-1076.438333	325.855469	93.877388
29533.065426	-1076.438333	324.563477	12.745029
29533.065426	-1076.438333	323.272461	-56.133118
29533.065426	-1076.438333	321.980469	-13.019874
29533.065426	-1076.438333	320.688477	131.256073
29533.065426	-1076.438333	319.395508	-5.870581
29533.065426	-1076.438333	318.103516	36.465298
29533.065426	-1076.438333	316.810547	21.600990
29533.065426	-1076.438333	315.516602	20.122852
29533.065426	-1076.438333	314.223633	-35.441372
29533.065426	-1076.438333	312.929688	-77.703979
29533.065426	-1076.438333	311.635742	-6.977353
29533.065426	-1076.438333	310.340820	55.416225
29533.065426	-1076.438333	309.045898	-56.088356
29533.065426	-1076.438333	307.750977	-22.614260
29533.065426	-1076.438333	306.456055	-89.497452
29533.065426	-1076.438333	305.160156	-144.945572
29533.065426	-1076.438333	303.865234	60.782242
29533.065426	-1076.438333	302.568359	17.297882
29533.065426	-1076.438333	301.272461	219.447647
29533.065426	-1076.438333	299.975586	155.604965
29533.065426	-1076.438333	298.678711	243.756561
