#X		#Y		#Wave		#Intensity
29629.634574	-1456.550000	1999.980469	80.151268
29629.634574	-1456.550000	1999.016602	71.199631
29629.634574	-1456.550000	1998.052734	170.222305
29629.634574	-1456.550000	1997.087891	95.768944
29629.634574	-1456.550000	1996.123047	93.224190
29629.634574	-1456.550000	1995.158203	88.230042
29629.634574	-1456.550000	1994.193359	-67.817581
29629.634574	-1456.550000	1993.228516	-95.015862
29629.634574	-1456.550000	1992.262695	-117.231361
29629.634574	-1456.550000	1991.297852	98.220284
29629.634574	-1456.550000	1990.332031	80.969345
29629.634574	-1456.550000	1989.366211	105.808754
29629.634574	-1456.550000	1988.399414	39.117805
29629.634574	-1456.550000	1987.433594	-175.943100
29629.634574	-1456.550000	1986.466797	-111.452873
29629.634574	-1456.550000	1985.500977	-202.746704
29629.634574	-1456.550000	1984.534180	2.663990
29629.634574	-1456.550000	1983.567383	-19.386236
29629.634574	-1456.550000	1982.599609	-187.222412
29629.634574	-1456.550000	1981.632813	99.638145
29629.634574	-1456.550000	1980.665039	40.554386
29629.634574	-1456.550000	1979.697266	3.728109
29629.634574	-1456.550000	1978.729492	132.372177
29629.634574	-1456.550000	1977.761719	65.927055
29629.634574	-1456.550000	1976.792969	61.221722
29629.634574	-1456.550000	1975.825195	-61.942184
29629.634574	-1456.550000	1974.856445	-86.356354
29629.634574	-1456.550000	1973.887695	42.201153
29629.634574	-1456.550000	1972.918945	101.646027
29629.634574	-1456.550000	1971.949219	-11.566134
29629.634574	-1456.550000	1970.980469	176.084183
29629.634574	-1456.550000	1970.010742	-6.130106
29629.634574	-1456.550000	1969.041016	-129.122681
29629.634574	-1456.550000	1968.071289	4.221461
29629.634574	-1456.550000	1967.101563	80.843071
29629.634574	-1456.550000	1966.130859	46.575321
29629.634574	-1456.550000	1965.161133	59.113182
29629.634574	-1456.550000	1964.190430	-169.688293
29629.634574	-1456.550000	1963.219727	0.445841
29629.634574	-1456.550000	1962.249023	-154.423462
29629.634574	-1456.550000	1961.277344	-8.981967
29629.634574	-1456.550000	1960.306641	-99.828995
29629.634574	-1456.550000	1959.334961	67.675224
29629.634574	-1456.550000	1958.363281	129.337021
29629.634574	-1456.550000	1957.391602	67.999687
29629.634574	-1456.550000	1956.419922	127.161293
29629.634574	-1456.550000	1955.447266	31.408594
29629.634574	-1456.550000	1954.474609	16.794125
29629.634574	-1456.550000	1953.501953	51.324322
29629.634574	-1456.550000	1952.529297	56.345982
29629.634574	-1456.550000	1951.556641	26.961767
29629.634574	-1456.550000	1950.583984	81.084915
29629.634574	-1456.550000	1949.610352	49.225552
29629.634574	-1456.550000	1948.636719	-75.932289
29629.634574	-1456.550000	1947.663086	113.152611
29629.634574	-1456.550000	1946.689453	-83.171890
29629.634574	-1456.550000	1945.715820	-48.775200
29629.634574	-1456.550000	1944.741211	206.399216
29629.634574	-1456.550000	1943.767578	120.508049
29629.634574	-1456.550000	1942.792969	39.538166
29629.634574	-1456.550000	1941.818359	44.404747
29629.634574	-1456.550000	1940.842773	-29.197016
29629.634574	-1456.550000	1939.868164	81.048927
29629.634574	-1456.550000	1938.892578	149.576157
29629.634574	-1456.550000	1937.916992	171.508438
29629.634574	-1456.550000	1936.941406	-73.604080
29629.634574	-1456.550000	1935.965820	156.520218
29629.634574	-1456.550000	1934.990234	73.093613
29629.634574	-1456.550000	1934.013672	-91.115967
29629.634574	-1456.550000	1933.037109	102.115967
29629.634574	-1456.550000	1932.060547	35.828392
29629.634574	-1456.550000	1931.083984	-62.260998
29629.634574	-1456.550000	1930.107422	3.588939
29629.634574	-1456.550000	1929.129883	-21.109266
29629.634574	-1456.550000	1928.153320	5.545396
29629.634574	-1456.550000	1927.175781	-60.744694
29629.634574	-1456.550000	1926.198242	-7.234845
29629.634574	-1456.550000	1925.219727	-7.536569
29629.634574	-1456.550000	1924.242188	-68.948898
29629.634574	-1456.550000	1923.263672	23.575190
29629.634574	-1456.550000	1922.285156	-79.383583
29629.634574	-1456.550000	1921.306641	-60.198265
29629.634574	-1456.550000	1920.328125	-50.804867
29629.634574	-1456.550000	1919.349609	-68.287849
29629.634574	-1456.550000	1918.370117	-58.931141
29629.634574	-1456.550000	1917.391602	1.660827
29629.634574	-1456.550000	1916.412109	81.733154
29629.634574	-1456.550000	1915.431641	-84.653618
29629.634574	-1456.550000	1914.452148	-82.683876
29629.634574	-1456.550000	1913.472656	-2.689414
29629.634574	-1456.550000	1912.492188	1.667858
29629.634574	-1456.550000	1911.511719	42.575836
29629.634574	-1456.550000	1910.531250	-11.607496
29629.634574	-1456.550000	1909.550781	114.550072
29629.634574	-1456.550000	1908.569336	40.847511
29629.634574	-1456.550000	1907.588867	-103.487694
29629.634574	-1456.550000	1906.607422	-35.888435
29629.634574	-1456.550000	1905.625977	-21.903513
29629.634574	-1456.550000	1904.644531	50.493538
29629.634574	-1456.550000	1903.662109	64.423912
29629.634574	-1456.550000	1902.680664	144.047867
29629.634574	-1456.550000	1901.698242	31.390890
29629.634574	-1456.550000	1900.715820	247.200653
29629.634574	-1456.550000	1899.733398	54.265842
29629.634574	-1456.550000	1898.750000	68.103607
29629.634574	-1456.550000	1897.767578	-12.905430
29629.634574	-1456.550000	1896.784180	120.032639
29629.634574	-1456.550000	1895.800781	-24.183535
29629.634574	-1456.550000	1894.817383	62.504765
29629.634574	-1456.550000	1893.833984	78.684593
29629.634574	-1456.550000	1892.850586	4.961543
29629.634574	-1456.550000	1891.866211	35.688133
29629.634574	-1456.550000	1890.881836	102.814354
29629.634574	-1456.550000	1889.897461	-29.185049
29629.634574	-1456.550000	1888.913086	127.715462
29629.634574	-1456.550000	1887.927734	-9.123354
29629.634574	-1456.550000	1886.943359	38.493904
29629.634574	-1456.550000	1885.958008	76.373085
29629.634574	-1456.550000	1884.972656	58.435947
29629.634574	-1456.550000	1883.987305	219.954605
29629.634574	-1456.550000	1883.001953	126.804695
29629.634574	-1456.550000	1882.015625	91.857178
29629.634574	-1456.550000	1881.029297	279.899567
29629.634574	-1456.550000	1880.042969	140.706940
29629.634574	-1456.550000	1879.056641	151.773575
29629.634574	-1456.550000	1878.070313	51.391621
29629.634574	-1456.550000	1877.083984	130.261917
29629.634574	-1456.550000	1876.096680	20.208946
29629.634574	-1456.550000	1875.109375	-9.919127
29629.634574	-1456.550000	1874.122070	119.713783
29629.634574	-1456.550000	1873.134766	-91.958099
29629.634574	-1456.550000	1872.146484	173.120178
29629.634574	-1456.550000	1871.159180	48.588684
29629.634574	-1456.550000	1870.170898	117.595222
29629.634574	-1456.550000	1869.182617	92.249214
29629.634574	-1456.550000	1868.194336	6.453656
29629.634574	-1456.550000	1867.205078	87.481682
29629.634574	-1456.550000	1866.216797	-157.823395
29629.634574	-1456.550000	1865.227539	17.428780
29629.634574	-1456.550000	1864.238281	21.063028
29629.634574	-1456.550000	1863.249023	-115.421486
29629.634574	-1456.550000	1862.259766	-61.065144
29629.634574	-1456.550000	1861.269531	14.990589
29629.634574	-1456.550000	1860.279297	35.480217
29629.634574	-1456.550000	1859.290039	-14.046288
29629.634574	-1456.550000	1858.298828	78.820320
29629.634574	-1456.550000	1857.308594	0.328299
29629.634574	-1456.550000	1856.318359	97.966042
29629.634574	-1456.550000	1855.327148	178.671127
29629.634574	-1456.550000	1854.335938	-13.168084
29629.634574	-1456.550000	1853.344727	-7.234080
29629.634574	-1456.550000	1852.353516	1.099246
29629.634574	-1456.550000	1851.362305	60.035149
29629.634574	-1456.550000	1850.370117	17.728933
29629.634574	-1456.550000	1849.377930	-26.978861
29629.634574	-1456.550000	1848.385742	87.304466
29629.634574	-1456.550000	1847.393555	13.683527
29629.634574	-1456.550000	1846.401367	-96.037361
29629.634574	-1456.550000	1845.408203	13.353225
29629.634574	-1456.550000	1844.415039	24.006874
29629.634574	-1456.550000	1843.421875	56.307980
29629.634574	-1456.550000	1842.428711	-152.022644
29629.634574	-1456.550000	1841.435547	87.171860
29629.634574	-1456.550000	1840.441406	-51.352718
29629.634574	-1456.550000	1839.448242	67.480225
29629.634574	-1456.550000	1838.454102	-8.490674
29629.634574	-1456.550000	1837.459961	-55.593761
29629.634574	-1456.550000	1836.464844	-13.763206
29629.634574	-1456.550000	1835.470703	-46.443378
29629.634574	-1456.550000	1834.475586	24.186253
29629.634574	-1456.550000	1833.480469	97.184547
29629.634574	-1456.550000	1832.485352	-43.592930
29629.634574	-1456.550000	1831.490234	-203.533310
29629.634574	-1456.550000	1830.495117	49.498764
29629.634574	-1456.550000	1829.499023	-0.003206
29629.634574	-1456.550000	1828.502930	128.090958
29629.634574	-1456.550000	1827.506836	-84.574631
29629.634574	-1456.550000	1826.510742	96.250114
29629.634574	-1456.550000	1825.513672	20.366291
29629.634574	-1456.550000	1824.517578	50.018578
29629.634574	-1456.550000	1823.520508	29.302763
29629.634574	-1456.550000	1822.523438	-5.793061
29629.634574	-1456.550000	1821.526367	16.636929
29629.634574	-1456.550000	1820.529297	158.860855
29629.634574	-1456.550000	1819.531250	87.804314
29629.634574	-1456.550000	1818.533203	229.947098
29629.634574	-1456.550000	1817.535156	51.126160
29629.634574	-1456.550000	1816.537109	32.788834
29629.634574	-1456.550000	1815.539063	126.966904
29629.634574	-1456.550000	1814.540039	-11.064480
29629.634574	-1456.550000	1813.541992	200.332489
29629.634574	-1456.550000	1812.542969	-28.588297
29629.634574	-1456.550000	1811.543945	158.796997
29629.634574	-1456.550000	1810.543945	30.406078
29629.634574	-1456.550000	1809.544922	59.880203
29629.634574	-1456.550000	1808.544922	22.394100
29629.634574	-1456.550000	1807.544922	149.847015
29629.634574	-1456.550000	1806.544922	86.059792
29629.634574	-1456.550000	1805.544922	-32.665318
29629.634574	-1456.550000	1804.544922	97.098961
29629.634574	-1456.550000	1803.543945	-2.487997
29629.634574	-1456.550000	1802.542969	-18.462002
29629.634574	-1456.550000	1801.541992	-34.434361
29629.634574	-1456.550000	1800.541016	-33.696568
29629.634574	-1456.550000	1799.539063	38.633377
29629.634574	-1456.550000	1798.538086	-15.536131
29629.634574	-1456.550000	1797.536133	66.296188
29629.634574	-1456.550000	1796.534180	121.853340
29629.634574	-1456.550000	1795.532227	-3.865664
29629.634574	-1456.550000	1794.529297	34.979652
29629.634574	-1456.550000	1793.527344	57.120461
29629.634574	-1456.550000	1792.524414	126.914932
29629.634574	-1456.550000	1791.521484	137.101685
29629.634574	-1456.550000	1790.518555	142.513733
29629.634574	-1456.550000	1789.514648	-40.275093
29629.634574	-1456.550000	1788.511719	-22.933502
29629.634574	-1456.550000	1787.507813	-41.325535
29629.634574	-1456.550000	1786.503906	18.851410
29629.634574	-1456.550000	1785.500000	-97.146828
29629.634574	-1456.550000	1784.496094	79.622612
29629.634574	-1456.550000	1783.491211	-174.365112
29629.634574	-1456.550000	1782.486328	-85.684837
29629.634574	-1456.550000	1781.481445	-49.372223
29629.634574	-1456.550000	1780.476563	-15.456596
29629.634574	-1456.550000	1779.471680	-55.266113
29629.634574	-1456.550000	1778.465820	171.177292
29629.634574	-1456.550000	1777.460938	-25.529879
29629.634574	-1456.550000	1776.455078	-124.742012
29629.634574	-1456.550000	1775.449219	87.313728
29629.634574	-1456.550000	1774.442383	18.983559
29629.634574	-1456.550000	1773.436523	-115.821556
29629.634574	-1456.550000	1772.429688	88.968292
29629.634574	-1456.550000	1771.422852	-5.455119
29629.634574	-1456.550000	1770.416016	-125.957550
29629.634574	-1456.550000	1769.409180	-16.225569
29629.634574	-1456.550000	1768.402344	48.377495
29629.634574	-1456.550000	1767.394531	-95.810005
29629.634574	-1456.550000	1766.386719	56.525326
29629.634574	-1456.550000	1765.378906	-23.595085
29629.634574	-1456.550000	1764.371094	-4.113671
29629.634574	-1456.550000	1763.362305	34.314739
29629.634574	-1456.550000	1762.354492	-83.694214
29629.634574	-1456.550000	1761.345703	-38.169384
29629.634574	-1456.550000	1760.336914	68.927742
29629.634574	-1456.550000	1759.328125	-58.516674
29629.634574	-1456.550000	1758.318359	-84.090591
29629.634574	-1456.550000	1757.308594	-107.293579
29629.634574	-1456.550000	1756.299805	-33.432808
29629.634574	-1456.550000	1755.290039	149.264084
29629.634574	-1456.550000	1754.279297	-42.006226
29629.634574	-1456.550000	1753.269531	-114.911201
29629.634574	-1456.550000	1752.258789	-17.483706
29629.634574	-1456.550000	1751.249023	129.567780
29629.634574	-1456.550000	1750.238281	-89.956123
29629.634574	-1456.550000	1749.226563	12.114906
29629.634574	-1456.550000	1748.215820	29.049957
29629.634574	-1456.550000	1747.204102	43.605671
29629.634574	-1456.550000	1746.193359	-33.997677
29629.634574	-1456.550000	1745.181641	27.795847
29629.634574	-1456.550000	1744.168945	21.060860
29629.634574	-1456.550000	1743.157227	146.563080
29629.634574	-1456.550000	1742.144531	-89.222153
29629.634574	-1456.550000	1741.132813	0.830262
29629.634574	-1456.550000	1740.120117	71.956871
29629.634574	-1456.550000	1739.106445	-26.847788
29629.634574	-1456.550000	1738.093750	103.220139
29629.634574	-1456.550000	1737.080078	65.757996
29629.634574	-1456.550000	1736.067383	66.036957
29629.634574	-1456.550000	1735.053711	52.157745
29629.634574	-1456.550000	1734.040039	-56.019230
29629.634574	-1456.550000	1733.025391	59.740654
29629.634574	-1456.550000	1732.011719	78.835579
29629.634574	-1456.550000	1730.997070	-57.585438
29629.634574	-1456.550000	1729.982422	32.171036
29629.634574	-1456.550000	1728.967773	-90.076233
29629.634574	-1456.550000	1727.952148	100.882942
29629.634574	-1456.550000	1726.937500	-23.703106
29629.634574	-1456.550000	1725.921875	-94.116577
29629.634574	-1456.550000	1724.906250	7.280337
29629.634574	-1456.550000	1723.890625	-60.778072
29629.634574	-1456.550000	1722.875000	-117.057510
29629.634574	-1456.550000	1721.858398	-79.248711
29629.634574	-1456.550000	1720.841797	-144.931137
29629.634574	-1456.550000	1719.825195	-62.480347
29629.634574	-1456.550000	1718.808594	-36.486267
29629.634574	-1456.550000	1717.791992	-135.070557
29629.634574	-1456.550000	1716.774414	31.888510
29629.634574	-1456.550000	1715.756836	34.324696
29629.634574	-1456.550000	1714.739258	-10.226912
29629.634574	-1456.550000	1713.721680	107.266319
29629.634574	-1456.550000	1712.704102	48.610466
29629.634574	-1456.550000	1711.685547	-92.198273
29629.634574	-1456.550000	1710.667969	-49.892277
29629.634574	-1456.550000	1709.649414	4.116620
29629.634574	-1456.550000	1708.630859	22.902386
29629.634574	-1456.550000	1707.611328	53.395264
29629.634574	-1456.550000	1706.592773	-0.558924
29629.634574	-1456.550000	1705.573242	11.147452
29629.634574	-1456.550000	1704.553711	46.281754
29629.634574	-1456.550000	1703.534180	-38.146324
29629.634574	-1456.550000	1702.513672	29.766563
29629.634574	-1456.550000	1701.494141	78.901985
29629.634574	-1456.550000	1700.473633	-68.768272
29629.634574	-1456.550000	1699.453125	34.208755
29629.634574	-1456.550000	1698.432617	130.110352
29629.634574	-1456.550000	1697.412109	33.987213
29629.634574	-1456.550000	1696.390625	31.515602
29629.634574	-1456.550000	1695.369141	54.775955
29629.634574	-1456.550000	1694.347656	-57.694195
29629.634574	-1456.550000	1693.326172	94.216904
29629.634574	-1456.550000	1692.304688	54.266029
29629.634574	-1456.550000	1691.282227	-72.208504
29629.634574	-1456.550000	1690.260742	56.201931
29629.634574	-1456.550000	1689.238281	114.420601
29629.634574	-1456.550000	1688.214844	-28.391941
29629.634574	-1456.550000	1687.192383	-23.947603
29629.634574	-1456.550000	1686.168945	118.317444
29629.634574	-1456.550000	1685.146484	-43.132397
29629.634574	-1456.550000	1684.123047	-85.434502
29629.634574	-1456.550000	1683.099609	152.453613
29629.634574	-1456.550000	1682.075195	201.145065
29629.634574	-1456.550000	1681.051758	37.416386
29629.634574	-1456.550000	1680.027344	39.415741
29629.634574	-1456.550000	1679.002930	43.734497
29629.634574	-1456.550000	1677.978516	167.003464
29629.634574	-1456.550000	1676.953125	1.017871
29629.634574	-1456.550000	1675.928711	126.554314
29629.634574	-1456.550000	1674.903320	81.841469
29629.634574	-1456.550000	1673.877930	93.073769
29629.634574	-1456.550000	1672.852539	-56.508102
29629.634574	-1456.550000	1671.826172	220.329514
29629.634574	-1456.550000	1670.800781	68.425346
29629.634574	-1456.550000	1669.774414	95.899567
29629.634574	-1456.550000	1668.748047	65.134659
29629.634574	-1456.550000	1667.721680	169.401093
29629.634574	-1456.550000	1666.694336	22.220097
29629.634574	-1456.550000	1665.667969	135.737137
29629.634574	-1456.550000	1664.640625	0.226588
29629.634574	-1456.550000	1663.613281	53.189163
29629.634574	-1456.550000	1662.585938	92.162926
29629.634574	-1456.550000	1661.557617	114.826271
29629.634574	-1456.550000	1660.530273	-6.678634
29629.634574	-1456.550000	1659.501953	111.275032
29629.634574	-1456.550000	1658.473633	152.474167
29629.634574	-1456.550000	1657.444336	142.519989
29629.634574	-1456.550000	1656.416016	248.720291
29629.634574	-1456.550000	1655.386719	176.010391
29629.634574	-1456.550000	1654.358398	-15.118258
29629.634574	-1456.550000	1653.328125	56.174992
29629.634574	-1456.550000	1652.298828	81.003090
29629.634574	-1456.550000	1651.269531	156.869064
29629.634574	-1456.550000	1650.239258	16.881411
29629.634574	-1456.550000	1649.208984	125.180153
29629.634574	-1456.550000	1648.178711	270.537750
29629.634574	-1456.550000	1647.148438	234.930817
29629.634574	-1456.550000	1646.117188	227.144989
29629.634574	-1456.550000	1645.086914	240.216843
29629.634574	-1456.550000	1644.055664	183.731873
29629.634574	-1456.550000	1643.024414	289.470367
29629.634574	-1456.550000	1641.992188	200.530457
29629.634574	-1456.550000	1640.960938	220.488846
29629.634574	-1456.550000	1639.928711	328.430450
29629.634574	-1456.550000	1638.896484	297.383179
29629.634574	-1456.550000	1637.864258	152.893402
29629.634574	-1456.550000	1636.832031	163.529053
29629.634574	-1456.550000	1635.798828	199.599625
29629.634574	-1456.550000	1634.766602	425.375824
29629.634574	-1456.550000	1633.733398	294.795990
29629.634574	-1456.550000	1632.699219	298.395752
29629.634574	-1456.550000	1631.666016	322.796936
29629.634574	-1456.550000	1630.632813	342.550781
29629.634574	-1456.550000	1629.598633	394.641541
29629.634574	-1456.550000	1628.564453	439.765167
29629.634574	-1456.550000	1627.530273	371.638031
29629.634574	-1456.550000	1626.495117	677.768311
29629.634574	-1456.550000	1625.460938	598.046021
29629.634574	-1456.550000	1624.425781	994.049011
29629.634574	-1456.550000	1623.390625	879.633484
29629.634574	-1456.550000	1622.355469	1171.524536
29629.634574	-1456.550000	1621.319336	1077.860107
29629.634574	-1456.550000	1620.284180	1184.974487
29629.634574	-1456.550000	1619.248047	1370.469971
29629.634574	-1456.550000	1618.211914	1731.180054
29629.634574	-1456.550000	1617.174805	1930.303101
29629.634574	-1456.550000	1616.138672	2283.822266
29629.634574	-1456.550000	1615.101563	2503.482178
29629.634574	-1456.550000	1614.065430	2686.171143
29629.634574	-1456.550000	1613.027344	3170.637451
29629.634574	-1456.550000	1611.990234	3346.184814
29629.634574	-1456.550000	1610.953125	3422.602783
29629.634574	-1456.550000	1609.915039	3100.556396
29629.634574	-1456.550000	1608.876953	3345.049805
29629.634574	-1456.550000	1607.838867	3428.288330
29629.634574	-1456.550000	1606.800781	3329.651855
29629.634574	-1456.550000	1605.761719	3212.627441
29629.634574	-1456.550000	1604.723633	2895.475586
29629.634574	-1456.550000	1603.684570	2652.041504
29629.634574	-1456.550000	1602.644531	2151.101563
29629.634574	-1456.550000	1601.605469	1737.727783
29629.634574	-1456.550000	1600.566406	1476.234497
29629.634574	-1456.550000	1599.526367	1288.379150
29629.634574	-1456.550000	1598.486328	1008.663696
29629.634574	-1456.550000	1597.446289	1071.390503
29629.634574	-1456.550000	1596.405273	1019.218994
29629.634574	-1456.550000	1595.365234	1008.401978
29629.634574	-1456.550000	1594.324219	1036.610596
29629.634574	-1456.550000	1593.283203	1184.179321
29629.634574	-1456.550000	1592.242188	1324.793945
29629.634574	-1456.550000	1591.200195	1251.910645
29629.634574	-1456.550000	1590.159180	1211.172974
29629.634574	-1456.550000	1589.117188	1546.655273
29629.634574	-1456.550000	1588.075195	1916.400146
29629.634574	-1456.550000	1587.032227	1914.500122
29629.634574	-1456.550000	1585.990234	2183.130127
29629.634574	-1456.550000	1584.947266	2657.941406
29629.634574	-1456.550000	1583.904297	2830.042236
29629.634574	-1456.550000	1582.861328	2674.404541
29629.634574	-1456.550000	1581.818359	2530.273193
29629.634574	-1456.550000	1580.775391	2001.394653
29629.634574	-1456.550000	1579.731445	1788.728516
29629.634574	-1456.550000	1578.687500	1466.238159
29629.634574	-1456.550000	1577.643555	1372.773560
29629.634574	-1456.550000	1576.598633	1167.189697
29629.634574	-1456.550000	1575.554688	1016.598145
29629.634574	-1456.550000	1574.509766	1001.029175
29629.634574	-1456.550000	1573.464844	1001.469360
29629.634574	-1456.550000	1572.419922	1084.227905
29629.634574	-1456.550000	1571.374023	970.310730
29629.634574	-1456.550000	1570.329102	1025.594727
29629.634574	-1456.550000	1569.283203	1048.848389
29629.634574	-1456.550000	1568.237305	914.415588
29629.634574	-1456.550000	1567.191406	823.435852
29629.634574	-1456.550000	1566.144531	924.349426
29629.634574	-1456.550000	1565.098633	762.593933
29629.634574	-1456.550000	1564.051758	1080.375244
29629.634574	-1456.550000	1563.004883	962.007629
29629.634574	-1456.550000	1561.957031	898.451538
29629.634574	-1456.550000	1560.910156	946.732849
29629.634574	-1456.550000	1559.862305	1161.531128
29629.634574	-1456.550000	1558.814453	1230.253418
29629.634574	-1456.550000	1557.766602	1054.921387
29629.634574	-1456.550000	1556.718750	1162.387817
29629.634574	-1456.550000	1555.669922	1381.506592
29629.634574	-1456.550000	1554.621094	1194.830444
29629.634574	-1456.550000	1553.573242	946.700012
29629.634574	-1456.550000	1552.523438	867.248718
29629.634574	-1456.550000	1551.474609	849.331726
29629.634574	-1456.550000	1550.424805	505.738983
29629.634574	-1456.550000	1549.375000	458.285278
29629.634574	-1456.550000	1548.325195	497.354584
29629.634574	-1456.550000	1547.275391	484.054047
29629.634574	-1456.550000	1546.225586	420.690491
29629.634574	-1456.550000	1545.174805	305.013916
29629.634574	-1456.550000	1544.124023	503.294250
29629.634574	-1456.550000	1543.073242	344.428131
29629.634574	-1456.550000	1542.022461	185.621872
29629.634574	-1456.550000	1540.970703	165.547806
29629.634574	-1456.550000	1539.919922	254.585449
29629.634574	-1456.550000	1538.868164	186.777557
29629.634574	-1456.550000	1537.815430	171.246902
29629.634574	-1456.550000	1536.763672	133.008255
29629.634574	-1456.550000	1535.710938	292.369507
29629.634574	-1456.550000	1534.659180	79.273666
29629.634574	-1456.550000	1533.606445	72.849930
29629.634574	-1456.550000	1532.552734	143.596054
29629.634574	-1456.550000	1531.500000	355.019012
29629.634574	-1456.550000	1530.446289	212.401337
29629.634574	-1456.550000	1529.393555	239.978973
29629.634574	-1456.550000	1528.338867	90.630455
29629.634574	-1456.550000	1527.285156	91.004539
29629.634574	-1456.550000	1526.231445	82.310707
29629.634574	-1456.550000	1525.176758	60.015308
29629.634574	-1456.550000	1524.122070	67.190033
29629.634574	-1456.550000	1523.067383	81.159798
29629.634574	-1456.550000	1522.012695	45.287632
29629.634574	-1456.550000	1520.957031	-4.163740
29629.634574	-1456.550000	1519.901367	39.247982
29629.634574	-1456.550000	1518.845703	26.044506
29629.634574	-1456.550000	1517.790039	-64.112816
29629.634574	-1456.550000	1516.734375	-140.654434
29629.634574	-1456.550000	1515.677734	-72.358093
29629.634574	-1456.550000	1514.621094	-92.312782
29629.634574	-1456.550000	1513.564453	-57.974327
29629.634574	-1456.550000	1512.507813	37.407993
29629.634574	-1456.550000	1511.450195	67.186310
29629.634574	-1456.550000	1510.393555	-40.924030
29629.634574	-1456.550000	1509.335938	58.923130
29629.634574	-1456.550000	1508.278320	-76.254272
29629.634574	-1456.550000	1507.219727	-150.384354
29629.634574	-1456.550000	1506.162109	-174.786469
29629.634574	-1456.550000	1505.103516	-203.695465
29629.634574	-1456.550000	1504.044922	81.235168
29629.634574	-1456.550000	1502.986328	-24.451355
29629.634574	-1456.550000	1501.926758	-66.903816
29629.634574	-1456.550000	1500.868164	98.257568
29629.634574	-1456.550000	1499.808594	-84.059395
29629.634574	-1456.550000	1498.749023	-61.049240
29629.634574	-1456.550000	1497.688477	-51.576515
29629.634574	-1456.550000	1496.628906	68.377663
29629.634574	-1456.550000	1495.568359	143.203568
29629.634574	-1456.550000	1494.507813	265.334106
29629.634574	-1456.550000	1493.447266	225.189423
29629.634574	-1456.550000	1492.386719	232.376694
29629.634574	-1456.550000	1491.325195	577.416626
29629.634574	-1456.550000	1490.263672	469.694763
29629.634574	-1456.550000	1489.202148	314.742584
29629.634574	-1456.550000	1488.140625	515.519714
29629.634574	-1456.550000	1487.079102	459.661774
29629.634574	-1456.550000	1486.016602	435.331512
29629.634574	-1456.550000	1484.954102	498.756744
29629.634574	-1456.550000	1483.891602	384.477722
29629.634574	-1456.550000	1482.829102	344.466339
29629.634574	-1456.550000	1481.765625	239.283478
29629.634574	-1456.550000	1480.702148	374.684662
29629.634574	-1456.550000	1479.638672	292.058807
29629.634574	-1456.550000	1478.575195	353.277222
29629.634574	-1456.550000	1477.511719	400.997864
29629.634574	-1456.550000	1476.447266	376.860260
29629.634574	-1456.550000	1475.382813	426.855713
29629.634574	-1456.550000	1474.318359	642.989807
29629.634574	-1456.550000	1473.253906	674.848328
29629.634574	-1456.550000	1472.189453	655.301941
29629.634574	-1456.550000	1471.124023	1093.299927
29629.634574	-1456.550000	1470.058594	1223.810547
29629.634574	-1456.550000	1468.993164	1435.051880
29629.634574	-1456.550000	1467.927734	1735.674438
29629.634574	-1456.550000	1466.861328	1908.407715
29629.634574	-1456.550000	1465.794922	2426.226807
29629.634574	-1456.550000	1464.728516	3178.557861
29629.634574	-1456.550000	1463.662109	3527.260254
29629.634574	-1456.550000	1462.594727	3818.457275
29629.634574	-1456.550000	1461.528320	4032.284912
29629.634574	-1456.550000	1460.460938	4341.136230
29629.634574	-1456.550000	1459.393555	4302.113770
29629.634574	-1456.550000	1458.326172	4292.858887
29629.634574	-1456.550000	1457.257813	4203.612793
29629.634574	-1456.550000	1456.189453	3792.157715
29629.634574	-1456.550000	1455.121094	3727.017334
29629.634574	-1456.550000	1454.052734	3532.510254
29629.634574	-1456.550000	1452.984375	3206.726318
29629.634574	-1456.550000	1451.915039	3186.881592
29629.634574	-1456.550000	1450.845703	2797.810547
29629.634574	-1456.550000	1449.776367	2582.726318
29629.634574	-1456.550000	1448.707031	2284.665771
29629.634574	-1456.550000	1447.636719	1904.700806
29629.634574	-1456.550000	1446.567383	1662.815918
29629.634574	-1456.550000	1445.497070	1414.705688
29629.634574	-1456.550000	1444.425781	1032.623413
29629.634574	-1456.550000	1443.355469	1027.580688
29629.634574	-1456.550000	1442.285156	1062.607056
29629.634574	-1456.550000	1441.213867	896.509766
29629.634574	-1456.550000	1440.142578	940.182190
29629.634574	-1456.550000	1439.070313	940.166870
29629.634574	-1456.550000	1437.999023	982.230164
29629.634574	-1456.550000	1436.926758	994.583679
29629.634574	-1456.550000	1435.854492	934.561340
29629.634574	-1456.550000	1434.782227	1042.638916
29629.634574	-1456.550000	1433.709961	1103.735596
29629.634574	-1456.550000	1432.636719	1017.924133
29629.634574	-1456.550000	1431.563477	1137.196655
29629.634574	-1456.550000	1430.490234	1009.497620
29629.634574	-1456.550000	1429.416992	971.265747
29629.634574	-1456.550000	1428.343750	931.939636
29629.634574	-1456.550000	1427.269531	804.118591
29629.634574	-1456.550000	1426.195313	609.641296
29629.634574	-1456.550000	1425.121094	712.904358
29629.634574	-1456.550000	1424.046875	766.670654
29629.634574	-1456.550000	1422.971680	722.799255
29629.634574	-1456.550000	1421.896484	637.018494
29629.634574	-1456.550000	1420.821289	528.357727
29629.634574	-1456.550000	1419.746094	755.526123
29629.634574	-1456.550000	1418.669922	962.558655
29629.634574	-1456.550000	1417.594727	1176.685791
29629.634574	-1456.550000	1416.518555	1304.823853
29629.634574	-1456.550000	1415.442383	1371.411987
29629.634574	-1456.550000	1414.365234	1541.455933
29629.634574	-1456.550000	1413.289063	1894.992432
29629.634574	-1456.550000	1412.211914	2321.162842
29629.634574	-1456.550000	1411.134766	2729.370850
29629.634574	-1456.550000	1410.057617	3629.073730
29629.634574	-1456.550000	1408.979492	4497.714844
29629.634574	-1456.550000	1407.902344	5239.531738
29629.634574	-1456.550000	1406.824219	6144.450195
29629.634574	-1456.550000	1405.746094	6727.606445
29629.634574	-1456.550000	1404.666992	7277.975098
29629.634574	-1456.550000	1403.588867	7551.164551
29629.634574	-1456.550000	1402.509766	7420.989746
29629.634574	-1456.550000	1401.430664	7257.943359
29629.634574	-1456.550000	1400.351563	7244.088867
29629.634574	-1456.550000	1399.271484	7371.708496
29629.634574	-1456.550000	1398.192383	7852.635742
29629.634574	-1456.550000	1397.112305	8324.927734
29629.634574	-1456.550000	1396.031250	8736.114258
29629.634574	-1456.550000	1394.951172	9314.511719
29629.634574	-1456.550000	1393.871094	9312.312500
29629.634574	-1456.550000	1392.790039	9684.623047
29629.634574	-1456.550000	1391.708984	9332.702148
29629.634574	-1456.550000	1390.626953	9634.441406
29629.634574	-1456.550000	1389.545898	9717.208984
29629.634574	-1456.550000	1388.463867	9935.009766
29629.634574	-1456.550000	1387.381836	10301.348633
29629.634574	-1456.550000	1386.299805	9791.906250
29629.634574	-1456.550000	1385.217773	9363.250977
29629.634574	-1456.550000	1384.134766	9013.378906
29629.634574	-1456.550000	1383.051758	7930.288086
29629.634574	-1456.550000	1381.968750	7154.253418
29629.634574	-1456.550000	1380.885742	5904.677246
29629.634574	-1456.550000	1379.802734	5213.625000
29629.634574	-1456.550000	1378.718750	4615.615234
29629.634574	-1456.550000	1377.634766	4090.408936
29629.634574	-1456.550000	1376.550781	3678.842041
29629.634574	-1456.550000	1375.465820	3466.773926
29629.634574	-1456.550000	1374.381836	3002.582520
29629.634574	-1456.550000	1373.296875	2946.017578
29629.634574	-1456.550000	1372.211914	2817.594971
29629.634574	-1456.550000	1371.126953	2659.359863
29629.634574	-1456.550000	1370.041016	2731.079346
29629.634574	-1456.550000	1368.955078	2566.815186
29629.634574	-1456.550000	1367.869141	2421.297607
29629.634574	-1456.550000	1366.783203	2336.994629
29629.634574	-1456.550000	1365.697266	2586.128174
29629.634574	-1456.550000	1364.610352	2737.441895
29629.634574	-1456.550000	1363.523438	3119.055664
29629.634574	-1456.550000	1362.436523	3420.929199
29629.634574	-1456.550000	1361.349609	3821.633057
29629.634574	-1456.550000	1360.261719	4471.378906
29629.634574	-1456.550000	1359.174805	5330.646484
29629.634574	-1456.550000	1358.086914	6134.479980
29629.634574	-1456.550000	1356.998047	7052.825684
29629.634574	-1456.550000	1355.910156	7298.942383
29629.634574	-1456.550000	1354.821289	7795.194336
29629.634574	-1456.550000	1353.732422	7629.597168
29629.634574	-1456.550000	1352.643555	7499.447754
29629.634574	-1456.550000	1351.554688	6774.940430
29629.634574	-1456.550000	1350.464844	6401.937500
29629.634574	-1456.550000	1349.375000	5744.661621
29629.634574	-1456.550000	1348.285156	5502.539551
29629.634574	-1456.550000	1347.195313	5375.259277
29629.634574	-1456.550000	1346.105469	4930.371582
29629.634574	-1456.550000	1345.014648	4838.548340
29629.634574	-1456.550000	1343.923828	4760.187988
29629.634574	-1456.550000	1342.833008	4597.858887
29629.634574	-1456.550000	1341.741211	4681.508301
29629.634574	-1456.550000	1340.650391	4629.262207
29629.634574	-1456.550000	1339.558594	4645.836914
29629.634574	-1456.550000	1338.466797	4525.288086
29629.634574	-1456.550000	1337.374023	4329.485352
29629.634574	-1456.550000	1336.282227	4666.038574
29629.634574	-1456.550000	1335.189453	4566.073730
29629.634574	-1456.550000	1334.096680	4763.983887
29629.634574	-1456.550000	1333.003906	4689.491699
29629.634574	-1456.550000	1331.910156	4965.156738
29629.634574	-1456.550000	1330.817383	4832.250488
29629.634574	-1456.550000	1329.723633	4798.729004
29629.634574	-1456.550000	1328.629883	4651.510742
29629.634574	-1456.550000	1327.535156	4539.873047
29629.634574	-1456.550000	1326.441406	4326.526367
29629.634574	-1456.550000	1325.346680	4203.639160
29629.634574	-1456.550000	1324.251953	4097.008301
29629.634574	-1456.550000	1323.156250	3991.822266
29629.634574	-1456.550000	1322.061523	3718.487793
29629.634574	-1456.550000	1320.965820	3747.467773
29629.634574	-1456.550000	1319.870117	3765.496338
29629.634574	-1456.550000	1318.774414	3891.404541
29629.634574	-1456.550000	1317.678711	4186.317383
29629.634574	-1456.550000	1316.582031	4560.679688
29629.634574	-1456.550000	1315.485352	4750.666504
29629.634574	-1456.550000	1314.388672	5417.232910
29629.634574	-1456.550000	1313.291016	5794.988770
29629.634574	-1456.550000	1312.194336	6063.600098
29629.634574	-1456.550000	1311.096680	6189.425293
29629.634574	-1456.550000	1309.999023	5800.612305
29629.634574	-1456.550000	1308.901367	5229.168945
29629.634574	-1456.550000	1307.802734	4365.938477
29629.634574	-1456.550000	1306.705078	3784.939697
29629.634574	-1456.550000	1305.606445	3150.232666
29629.634574	-1456.550000	1304.506836	2443.368408
29629.634574	-1456.550000	1303.408203	2081.280762
29629.634574	-1456.550000	1302.308594	1760.986816
29629.634574	-1456.550000	1301.208984	1511.005249
29629.634574	-1456.550000	1300.109375	1522.937500
29629.634574	-1456.550000	1299.009766	1194.896973
29629.634574	-1456.550000	1297.909180	916.956421
29629.634574	-1456.550000	1296.808594	931.453003
29629.634574	-1456.550000	1295.708008	826.896362
29629.634574	-1456.550000	1294.607422	622.730774
29629.634574	-1456.550000	1293.506836	598.712891
29629.634574	-1456.550000	1292.405273	440.392456
29629.634574	-1456.550000	1291.303711	501.954926
29629.634574	-1456.550000	1290.202148	370.323120
29629.634574	-1456.550000	1289.099609	366.071106
29629.634574	-1456.550000	1287.998047	297.047485
29629.634574	-1456.550000	1286.895508	266.416168
29629.634574	-1456.550000	1285.792969	241.454437
29629.634574	-1456.550000	1284.689453	306.145599
29629.634574	-1456.550000	1283.586914	445.785339
29629.634574	-1456.550000	1282.483398	428.623718
29629.634574	-1456.550000	1281.379883	427.298187
29629.634574	-1456.550000	1280.276367	359.029388
29629.634574	-1456.550000	1279.171875	450.507751
29629.634574	-1456.550000	1278.067383	517.553345
29629.634574	-1456.550000	1276.962891	648.814514
29629.634574	-1456.550000	1275.858398	606.027344
29629.634574	-1456.550000	1274.753906	694.486755
29629.634574	-1456.550000	1273.648438	866.051208
29629.634574	-1456.550000	1272.542969	1065.232056
29629.634574	-1456.550000	1271.437500	1278.801636
29629.634574	-1456.550000	1270.331055	1477.937866
29629.634574	-1456.550000	1269.225586	1799.374268
29629.634574	-1456.550000	1268.119141	2020.426880
29629.634574	-1456.550000	1267.012695	2145.026855
29629.634574	-1456.550000	1265.906250	2443.048096
29629.634574	-1456.550000	1264.798828	2717.833496
29629.634574	-1456.550000	1263.691406	2632.694336
29629.634574	-1456.550000	1262.583984	2443.978760
29629.634574	-1456.550000	1261.476563	2482.910645
29629.634574	-1456.550000	1260.368164	2447.725098
29629.634574	-1456.550000	1259.260742	2154.645020
29629.634574	-1456.550000	1258.152344	1982.187988
29629.634574	-1456.550000	1257.043945	1891.449585
29629.634574	-1456.550000	1255.934570	1822.088867
29629.634574	-1456.550000	1254.825195	2178.735596
29629.634574	-1456.550000	1253.716797	2575.358887
29629.634574	-1456.550000	1252.606445	3039.715576
29629.634574	-1456.550000	1251.497070	3687.243408
29629.634574	-1456.550000	1250.387695	4247.649414
29629.634574	-1456.550000	1249.277344	4583.291504
29629.634574	-1456.550000	1248.166992	4585.774902
29629.634574	-1456.550000	1247.055664	4672.499023
29629.634574	-1456.550000	1245.945313	4518.332520
29629.634574	-1456.550000	1244.833984	3889.842285
29629.634574	-1456.550000	1243.722656	3524.637207
29629.634574	-1456.550000	1242.611328	3068.228271
29629.634574	-1456.550000	1241.499023	2670.729736
29629.634574	-1456.550000	1240.387695	2422.074463
29629.634574	-1456.550000	1239.275391	2019.476318
29629.634574	-1456.550000	1238.162109	1689.720947
29629.634574	-1456.550000	1237.049805	1556.633423
29629.634574	-1456.550000	1235.936523	1426.136475
29629.634574	-1456.550000	1234.823242	1129.200439
29629.634574	-1456.550000	1233.709961	1171.171143
29629.634574	-1456.550000	1232.596680	1141.062744
29629.634574	-1456.550000	1231.482422	882.114563
29629.634574	-1456.550000	1230.369141	851.962830
29629.634574	-1456.550000	1229.253906	921.151855
29629.634574	-1456.550000	1228.139648	904.280334
29629.634574	-1456.550000	1227.025391	882.657043
29629.634574	-1456.550000	1225.910156	755.400024
29629.634574	-1456.550000	1224.794922	756.140808
29629.634574	-1456.550000	1223.679688	602.355713
29629.634574	-1456.550000	1222.563477	597.974487
29629.634574	-1456.550000	1221.447266	727.371704
29629.634574	-1456.550000	1220.331055	429.993347
29629.634574	-1456.550000	1219.214844	548.279724
29629.634574	-1456.550000	1218.098633	423.414154
29629.634574	-1456.550000	1216.981445	537.448608
29629.634574	-1456.550000	1215.864258	430.258484
29629.634574	-1456.550000	1214.747070	594.135559
29629.634574	-1456.550000	1213.629883	603.956482
29629.634574	-1456.550000	1212.511719	549.895508
29629.634574	-1456.550000	1211.393555	652.074890
29629.634574	-1456.550000	1210.275391	585.085205
29629.634574	-1456.550000	1209.157227	614.648010
29629.634574	-1456.550000	1208.038086	670.173706
29629.634574	-1456.550000	1206.918945	589.121582
29629.634574	-1456.550000	1205.799805	688.206238
29629.634574	-1456.550000	1204.680664	736.403992
29629.634574	-1456.550000	1203.560547	519.230835
29629.634574	-1456.550000	1202.441406	672.824097
29629.634574	-1456.550000	1201.321289	559.338989
29629.634574	-1456.550000	1200.200195	507.447235
29629.634574	-1456.550000	1199.080078	507.610229
29629.634574	-1456.550000	1197.958984	533.388611
29629.634574	-1456.550000	1196.837891	315.980743
29629.634574	-1456.550000	1195.716797	417.106079
29629.634574	-1456.550000	1194.594727	276.564972
29629.634574	-1456.550000	1193.473633	99.795685
29629.634574	-1456.550000	1192.351563	118.885872
29629.634574	-1456.550000	1191.229492	209.809677
29629.634574	-1456.550000	1190.106445	107.689247
29629.634574	-1456.550000	1188.984375	121.619461
29629.634574	-1456.550000	1187.861328	-38.653687
29629.634574	-1456.550000	1186.738281	21.496233
29629.634574	-1456.550000	1185.614258	-57.957035
29629.634574	-1456.550000	1184.491211	-61.298576
29629.634574	-1456.550000	1183.367188	-93.987389
29629.634574	-1456.550000	1182.243164	-57.965942
29629.634574	-1456.550000	1181.119141	86.259193
29629.634574	-1456.550000	1179.994141	-29.686331
29629.634574	-1456.550000	1178.869141	87.502548
29629.634574	-1456.550000	1177.744141	67.190842
29629.634574	-1456.550000	1176.619141	340.333862
29629.634574	-1456.550000	1175.493164	254.921143
29629.634574	-1456.550000	1174.368164	418.480804
29629.634574	-1456.550000	1173.242188	305.820221
29629.634574	-1456.550000	1172.115234	273.586609
29629.634574	-1456.550000	1170.989258	411.598145
29629.634574	-1456.550000	1169.862305	291.873169
29629.634574	-1456.550000	1168.735352	273.485687
29629.634574	-1456.550000	1167.608398	324.269409
29629.634574	-1456.550000	1166.481445	287.439026
29629.634574	-1456.550000	1165.353516	273.401520
29629.634574	-1456.550000	1164.225586	425.216217
29629.634574	-1456.550000	1163.097656	467.439575
29629.634574	-1456.550000	1161.968750	492.327271
29629.634574	-1456.550000	1160.840820	542.597717
29629.634574	-1456.550000	1159.711914	744.941284
29629.634574	-1456.550000	1158.583008	723.760010
29629.634574	-1456.550000	1157.453125	731.619141
29629.634574	-1456.550000	1156.324219	808.961731
29629.634574	-1456.550000	1155.194336	560.743713
29629.634574	-1456.550000	1154.064453	648.229553
29629.634574	-1456.550000	1152.933594	656.322327
29629.634574	-1456.550000	1151.803711	704.472900
29629.634574	-1456.550000	1150.672852	715.583557
29629.634574	-1456.550000	1149.541992	629.038696
29629.634574	-1456.550000	1148.411133	610.876282
29629.634574	-1456.550000	1147.279297	403.112854
29629.634574	-1456.550000	1146.147461	314.422791
29629.634574	-1456.550000	1145.015625	484.226807
29629.634574	-1456.550000	1143.883789	308.873352
29629.634574	-1456.550000	1142.750977	280.302795
29629.634574	-1456.550000	1141.619141	307.637665
29629.634574	-1456.550000	1140.486328	202.656876
29629.634574	-1456.550000	1139.352539	154.825089
29629.634574	-1456.550000	1138.219727	191.627594
29629.634574	-1456.550000	1137.085938	4.960043
29629.634574	-1456.550000	1135.952148	162.924606
29629.634574	-1456.550000	1134.818359	219.691986
29629.634574	-1456.550000	1133.683594	171.885208
29629.634574	-1456.550000	1132.549805	54.476856
29629.634574	-1456.550000	1131.415039	263.622375
29629.634574	-1456.550000	1130.279297	285.415344
29629.634574	-1456.550000	1129.144531	121.792183
29629.634574	-1456.550000	1128.008789	266.965485
29629.634574	-1456.550000	1126.873047	205.218094
29629.634574	-1456.550000	1125.737305	157.703110
29629.634574	-1456.550000	1124.601563	40.063416
29629.634574	-1456.550000	1123.464844	129.345444
29629.634574	-1456.550000	1122.328125	271.242126
29629.634574	-1456.550000	1121.191406	161.780670
29629.634574	-1456.550000	1120.054688	44.521889
29629.634574	-1456.550000	1118.916992	35.687027
29629.634574	-1456.550000	1117.779297	-39.973827
29629.634574	-1456.550000	1116.641602	-86.856842
29629.634574	-1456.550000	1115.503906	5.053424
29629.634574	-1456.550000	1114.365234	-71.352348
29629.634574	-1456.550000	1113.226563	-15.424657
29629.634574	-1456.550000	1112.087891	-154.533295
29629.634574	-1456.550000	1110.949219	70.012970
29629.634574	-1456.550000	1109.809570	-134.260910
29629.634574	-1456.550000	1108.669922	38.274574
29629.634574	-1456.550000	1107.530273	90.308212
29629.634574	-1456.550000	1106.390625	-26.776857
29629.634574	-1456.550000	1105.250000	-90.513771
29629.634574	-1456.550000	1104.109375	150.646896
29629.634574	-1456.550000	1102.968750	143.063858
29629.634574	-1456.550000	1101.828125	69.267250
29629.634574	-1456.550000	1100.686523	192.354294
29629.634574	-1456.550000	1099.544922	77.837326
29629.634574	-1456.550000	1098.403320	-1.327756
29629.634574	-1456.550000	1097.261719	223.737320
29629.634574	-1456.550000	1096.120117	270.036804
29629.634574	-1456.550000	1094.977539	234.831497
29629.634574	-1456.550000	1093.834961	138.987259
29629.634574	-1456.550000	1092.691406	374.849365
29629.634574	-1456.550000	1091.548828	88.808411
29629.634574	-1456.550000	1090.405273	87.589729
29629.634574	-1456.550000	1089.261719	103.068962
29629.634574	-1456.550000	1088.118164	191.599518
29629.634574	-1456.550000	1086.973633	147.418732
29629.634574	-1456.550000	1085.829102	260.030212
29629.634574	-1456.550000	1084.684570	-30.033464
29629.634574	-1456.550000	1083.540039	204.236374
29629.634574	-1456.550000	1082.395508	422.635498
29629.634574	-1456.550000	1081.250000	192.131241
29629.634574	-1456.550000	1080.104492	229.873718
29629.634574	-1456.550000	1078.958984	462.042511
29629.634574	-1456.550000	1077.812500	619.319763
29629.634574	-1456.550000	1076.666016	688.911255
29629.634574	-1456.550000	1075.519531	1118.456543
29629.634574	-1456.550000	1074.373047	1170.775879
29629.634574	-1456.550000	1073.226563	1417.422729
29629.634574	-1456.550000	1072.079102	1497.940186
29629.634574	-1456.550000	1070.931641	1623.032227
29629.634574	-1456.550000	1069.784180	1856.618408
29629.634574	-1456.550000	1068.635742	1557.474365
29629.634574	-1456.550000	1067.487305	1758.892822
29629.634574	-1456.550000	1066.338867	1619.841431
29629.634574	-1456.550000	1065.190430	1376.876587
29629.634574	-1456.550000	1064.041992	1228.571655
29629.634574	-1456.550000	1062.892578	1022.263550
29629.634574	-1456.550000	1061.743164	814.210815
29629.634574	-1456.550000	1060.593750	708.638916
29629.634574	-1456.550000	1059.443359	511.154358
29629.634574	-1456.550000	1058.292969	415.168121
29629.634574	-1456.550000	1057.142578	319.330475
29629.634574	-1456.550000	1055.992188	323.203369
29629.634574	-1456.550000	1054.841797	346.779938
29629.634574	-1456.550000	1053.690430	239.664154
29629.634574	-1456.550000	1052.539063	196.830978
29629.634574	-1456.550000	1051.387695	-58.605392
29629.634574	-1456.550000	1050.235352	-109.828552
29629.634574	-1456.550000	1049.083984	-41.055969
29629.634574	-1456.550000	1047.931641	137.733902
29629.634574	-1456.550000	1046.778320	78.625961
29629.634574	-1456.550000	1045.625977	33.412537
29629.634574	-1456.550000	1044.472656	267.218170
29629.634574	-1456.550000	1043.319336	-31.321470
29629.634574	-1456.550000	1042.166016	118.288673
29629.634574	-1456.550000	1041.012695	150.075912
29629.634574	-1456.550000	1039.858398	182.324890
29629.634574	-1456.550000	1038.704102	174.627823
29629.634574	-1456.550000	1037.549805	-9.445007
29629.634574	-1456.550000	1036.394531	33.482830
29629.634574	-1456.550000	1035.239258	93.638344
29629.634574	-1456.550000	1034.083984	247.179230
29629.634574	-1456.550000	1032.928711	-22.240250
29629.634574	-1456.550000	1031.773438	188.206055
29629.634574	-1456.550000	1030.617188	6.488803
29629.634574	-1456.550000	1029.460938	-30.827074
29629.634574	-1456.550000	1028.304688	185.150986
29629.634574	-1456.550000	1027.147461	-182.207932
29629.634574	-1456.550000	1025.991211	-56.141541
29629.634574	-1456.550000	1024.833984	-108.014709
29629.634574	-1456.550000	1023.675781	-75.682930
29629.634574	-1456.550000	1022.518555	49.151283
29629.634574	-1456.550000	1021.360352	40.212887
29629.634574	-1456.550000	1020.202148	137.907211
29629.634574	-1456.550000	1019.043945	-68.476662
29629.634574	-1456.550000	1017.884766	-112.201538
29629.634574	-1456.550000	1016.726563	-50.485485
29629.634574	-1456.550000	1015.567383	40.400799
29629.634574	-1456.550000	1014.407227	-85.399628
29629.634574	-1456.550000	1013.248047	113.255066
29629.634574	-1456.550000	1012.087891	86.088295
29629.634574	-1456.550000	1010.927734	-113.520416
29629.634574	-1456.550000	1009.767578	2.316149
29629.634574	-1456.550000	1008.606445	127.013885
29629.634574	-1456.550000	1007.446289	18.713728
29629.634574	-1456.550000	1006.285156	107.038445
29629.634574	-1456.550000	1005.123047	105.063232
29629.634574	-1456.550000	1003.961914	109.035027
29629.634574	-1456.550000	1002.799805	161.641022
29629.634574	-1456.550000	1001.637695	182.779358
29629.634574	-1456.550000	1000.475586	183.311890
29629.634574	-1456.550000	999.312500	210.928406
29629.634574	-1456.550000	998.149414	208.806839
29629.634574	-1456.550000	996.986328	49.754364
29629.634574	-1456.550000	995.823242	-23.547340
29629.634574	-1456.550000	994.659180	105.299019
29629.634574	-1456.550000	993.496094	88.455513
29629.634574	-1456.550000	992.332031	50.668354
29629.634574	-1456.550000	991.166992	117.034737
29629.634574	-1456.550000	990.002930	37.783173
29629.634574	-1456.550000	988.837891	132.074890
29629.634574	-1456.550000	987.672852	-49.885262
29629.634574	-1456.550000	986.506836	-0.460257
29629.634574	-1456.550000	985.341797	-80.588524
29629.634574	-1456.550000	984.175781	15.143562
29629.634574	-1456.550000	983.009766	26.972628
29629.634574	-1456.550000	981.843750	54.547169
29629.634574	-1456.550000	980.676758	-181.607147
29629.634574	-1456.550000	979.509766	-151.334717
29629.634574	-1456.550000	978.342773	-64.360100
29629.634574	-1456.550000	977.175781	181.178589
29629.634574	-1456.550000	976.007813	-127.485962
29629.634574	-1456.550000	974.839844	50.041615
29629.634574	-1456.550000	973.671875	110.616364
29629.634574	-1456.550000	972.503906	226.660721
29629.634574	-1456.550000	971.334961	-80.693726
29629.634574	-1456.550000	970.166016	38.624207
29629.634574	-1456.550000	968.997070	229.982269
29629.634574	-1456.550000	967.828125	107.664696
29629.634574	-1456.550000	966.658203	46.533073
29629.634574	-1456.550000	965.488281	82.321182
29629.634574	-1456.550000	964.318359	51.670708
29629.634574	-1456.550000	963.148438	79.526543
29629.634574	-1456.550000	961.977539	170.785400
29629.634574	-1456.550000	960.806641	85.789017
29629.634574	-1456.550000	959.635742	19.509615
29629.634574	-1456.550000	958.463867	-133.493484
29629.634574	-1456.550000	957.292969	70.253143
29629.634574	-1456.550000	956.121094	139.816269
29629.634574	-1456.550000	954.948242	23.671528
29629.634574	-1456.550000	953.776367	42.069271
29629.634574	-1456.550000	952.603516	8.071332
29629.634574	-1456.550000	951.430664	79.878365
29629.634574	-1456.550000	950.257813	-50.546169
29629.634574	-1456.550000	949.084961	126.364716
29629.634574	-1456.550000	947.911133	-38.719849
29629.634574	-1456.550000	946.737305	17.267500
29629.634574	-1456.550000	945.563477	90.578804
29629.634574	-1456.550000	944.388672	-33.268665
29629.634574	-1456.550000	943.213867	-32.765148
29629.634574	-1456.550000	942.039063	-111.179604
29629.634574	-1456.550000	940.864258	-72.634003
29629.634574	-1456.550000	939.688477	145.246323
29629.634574	-1456.550000	938.513672	14.874398
29629.634574	-1456.550000	937.337891	-32.883808
29629.634574	-1456.550000	936.161133	-15.245989
29629.634574	-1456.550000	934.985352	257.887909
29629.634574	-1456.550000	933.808594	85.886253
29629.634574	-1456.550000	932.631836	86.352119
29629.634574	-1456.550000	931.454102	117.915047
29629.634574	-1456.550000	930.277344	197.685349
29629.634574	-1456.550000	929.099609	87.689598
29629.634574	-1456.550000	927.921875	170.824326
29629.634574	-1456.550000	926.743164	157.441727
29629.634574	-1456.550000	925.565430	247.407486
29629.634574	-1456.550000	924.386719	292.518188
29629.634574	-1456.550000	923.208008	137.810028
29629.634574	-1456.550000	922.028320	65.801178
29629.634574	-1456.550000	920.849609	141.877380
29629.634574	-1456.550000	919.669922	143.710709
29629.634574	-1456.550000	919.474609	128.699142
29629.634574	-1456.550000	918.309570	8.486925
29629.634574	-1456.550000	917.143555	-87.586128
29629.634574	-1456.550000	915.977539	212.065979
29629.634574	-1456.550000	914.810547	88.469223
29629.634574	-1456.550000	913.644531	130.009369
29629.634574	-1456.550000	912.477539	40.863819
29629.634574	-1456.550000	911.310547	99.586319
29629.634574	-1456.550000	910.143555	24.230181
29629.634574	-1456.550000	908.975586	52.003036
29629.634574	-1456.550000	907.807617	237.813126
29629.634574	-1456.550000	906.639648	138.428604
29629.634574	-1456.550000	905.471680	-19.302319
29629.634574	-1456.550000	904.303711	-19.015791
29629.634574	-1456.550000	903.134766	-135.452911
29629.634574	-1456.550000	901.965820	153.176880
29629.634574	-1456.550000	900.796875	-18.155148
29629.634574	-1456.550000	899.626953	181.128754
29629.634574	-1456.550000	898.457031	147.073029
29629.634574	-1456.550000	897.287109	126.749565
29629.634574	-1456.550000	896.117188	13.854687
29629.634574	-1456.550000	894.947266	175.259567
29629.634574	-1456.550000	893.776367	257.769012
29629.634574	-1456.550000	892.605469	114.077339
29629.634574	-1456.550000	891.434570	86.931244
29629.634574	-1456.550000	890.262695	196.813217
29629.634574	-1456.550000	889.091797	18.976194
29629.634574	-1456.550000	887.919922	63.772346
29629.634574	-1456.550000	886.748047	88.011269
29629.634574	-1456.550000	885.575195	-69.154610
29629.634574	-1456.550000	884.403320	-62.006542
29629.634574	-1456.550000	883.230469	-68.544411
29629.634574	-1456.550000	882.057617	89.104836
29629.634574	-1456.550000	880.883789	-23.471294
29629.634574	-1456.550000	879.710938	130.686630
29629.634574	-1456.550000	878.537109	66.007446
29629.634574	-1456.550000	877.362305	11.610343
29629.634574	-1456.550000	876.188477	-281.954437
29629.634574	-1456.550000	875.013672	-39.039284
29629.634574	-1456.550000	873.839844	56.905537
29629.634574	-1456.550000	872.664063	-62.322933
29629.634574	-1456.550000	871.489258	98.461258
29629.634574	-1456.550000	870.313477	112.401772
29629.634574	-1456.550000	869.138672	102.446800
29629.634574	-1456.550000	867.962891	-129.287827
29629.634574	-1456.550000	866.786133	-64.133118
29629.634574	-1456.550000	865.610352	-16.058880
29629.634574	-1456.550000	864.433594	52.458923
29629.634574	-1456.550000	863.256836	-32.468887
29629.634574	-1456.550000	862.079102	-45.778290
29629.634574	-1456.550000	860.902344	-198.806763
29629.634574	-1456.550000	859.724609	-62.156738
29629.634574	-1456.550000	858.546875	-58.415661
29629.634574	-1456.550000	857.368164	-129.600555
29629.634574	-1456.550000	856.190430	-3.260352
29629.634574	-1456.550000	855.011719	-132.299240
29629.634574	-1456.550000	853.833008	31.435066
29629.634574	-1456.550000	852.654297	-2.271299
29629.634574	-1456.550000	851.474609	18.476248
29629.634574	-1456.550000	850.294922	15.405177
29629.634574	-1456.550000	849.115234	-14.870262
29629.634574	-1456.550000	847.935547	145.279800
29629.634574	-1456.550000	846.754883	67.400810
29629.634574	-1456.550000	845.575195	33.738243
29629.634574	-1456.550000	844.393555	-67.868385
29629.634574	-1456.550000	843.212891	27.616842
29629.634574	-1456.550000	842.032227	102.684196
29629.634574	-1456.550000	840.850586	150.554413
29629.634574	-1456.550000	839.668945	116.918808
29629.634574	-1456.550000	838.486328	35.774960
29629.634574	-1456.550000	837.304688	-8.002788
29629.634574	-1456.550000	836.122070	2.531459
29629.634574	-1456.550000	834.939453	-20.862650
29629.634574	-1456.550000	833.756836	-67.988876
29629.634574	-1456.550000	832.573242	-40.488304
29629.634574	-1456.550000	831.389648	-60.464100
29629.634574	-1456.550000	830.206055	-168.564743
29629.634574	-1456.550000	829.022461	-19.052525
29629.634574	-1456.550000	827.838867	59.243896
29629.634574	-1456.550000	826.654297	42.655575
29629.634574	-1456.550000	825.469727	175.100830
29629.634574	-1456.550000	824.284180	-71.766541
29629.634574	-1456.550000	823.099609	36.949242
29629.634574	-1456.550000	821.914063	0.073442
29629.634574	-1456.550000	820.728516	-124.774475
29629.634574	-1456.550000	819.542969	95.541641
29629.634574	-1456.550000	818.356445	-39.421593
29629.634574	-1456.550000	817.169922	86.090057
29629.634574	-1456.550000	815.983398	59.388504
29629.634574	-1456.550000	814.796875	238.917984
29629.634574	-1456.550000	813.609375	49.958244
29629.634574	-1456.550000	812.422852	26.658457
29629.634574	-1456.550000	811.235352	195.948334
29629.634574	-1456.550000	810.046875	-26.664406
29629.634574	-1456.550000	808.859375	-103.969109
29629.634574	-1456.550000	807.670898	109.136307
29629.634574	-1456.550000	806.482422	79.095985
29629.634574	-1456.550000	805.293945	126.693977
29629.634574	-1456.550000	804.104492	25.799847
29629.634574	-1456.550000	802.915039	144.235657
29629.634574	-1456.550000	801.725586	107.463188
29629.634574	-1456.550000	800.536133	387.699585
29629.634574	-1456.550000	799.345703	239.627365
29629.634574	-1456.550000	798.155273	121.952888
29629.634574	-1456.550000	796.964844	250.348846
29629.634574	-1456.550000	795.774414	254.018188
29629.634574	-1456.550000	794.583008	314.954498
29629.634574	-1456.550000	793.392578	140.094498
29629.634574	-1456.550000	792.200195	79.799011
29629.634574	-1456.550000	791.008789	6.056992
29629.634574	-1456.550000	789.816406	130.938171
29629.634574	-1456.550000	788.625000	-0.000561
29629.634574	-1456.550000	787.432617	-40.042522
29629.634574	-1456.550000	786.239258	182.315521
29629.634574	-1456.550000	785.046875	132.155334
29629.634574	-1456.550000	783.853516	122.363541
29629.634574	-1456.550000	782.660156	-48.795456
29629.634574	-1456.550000	781.465820	-8.136277
29629.634574	-1456.550000	780.272461	89.627945
29629.634574	-1456.550000	779.078125	251.182587
29629.634574	-1456.550000	777.883789	80.121185
29629.634574	-1456.550000	776.688477	30.027031
29629.634574	-1456.550000	775.494141	-20.053713
29629.634574	-1456.550000	774.298828	-90.258957
29629.634574	-1456.550000	773.103516	158.401810
29629.634574	-1456.550000	771.907227	292.866333
29629.634574	-1456.550000	770.711914	-112.863617
29629.634574	-1456.550000	769.515625	31.651140
29629.634574	-1456.550000	768.318359	135.858597
29629.634574	-1456.550000	767.122070	12.026662
29629.634574	-1456.550000	765.924805	153.053452
29629.634574	-1456.550000	764.727539	19.201958
29629.634574	-1456.550000	763.530273	69.685310
29629.634574	-1456.550000	762.333008	126.839211
29629.634574	-1456.550000	761.134766	217.455322
29629.634574	-1456.550000	759.936523	6.653581
29629.634574	-1456.550000	758.738281	257.937653
29629.634574	-1456.550000	757.540039	194.473267
29629.634574	-1456.550000	756.340820	104.255196
29629.634574	-1456.550000	755.141602	17.411213
29629.634574	-1456.550000	753.942383	47.671509
29629.634574	-1456.550000	752.742188	-12.388131
29629.634574	-1456.550000	751.541992	148.250687
29629.634574	-1456.550000	750.341797	-55.574413
29629.634574	-1456.550000	749.141602	-88.869080
29629.634574	-1456.550000	747.941406	191.950409
29629.634574	-1456.550000	746.740234	238.778610
29629.634574	-1456.550000	745.539063	172.008453
29629.634574	-1456.550000	744.337891	11.747602
29629.634574	-1456.550000	743.135742	98.615173
29629.634574	-1456.550000	741.933594	232.167221
29629.634574	-1456.550000	740.731445	238.828262
29629.634574	-1456.550000	739.529297	142.035019
29629.634574	-1456.550000	738.326172	155.358719
29629.634574	-1456.550000	737.124023	101.954849
29629.634574	-1456.550000	735.919922	362.017639
29629.634574	-1456.550000	734.716797	388.579773
29629.634574	-1456.550000	733.513672	311.785736
29629.634574	-1456.550000	732.309570	304.993317
29629.634574	-1456.550000	731.105469	198.232773
29629.634574	-1456.550000	729.900391	278.046417
29629.634574	-1456.550000	728.696289	207.939011
29629.634574	-1456.550000	727.491211	234.409073
29629.634574	-1456.550000	726.286133	127.688072
29629.634574	-1456.550000	725.080078	34.309975
29629.634574	-1456.550000	723.874023	-22.442450
29629.634574	-1456.550000	722.668945	17.292231
29629.634574	-1456.550000	721.461914	50.341557
29629.634574	-1456.550000	720.255859	-86.246666
29629.634574	-1456.550000	719.048828	-169.597168
29629.634574	-1456.550000	717.841797	159.267731
29629.634574	-1456.550000	716.634766	102.450218
29629.634574	-1456.550000	715.427734	-97.243851
29629.634574	-1456.550000	714.219727	-114.157120
29629.634574	-1456.550000	713.011719	127.985497
29629.634574	-1456.550000	711.803711	-74.968674
29629.634574	-1456.550000	710.594727	-65.377457
29629.634574	-1456.550000	709.385742	-6.021880
29629.634574	-1456.550000	708.176758	-175.697662
29629.634574	-1456.550000	706.967773	69.416634
29629.634574	-1456.550000	705.758789	2.585844
29629.634574	-1456.550000	704.548828	111.537498
29629.634574	-1456.550000	703.338867	21.470144
29629.634574	-1456.550000	702.127930	50.763134
29629.634574	-1456.550000	700.917969	-55.872990
29629.634574	-1456.550000	699.707031	79.415985
29629.634574	-1456.550000	698.496094	2.588460
29629.634574	-1456.550000	697.285156	54.950264
29629.634574	-1456.550000	696.073242	176.810837
29629.634574	-1456.550000	694.861328	152.911819
29629.634574	-1456.550000	693.649414	168.720688
29629.634574	-1456.550000	692.436523	-50.482494
29629.634574	-1456.550000	691.224609	24.870085
29629.634574	-1456.550000	690.011719	-141.333008
29629.634574	-1456.550000	688.798828	6.718346
29629.634574	-1456.550000	687.584961	91.851509
29629.634574	-1456.550000	686.372070	120.716492
29629.634574	-1456.550000	685.158203	152.847687
29629.634574	-1456.550000	683.943359	105.624130
29629.634574	-1456.550000	682.729492	121.168121
29629.634574	-1456.550000	681.514648	83.823517
29629.634574	-1456.550000	680.299805	185.175018
29629.634574	-1456.550000	679.084961	78.433258
29629.634574	-1456.550000	677.869141	166.479645
29629.634574	-1456.550000	676.653320	49.825214
29629.634574	-1456.550000	675.437500	91.581505
29629.634574	-1456.550000	674.221680	-5.274712
29629.634574	-1456.550000	673.004883	62.801434
29629.634574	-1456.550000	671.789063	144.008392
29629.634574	-1456.550000	670.571289	70.187843
29629.634574	-1456.550000	669.354492	115.035156
29629.634574	-1456.550000	668.136719	-11.543824
29629.634574	-1456.550000	666.919922	224.345367
29629.634574	-1456.550000	665.701172	-63.688313
29629.634574	-1456.550000	664.483398	23.835018
29629.634574	-1456.550000	663.264648	196.903046
29629.634574	-1456.550000	662.045898	350.111115
29629.634574	-1456.550000	660.827148	-85.958450
29629.634574	-1456.550000	659.608398	218.553452
29629.634574	-1456.550000	658.388672	253.112823
29629.634574	-1456.550000	657.168945	225.123749
29629.634574	-1456.550000	655.949219	187.245193
29629.634574	-1456.550000	654.728516	353.204803
29629.634574	-1456.550000	653.507813	88.417969
29629.634574	-1456.550000	652.287109	296.983154
29629.634574	-1456.550000	651.066406	436.419128
29629.634574	-1456.550000	649.844727	303.083893
29629.634574	-1456.550000	648.623047	140.207397
29629.634574	-1456.550000	647.401367	220.369049
29629.634574	-1456.550000	646.179688	238.079422
29629.634574	-1456.550000	644.957031	268.874542
29629.634574	-1456.550000	643.734375	391.508972
29629.634574	-1456.550000	642.511719	379.529419
29629.634574	-1456.550000	641.289063	315.030945
29629.634574	-1456.550000	640.065430	145.570999
29629.634574	-1456.550000	638.841797	445.041931
29629.634574	-1456.550000	637.618164	367.342072
29629.634574	-1456.550000	636.393555	60.203068
29629.634574	-1456.550000	635.168945	290.570679
29629.634574	-1456.550000	633.944336	304.570251
29629.634574	-1456.550000	632.719727	174.402344
29629.634574	-1456.550000	631.494141	224.364975
29629.634574	-1456.550000	630.269531	339.751434
29629.634574	-1456.550000	629.042969	62.233681
29629.634574	-1456.550000	627.817383	134.979904
29629.634574	-1456.550000	626.590820	207.654434
29629.634574	-1456.550000	625.365234	182.118729
29629.634574	-1456.550000	624.137695	297.190887
29629.634574	-1456.550000	622.911133	108.067329
29629.634574	-1456.550000	621.683594	219.757385
29629.634574	-1456.550000	620.456055	213.690155
29629.634574	-1456.550000	619.228516	63.798199
29629.634574	-1456.550000	618.000977	34.815880
29629.634574	-1456.550000	616.772461	-10.527454
29629.634574	-1456.550000	615.543945	6.158382
29629.634574	-1456.550000	614.314453	-120.869957
29629.634574	-1456.550000	613.085938	199.343430
29629.634574	-1456.550000	611.856445	98.357231
29629.634574	-1456.550000	610.626953	98.528122
29629.634574	-1456.550000	609.397461	199.791168
29629.634574	-1456.550000	608.166992	-28.458393
29629.634574	-1456.550000	606.936523	46.619099
29629.634574	-1456.550000	605.706055	17.295191
29629.634574	-1456.550000	604.474609	-8.798153
29629.634574	-1456.550000	603.244141	23.740358
29629.634574	-1456.550000	602.012695	20.383556
29629.634574	-1456.550000	600.780273	-178.463776
29629.634574	-1456.550000	599.548828	-246.992401
29629.634574	-1456.550000	598.316406	-149.471863
29629.634574	-1456.550000	597.083984	-42.266235
29629.634574	-1456.550000	595.851563	-75.100006
29629.634574	-1456.550000	594.618164	44.979412
29629.634574	-1456.550000	593.384766	77.127083
29629.634574	-1456.550000	592.151367	-53.410732
29629.634574	-1456.550000	590.917969	-1.822346
29629.634574	-1456.550000	589.683594	-31.578587
29629.634574	-1456.550000	588.449219	-178.382141
29629.634574	-1456.550000	587.214844	-71.671288
29629.634574	-1456.550000	585.979492	158.423416
29629.634574	-1456.550000	584.745117	125.254509
29629.634574	-1456.550000	583.509766	1.121210
29629.634574	-1456.550000	582.273438	159.499741
29629.634574	-1456.550000	581.038086	19.103695
29629.634574	-1456.550000	579.801758	21.540239
29629.634574	-1456.550000	578.565430	82.349190
29629.634574	-1456.550000	577.329102	52.252987
29629.634574	-1456.550000	576.091797	25.374350
29629.634574	-1456.550000	574.854492	228.720978
29629.634574	-1456.550000	573.617188	195.258499
29629.634574	-1456.550000	572.378906	301.160370
29629.634574	-1456.550000	571.141602	144.471237
29629.634574	-1456.550000	569.903320	114.178795
29629.634574	-1456.550000	568.664063	142.172958
29629.634574	-1456.550000	567.425781	-46.877396
29629.634574	-1456.550000	566.186523	-35.120953
29629.634574	-1456.550000	564.947266	86.669510
29629.634574	-1456.550000	563.708008	27.116457
29629.634574	-1456.550000	562.467773	129.355103
29629.634574	-1456.550000	561.227539	76.220207
29629.634574	-1456.550000	559.987305	23.075462
29629.634574	-1456.550000	558.747070	157.491592
29629.634574	-1456.550000	557.505859	175.417236
29629.634574	-1456.550000	556.264648	-7.116410
29629.634574	-1456.550000	555.023438	7.542932
29629.634574	-1456.550000	553.781250	-23.074589
29629.634574	-1456.550000	552.539063	-66.631058
29629.634574	-1456.550000	551.296875	96.510216
29629.634574	-1456.550000	550.054688	136.845322
29629.634574	-1456.550000	548.811523	193.273499
29629.634574	-1456.550000	547.569336	214.146622
29629.634574	-1456.550000	546.325195	167.209732
29629.634574	-1456.550000	545.082031	207.379456
29629.634574	-1456.550000	543.837891	66.864822
29629.634574	-1456.550000	542.593750	-22.016531
29629.634574	-1456.550000	541.349609	-10.932043
29629.634574	-1456.550000	540.105469	212.879562
29629.634574	-1456.550000	538.860352	-91.990219
29629.634574	-1456.550000	537.615234	118.802246
29629.634574	-1456.550000	536.369141	207.059372
29629.634574	-1456.550000	535.124023	50.474339
29629.634574	-1456.550000	533.877930	-25.565851
29629.634574	-1456.550000	532.631836	7.866004
29629.634574	-1456.550000	531.384766	-23.116188
29629.634574	-1456.550000	530.138672	-2.614038
29629.634574	-1456.550000	528.891602	98.290611
29629.634574	-1456.550000	527.643555	163.745255
29629.634574	-1456.550000	526.396484	-37.773472
29629.634574	-1456.550000	525.148438	82.304344
29629.634574	-1456.550000	523.900391	202.312286
29629.634574	-1456.550000	522.652344	32.996071
29629.634574	-1456.550000	521.403320	-184.466049
29629.634574	-1456.550000	520.154297	-87.020714
29629.634574	-1456.550000	518.905273	77.816551
29629.634574	-1456.550000	517.656250	8.151307
29629.634574	-1456.550000	516.406250	166.442551
29629.634574	-1456.550000	515.156250	209.099152
29629.634574	-1456.550000	513.906250	55.967369
29629.634574	-1456.550000	512.655273	-87.489899
29629.634574	-1456.550000	511.404297	-9.563985
29629.634574	-1456.550000	510.153320	-79.207428
29629.634574	-1456.550000	508.902344	85.231216
29629.634574	-1456.550000	507.650391	-135.094803
29629.634574	-1456.550000	506.398438	-57.273151
29629.634574	-1456.550000	505.146484	-139.709549
29629.634574	-1456.550000	503.893555	-13.888451
29629.634574	-1456.550000	502.641602	150.307693
29629.634574	-1456.550000	501.388672	-66.642891
29629.634574	-1456.550000	500.134766	52.650463
29629.634574	-1456.550000	498.881836	-10.559930
29629.634574	-1456.550000	497.627930	-80.153305
29629.634574	-1456.550000	496.374023	-143.323822
29629.634574	-1456.550000	495.119141	-43.337788
29629.634574	-1456.550000	493.865234	94.979973
29629.634574	-1456.550000	492.610352	204.453247
29629.634574	-1456.550000	491.355469	182.810242
29629.634574	-1456.550000	490.099609	-17.808218
29629.634574	-1456.550000	488.843750	-90.529930
29629.634574	-1456.550000	487.587891	95.542969
29629.634574	-1456.550000	486.332031	105.864952
29629.634574	-1456.550000	485.075195	61.891750
29629.634574	-1456.550000	483.818359	129.675659
29629.634574	-1456.550000	482.561523	69.753136
29629.634574	-1456.550000	481.304688	194.944778
29629.634574	-1456.550000	480.046875	68.027061
29629.634574	-1456.550000	478.789063	-10.989341
29629.634574	-1456.550000	477.531250	149.214172
29629.634574	-1456.550000	476.272461	60.644932
29629.634574	-1456.550000	475.013672	-50.201088
29629.634574	-1456.550000	473.754883	113.090317
29629.634574	-1456.550000	472.496094	43.703838
29629.634574	-1456.550000	471.236328	95.401581
29629.634574	-1456.550000	469.976563	0.566109
29629.634574	-1456.550000	468.716797	-5.066718
29629.634574	-1456.550000	467.456055	304.480438
29629.634574	-1456.550000	466.196289	72.794334
29629.634574	-1456.550000	464.935547	315.363770
29629.634574	-1456.550000	463.673828	236.484985
29629.634574	-1456.550000	462.413086	402.572235
29629.634574	-1456.550000	461.151367	400.033203
29629.634574	-1456.550000	459.889648	213.082138
29629.634574	-1456.550000	458.626953	356.806458
29629.634574	-1456.550000	457.364258	500.467194
29629.634574	-1456.550000	456.101563	590.047424
29629.634574	-1456.550000	454.838867	682.763428
29629.634574	-1456.550000	453.575195	699.206848
29629.634574	-1456.550000	452.312500	547.347290
29629.634574	-1456.550000	451.047852	576.501831
29629.634574	-1456.550000	449.784180	726.255432
29629.634574	-1456.550000	448.519531	923.536621
29629.634574	-1456.550000	447.254883	797.114868
29629.634574	-1456.550000	445.990234	743.695435
29629.634574	-1456.550000	444.725586	541.242126
29629.634574	-1456.550000	443.459961	773.236267
29629.634574	-1456.550000	442.194336	770.546204
29629.634574	-1456.550000	440.927734	663.258423
29629.634574	-1456.550000	439.662109	635.222778
29629.634574	-1456.550000	438.395508	680.042114
29629.634574	-1456.550000	437.127930	610.806824
29629.634574	-1456.550000	435.861328	519.422668
29629.634574	-1456.550000	434.593750	523.031311
29629.634574	-1456.550000	433.326172	504.463409
29629.634574	-1456.550000	432.058594	536.513672
29629.634574	-1456.550000	430.790039	536.886658
29629.634574	-1456.550000	429.521484	568.865845
29629.634574	-1456.550000	428.252930	528.069458
29629.634574	-1456.550000	426.984375	319.692810
29629.634574	-1456.550000	425.714844	544.430115
29629.634574	-1456.550000	424.445313	317.111511
29629.634574	-1456.550000	423.174805	484.807037
29629.634574	-1456.550000	421.905273	333.341705
29629.634574	-1456.550000	420.634766	440.875671
29629.634574	-1456.550000	419.364258	320.974609
29629.634574	-1456.550000	418.092773	381.018982
29629.634574	-1456.550000	416.822266	519.898071
29629.634574	-1456.550000	415.550781	324.175110
29629.634574	-1456.550000	414.278320	491.285828
29629.634574	-1456.550000	413.006836	377.548615
29629.634574	-1456.550000	411.734375	355.246735
29629.634574	-1456.550000	410.461914	276.139099
29629.634574	-1456.550000	409.188477	89.821274
29629.634574	-1456.550000	407.916016	310.048950
29629.634574	-1456.550000	406.642578	400.919952
29629.634574	-1456.550000	405.368164	268.013031
29629.634574	-1456.550000	404.094727	358.687256
29629.634574	-1456.550000	402.820313	351.619751
29629.634574	-1456.550000	401.545898	385.384644
29629.634574	-1456.550000	400.270508	359.232758
29629.634574	-1456.550000	398.996094	546.963013
29629.634574	-1456.550000	397.720703	460.801636
29629.634574	-1456.550000	396.444336	434.318329
29629.634574	-1456.550000	395.168945	423.454102
29629.634574	-1456.550000	393.892578	459.622101
29629.634574	-1456.550000	392.616211	580.510498
29629.634574	-1456.550000	391.339844	550.368286
29629.634574	-1456.550000	390.062500	428.975311
29629.634574	-1456.550000	388.785156	543.073303
29629.634574	-1456.550000	387.507813	628.700623
29629.634574	-1456.550000	386.229492	349.904236
29629.634574	-1456.550000	384.951172	435.196564
29629.634574	-1456.550000	383.672852	441.813110
29629.634574	-1456.550000	382.394531	645.919861
29629.634574	-1456.550000	381.115234	532.893982
29629.634574	-1456.550000	379.835938	382.079956
29629.634574	-1456.550000	378.556641	347.143585
29629.634574	-1456.550000	377.277344	352.759186
29629.634574	-1456.550000	375.997070	517.991821
29629.634574	-1456.550000	374.716797	494.896515
29629.634574	-1456.550000	373.435547	553.017883
29629.634574	-1456.550000	372.155273	238.123108
29629.634574	-1456.550000	370.874023	164.229050
29629.634574	-1456.550000	369.591797	315.512329
29629.634574	-1456.550000	368.310547	309.941132
29629.634574	-1456.550000	367.028320	329.106537
29629.634574	-1456.550000	365.746094	294.766144
29629.634574	-1456.550000	364.463867	25.508152
29629.634574	-1456.550000	363.180664	143.843933
29629.634574	-1456.550000	361.897461	155.475220
29629.634574	-1456.550000	360.614258	66.711983
29629.634574	-1456.550000	359.330078	177.643890
29629.634574	-1456.550000	358.045898	-46.203747
29629.634574	-1456.550000	356.761719	245.136261
29629.634574	-1456.550000	355.477539	98.662498
29629.634574	-1456.550000	354.192383	48.629627
29629.634574	-1456.550000	352.907227	45.018299
29629.634574	-1456.550000	351.622070	65.932526
29629.634574	-1456.550000	350.336914	-110.228622
29629.634574	-1456.550000	349.050781	-52.798271
29629.634574	-1456.550000	347.764648	19.710941
29629.634574	-1456.550000	346.477539	235.126953
29629.634574	-1456.550000	345.191406	7.180315
29629.634574	-1456.550000	343.904297	-34.181789
29629.634574	-1456.550000	342.616211	101.549461
29629.634574	-1456.550000	341.329102	-6.386377
29629.634574	-1456.550000	340.041016	193.527405
29629.634574	-1456.550000	338.752930	190.292725
29629.634574	-1456.550000	337.463867	-162.348999
29629.634574	-1456.550000	336.175781	-88.958984
29629.634574	-1456.550000	334.886719	14.837277
29629.634574	-1456.550000	333.596680	24.521849
29629.634574	-1456.550000	332.307617	248.179153
29629.634574	-1456.550000	331.017578	153.712906
29629.634574	-1456.550000	329.727539	-3.665821
29629.634574	-1456.550000	328.436523	-49.843216
29629.634574	-1456.550000	327.146484	102.159264
29629.634574	-1456.550000	325.855469	-29.560024
29629.634574	-1456.550000	324.563477	223.192535
29629.634574	-1456.550000	323.272461	52.504078
29629.634574	-1456.550000	321.980469	14.517371
29629.634574	-1456.550000	320.688477	43.935207
29629.634574	-1456.550000	319.395508	-132.525558
29629.634574	-1456.550000	318.103516	-89.497208
29629.634574	-1456.550000	316.810547	-28.899454
29629.634574	-1456.550000	315.516602	-19.024389
29629.634574	-1456.550000	314.223633	-211.800385
29629.634574	-1456.550000	312.929688	-11.778543
29629.634574	-1456.550000	311.635742	-39.291264
29629.634574	-1456.550000	310.340820	21.918371
29629.634574	-1456.550000	309.045898	-26.546141
29629.634574	-1456.550000	307.750977	94.203308
29629.634574	-1456.550000	306.456055	179.579575
29629.634574	-1456.550000	305.160156	12.751262
29629.634574	-1456.550000	303.865234	138.864227
29629.634574	-1456.550000	302.568359	155.156998
29629.634574	-1456.550000	301.272461	368.170013
29629.634574	-1456.550000	299.975586	56.704212
29629.634574	-1456.550000	298.678711	173.925598
