#X		#Y		#Wave		#Intensity
19512.557713	16887.772333	2000.043945	-246.984116
19512.557713	16887.772333	1999.080078	-190.991776
19512.557713	16887.772333	1998.116211	10.602077
19512.557713	16887.772333	1997.151367	122.339760
19512.557713	16887.772333	1996.186523	-197.653015
19512.557713	16887.772333	1995.222656	160.657730
19512.557713	16887.772333	1994.256836	213.697617
19512.557713	16887.772333	1993.291992	-21.080885
19512.557713	16887.772333	1992.327148	-97.817970
19512.557713	16887.772333	1991.361328	-184.902344
19512.557713	16887.772333	1990.395508	111.191521
19512.557713	16887.772333	1989.429688	-179.739395
19512.557713	16887.772333	1988.463867	-290.398468
19512.557713	16887.772333	1987.497070	291.166260
19512.557713	16887.772333	1986.531250	-114.678131
19512.557713	16887.772333	1985.564453	-271.024231
19512.557713	16887.772333	1984.597656	-165.646362
19512.557713	16887.772333	1983.630859	174.137299
19512.557713	16887.772333	1982.664063	1.883284
19512.557713	16887.772333	1981.696289	115.973068
19512.557713	16887.772333	1980.728516	212.394470
19512.557713	16887.772333	1979.761719	-12.637053
19512.557713	16887.772333	1978.792969	214.032700
19512.557713	16887.772333	1977.825195	358.836578
19512.557713	16887.772333	1976.857422	251.513428
19512.557713	16887.772333	1975.888672	296.988068
19512.557713	16887.772333	1974.919922	68.276024
19512.557713	16887.772333	1973.951172	545.005554
19512.557713	16887.772333	1972.982422	397.242096
19512.557713	16887.772333	1972.013672	308.492401
19512.557713	16887.772333	1971.043945	130.795975
19512.557713	16887.772333	1970.075195	29.373669
19512.557713	16887.772333	1969.105469	184.141281
19512.557713	16887.772333	1968.135742	166.149445
19512.557713	16887.772333	1967.165039	184.955505
19512.557713	16887.772333	1966.195313	28.659838
19512.557713	16887.772333	1965.224609	133.351593
19512.557713	16887.772333	1964.253906	195.979660
19512.557713	16887.772333	1963.283203	39.314190
19512.557713	16887.772333	1962.312500	145.961044
19512.557713	16887.772333	1961.341797	161.369583
19512.557713	16887.772333	1960.370117	471.950073
19512.557713	16887.772333	1959.399414	169.678391
19512.557713	16887.772333	1958.427734	-152.258255
19512.557713	16887.772333	1957.455078	674.350037
19512.557713	16887.772333	1956.483398	344.862122
19512.557713	16887.772333	1955.511719	189.956451
19512.557713	16887.772333	1954.539063	209.553192
19512.557713	16887.772333	1953.566406	275.760529
19512.557713	16887.772333	1952.593750	263.244781
19512.557713	16887.772333	1951.621094	167.144699
19512.557713	16887.772333	1950.647461	304.363831
19512.557713	16887.772333	1949.674805	166.436462
19512.557713	16887.772333	1948.701172	-126.164711
19512.557713	16887.772333	1947.727539	138.538925
19512.557713	16887.772333	1946.753906	-28.853821
19512.557713	16887.772333	1945.780273	243.029144
19512.557713	16887.772333	1944.805664	38.824421
19512.557713	16887.772333	1943.831055	337.529633
19512.557713	16887.772333	1942.856445	300.110138
19512.557713	16887.772333	1941.881836	247.980331
19512.557713	16887.772333	1940.907227	-174.332291
19512.557713	16887.772333	1939.932617	109.434036
19512.557713	16887.772333	1938.957031	-484.245300
19512.557713	16887.772333	1937.981445	113.107033
19512.557713	16887.772333	1937.005859	-257.419586
19512.557713	16887.772333	1936.030273	13.924250
19512.557713	16887.772333	1935.054688	8.454266
19512.557713	16887.772333	1934.078125	-94.929031
19512.557713	16887.772333	1933.101563	-2.420953
19512.557713	16887.772333	1932.125000	-46.987473
19512.557713	16887.772333	1931.148438	65.092804
19512.557713	16887.772333	1930.171875	-199.615112
19512.557713	16887.772333	1929.194336	59.280945
19512.557713	16887.772333	1928.217773	-442.496307
19512.557713	16887.772333	1927.240234	131.838791
19512.557713	16887.772333	1926.262695	-59.210930
19512.557713	16887.772333	1925.284180	11.390882
19512.557713	16887.772333	1924.306641	377.706055
19512.557713	16887.772333	1923.328125	-167.456512
19512.557713	16887.772333	1922.350586	-35.687725
19512.557713	16887.772333	1921.372070	-13.831121
19512.557713	16887.772333	1920.392578	10.509292
19512.557713	16887.772333	1919.414063	3.136595
19512.557713	16887.772333	1918.434570	95.910316
19512.557713	16887.772333	1917.456055	-67.585609
19512.557713	16887.772333	1916.476563	479.137238
19512.557713	16887.772333	1915.497070	-40.462864
19512.557713	16887.772333	1914.516602	203.681000
19512.557713	16887.772333	1913.537109	-79.008156
19512.557713	16887.772333	1912.556641	16.415133
19512.557713	16887.772333	1911.576172	-83.181267
19512.557713	16887.772333	1910.595703	78.124893
19512.557713	16887.772333	1909.615234	158.997971
19512.557713	16887.772333	1908.633789	113.199951
19512.557713	16887.772333	1907.653320	174.652740
19512.557713	16887.772333	1906.671875	-182.787964
19512.557713	16887.772333	1905.690430	166.158997
19512.557713	16887.772333	1904.708984	-329.819000
19512.557713	16887.772333	1903.727539	238.219254
19512.557713	16887.772333	1902.745117	-23.831575
19512.557713	16887.772333	1901.762695	176.609924
19512.557713	16887.772333	1900.780273	53.449619
19512.557713	16887.772333	1899.797852	107.956558
19512.557713	16887.772333	1898.815430	-275.264313
19512.557713	16887.772333	1897.832031	85.767479
19512.557713	16887.772333	1896.849609	16.401655
19512.557713	16887.772333	1895.866211	-18.853392
19512.557713	16887.772333	1894.882813	-24.885792
19512.557713	16887.772333	1893.898438	51.753654
19512.557713	16887.772333	1892.915039	-119.382851
19512.557713	16887.772333	1891.930664	-110.673477
19512.557713	16887.772333	1890.947266	-75.214752
19512.557713	16887.772333	1889.962891	-192.677734
19512.557713	16887.772333	1888.977539	-11.469662
19512.557713	16887.772333	1887.993164	-424.910095
19512.557713	16887.772333	1887.007813	-51.947380
19512.557713	16887.772333	1886.023438	-6.616158
19512.557713	16887.772333	1885.038086	-31.599064
19512.557713	16887.772333	1884.051758	139.911270
19512.557713	16887.772333	1883.066406	-401.487366
19512.557713	16887.772333	1882.081055	-11.724844
19512.557713	16887.772333	1881.094727	133.124435
19512.557713	16887.772333	1880.108398	222.214005
19512.557713	16887.772333	1879.122070	-98.176414
19512.557713	16887.772333	1878.135742	-108.341331
19512.557713	16887.772333	1877.148438	307.808929
19512.557713	16887.772333	1876.162109	188.648819
19512.557713	16887.772333	1875.174805	69.570206
19512.557713	16887.772333	1874.187500	40.116848
19512.557713	16887.772333	1873.199219	49.429165
19512.557713	16887.772333	1872.211914	-205.005356
19512.557713	16887.772333	1871.223633	-285.130798
19512.557713	16887.772333	1870.236328	-430.530060
19512.557713	16887.772333	1869.248047	149.661331
19512.557713	16887.772333	1868.258789	-119.038857
19512.557713	16887.772333	1867.270508	245.739441
19512.557713	16887.772333	1866.282227	-37.371304
19512.557713	16887.772333	1865.292969	-288.945618
19512.557713	16887.772333	1864.303711	-78.947922
19512.557713	16887.772333	1863.314453	106.815201
19512.557713	16887.772333	1862.324219	-354.754303
19512.557713	16887.772333	1861.334961	-144.864594
19512.557713	16887.772333	1860.344727	253.266678
19512.557713	16887.772333	1859.354492	161.229752
19512.557713	16887.772333	1858.364258	-94.887505
19512.557713	16887.772333	1857.374023	276.440216
19512.557713	16887.772333	1856.383789	-35.113251
19512.557713	16887.772333	1855.392578	-139.126617
19512.557713	16887.772333	1854.401367	219.912231
19512.557713	16887.772333	1853.410156	-197.588577
19512.557713	16887.772333	1852.418945	62.447041
19512.557713	16887.772333	1851.426758	33.143440
19512.557713	16887.772333	1850.435547	184.550461
19512.557713	16887.772333	1849.443359	155.180527
19512.557713	16887.772333	1848.451172	236.604416
19512.557713	16887.772333	1847.458984	110.839622
19512.557713	16887.772333	1846.466797	182.544250
19512.557713	16887.772333	1845.473633	68.819000
19512.557713	16887.772333	1844.480469	159.695724
19512.557713	16887.772333	1843.487305	-31.073719
19512.557713	16887.772333	1842.494141	232.950027
19512.557713	16887.772333	1841.500977	184.089142
19512.557713	16887.772333	1840.506836	-95.692566
19512.557713	16887.772333	1839.513672	-238.352280
19512.557713	16887.772333	1838.519531	111.891151
19512.557713	16887.772333	1837.525391	19.632385
19512.557713	16887.772333	1836.530273	369.596741
19512.557713	16887.772333	1835.536133	262.800171
19512.557713	16887.772333	1834.541016	252.093704
19512.557713	16887.772333	1833.545898	279.763641
19512.557713	16887.772333	1832.550781	91.214302
19512.557713	16887.772333	1831.555664	322.877258
19512.557713	16887.772333	1830.560547	141.465454
19512.557713	16887.772333	1829.564453	-140.749298
19512.557713	16887.772333	1828.568359	429.004028
19512.557713	16887.772333	1827.572266	367.438385
19512.557713	16887.772333	1826.576172	224.258896
19512.557713	16887.772333	1825.580078	169.803513
19512.557713	16887.772333	1824.583008	19.375010
19512.557713	16887.772333	1823.585938	-51.954357
19512.557713	16887.772333	1822.588867	63.633881
19512.557713	16887.772333	1821.591797	502.641815
19512.557713	16887.772333	1820.594727	361.516815
19512.557713	16887.772333	1819.596680	-191.700333
19512.557713	16887.772333	1818.599609	-117.237190
19512.557713	16887.772333	1817.601563	352.262909
19512.557713	16887.772333	1816.603516	-47.674015
19512.557713	16887.772333	1815.604492	-253.636398
19512.557713	16887.772333	1814.606445	150.715424
19512.557713	16887.772333	1813.607422	313.128052
19512.557713	16887.772333	1812.608398	288.753021
19512.557713	16887.772333	1811.609375	348.014435
19512.557713	16887.772333	1810.610352	72.316933
19512.557713	16887.772333	1809.610352	461.380188
19512.557713	16887.772333	1808.611328	187.943634
19512.557713	16887.772333	1807.611328	715.264526
19512.557713	16887.772333	1806.611328	97.530190
19512.557713	16887.772333	1805.610352	125.065475
19512.557713	16887.772333	1804.610352	317.309967
19512.557713	16887.772333	1803.609375	246.637283
19512.557713	16887.772333	1802.608398	486.321320
19512.557713	16887.772333	1801.607422	241.114563
19512.557713	16887.772333	1800.606445	170.144531
19512.557713	16887.772333	1799.605469	440.378632
19512.557713	16887.772333	1798.603516	66.105858
19512.557713	16887.772333	1797.601563	440.991364
19512.557713	16887.772333	1796.599609	181.108109
19512.557713	16887.772333	1795.597656	18.978283
19512.557713	16887.772333	1794.595703	386.131897
19512.557713	16887.772333	1793.592773	195.166061
19512.557713	16887.772333	1792.589844	194.824814
19512.557713	16887.772333	1791.587891	437.426910
19512.557713	16887.772333	1790.583984	315.265411
19512.557713	16887.772333	1789.581055	-76.173691
19512.557713	16887.772333	1788.577148	101.644104
19512.557713	16887.772333	1787.574219	169.709824
19512.557713	16887.772333	1786.570313	399.518433
19512.557713	16887.772333	1785.566406	217.291580
19512.557713	16887.772333	1784.561523	27.859852
19512.557713	16887.772333	1783.557617	597.414673
19512.557713	16887.772333	1782.552734	43.707817
19512.557713	16887.772333	1781.547852	89.473373
19512.557713	16887.772333	1780.542969	4.280808
19512.557713	16887.772333	1779.538086	387.383240
19512.557713	16887.772333	1778.532227	85.551941
19512.557713	16887.772333	1777.527344	-83.211212
19512.557713	16887.772333	1776.521484	144.789413
19512.557713	16887.772333	1775.515625	177.738083
19512.557713	16887.772333	1774.508789	193.897842
19512.557713	16887.772333	1773.502930	464.025696
19512.557713	16887.772333	1772.496094	558.187378
19512.557713	16887.772333	1771.489258	310.294373
19512.557713	16887.772333	1770.482422	-37.345249
19512.557713	16887.772333	1769.475586	210.662567
19512.557713	16887.772333	1768.467773	363.513763
19512.557713	16887.772333	1767.460938	463.967224
19512.557713	16887.772333	1766.453125	258.262939
19512.557713	16887.772333	1765.445313	465.102478
19512.557713	16887.772333	1764.437500	477.294159
19512.557713	16887.772333	1763.428711	349.466919
19512.557713	16887.772333	1762.420898	181.244537
19512.557713	16887.772333	1761.412109	-36.825741
19512.557713	16887.772333	1760.403320	133.560165
19512.557713	16887.772333	1759.393555	-106.047371
19512.557713	16887.772333	1758.384766	225.011902
19512.557713	16887.772333	1757.375000	188.791977
19512.557713	16887.772333	1756.366211	-117.448578
19512.557713	16887.772333	1755.356445	-260.414124
19512.557713	16887.772333	1754.345703	-41.421581
19512.557713	16887.772333	1753.335938	-87.656685
19512.557713	16887.772333	1752.325195	29.187107
19512.557713	16887.772333	1751.315430	39.401264
19512.557713	16887.772333	1750.304688	23.444134
19512.557713	16887.772333	1749.292969	-103.782280
19512.557713	16887.772333	1748.282227	184.897293
19512.557713	16887.772333	1747.270508	29.014605
19512.557713	16887.772333	1746.259766	-96.246597
19512.557713	16887.772333	1745.248047	78.398827
19512.557713	16887.772333	1744.235352	236.286606
19512.557713	16887.772333	1743.223633	-45.273529
19512.557713	16887.772333	1742.211914	-60.088257
19512.557713	16887.772333	1741.199219	307.355499
19512.557713	16887.772333	1740.186523	89.193512
19512.557713	16887.772333	1739.173828	45.574635
19512.557713	16887.772333	1738.160156	214.144394
19512.557713	16887.772333	1737.147461	-115.199623
19512.557713	16887.772333	1736.133789	192.161285
19512.557713	16887.772333	1735.120117	133.785629
19512.557713	16887.772333	1734.106445	9.271638
19512.557713	16887.772333	1733.091797	-9.290441
19512.557713	16887.772333	1732.078125	-110.470161
19512.557713	16887.772333	1731.063477	-134.021240
19512.557713	16887.772333	1730.048828	-44.646004
19512.557713	16887.772333	1729.034180	6.863275
19512.557713	16887.772333	1728.019531	-379.773956
19512.557713	16887.772333	1727.003906	26.965504
19512.557713	16887.772333	1725.988281	-138.577042
19512.557713	16887.772333	1724.972656	-42.978905
19512.557713	16887.772333	1723.957031	-493.442413
19512.557713	16887.772333	1722.941406	-12.310431
19512.557713	16887.772333	1721.924805	-20.728338
19512.557713	16887.772333	1720.909180	-229.164642
19512.557713	16887.772333	1719.892578	-7.422710
19512.557713	16887.772333	1718.875977	-340.663971
19512.557713	16887.772333	1717.858398	-215.639633
19512.557713	16887.772333	1716.841797	-142.488968
19512.557713	16887.772333	1715.824219	-170.535797
19512.557713	16887.772333	1714.806641	-100.062012
19512.557713	16887.772333	1713.789063	-111.949341
19512.557713	16887.772333	1712.770508	190.648102
19512.557713	16887.772333	1711.752930	-173.692642
19512.557713	16887.772333	1710.734375	-45.155945
19512.557713	16887.772333	1709.715820	-13.015127
19512.557713	16887.772333	1708.697266	77.637268
19512.557713	16887.772333	1707.678711	67.251686
19512.557713	16887.772333	1706.659180	-4.244559
19512.557713	16887.772333	1705.640625	-14.874338
19512.557713	16887.772333	1704.621094	4.840673
19512.557713	16887.772333	1703.600586	-52.934502
19512.557713	16887.772333	1702.581055	-150.647736
19512.557713	16887.772333	1701.561523	-96.157005
19512.557713	16887.772333	1700.541016	-105.062874
19512.557713	16887.772333	1699.520508	-39.148930
19512.557713	16887.772333	1698.500000	485.586273
19512.557713	16887.772333	1697.478516	328.698090
19512.557713	16887.772333	1696.458008	59.404236
19512.557713	16887.772333	1695.436523	115.392105
19512.557713	16887.772333	1694.415039	37.867062
19512.557713	16887.772333	1693.393555	86.584557
19512.557713	16887.772333	1692.372070	226.389877
19512.557713	16887.772333	1691.349609	550.759766
19512.557713	16887.772333	1690.327148	468.072052
19512.557713	16887.772333	1689.304688	518.554810
19512.557713	16887.772333	1688.282227	468.408966
19512.557713	16887.772333	1687.259766	366.768890
19512.557713	16887.772333	1686.236328	1000.974304
19512.557713	16887.772333	1685.213867	520.663330
19512.557713	16887.772333	1684.190430	666.302551
19512.557713	16887.772333	1683.166016	344.795776
19512.557713	16887.772333	1682.142578	814.703613
19512.557713	16887.772333	1681.119141	619.142883
19512.557713	16887.772333	1680.094727	1065.281128
19512.557713	16887.772333	1679.070313	862.547852
19512.557713	16887.772333	1678.045898	1030.698975
19512.557713	16887.772333	1677.020508	655.276611
19512.557713	16887.772333	1675.996094	748.604065
19512.557713	16887.772333	1674.970703	417.506134
19512.557713	16887.772333	1673.945313	93.440315
19512.557713	16887.772333	1672.919922	804.119446
19512.557713	16887.772333	1671.893555	931.944824
19512.557713	16887.772333	1670.868164	819.713257
19512.557713	16887.772333	1669.841797	851.834656
19512.557713	16887.772333	1668.815430	606.767151
19512.557713	16887.772333	1667.789063	1069.485352
19512.557713	16887.772333	1666.761719	840.608887
19512.557713	16887.772333	1665.735352	823.544739
19512.557713	16887.772333	1664.708008	687.737549
19512.557713	16887.772333	1663.680664	826.430786
19512.557713	16887.772333	1662.653320	1034.786621
19512.557713	16887.772333	1661.625000	877.889465
19512.557713	16887.772333	1660.597656	1316.209351
19512.557713	16887.772333	1659.569336	1424.202148
19512.557713	16887.772333	1658.541016	734.920227
19512.557713	16887.772333	1657.512695	752.252441
19512.557713	16887.772333	1656.483398	1264.361084
19512.557713	16887.772333	1655.455078	1056.169922
19512.557713	16887.772333	1654.425781	936.251404
19512.557713	16887.772333	1653.396484	1018.338013
19512.557713	16887.772333	1652.366211	1026.053101
19512.557713	16887.772333	1651.336914	1298.324341
19512.557713	16887.772333	1650.306641	1428.888184
19512.557713	16887.772333	1649.276367	1487.442261
19512.557713	16887.772333	1648.246094	1450.832275
19512.557713	16887.772333	1647.215820	1282.013672
19512.557713	16887.772333	1646.185547	1792.613403
19512.557713	16887.772333	1645.154297	1352.481201
19512.557713	16887.772333	1644.123047	1844.263916
19512.557713	16887.772333	1643.091797	1740.264526
19512.557713	16887.772333	1642.060547	1541.285889
19512.557713	16887.772333	1641.028320	1374.783081
19512.557713	16887.772333	1639.997070	2086.122070
19512.557713	16887.772333	1638.964844	1528.210815
19512.557713	16887.772333	1637.931641	2026.196045
19512.557713	16887.772333	1636.899414	1875.873291
19512.557713	16887.772333	1635.867188	1957.025879
19512.557713	16887.772333	1634.833984	2179.269043
19512.557713	16887.772333	1633.800781	2234.859131
19512.557713	16887.772333	1632.767578	1876.419434
19512.557713	16887.772333	1631.734375	1892.733521
19512.557713	16887.772333	1630.700195	2063.932129
19512.557713	16887.772333	1629.666016	2332.158203
19512.557713	16887.772333	1628.631836	2387.664307
19512.557713	16887.772333	1627.597656	2265.233887
19512.557713	16887.772333	1626.563477	2614.146240
19512.557713	16887.772333	1625.528320	2452.469971
19512.557713	16887.772333	1624.493164	2094.578857
19512.557713	16887.772333	1623.458008	2399.486328
19512.557713	16887.772333	1622.422852	2630.425537
19512.557713	16887.772333	1621.387695	2226.609131
19512.557713	16887.772333	1620.351563	2058.329102
19512.557713	16887.772333	1619.315430	2192.364258
19512.557713	16887.772333	1618.279297	2517.826904
19512.557713	16887.772333	1617.243164	2259.730713
19512.557713	16887.772333	1616.207031	2280.765137
19512.557713	16887.772333	1615.169922	2407.851074
19512.557713	16887.772333	1614.132813	2846.080078
19512.557713	16887.772333	1613.095703	2823.305908
19512.557713	16887.772333	1612.058594	2466.511475
19512.557713	16887.772333	1611.020508	2883.855469
19512.557713	16887.772333	1609.983398	2918.792725
19512.557713	16887.772333	1608.945313	2967.572021
19512.557713	16887.772333	1607.907227	2961.128906
19512.557713	16887.772333	1606.868164	2917.907471
19512.557713	16887.772333	1605.830078	2651.545654
19512.557713	16887.772333	1604.791016	2576.304688
19512.557713	16887.772333	1603.751953	2724.279785
19512.557713	16887.772333	1602.712891	2842.363770
19512.557713	16887.772333	1601.673828	2873.090088
19512.557713	16887.772333	1600.633789	2949.836914
19512.557713	16887.772333	1599.594727	3376.010742
19512.557713	16887.772333	1598.554688	3080.479004
19512.557713	16887.772333	1597.513672	3099.904053
19512.557713	16887.772333	1596.473633	2947.114258
19512.557713	16887.772333	1595.433594	2851.882080
19512.557713	16887.772333	1594.392578	2873.871094
19512.557713	16887.772333	1593.351563	2611.242676
19512.557713	16887.772333	1592.310547	2931.834473
19512.557713	16887.772333	1591.268555	3004.525635
19512.557713	16887.772333	1590.227539	2953.381104
19512.557713	16887.772333	1589.185547	2842.691650
19512.557713	16887.772333	1588.143555	2773.422607
19512.557713	16887.772333	1587.100586	2692.800537
19512.557713	16887.772333	1586.058594	3584.425293
19512.557713	16887.772333	1585.015625	3568.056885
19512.557713	16887.772333	1583.972656	3563.253662
19512.557713	16887.772333	1582.929688	3340.877441
19512.557713	16887.772333	1581.886719	3492.113770
19512.557713	16887.772333	1580.843750	3615.909424
19512.557713	16887.772333	1579.799805	3325.266113
19512.557713	16887.772333	1578.755859	3735.456055
19512.557713	16887.772333	1577.711914	3914.395264
19512.557713	16887.772333	1576.666992	3967.499512
19512.557713	16887.772333	1575.623047	3666.029785
19512.557713	16887.772333	1574.578125	3733.123291
19512.557713	16887.772333	1573.533203	3683.661865
19512.557713	16887.772333	1572.488281	3753.256592
19512.557713	16887.772333	1571.443359	3004.409424
19512.557713	16887.772333	1570.397461	3072.071533
19512.557713	16887.772333	1569.351563	3263.256592
19512.557713	16887.772333	1568.305664	2912.931641
19512.557713	16887.772333	1567.259766	2519.473145
19512.557713	16887.772333	1566.213867	2580.851807
19512.557713	16887.772333	1565.166992	2439.089600
19512.557713	16887.772333	1564.120117	2377.434082
19512.557713	16887.772333	1563.073242	2436.937744
19512.557713	16887.772333	1562.026367	2471.454102
19512.557713	16887.772333	1560.978516	2241.388428
19512.557713	16887.772333	1559.930664	2223.737549
19512.557713	16887.772333	1558.883789	2564.376465
19512.557713	16887.772333	1557.834961	2437.495361
19512.557713	16887.772333	1556.787109	1770.431274
19512.557713	16887.772333	1555.739258	1872.038818
19512.557713	16887.772333	1554.690430	2115.071533
19512.557713	16887.772333	1553.641602	1808.974976
19512.557713	16887.772333	1552.592773	2211.727051
19512.557713	16887.772333	1551.542969	1988.050903
19512.557713	16887.772333	1550.494141	1885.337646
19512.557713	16887.772333	1549.444336	1657.590088
19512.557713	16887.772333	1548.394531	2040.217651
19512.557713	16887.772333	1547.344727	1633.045776
19512.557713	16887.772333	1546.293945	1624.446899
19512.557713	16887.772333	1545.244141	1982.337524
19512.557713	16887.772333	1544.193359	1871.652100
19512.557713	16887.772333	1543.142578	1347.255737
19512.557713	16887.772333	1542.090820	1491.759521
19512.557713	16887.772333	1541.040039	1602.289795
19512.557713	16887.772333	1539.988281	1733.406982
19512.557713	16887.772333	1538.936523	1664.670898
19512.557713	16887.772333	1537.884766	1471.180786
19512.557713	16887.772333	1536.833008	1789.066772
19512.557713	16887.772333	1535.780273	1834.471924
19512.557713	16887.772333	1534.727539	1814.189941
19512.557713	16887.772333	1533.674805	1389.995483
19512.557713	16887.772333	1532.622070	1286.206299
19512.557713	16887.772333	1531.569336	1618.374390
19512.557713	16887.772333	1530.515625	1367.483643
19512.557713	16887.772333	1529.461914	1255.263916
19512.557713	16887.772333	1528.408203	1349.677490
19512.557713	16887.772333	1527.354492	1226.557495
19512.557713	16887.772333	1526.299805	865.634705
19512.557713	16887.772333	1525.246094	1144.267944
19512.557713	16887.772333	1524.191406	1153.303955
19512.557713	16887.772333	1523.136719	553.038208
19512.557713	16887.772333	1522.081055	786.865723
19512.557713	16887.772333	1521.026367	1041.190918
19512.557713	16887.772333	1519.970703	844.990906
19512.557713	16887.772333	1518.915039	1190.177246
19512.557713	16887.772333	1517.859375	869.946350
19512.557713	16887.772333	1516.802734	1013.991150
19512.557713	16887.772333	1515.747070	497.491241
19512.557713	16887.772333	1514.690430	732.464722
19512.557713	16887.772333	1513.633789	802.450989
19512.557713	16887.772333	1512.577148	1098.755615
19512.557713	16887.772333	1511.519531	857.068665
19512.557713	16887.772333	1510.461914	719.674866
19512.557713	16887.772333	1509.405273	648.088745
19512.557713	16887.772333	1508.346680	649.063293
19512.557713	16887.772333	1507.289063	-54.586403
19512.557713	16887.772333	1506.231445	333.189301
19512.557713	16887.772333	1505.172852	100.034668
19512.557713	16887.772333	1504.114258	345.834747
19512.557713	16887.772333	1503.055664	115.469139
19512.557713	16887.772333	1501.996094	-35.585278
19512.557713	16887.772333	1500.937500	174.661514
19512.557713	16887.772333	1499.877930	213.607971
19512.557713	16887.772333	1498.818359	-112.631546
19512.557713	16887.772333	1497.757813	325.959625
19512.557713	16887.772333	1496.698242	331.713470
19512.557713	16887.772333	1495.637695	258.799622
19512.557713	16887.772333	1494.577148	71.210396
19512.557713	16887.772333	1493.516602	-84.530251
19512.557713	16887.772333	1492.456055	104.703209
19512.557713	16887.772333	1491.394531	-514.505005
19512.557713	16887.772333	1490.333008	-36.546345
19512.557713	16887.772333	1489.271484	-6.584391
19512.557713	16887.772333	1488.209961	91.127365
19512.557713	16887.772333	1487.148438	-110.293480
19512.557713	16887.772333	1486.085938	30.628874
19512.557713	16887.772333	1485.023438	3.001824
19512.557713	16887.772333	1483.960938	130.821808
19512.557713	16887.772333	1482.898438	-132.461655
19512.557713	16887.772333	1481.834961	29.538200
19512.557713	16887.772333	1480.772461	187.216919
19512.557713	16887.772333	1479.708984	-439.261505
19512.557713	16887.772333	1478.644531	186.252243
19512.557713	16887.772333	1477.581055	-345.113281
19512.557713	16887.772333	1476.517578	201.939163
19512.557713	16887.772333	1475.453125	266.363892
19512.557713	16887.772333	1474.388672	-23.714571
19512.557713	16887.772333	1473.323242	373.346008
19512.557713	16887.772333	1472.258789	263.199249
19512.557713	16887.772333	1471.193359	438.492920
19512.557713	16887.772333	1470.127930	261.897461
19512.557713	16887.772333	1469.062500	327.619934
19512.557713	16887.772333	1467.997070	563.679871
19512.557713	16887.772333	1466.930664	493.181671
19512.557713	16887.772333	1465.865234	722.858154
19512.557713	16887.772333	1464.798828	480.465027
19512.557713	16887.772333	1463.731445	486.862335
19512.557713	16887.772333	1462.665039	914.308838
19512.557713	16887.772333	1461.597656	742.569397
19512.557713	16887.772333	1460.530273	863.804504
19512.557713	16887.772333	1459.462891	924.709229
19512.557713	16887.772333	1458.395508	720.134949
19512.557713	16887.772333	1457.327148	882.297241
19512.557713	16887.772333	1456.259766	1014.577087
19512.557713	16887.772333	1455.191406	992.609070
19512.557713	16887.772333	1454.123047	988.391968
19512.557713	16887.772333	1453.053711	890.208496
19512.557713	16887.772333	1451.985352	1126.008301
19512.557713	16887.772333	1450.916016	1135.892212
19512.557713	16887.772333	1449.846680	1123.866089
19512.557713	16887.772333	1448.776367	1343.264160
19512.557713	16887.772333	1447.707031	1084.319336
19512.557713	16887.772333	1446.636719	1172.544312
19512.557713	16887.772333	1445.566406	1302.889282
19512.557713	16887.772333	1444.496094	1073.092041
19512.557713	16887.772333	1443.425781	774.671570
19512.557713	16887.772333	1442.354492	896.041443
19512.557713	16887.772333	1441.283203	827.346191
19512.557713	16887.772333	1440.211914	898.608582
19512.557713	16887.772333	1439.140625	529.960876
19512.557713	16887.772333	1438.069336	534.640808
19512.557713	16887.772333	1436.997070	867.156677
19512.557713	16887.772333	1435.924805	743.675110
19512.557713	16887.772333	1434.852539	301.199371
19512.557713	16887.772333	1433.780273	435.279633
19512.557713	16887.772333	1432.707031	255.049866
19512.557713	16887.772333	1431.633789	281.593842
19512.557713	16887.772333	1430.560547	200.801437
19512.557713	16887.772333	1429.487305	405.847687
19512.557713	16887.772333	1428.413086	267.019745
19512.557713	16887.772333	1427.339844	-22.063484
19512.557713	16887.772333	1426.265625	-209.584595
19512.557713	16887.772333	1425.191406	304.116913
19512.557713	16887.772333	1424.116211	93.832794
19512.557713	16887.772333	1423.041992	218.852142
19512.557713	16887.772333	1421.966797	170.212677
19512.557713	16887.772333	1420.891602	333.187256
19512.557713	16887.772333	1419.816406	2.665599
19512.557713	16887.772333	1418.740234	427.780243
19512.557713	16887.772333	1417.665039	-50.963100
19512.557713	16887.772333	1416.588867	-234.309952
19512.557713	16887.772333	1415.512695	115.761459
19512.557713	16887.772333	1414.435547	67.802376
19512.557713	16887.772333	1413.359375	33.144951
19512.557713	16887.772333	1412.282227	158.381134
19512.557713	16887.772333	1411.205078	69.383377
19512.557713	16887.772333	1410.127930	-167.763458
19512.557713	16887.772333	1409.049805	-50.370518
19512.557713	16887.772333	1407.972656	37.646210
19512.557713	16887.772333	1406.894531	438.095367
19512.557713	16887.772333	1405.816406	387.778076
19512.557713	16887.772333	1404.737305	268.141632
19512.557713	16887.772333	1403.659180	413.858368
19512.557713	16887.772333	1402.580078	549.464905
19512.557713	16887.772333	1401.500977	408.796692
19512.557713	16887.772333	1400.421875	499.993073
19512.557713	16887.772333	1399.341797	549.596008
19512.557713	16887.772333	1398.262695	820.518066
19512.557713	16887.772333	1397.182617	319.844543
19512.557713	16887.772333	1396.102539	625.569946
19512.557713	16887.772333	1395.021484	467.467438
19512.557713	16887.772333	1393.941406	391.873718
19512.557713	16887.772333	1392.860352	676.473206
19512.557713	16887.772333	1391.779297	539.818176
19512.557713	16887.772333	1390.698242	454.087067
19512.557713	16887.772333	1389.616211	797.174805
19512.557713	16887.772333	1388.535156	719.701477
19512.557713	16887.772333	1387.453125	774.403931
19512.557713	16887.772333	1386.371094	1206.786621
19512.557713	16887.772333	1385.288086	573.569519
19512.557713	16887.772333	1384.206055	550.476624
19512.557713	16887.772333	1383.123047	584.543030
19512.557713	16887.772333	1382.040039	908.596741
19512.557713	16887.772333	1380.957031	583.433044
19512.557713	16887.772333	1379.873047	544.526550
19512.557713	16887.772333	1378.789063	1039.450806
19512.557713	16887.772333	1377.705078	549.227722
19512.557713	16887.772333	1376.621094	996.054932
19512.557713	16887.772333	1375.537109	842.786377
19512.557713	16887.772333	1374.452148	941.643372
19512.557713	16887.772333	1373.367188	813.112671
19512.557713	16887.772333	1372.282227	624.860657
19512.557713	16887.772333	1371.197266	502.788086
19512.557713	16887.772333	1370.112305	781.291748
19512.557713	16887.772333	1369.026367	777.105408
19512.557713	16887.772333	1367.940430	701.441589
19512.557713	16887.772333	1366.854492	1067.931396
19512.557713	16887.772333	1365.767578	644.187927
19512.557713	16887.772333	1364.681641	623.257568
19512.557713	16887.772333	1363.594727	405.012756
19512.557713	16887.772333	1362.507813	849.880005
19512.557713	16887.772333	1361.419922	793.890808
19512.557713	16887.772333	1360.333008	843.180420
19512.557713	16887.772333	1359.245117	922.227600
19512.557713	16887.772333	1358.157227	1056.848999
19512.557713	16887.772333	1357.069336	841.042969
19512.557713	16887.772333	1355.981445	739.905334
19512.557713	16887.772333	1354.892578	1027.769165
19512.557713	16887.772333	1353.803711	735.805908
19512.557713	16887.772333	1352.714844	961.705261
19512.557713	16887.772333	1351.625000	971.370911
19512.557713	16887.772333	1350.536133	842.923828
19512.557713	16887.772333	1349.446289	1075.048340
19512.557713	16887.772333	1348.356445	983.708130
19512.557713	16887.772333	1347.266602	1367.971802
19512.557713	16887.772333	1346.175781	972.872498
19512.557713	16887.772333	1345.085938	1120.565063
19512.557713	16887.772333	1343.995117	1063.793579
19512.557713	16887.772333	1342.903320	1258.185425
19512.557713	16887.772333	1341.812500	1050.191650
19512.557713	16887.772333	1340.720703	1232.678101
19512.557713	16887.772333	1339.629883	889.384399
19512.557713	16887.772333	1338.538086	1206.836792
19512.557713	16887.772333	1337.445313	874.186279
19512.557713	16887.772333	1336.353516	949.222534
19512.557713	16887.772333	1335.260742	1121.093628
19512.557713	16887.772333	1334.167969	1268.695313
19512.557713	16887.772333	1333.075195	1029.127441
19512.557713	16887.772333	1331.981445	1193.084595
19512.557713	16887.772333	1330.888672	1213.750000
19512.557713	16887.772333	1329.794922	1039.846924
19512.557713	16887.772333	1328.701172	981.489502
19512.557713	16887.772333	1327.606445	1020.786621
19512.557713	16887.772333	1326.512695	736.671021
19512.557713	16887.772333	1325.417969	725.807922
19512.557713	16887.772333	1324.323242	912.908752
19512.557713	16887.772333	1323.227539	855.336731
19512.557713	16887.772333	1322.132813	884.848022
19512.557713	16887.772333	1321.037109	735.592896
19512.557713	16887.772333	1319.941406	694.637878
19512.557713	16887.772333	1318.845703	812.527954
19512.557713	16887.772333	1317.750000	818.456482
19512.557713	16887.772333	1316.653320	1063.498047
19512.557713	16887.772333	1315.556641	1115.933716
19512.557713	16887.772333	1314.459961	743.355225
19512.557713	16887.772333	1313.363281	813.893616
19512.557713	16887.772333	1312.265625	779.311157
19512.557713	16887.772333	1311.167969	546.587769
19512.557713	16887.772333	1310.070313	537.791931
19512.557713	16887.772333	1308.972656	743.933411
19512.557713	16887.772333	1307.874023	498.098907
19512.557713	16887.772333	1306.776367	365.558411
19512.557713	16887.772333	1305.677734	469.327301
19512.557713	16887.772333	1304.579102	450.252411
19512.557713	16887.772333	1303.479492	699.045715
19512.557713	16887.772333	1302.380859	551.691589
19512.557713	16887.772333	1301.281250	418.440155
19512.557713	16887.772333	1300.181641	529.106873
19512.557713	16887.772333	1299.081055	432.845245
19512.557713	16887.772333	1297.981445	538.135376
19512.557713	16887.772333	1296.880859	347.645782
19512.557713	16887.772333	1295.780273	519.367432
19512.557713	16887.772333	1294.679688	173.794571
19512.557713	16887.772333	1293.578125	461.776215
19512.557713	16887.772333	1292.476563	877.455627
19512.557713	16887.772333	1291.375000	609.018433
19512.557713	16887.772333	1290.273438	833.845459
19512.557713	16887.772333	1289.171875	562.680969
19512.557713	16887.772333	1288.069336	395.030396
19512.557713	16887.772333	1286.966797	278.154053
19512.557713	16887.772333	1285.864258	574.499268
19512.557713	16887.772333	1284.761719	173.548538
19512.557713	16887.772333	1283.658203	191.405121
19512.557713	16887.772333	1282.554688	516.462036
19512.557713	16887.772333	1281.451172	197.998596
19512.557713	16887.772333	1280.347656	222.817673
19512.557713	16887.772333	1279.244141	196.921310
19512.557713	16887.772333	1278.139648	350.537872
19512.557713	16887.772333	1277.035156	401.642303
19512.557713	16887.772333	1275.930664	216.697617
19512.557713	16887.772333	1274.825195	258.600189
19512.557713	16887.772333	1273.720703	139.508804
19512.557713	16887.772333	1272.615234	201.401627
19512.557713	16887.772333	1271.508789	143.190948
19512.557713	16887.772333	1270.403320	206.746429
19512.557713	16887.772333	1269.297852	140.206711
19512.557713	16887.772333	1268.191406	176.393951
19512.557713	16887.772333	1267.084961	84.763641
19512.557713	16887.772333	1265.977539	19.493425
19512.557713	16887.772333	1264.871094	105.816353
19512.557713	16887.772333	1263.763672	18.116913
19512.557713	16887.772333	1262.656250	77.553719
19512.557713	16887.772333	1261.548828	199.949234
19512.557713	16887.772333	1260.440430	146.867813
19512.557713	16887.772333	1259.333008	-180.390900
19512.557713	16887.772333	1258.224609	-144.981613
19512.557713	16887.772333	1257.115234	120.781433
19512.557713	16887.772333	1256.006836	58.397160
19512.557713	16887.772333	1254.897461	-46.847763
19512.557713	16887.772333	1253.788086	86.846085
19512.557713	16887.772333	1252.678711	302.766083
19512.557713	16887.772333	1251.569336	424.523834
19512.557713	16887.772333	1250.458984	124.714874
19512.557713	16887.772333	1249.349609	7.311104
19512.557713	16887.772333	1248.239258	151.290375
19512.557713	16887.772333	1247.127930	163.459534
19512.557713	16887.772333	1246.017578	271.982147
19512.557713	16887.772333	1244.906250	129.058563
19512.557713	16887.772333	1243.794922	-175.480240
19512.557713	16887.772333	1242.683594	53.496967
19512.557713	16887.772333	1241.571289	-63.676228
19512.557713	16887.772333	1240.459961	38.851658
19512.557713	16887.772333	1239.347656	222.546249
19512.557713	16887.772333	1238.234375	-29.074587
19512.557713	16887.772333	1237.122070	-86.038010
19512.557713	16887.772333	1236.008789	145.570618
19512.557713	16887.772333	1234.896484	46.798553
19512.557713	16887.772333	1233.782227	-62.120487
19512.557713	16887.772333	1232.668945	-418.891937
19512.557713	16887.772333	1231.555664	-8.580825
19512.557713	16887.772333	1230.441406	-178.541367
19512.557713	16887.772333	1229.327148	-29.535637
19512.557713	16887.772333	1228.211914	-23.749985
19512.557713	16887.772333	1227.097656	-96.562126
19512.557713	16887.772333	1225.982422	56.980827
19512.557713	16887.772333	1224.867188	-66.554779
19512.557713	16887.772333	1223.751953	-24.889086
19512.557713	16887.772333	1222.635742	75.381157
19512.557713	16887.772333	1221.520508	-269.410156
19512.557713	16887.772333	1220.404297	-203.119293
19512.557713	16887.772333	1219.287109	-57.759487
19512.557713	16887.772333	1218.170898	-156.484695
19512.557713	16887.772333	1217.053711	-272.698395
19512.557713	16887.772333	1215.936523	-280.382477
19512.557713	16887.772333	1214.819336	-176.143677
19512.557713	16887.772333	1213.702148	-88.178566
19512.557713	16887.772333	1212.583984	-227.576569
19512.557713	16887.772333	1211.465820	-357.166901
19512.557713	16887.772333	1210.347656	42.051167
19512.557713	16887.772333	1209.229492	-365.376678
19512.557713	16887.772333	1208.110352	13.813413
19512.557713	16887.772333	1206.992188	-353.466522
19512.557713	16887.772333	1205.873047	-292.218903
19512.557713	16887.772333	1204.752930	-295.042786
19512.557713	16887.772333	1203.633789	-247.972824
19512.557713	16887.772333	1202.513672	53.878716
19512.557713	16887.772333	1201.393555	-33.851707
19512.557713	16887.772333	1200.273438	-107.897598
19512.557713	16887.772333	1199.152344	-145.235855
19512.557713	16887.772333	1198.032227	-202.906189
19512.557713	16887.772333	1196.911133	-167.230515
19512.557713	16887.772333	1195.790039	-146.896118
19512.557713	16887.772333	1194.667969	-1.661472
19512.557713	16887.772333	1193.545898	-218.557388
19512.557713	16887.772333	1192.424805	-51.051834
19512.557713	16887.772333	1191.301758	-26.863930
19512.557713	16887.772333	1190.179688	-81.833099
19512.557713	16887.772333	1189.056641	-127.311699
19512.557713	16887.772333	1187.933594	-170.150360
19512.557713	16887.772333	1186.810547	-258.951538
19512.557713	16887.772333	1185.687500	132.690155
19512.557713	16887.772333	1184.563477	-18.126987
19512.557713	16887.772333	1183.440430	26.452461
19512.557713	16887.772333	1182.316406	-62.586990
19512.557713	16887.772333	1181.191406	99.419579
19512.557713	16887.772333	1180.067383	-28.246000
19512.557713	16887.772333	1178.942383	14.644393
19512.557713	16887.772333	1177.817383	33.036053
19512.557713	16887.772333	1176.692383	177.672363
19512.557713	16887.772333	1175.566406	146.379517
19512.557713	16887.772333	1174.440430	-49.267979
19512.557713	16887.772333	1173.314453	327.008514
19512.557713	16887.772333	1172.188477	308.233673
19512.557713	16887.772333	1171.062500	204.801392
19512.557713	16887.772333	1169.935547	128.869431
19512.557713	16887.772333	1168.808594	238.602768
19512.557713	16887.772333	1167.681641	139.192200
19512.557713	16887.772333	1166.553711	186.933914
19512.557713	16887.772333	1165.426758	66.116493
19512.557713	16887.772333	1164.298828	62.866016
19512.557713	16887.772333	1163.170898	17.404703
19512.557713	16887.772333	1162.041992	-127.799759
19512.557713	16887.772333	1160.914063	55.077312
19512.557713	16887.772333	1159.785156	137.579163
19512.557713	16887.772333	1158.656250	-151.202347
19512.557713	16887.772333	1157.526367	158.112228
19512.557713	16887.772333	1156.397461	-16.214033
19512.557713	16887.772333	1155.267578	-280.728485
19512.557713	16887.772333	1154.137695	-341.520447
19512.557713	16887.772333	1153.006836	-95.089752
19512.557713	16887.772333	1151.876953	-134.787567
19512.557713	16887.772333	1150.746094	267.193359
19512.557713	16887.772333	1149.615234	-86.208405
19512.557713	16887.772333	1148.484375	100.491203
19512.557713	16887.772333	1147.352539	-257.735474
19512.557713	16887.772333	1146.220703	-158.373352
19512.557713	16887.772333	1145.088867	-183.520309
19512.557713	16887.772333	1143.957031	-370.657104
19512.557713	16887.772333	1142.825195	17.081299
19512.557713	16887.772333	1141.692383	-311.399689
19512.557713	16887.772333	1140.559570	-244.363571
19512.557713	16887.772333	1139.426758	-130.587891
19512.557713	16887.772333	1138.292969	-10.558113
19512.557713	16887.772333	1137.159180	90.107162
19512.557713	16887.772333	1136.025391	143.411697
19512.557713	16887.772333	1134.891602	-147.763763
19512.557713	16887.772333	1133.757813	-227.370514
19512.557713	16887.772333	1132.623047	-149.994095
19512.557713	16887.772333	1131.488281	-129.563019
19512.557713	16887.772333	1130.353516	38.711704
19512.557713	16887.772333	1129.217773	-133.872955
19512.557713	16887.772333	1128.083008	43.489269
19512.557713	16887.772333	1126.947266	137.542618
19512.557713	16887.772333	1125.811523	173.564331
19512.557713	16887.772333	1124.674805	82.323616
19512.557713	16887.772333	1123.539063	55.897251
19512.557713	16887.772333	1122.402344	285.065735
19512.557713	16887.772333	1121.265625	228.243576
19512.557713	16887.772333	1120.127930	141.984711
19512.557713	16887.772333	1118.990234	192.465591
19512.557713	16887.772333	1117.853516	65.611198
19512.557713	16887.772333	1116.714844	-24.839214
19512.557713	16887.772333	1115.577148	-83.558228
19512.557713	16887.772333	1114.439453	-67.072090
19512.557713	16887.772333	1113.300781	150.342514
19512.557713	16887.772333	1112.162109	-5.195801
19512.557713	16887.772333	1111.022461	288.235321
19512.557713	16887.772333	1109.883789	377.668640
19512.557713	16887.772333	1108.744141	57.220074
19512.557713	16887.772333	1107.604492	202.137634
19512.557713	16887.772333	1106.463867	207.153809
19512.557713	16887.772333	1105.324219	40.597309
19512.557713	16887.772333	1104.183594	198.171021
19512.557713	16887.772333	1103.042969	-14.753453
19512.557713	16887.772333	1101.902344	216.695313
19512.557713	16887.772333	1100.760742	223.616486
19512.557713	16887.772333	1099.619141	74.694565
19512.557713	16887.772333	1098.477539	342.492401
19512.557713	16887.772333	1097.335938	311.061157
19512.557713	16887.772333	1096.193359	563.782837
19512.557713	16887.772333	1095.051758	340.406219
19512.557713	16887.772333	1093.909180	342.382324
19512.557713	16887.772333	1092.765625	447.494476
19512.557713	16887.772333	1091.623047	581.535156
19512.557713	16887.772333	1090.479492	355.862885
19512.557713	16887.772333	1089.335938	352.774689
19512.557713	16887.772333	1088.192383	336.120605
19512.557713	16887.772333	1087.047852	407.432220
19512.557713	16887.772333	1085.903320	548.458069
19512.557713	16887.772333	1084.758789	435.179108
19512.557713	16887.772333	1083.614258	292.543091
19512.557713	16887.772333	1082.469727	412.087738
19512.557713	16887.772333	1081.324219	134.959366
19512.557713	16887.772333	1080.178711	72.516441
19512.557713	16887.772333	1079.033203	228.822037
19512.557713	16887.772333	1077.886719	171.410904
19512.557713	16887.772333	1076.740234	403.600830
19512.557713	16887.772333	1075.593750	564.658020
19512.557713	16887.772333	1074.447266	226.462067
19512.557713	16887.772333	1073.300781	210.640472
19512.557713	16887.772333	1072.153320	480.350647
19512.557713	16887.772333	1071.005859	222.877686
19512.557713	16887.772333	1069.858398	279.966431
19512.557713	16887.772333	1068.709961	346.098145
19512.557713	16887.772333	1067.561523	351.665741
19512.557713	16887.772333	1066.413086	296.347656
19512.557713	16887.772333	1065.264648	457.923889
19512.557713	16887.772333	1064.116211	412.227142
19512.557713	16887.772333	1062.966797	164.519547
19512.557713	16887.772333	1061.817383	185.794159
19512.557713	16887.772333	1060.667969	555.114197
19512.557713	16887.772333	1059.517578	372.471985
19512.557713	16887.772333	1058.368164	337.427979
19512.557713	16887.772333	1057.217773	354.471863
19512.557713	16887.772333	1056.067383	103.901924
19512.557713	16887.772333	1054.916016	140.655426
19512.557713	16887.772333	1053.764648	218.556213
19512.557713	16887.772333	1052.613281	634.734009
19512.557713	16887.772333	1051.461914	147.630951
19512.557713	16887.772333	1050.310547	313.697113
19512.557713	16887.772333	1049.158203	425.761963
19512.557713	16887.772333	1048.005859	214.573624
19512.557713	16887.772333	1046.853516	176.341934
19512.557713	16887.772333	1045.700195	211.525009
19512.557713	16887.772333	1044.547852	250.796906
19512.557713	16887.772333	1043.394531	420.555389
19512.557713	16887.772333	1042.240234	190.021729
19512.557713	16887.772333	1041.086914	293.841248
19512.557713	16887.772333	1039.932617	413.141663
19512.557713	16887.772333	1038.778320	625.552734
19512.557713	16887.772333	1037.624023	523.184753
19512.557713	16887.772333	1036.469727	635.727966
19512.557713	16887.772333	1035.314453	797.637939
19512.557713	16887.772333	1034.159180	1157.460693
19512.557713	16887.772333	1033.003906	1312.749878
19512.557713	16887.772333	1031.847656	1519.896362
19512.557713	16887.772333	1030.692383	1291.017578
19512.557713	16887.772333	1029.536133	1342.243774
19512.557713	16887.772333	1028.378906	1429.378418
19512.557713	16887.772333	1027.222656	1119.511963
19512.557713	16887.772333	1026.065430	657.137573
19512.557713	16887.772333	1024.908203	723.511047
19512.557713	16887.772333	1023.750977	524.500427
19512.557713	16887.772333	1022.593750	461.700409
19512.557713	16887.772333	1021.435547	438.212067
19512.557713	16887.772333	1020.277344	408.387177
19512.557713	16887.772333	1019.119141	333.379028
19512.557713	16887.772333	1017.959961	136.722031
19512.557713	16887.772333	1016.800781	177.639313
19512.557713	16887.772333	1015.641602	461.565399
19512.557713	16887.772333	1014.482422	457.217987
19512.557713	16887.772333	1013.323242	464.162445
19512.557713	16887.772333	1012.163086	135.616516
19512.557713	16887.772333	1011.002930	250.178635
19512.557713	16887.772333	1009.842773	152.046997
19512.557713	16887.772333	1008.681641	-142.900726
19512.557713	16887.772333	1007.520508	329.781769
19512.557713	16887.772333	1006.359375	266.698914
19512.557713	16887.772333	1005.198242	365.423920
19512.557713	16887.772333	1004.037109	398.985016
19512.557713	16887.772333	1002.875000	329.398224
19512.557713	16887.772333	1001.712891	298.690308
19512.557713	16887.772333	1000.550781	211.610138
19512.557713	16887.772333	999.387695	140.214645
19512.557713	16887.772333	998.224609	314.489655
19512.557713	16887.772333	997.061523	46.670452
19512.557713	16887.772333	995.898438	77.289177
19512.557713	16887.772333	994.734375	45.382957
19512.557713	16887.772333	993.571289	166.624329
19512.557713	16887.772333	992.407227	100.549469
19512.557713	16887.772333	991.242188	155.528244
19512.557713	16887.772333	990.078125	372.004974
19512.557713	16887.772333	988.913086	-311.345795
19512.557713	16887.772333	987.748047	170.585266
19512.557713	16887.772333	986.583008	-22.134565
19512.557713	16887.772333	985.416992	6.029438
19512.557713	16887.772333	984.250977	279.760986
19512.557713	16887.772333	983.084961	10.967155
19512.557713	16887.772333	981.918945	-85.071877
19512.557713	16887.772333	980.751953	-17.641903
19512.557713	16887.772333	979.584961	-29.555159
19512.557713	16887.772333	978.417969	-21.224867
19512.557713	16887.772333	977.250977	-105.101372
19512.557713	16887.772333	976.083008	-145.175751
19512.557713	16887.772333	974.915039	58.759472
19512.557713	16887.772333	973.747070	-86.894516
19512.557713	16887.772333	972.579102	-87.939644
19512.557713	16887.772333	971.410156	16.869152
19512.557713	16887.772333	970.242188	-275.682495
19512.557713	16887.772333	969.072266	17.090073
19512.557713	16887.772333	967.903320	215.089691
19512.557713	16887.772333	966.733398	-76.151573
19512.557713	16887.772333	965.563477	-27.922070
19512.557713	16887.772333	964.393555	-69.541367
19512.557713	16887.772333	963.223633	-106.647400
19512.557713	16887.772333	962.052734	-115.559921
19512.557713	16887.772333	960.881836	292.792175
19512.557713	16887.772333	959.710938	-41.383320
19512.557713	16887.772333	958.540039	302.451355
19512.557713	16887.772333	957.368164	-133.072525
19512.557713	16887.772333	956.196289	146.167038
19512.557713	16887.772333	955.024414	98.735153
19512.557713	16887.772333	953.851563	145.497345
19512.557713	16887.772333	952.679688	-349.755920
19512.557713	16887.772333	951.506836	-121.081482
19512.557713	16887.772333	950.333984	-333.423615
19512.557713	16887.772333	949.160156	-225.790024
19512.557713	16887.772333	947.986328	149.246124
19512.557713	16887.772333	946.812500	205.995972
19512.557713	16887.772333	945.638672	-193.684418
19512.557713	16887.772333	944.464844	-100.757370
19512.557713	16887.772333	943.290039	117.905922
19512.557713	16887.772333	942.115234	-59.546902
19512.557713	16887.772333	940.940430	-81.314522
19512.557713	16887.772333	939.764648	-56.510433
19512.557713	16887.772333	938.588867	268.452484
19512.557713	16887.772333	937.413086	341.887268
19512.557713	16887.772333	936.237305	97.893990
19512.557713	16887.772333	935.060547	114.593376
19512.557713	16887.772333	933.883789	346.342163
19512.557713	16887.772333	932.707031	12.031388
19512.557713	16887.772333	931.530273	-37.086525
19512.557713	16887.772333	930.352539	101.566025
19512.557713	16887.772333	929.175781	29.174883
19512.557713	16887.772333	927.998047	248.033478
19512.557713	16887.772333	926.819336	108.069862
19512.557713	16887.772333	925.641602	-145.869888
19512.557713	16887.772333	924.462891	-171.847977
19512.557713	16887.772333	923.284180	86.920151
19512.557713	16887.772333	922.104492	356.134888
19512.557713	16887.772333	920.924805	110.737038
19512.557713	16887.772333	919.746094	125.901848
19512.557713	16887.772333	919.551758	146.185257
19512.557713	16887.772333	918.386719	-141.447159
19512.557713	16887.772333	917.220703	-41.232876
19512.557713	16887.772333	916.054688	-162.295517
19512.557713	16887.772333	914.887695	-108.481773
19512.557713	16887.772333	913.721680	-77.886703
19512.557713	16887.772333	912.554688	22.171064
19512.557713	16887.772333	911.387695	-147.285614
19512.557713	16887.772333	910.220703	76.889931
19512.557713	16887.772333	909.052734	-2.049554
19512.557713	16887.772333	907.885742	-59.949017
19512.557713	16887.772333	906.717773	54.651958
19512.557713	16887.772333	905.548828	137.655762
19512.557713	16887.772333	904.380859	151.211655
19512.557713	16887.772333	903.211914	38.627537
19512.557713	16887.772333	902.042969	31.156776
19512.557713	16887.772333	900.874023	-24.657612
19512.557713	16887.772333	899.704102	190.556015
19512.557713	16887.772333	898.535156	239.718491
19512.557713	16887.772333	897.365234	274.157013
19512.557713	16887.772333	896.194336	54.527760
19512.557713	16887.772333	895.024414	-49.590168
19512.557713	16887.772333	893.853516	-44.537704
19512.557713	16887.772333	892.682617	-316.477478
19512.557713	16887.772333	891.511719	-47.077549
19512.557713	16887.772333	890.340820	-98.711037
19512.557713	16887.772333	889.168945	134.860565
19512.557713	16887.772333	887.997070	-71.958939
19512.557713	16887.772333	886.825195	125.842018
19512.557713	16887.772333	885.653320	292.107025
19512.557713	16887.772333	884.480469	7.812775
19512.557713	16887.772333	883.307617	-167.451416
19512.557713	16887.772333	882.134766	-36.877144
19512.557713	16887.772333	880.961914	-195.347443
19512.557713	16887.772333	879.788086	-230.241257
19512.557713	16887.772333	878.614258	302.105011
19512.557713	16887.772333	877.440430	-164.015961
19512.557713	16887.772333	876.266602	-83.877892
19512.557713	16887.772333	875.091797	100.812027
19512.557713	16887.772333	873.916992	-88.960350
19512.557713	16887.772333	872.742188	-25.666067
19512.557713	16887.772333	871.567383	-75.309364
19512.557713	16887.772333	870.391602	-112.404236
19512.557713	16887.772333	869.215820	82.455116
19512.557713	16887.772333	868.040039	126.781967
19512.557713	16887.772333	866.864258	-121.375252
19512.557713	16887.772333	865.687500	-168.950607
19512.557713	16887.772333	864.510742	-187.300003
19512.557713	16887.772333	863.333984	-78.322327
19512.557713	16887.772333	862.157227	28.495630
19512.557713	16887.772333	860.979492	81.002853
19512.557713	16887.772333	859.802734	-114.818466
19512.557713	16887.772333	858.625000	-3.953527
19512.557713	16887.772333	857.446289	-101.691994
19512.557713	16887.772333	856.268555	50.770695
19512.557713	16887.772333	855.089844	-9.472734
19512.557713	16887.772333	853.911133	72.001205
19512.557713	16887.772333	852.731445	282.615417
19512.557713	16887.772333	851.552734	141.022293
19512.557713	16887.772333	850.373047	126.523254
19512.557713	16887.772333	849.193359	-19.194489
19512.557713	16887.772333	848.013672	41.235611
19512.557713	16887.772333	846.833008	-173.152420
19512.557713	16887.772333	845.652344	-52.417427
19512.557713	16887.772333	844.471680	-116.950714
19512.557713	16887.772333	843.291016	-202.297913
19512.557713	16887.772333	842.110352	-227.326889
19512.557713	16887.772333	840.928711	11.718783
19512.557713	16887.772333	839.747070	-165.176666
19512.557713	16887.772333	838.564453	57.065380
19512.557713	16887.772333	837.382813	-367.146240
19512.557713	16887.772333	836.200195	-363.196594
19512.557713	16887.772333	835.017578	-51.845501
19512.557713	16887.772333	833.834961	238.566406
19512.557713	16887.772333	832.651367	-287.220398
19512.557713	16887.772333	831.467773	59.100719
19512.557713	16887.772333	830.284180	-53.474968
19512.557713	16887.772333	829.100586	-80.965889
19512.557713	16887.772333	827.916992	-145.837738
19512.557713	16887.772333	826.732422	54.796207
19512.557713	16887.772333	825.547852	116.348183
19512.557713	16887.772333	824.363281	107.329010
19512.557713	16887.772333	823.177734	56.814720
19512.557713	16887.772333	821.992188	43.577007
19512.557713	16887.772333	820.806641	-62.955357
19512.557713	16887.772333	819.621094	-177.781342
19512.557713	16887.772333	818.434570	-218.036102
19512.557713	16887.772333	817.249023	54.368114
19512.557713	16887.772333	816.062500	34.677505
19512.557713	16887.772333	814.875000	186.764008
19512.557713	16887.772333	813.688477	96.575005
19512.557713	16887.772333	812.500977	-26.733465
19512.557713	16887.772333	811.313477	220.261032
19512.557713	16887.772333	810.125977	237.506699
19512.557713	16887.772333	808.937500	-55.493378
19512.557713	16887.772333	807.749023	-282.273682
19512.557713	16887.772333	806.560547	-39.803989
19512.557713	16887.772333	805.372070	-28.960314
19512.557713	16887.772333	804.182617	-30.573832
19512.557713	16887.772333	802.994141	-21.934557
19512.557713	16887.772333	801.803711	-36.067352
19512.557713	16887.772333	800.614258	38.521259
19512.557713	16887.772333	799.424805	265.779327
19512.557713	16887.772333	798.234375	-82.991859
19512.557713	16887.772333	797.043945	257.564331
19512.557713	16887.772333	795.852539	51.165089
19512.557713	16887.772333	794.662109	81.987991
19512.557713	16887.772333	793.470703	44.673508
19512.557713	16887.772333	792.279297	172.250351
19512.557713	16887.772333	791.087891	37.887352
19512.557713	16887.772333	789.895508	117.861931
19512.557713	16887.772333	788.703125	391.423676
19512.557713	16887.772333	787.510742	67.327362
19512.557713	16887.772333	786.318359	56.370743
19512.557713	16887.772333	785.125000	-4.081181
19512.557713	16887.772333	783.931641	133.067169
19512.557713	16887.772333	782.738281	105.388908
19512.557713	16887.772333	781.544922	120.857574
19512.557713	16887.772333	780.350586	337.888641
19512.557713	16887.772333	779.156250	-37.742294
19512.557713	16887.772333	777.961914	-4.003166
19512.557713	16887.772333	776.767578	171.520981
19512.557713	16887.772333	775.572266	120.731667
19512.557713	16887.772333	774.376953	-57.571815
19512.557713	16887.772333	773.181641	-42.718670
19512.557713	16887.772333	771.986328	74.766594
19512.557713	16887.772333	770.790039	274.281281
19512.557713	16887.772333	769.593750	307.257843
19512.557713	16887.772333	768.397461	103.980347
19512.557713	16887.772333	767.201172	194.258301
19512.557713	16887.772333	766.003906	181.779709
19512.557713	16887.772333	764.806641	109.690254
19512.557713	16887.772333	763.609375	298.090424
19512.557713	16887.772333	762.412109	531.434326
19512.557713	16887.772333	761.213867	274.434967
19512.557713	16887.772333	760.015625	357.800934
19512.557713	16887.772333	758.817383	299.576141
19512.557713	16887.772333	757.618164	261.766327
19512.557713	16887.772333	756.419922	447.210419
19512.557713	16887.772333	755.220703	530.036072
19512.557713	16887.772333	754.021484	168.241486
19512.557713	16887.772333	752.821289	54.277351
19512.557713	16887.772333	751.621094	155.224030
19512.557713	16887.772333	750.420898	452.523926
19512.557713	16887.772333	749.220703	366.875336
19512.557713	16887.772333	748.020508	221.808609
19512.557713	16887.772333	746.819336	203.520172
19512.557713	16887.772333	745.618164	54.221729
19512.557713	16887.772333	744.416992	375.181946
19512.557713	16887.772333	743.214844	391.270874
19512.557713	16887.772333	742.012695	268.239563
19512.557713	16887.772333	740.810547	539.544250
19512.557713	16887.772333	739.608398	790.178223
19512.557713	16887.772333	738.406250	789.328247
19512.557713	16887.772333	737.203125	888.430237
19512.557713	16887.772333	736.000000	1009.821838
19512.557713	16887.772333	734.795898	1343.348999
19512.557713	16887.772333	733.592773	1743.956177
19512.557713	16887.772333	732.388672	1242.332153
19512.557713	16887.772333	731.184570	1210.023804
19512.557713	16887.772333	729.979492	1328.540894
19512.557713	16887.772333	728.775391	1069.600342
19512.557713	16887.772333	727.570313	1014.526611
19512.557713	16887.772333	726.365234	510.881104
19512.557713	16887.772333	725.160156	651.329224
19512.557713	16887.772333	723.954102	308.677094
19512.557713	16887.772333	722.748047	544.587891
19512.557713	16887.772333	721.541992	541.963440
19512.557713	16887.772333	720.334961	443.500214
19512.557713	16887.772333	719.128906	495.592743
19512.557713	16887.772333	717.921875	256.456635
19512.557713	16887.772333	716.714844	287.941345
19512.557713	16887.772333	715.506836	180.922668
19512.557713	16887.772333	714.298828	385.039398
19512.557713	16887.772333	713.090820	302.170074
19512.557713	16887.772333	711.882813	-93.939537
19512.557713	16887.772333	710.674805	127.979759
19512.557713	16887.772333	709.465820	-176.747467
19512.557713	16887.772333	708.256836	97.649139
19512.557713	16887.772333	707.047852	65.009193
19512.557713	16887.772333	705.837891	178.490982
19512.557713	16887.772333	704.627930	-63.605427
19512.557713	16887.772333	703.417969	-206.254776
19512.557713	16887.772333	702.208008	-133.818512
19512.557713	16887.772333	700.998047	-51.406116
19512.557713	16887.772333	699.787109	-251.215179
19512.557713	16887.772333	698.576172	-335.450775
19512.557713	16887.772333	697.364258	60.896358
19512.557713	16887.772333	696.153320	126.399437
19512.557713	16887.772333	694.941406	-43.442616
19512.557713	16887.772333	693.729492	112.978226
19512.557713	16887.772333	692.516602	68.565422
19512.557713	16887.772333	691.304688	-77.278648
19512.557713	16887.772333	690.091797	62.414860
19512.557713	16887.772333	688.878906	193.803406
19512.557713	16887.772333	687.665039	-29.350531
19512.557713	16887.772333	686.451172	26.812002
19512.557713	16887.772333	685.237305	3.871409
19512.557713	16887.772333	684.023438	-108.238342
19512.557713	16887.772333	682.809570	16.260490
19512.557713	16887.772333	681.594727	346.878082
19512.557713	16887.772333	680.379883	70.536568
19512.557713	16887.772333	679.165039	307.713074
19512.557713	16887.772333	677.949219	298.036652
19512.557713	16887.772333	676.733398	306.412323
19512.557713	16887.772333	675.517578	157.039978
19512.557713	16887.772333	674.301758	298.488647
19512.557713	16887.772333	673.084961	201.412445
19512.557713	16887.772333	671.869141	162.798080
19512.557713	16887.772333	670.651367	198.756775
19512.557713	16887.772333	669.434570	626.139832
19512.557713	16887.772333	668.216797	191.516220
19512.557713	16887.772333	667.000000	136.246689
19512.557713	16887.772333	665.781250	357.210846
19512.557713	16887.772333	664.563477	289.558350
19512.557713	16887.772333	663.344727	356.890625
19512.557713	16887.772333	662.125977	462.362610
19512.557713	16887.772333	660.907227	491.072998
19512.557713	16887.772333	659.688477	445.083527
19512.557713	16887.772333	658.468750	451.361969
19512.557713	16887.772333	657.249023	570.304077
19512.557713	16887.772333	656.029297	262.151306
19512.557713	16887.772333	654.808594	-23.851330
19512.557713	16887.772333	653.587891	505.366119
19512.557713	16887.772333	652.367188	513.006165
19512.557713	16887.772333	651.146484	554.724609
19512.557713	16887.772333	649.924805	405.197815
19512.557713	16887.772333	648.704102	571.376099
19512.557713	16887.772333	647.482422	130.108932
19512.557713	16887.772333	646.259766	442.790161
19512.557713	16887.772333	645.037109	453.734833
19512.557713	16887.772333	643.815430	273.662720
19512.557713	16887.772333	642.591797	388.882263
19512.557713	16887.772333	641.369141	451.721252
19512.557713	16887.772333	640.145508	363.805664
19512.557713	16887.772333	638.921875	181.453156
19512.557713	16887.772333	637.698242	316.237854
19512.557713	16887.772333	636.474609	161.862839
19512.557713	16887.772333	635.250000	497.039154
19512.557713	16887.772333	634.025391	115.797852
19512.557713	16887.772333	632.800781	217.988602
19512.557713	16887.772333	631.575195	91.435631
19512.557713	16887.772333	630.349609	223.467194
19512.557713	16887.772333	629.124023	106.806160
19512.557713	16887.772333	627.898438	188.499619
19512.557713	16887.772333	626.671875	-12.434940
19512.557713	16887.772333	625.445313	181.247177
19512.557713	16887.772333	624.218750	34.306087
19512.557713	16887.772333	622.992188	321.841797
19512.557713	16887.772333	621.764648	238.828690
19512.557713	16887.772333	620.537109	115.748238
19512.557713	16887.772333	619.309570	6.653640
19512.557713	16887.772333	618.081055	-94.469017
19512.557713	16887.772333	616.852539	20.401051
19512.557713	16887.772333	615.624023	-140.807831
19512.557713	16887.772333	614.395508	-140.065735
19512.557713	16887.772333	613.166992	-93.413002
19512.557713	16887.772333	611.937500	-18.861679
19512.557713	16887.772333	610.708008	-178.169876
19512.557713	16887.772333	609.477539	-183.650421
19512.557713	16887.772333	608.248047	-394.884369
19512.557713	16887.772333	607.017578	-250.658249
19512.557713	16887.772333	605.787109	-469.868622
19512.557713	16887.772333	604.555664	-593.230591
19512.557713	16887.772333	603.325195	-163.826889
19512.557713	16887.772333	602.093750	-265.330841
19512.557713	16887.772333	600.861328	-279.065826
19512.557713	16887.772333	599.629883	30.243151
19512.557713	16887.772333	598.397461	66.237099
19512.557713	16887.772333	597.165039	-101.130508
19512.557713	16887.772333	595.932617	-95.063721
19512.557713	16887.772333	594.699219	-350.043304
19512.557713	16887.772333	593.465820	-11.285612
19512.557713	16887.772333	592.232422	4.665540
19512.557713	16887.772333	590.999023	-198.436798
19512.557713	16887.772333	589.764648	-98.860458
19512.557713	16887.772333	588.530273	-212.300201
19512.557713	16887.772333	587.295898	-96.846680
19512.557713	16887.772333	586.061523	18.561802
19512.557713	16887.772333	584.826172	-9.295652
19512.557713	16887.772333	583.590820	44.403809
19512.557713	16887.772333	582.355469	112.012917
19512.557713	16887.772333	581.119141	-7.255563
19512.557713	16887.772333	579.882813	-72.795601
19512.557713	16887.772333	578.646484	104.130310
19512.557713	16887.772333	577.410156	60.494057
19512.557713	16887.772333	576.172852	289.004578
19512.557713	16887.772333	574.935547	124.271713
19512.557713	16887.772333	573.698242	170.087662
19512.557713	16887.772333	572.460938	112.707474
19512.557713	16887.772333	571.222656	-67.650047
19512.557713	16887.772333	569.984375	142.968552
19512.557713	16887.772333	568.746094	50.052670
19512.557713	16887.772333	567.506836	-1.133899
19512.557713	16887.772333	566.267578	-183.106598
19512.557713	16887.772333	565.028320	59.276226
19512.557713	16887.772333	563.789063	61.800777
19512.557713	16887.772333	562.548828	60.420414
19512.557713	16887.772333	561.309570	219.577118
19512.557713	16887.772333	560.068359	91.529510
19512.557713	16887.772333	558.828125	-50.248722
19512.557713	16887.772333	557.586914	-114.685661
19512.557713	16887.772333	556.345703	-194.852097
19512.557713	16887.772333	555.104492	136.717575
19512.557713	16887.772333	553.863281	-255.915329
19512.557713	16887.772333	552.621094	24.257410
19512.557713	16887.772333	551.378906	-146.515121
19512.557713	16887.772333	550.136719	161.375092
19512.557713	16887.772333	548.893555	180.602356
19512.557713	16887.772333	547.650391	190.036484
19512.557713	16887.772333	546.407227	-65.220596
19512.557713	16887.772333	545.164063	-158.272049
19512.557713	16887.772333	543.919922	52.990101
19512.557713	16887.772333	542.675781	-140.555176
19512.557713	16887.772333	541.431641	-245.064026
19512.557713	16887.772333	540.186523	39.428982
19512.557713	16887.772333	538.941406	221.292557
19512.557713	16887.772333	537.696289	32.260906
19512.557713	16887.772333	536.451172	-20.465017
19512.557713	16887.772333	535.205078	51.193504
19512.557713	16887.772333	533.959961	18.437368
19512.557713	16887.772333	532.712891	-27.990616
19512.557713	16887.772333	531.466797	-241.803192
19512.557713	16887.772333	530.219727	-25.834715
19512.557713	16887.772333	528.972656	73.928444
19512.557713	16887.772333	527.725586	154.077072
19512.557713	16887.772333	526.478516	-59.096996
19512.557713	16887.772333	525.230469	-23.987820
19512.557713	16887.772333	523.982422	-6.481143
19512.557713	16887.772333	522.734375	209.907822
19512.557713	16887.772333	521.485352	19.050529
19512.557713	16887.772333	520.236328	-45.703182
19512.557713	16887.772333	518.987305	-35.564285
19512.557713	16887.772333	517.737305	45.481083
19512.557713	16887.772333	516.488281	144.312729
19512.557713	16887.772333	515.238281	227.505234
19512.557713	16887.772333	513.988281	395.284058
19512.557713	16887.772333	512.737305	189.844391
19512.557713	16887.772333	511.486328	126.036125
19512.557713	16887.772333	510.235352	-51.517014
19512.557713	16887.772333	508.984375	44.031147
19512.557713	16887.772333	507.732422	284.910583
19512.557713	16887.772333	506.480469	419.833252
19512.557713	16887.772333	505.228516	293.861450
19512.557713	16887.772333	503.976563	683.965576
19512.557713	16887.772333	502.723633	466.041016
19512.557713	16887.772333	501.470703	697.339478
19512.557713	16887.772333	500.217773	769.856018
19512.557713	16887.772333	498.963867	1108.995239
19512.557713	16887.772333	497.709961	840.636902
19512.557713	16887.772333	496.456055	997.614929
19512.557713	16887.772333	495.202148	925.452576
19512.557713	16887.772333	493.947266	1245.061768
19512.557713	16887.772333	492.692383	1288.560669
19512.557713	16887.772333	491.437500	1320.374146
19512.557713	16887.772333	490.181641	1395.302002
19512.557713	16887.772333	488.926758	1501.570313
19512.557713	16887.772333	487.670898	1580.467041
19512.557713	16887.772333	486.414063	1469.681396
19512.557713	16887.772333	485.158203	1386.368042
19512.557713	16887.772333	483.901367	1434.109009
19512.557713	16887.772333	482.644531	1675.355469
19512.557713	16887.772333	481.386719	1363.533936
19512.557713	16887.772333	480.128906	1800.103027
19512.557713	16887.772333	478.871094	1923.981812
19512.557713	16887.772333	477.613281	1997.038696
19512.557713	16887.772333	476.355469	1900.203979
19512.557713	16887.772333	475.096680	2002.490234
19512.557713	16887.772333	473.837891	1958.343994
19512.557713	16887.772333	472.578125	2097.583496
19512.557713	16887.772333	471.319336	1992.882446
19512.557713	16887.772333	470.059570	2094.892822
19512.557713	16887.772333	468.799805	2311.830566
19512.557713	16887.772333	467.539063	2249.826904
19512.557713	16887.772333	466.278320	2185.806152
19512.557713	16887.772333	465.017578	2630.280518
19512.557713	16887.772333	463.756836	2577.664307
19512.557713	16887.772333	462.495117	2513.247803
19512.557713	16887.772333	461.233398	2875.168701
19512.557713	16887.772333	459.971680	2602.081787
19512.557713	16887.772333	458.709961	2741.582764
19512.557713	16887.772333	457.447266	2439.071045
19512.557713	16887.772333	456.184570	2541.164551
19512.557713	16887.772333	454.921875	2707.174072
19512.557713	16887.772333	453.658203	2826.184326
19512.557713	16887.772333	452.394531	2820.433105
19512.557713	16887.772333	451.130859	2921.313721
19512.557713	16887.772333	449.867188	2780.845215
19512.557713	16887.772333	448.602539	2939.343018
19512.557713	16887.772333	447.337891	3035.254395
19512.557713	16887.772333	446.073242	2922.930908
19512.557713	16887.772333	444.807617	3041.335449
19512.557713	16887.772333	443.542969	2903.005127
19512.557713	16887.772333	442.276367	3014.674072
19512.557713	16887.772333	441.010742	3127.770996
19512.557713	16887.772333	439.744141	3135.552002
19512.557713	16887.772333	438.478516	3317.392090
19512.557713	16887.772333	437.210938	3395.810791
19512.557713	16887.772333	435.944336	3035.433838
19512.557713	16887.772333	434.676758	3254.210205
19512.557713	16887.772333	433.409180	3226.123779
19512.557713	16887.772333	432.141602	3209.011963
19512.557713	16887.772333	430.873047	3475.975098
19512.557713	16887.772333	429.604492	3261.769287
19512.557713	16887.772333	428.335938	3472.899414
19512.557713	16887.772333	427.067383	3452.763672
19512.557713	16887.772333	425.797852	3604.062012
19512.557713	16887.772333	424.528320	3485.447998
19512.557713	16887.772333	423.258789	3489.803223
19512.557713	16887.772333	421.988281	3620.867676
19512.557713	16887.772333	420.717773	3803.112305
19512.557713	16887.772333	419.447266	3553.099609
19512.557713	16887.772333	418.175781	3694.527100
19512.557713	16887.772333	416.905273	3707.253174
19512.557713	16887.772333	415.633789	3656.985107
19512.557713	16887.772333	414.362305	3678.960449
19512.557713	16887.772333	413.089844	3465.979492
19512.557713	16887.772333	411.817383	3359.943604
19512.557713	16887.772333	410.544922	3667.688965
19512.557713	16887.772333	409.272461	3599.484619
19512.557713	16887.772333	407.999023	3443.029297
19512.557713	16887.772333	406.725586	3325.679688
19512.557713	16887.772333	405.452148	3451.814941
19512.557713	16887.772333	404.177734	3520.362549
19512.557713	16887.772333	402.903320	3579.532715
19512.557713	16887.772333	401.628906	3608.070068
19512.557713	16887.772333	400.354492	3430.564941
19512.557713	16887.772333	399.079102	3663.620117
19512.557713	16887.772333	397.803711	3447.797363
19512.557713	16887.772333	396.528320	3388.062012
19512.557713	16887.772333	395.251953	3332.100830
19512.557713	16887.772333	393.976563	3283.768311
19512.557713	16887.772333	392.700195	3523.919678
19512.557713	16887.772333	391.422852	3792.521729
19512.557713	16887.772333	390.145508	3498.913818
19512.557713	16887.772333	388.869141	3116.594971
19512.557713	16887.772333	387.590820	3447.298340
19512.557713	16887.772333	386.313477	3292.866455
19512.557713	16887.772333	385.035156	2782.225830
19512.557713	16887.772333	383.756836	3356.877197
19512.557713	16887.772333	382.478516	3129.308838
19512.557713	16887.772333	381.199219	3152.556885
19512.557713	16887.772333	379.919922	2975.114990
19512.557713	16887.772333	378.640625	3069.364990
19512.557713	16887.772333	377.360352	2909.004639
19512.557713	16887.772333	376.080078	3311.756104
19512.557713	16887.772333	374.799805	2893.706299
19512.557713	16887.772333	373.519531	2802.497559
19512.557713	16887.772333	372.238281	2922.672363
19512.557713	16887.772333	370.957031	2849.464111
19512.557713	16887.772333	369.675781	2805.287109
19512.557713	16887.772333	368.394531	2864.781738
19512.557713	16887.772333	367.112305	2631.017090
19512.557713	16887.772333	365.830078	2694.256348
19512.557713	16887.772333	364.546875	2492.878662
19512.557713	16887.772333	363.264648	2379.496582
19512.557713	16887.772333	361.981445	2709.881592
19512.557713	16887.772333	360.698242	2635.728760
19512.557713	16887.772333	359.414063	2218.327637
19512.557713	16887.772333	358.129883	1982.148438
19512.557713	16887.772333	356.845703	2407.110352
19512.557713	16887.772333	355.561523	2297.321289
19512.557713	16887.772333	354.276367	2052.523926
19512.557713	16887.772333	352.991211	2318.955078
19512.557713	16887.772333	351.706055	2333.542725
19512.557713	16887.772333	350.420898	2077.217285
19512.557713	16887.772333	349.134766	1821.173218
19512.557713	16887.772333	347.848633	1800.340332
19512.557713	16887.772333	346.561523	1764.125732
19512.557713	16887.772333	345.275391	1762.315796
19512.557713	16887.772333	343.988281	1685.658325
19512.557713	16887.772333	342.700195	1501.600830
19512.557713	16887.772333	341.413086	1693.089355
19512.557713	16887.772333	340.125000	1532.637207
19512.557713	16887.772333	338.836914	1562.100708
19512.557713	16887.772333	337.548828	1338.842529
19512.557713	16887.772333	336.259766	1114.319458
19512.557713	16887.772333	334.970703	1334.523071
19512.557713	16887.772333	333.681641	1126.286011
19512.557713	16887.772333	332.391602	1093.436523
19512.557713	16887.772333	331.101563	978.736877
19512.557713	16887.772333	329.811523	768.749146
19512.557713	16887.772333	328.521484	984.993286
19512.557713	16887.772333	327.230469	701.746521
19512.557713	16887.772333	325.939453	619.660583
19512.557713	16887.772333	324.648438	532.929626
19512.557713	16887.772333	323.356445	427.821899
19512.557713	16887.772333	322.064453	551.607117
19512.557713	16887.772333	320.772461	531.278320
19512.557713	16887.772333	319.480469	769.724060
19512.557713	16887.772333	318.187500	89.902084
19512.557713	16887.772333	316.894531	-63.486698
19512.557713	16887.772333	315.601563	98.142799
19512.557713	16887.772333	314.307617	80.278297
19512.557713	16887.772333	313.013672	135.635254
19512.557713	16887.772333	311.719727	-36.000977
19512.557713	16887.772333	310.425781	-214.543900
19512.557713	16887.772333	309.130859	68.166527
19512.557713	16887.772333	307.835938	-193.595200
19512.557713	16887.772333	306.541016	-263.773438
19512.557713	16887.772333	305.245117	-154.464127
19512.557713	16887.772333	303.949219	-294.168762
19512.557713	16887.772333	302.653320	79.012024
19512.557713	16887.772333	301.356445	86.692841
19512.557713	16887.772333	300.060547	496.934723
19512.557713	16887.772333	298.763672	529.916931
