#X		#Y		#Wave		#Intensity
19477.683564	16940.873167	2000.043945	-75.404655
19477.683564	16940.873167	1999.080078	175.983154
19477.683564	16940.873167	1998.116211	-274.489929
19477.683564	16940.873167	1997.151367	-135.580170
19477.683564	16940.873167	1996.186523	-307.022736
19477.683564	16940.873167	1995.222656	-97.492188
19477.683564	16940.873167	1994.256836	108.960678
19477.683564	16940.873167	1993.291992	74.582008
19477.683564	16940.873167	1992.327148	49.595219
19477.683564	16940.873167	1991.361328	21.652903
19477.683564	16940.873167	1990.395508	-16.671913
19477.683564	16940.873167	1989.429688	276.120361
19477.683564	16940.873167	1988.463867	-94.695580
19477.683564	16940.873167	1987.497070	303.469208
19477.683564	16940.873167	1986.531250	82.763115
19477.683564	16940.873167	1985.564453	106.524216
19477.683564	16940.873167	1984.597656	231.229034
19477.683564	16940.873167	1983.630859	48.998474
19477.683564	16940.873167	1982.664063	402.720703
19477.683564	16940.873167	1981.696289	91.304810
19477.683564	16940.873167	1980.728516	95.854820
19477.683564	16940.873167	1979.761719	-40.733051
19477.683564	16940.873167	1978.792969	264.444824
19477.683564	16940.873167	1977.825195	149.452148
19477.683564	16940.873167	1976.857422	268.705750
19477.683564	16940.873167	1975.888672	19.882696
19477.683564	16940.873167	1974.919922	54.640270
19477.683564	16940.873167	1973.951172	150.786224
19477.683564	16940.873167	1972.982422	365.034271
19477.683564	16940.873167	1972.013672	292.861603
19477.683564	16940.873167	1971.043945	129.245453
19477.683564	16940.873167	1970.075195	234.167496
19477.683564	16940.873167	1969.105469	252.559692
19477.683564	16940.873167	1968.135742	396.411652
19477.683564	16940.873167	1967.165039	49.683189
19477.683564	16940.873167	1966.195313	205.431122
19477.683564	16940.873167	1965.224609	107.243019
19477.683564	16940.873167	1964.253906	55.698338
19477.683564	16940.873167	1963.283203	461.951935
19477.683564	16940.873167	1962.312500	45.697525
19477.683564	16940.873167	1961.341797	215.202820
19477.683564	16940.873167	1960.370117	5.546107
19477.683564	16940.873167	1959.399414	68.912117
19477.683564	16940.873167	1958.427734	50.949097
19477.683564	16940.873167	1957.455078	598.521240
19477.683564	16940.873167	1956.483398	51.551880
19477.683564	16940.873167	1955.511719	165.992996
19477.683564	16940.873167	1954.539063	469.551849
19477.683564	16940.873167	1953.566406	492.737183
19477.683564	16940.873167	1952.593750	311.879425
19477.683564	16940.873167	1951.621094	-48.331673
19477.683564	16940.873167	1950.647461	-86.732941
19477.683564	16940.873167	1949.674805	368.394043
19477.683564	16940.873167	1948.701172	207.015839
19477.683564	16940.873167	1947.727539	25.992325
19477.683564	16940.873167	1946.753906	-20.038445
19477.683564	16940.873167	1945.780273	365.774323
19477.683564	16940.873167	1944.805664	177.293686
19477.683564	16940.873167	1943.831055	258.660339
19477.683564	16940.873167	1942.856445	-32.826126
19477.683564	16940.873167	1941.881836	75.440338
19477.683564	16940.873167	1940.907227	210.600784
19477.683564	16940.873167	1939.932617	-183.764404
19477.683564	16940.873167	1938.957031	184.155914
19477.683564	16940.873167	1937.981445	140.279236
19477.683564	16940.873167	1937.005859	138.046829
19477.683564	16940.873167	1936.030273	-13.607969
19477.683564	16940.873167	1935.054688	319.658203
19477.683564	16940.873167	1934.078125	226.771027
19477.683564	16940.873167	1933.101563	13.965760
19477.683564	16940.873167	1932.125000	19.063902
19477.683564	16940.873167	1931.148438	90.234489
19477.683564	16940.873167	1930.171875	276.369080
19477.683564	16940.873167	1929.194336	166.465042
19477.683564	16940.873167	1928.217773	-112.139893
19477.683564	16940.873167	1927.240234	-38.518471
19477.683564	16940.873167	1926.262695	189.110611
19477.683564	16940.873167	1925.284180	262.685730
19477.683564	16940.873167	1924.306641	104.085083
19477.683564	16940.873167	1923.328125	280.309845
19477.683564	16940.873167	1922.350586	124.253578
19477.683564	16940.873167	1921.372070	-332.141296
19477.683564	16940.873167	1920.392578	193.355667
19477.683564	16940.873167	1919.414063	-172.487457
19477.683564	16940.873167	1918.434570	138.027527
19477.683564	16940.873167	1917.456055	-78.724167
19477.683564	16940.873167	1916.476563	-297.800262
19477.683564	16940.873167	1915.497070	-92.243080
19477.683564	16940.873167	1914.516602	-91.622780
19477.683564	16940.873167	1913.537109	-61.703480
19477.683564	16940.873167	1912.556641	-219.507797
19477.683564	16940.873167	1911.576172	-304.074585
19477.683564	16940.873167	1910.595703	-25.387342
19477.683564	16940.873167	1909.615234	194.750137
19477.683564	16940.873167	1908.633789	12.818182
19477.683564	16940.873167	1907.653320	-130.026382
19477.683564	16940.873167	1906.671875	-41.386250
19477.683564	16940.873167	1905.690430	105.710739
19477.683564	16940.873167	1904.708984	296.624451
19477.683564	16940.873167	1903.727539	246.517365
19477.683564	16940.873167	1902.745117	79.654861
19477.683564	16940.873167	1901.762695	-167.401520
19477.683564	16940.873167	1900.780273	26.039825
19477.683564	16940.873167	1899.797852	163.508362
19477.683564	16940.873167	1898.815430	43.181896
19477.683564	16940.873167	1897.832031	144.218292
19477.683564	16940.873167	1896.849609	126.139839
19477.683564	16940.873167	1895.866211	-98.487892
19477.683564	16940.873167	1894.882813	-14.350175
19477.683564	16940.873167	1893.898438	91.671730
19477.683564	16940.873167	1892.915039	47.083889
19477.683564	16940.873167	1891.930664	-2.295983
19477.683564	16940.873167	1890.947266	-37.046093
19477.683564	16940.873167	1889.962891	56.946285
19477.683564	16940.873167	1888.977539	48.999203
19477.683564	16940.873167	1887.993164	189.143433
19477.683564	16940.873167	1887.007813	-165.734756
19477.683564	16940.873167	1886.023438	-98.298195
19477.683564	16940.873167	1885.038086	-91.480843
19477.683564	16940.873167	1884.051758	73.017578
19477.683564	16940.873167	1883.066406	-252.306015
19477.683564	16940.873167	1882.081055	-121.700195
19477.683564	16940.873167	1881.094727	47.682293
19477.683564	16940.873167	1880.108398	212.193893
19477.683564	16940.873167	1879.122070	-35.215065
19477.683564	16940.873167	1878.135742	-25.711449
19477.683564	16940.873167	1877.148438	95.243423
19477.683564	16940.873167	1876.162109	187.126160
19477.683564	16940.873167	1875.174805	-144.680344
19477.683564	16940.873167	1874.187500	24.746269
19477.683564	16940.873167	1873.199219	-398.799438
19477.683564	16940.873167	1872.211914	-1.866673
19477.683564	16940.873167	1871.223633	10.285099
19477.683564	16940.873167	1870.236328	5.526448
19477.683564	16940.873167	1869.248047	-64.491905
19477.683564	16940.873167	1868.258789	-3.884286
19477.683564	16940.873167	1867.270508	-54.481522
19477.683564	16940.873167	1866.282227	15.817548
19477.683564	16940.873167	1865.292969	117.534073
19477.683564	16940.873167	1864.303711	-46.537086
19477.683564	16940.873167	1863.314453	-217.770203
19477.683564	16940.873167	1862.324219	-217.435135
19477.683564	16940.873167	1861.334961	67.857635
19477.683564	16940.873167	1860.344727	92.319618
19477.683564	16940.873167	1859.354492	230.241577
19477.683564	16940.873167	1858.364258	6.118319
19477.683564	16940.873167	1857.374023	245.378220
19477.683564	16940.873167	1856.383789	204.713303
19477.683564	16940.873167	1855.392578	168.904526
19477.683564	16940.873167	1854.401367	147.588226
19477.683564	16940.873167	1853.410156	193.802124
19477.683564	16940.873167	1852.418945	88.132721
19477.683564	16940.873167	1851.426758	148.819977
19477.683564	16940.873167	1850.435547	151.651413
19477.683564	16940.873167	1849.443359	-197.272614
19477.683564	16940.873167	1848.451172	97.106003
19477.683564	16940.873167	1847.458984	-80.675056
19477.683564	16940.873167	1846.466797	134.109390
19477.683564	16940.873167	1845.473633	344.000000
19477.683564	16940.873167	1844.480469	-14.257586
19477.683564	16940.873167	1843.487305	-242.426529
19477.683564	16940.873167	1842.494141	-15.754290
19477.683564	16940.873167	1841.500977	-118.753998
19477.683564	16940.873167	1840.506836	131.849380
19477.683564	16940.873167	1839.513672	-163.541367
19477.683564	16940.873167	1838.519531	-136.648254
19477.683564	16940.873167	1837.525391	60.897423
19477.683564	16940.873167	1836.530273	20.421394
19477.683564	16940.873167	1835.536133	-123.390205
19477.683564	16940.873167	1834.541016	230.164322
19477.683564	16940.873167	1833.545898	230.461548
19477.683564	16940.873167	1832.550781	-47.849518
19477.683564	16940.873167	1831.555664	2.884071
19477.683564	16940.873167	1830.560547	87.184387
19477.683564	16940.873167	1829.564453	92.224739
19477.683564	16940.873167	1828.568359	267.625946
19477.683564	16940.873167	1827.572266	356.556610
19477.683564	16940.873167	1826.576172	157.556412
19477.683564	16940.873167	1825.580078	399.916992
19477.683564	16940.873167	1824.583008	208.122101
19477.683564	16940.873167	1823.585938	191.388443
19477.683564	16940.873167	1822.588867	153.054565
19477.683564	16940.873167	1821.591797	90.732491
19477.683564	16940.873167	1820.594727	270.415070
19477.683564	16940.873167	1819.596680	325.416016
19477.683564	16940.873167	1818.599609	54.596287
19477.683564	16940.873167	1817.601563	-79.653725
19477.683564	16940.873167	1816.603516	140.476730
19477.683564	16940.873167	1815.604492	-228.421402
19477.683564	16940.873167	1814.606445	3.534714
19477.683564	16940.873167	1813.607422	60.670696
19477.683564	16940.873167	1812.608398	182.340515
19477.683564	16940.873167	1811.609375	543.126953
19477.683564	16940.873167	1810.610352	346.470367
19477.683564	16940.873167	1809.610352	25.498493
19477.683564	16940.873167	1808.611328	254.471817
19477.683564	16940.873167	1807.611328	-78.415375
19477.683564	16940.873167	1806.611328	159.947098
19477.683564	16940.873167	1805.610352	-8.029879
19477.683564	16940.873167	1804.610352	141.729065
19477.683564	16940.873167	1803.609375	253.163940
19477.683564	16940.873167	1802.608398	-258.786652
19477.683564	16940.873167	1801.607422	265.622345
19477.683564	16940.873167	1800.606445	123.755219
19477.683564	16940.873167	1799.605469	358.982086
19477.683564	16940.873167	1798.603516	217.031891
19477.683564	16940.873167	1797.601563	-20.357552
19477.683564	16940.873167	1796.599609	16.594069
19477.683564	16940.873167	1795.597656	8.153440
19477.683564	16940.873167	1794.595703	97.415390
19477.683564	16940.873167	1793.592773	79.298111
19477.683564	16940.873167	1792.589844	421.037842
19477.683564	16940.873167	1791.587891	40.497997
19477.683564	16940.873167	1790.583984	22.202171
19477.683564	16940.873167	1789.581055	30.045124
19477.683564	16940.873167	1788.577148	152.139130
19477.683564	16940.873167	1787.574219	140.763123
19477.683564	16940.873167	1786.570313	72.179543
19477.683564	16940.873167	1785.566406	332.045105
19477.683564	16940.873167	1784.561523	-17.525141
19477.683564	16940.873167	1783.557617	192.140915
19477.683564	16940.873167	1782.552734	239.881424
19477.683564	16940.873167	1781.547852	130.539017
19477.683564	16940.873167	1780.542969	85.372841
19477.683564	16940.873167	1779.538086	168.542480
19477.683564	16940.873167	1778.532227	144.627472
19477.683564	16940.873167	1777.527344	106.382988
19477.683564	16940.873167	1776.521484	291.449127
19477.683564	16940.873167	1775.515625	397.962036
19477.683564	16940.873167	1774.508789	91.032349
19477.683564	16940.873167	1773.502930	33.509613
19477.683564	16940.873167	1772.496094	158.767792
19477.683564	16940.873167	1771.489258	67.855553
19477.683564	16940.873167	1770.482422	173.907257
19477.683564	16940.873167	1769.475586	82.863937
19477.683564	16940.873167	1768.467773	-81.781380
19477.683564	16940.873167	1767.460938	230.376678
19477.683564	16940.873167	1766.453125	63.226833
19477.683564	16940.873167	1765.445313	47.824234
19477.683564	16940.873167	1764.437500	-126.507187
19477.683564	16940.873167	1763.428711	-9.290322
19477.683564	16940.873167	1762.420898	-77.064209
19477.683564	16940.873167	1761.412109	189.211533
19477.683564	16940.873167	1760.403320	78.612068
19477.683564	16940.873167	1759.393555	84.034187
19477.683564	16940.873167	1758.384766	193.568497
19477.683564	16940.873167	1757.375000	307.709869
19477.683564	16940.873167	1756.366211	184.990677
19477.683564	16940.873167	1755.356445	100.102806
19477.683564	16940.873167	1754.345703	173.709991
19477.683564	16940.873167	1753.335938	251.934982
19477.683564	16940.873167	1752.325195	-15.321768
19477.683564	16940.873167	1751.315430	509.728882
19477.683564	16940.873167	1750.304688	83.922585
19477.683564	16940.873167	1749.292969	102.653694
19477.683564	16940.873167	1748.282227	81.106422
19477.683564	16940.873167	1747.270508	-238.290222
19477.683564	16940.873167	1746.259766	-255.212967
19477.683564	16940.873167	1745.248047	96.311829
19477.683564	16940.873167	1744.235352	145.289902
19477.683564	16940.873167	1743.223633	19.416166
19477.683564	16940.873167	1742.211914	30.442089
19477.683564	16940.873167	1741.199219	-88.453453
19477.683564	16940.873167	1740.186523	-42.183487
19477.683564	16940.873167	1739.173828	-36.130596
19477.683564	16940.873167	1738.160156	-136.332886
19477.683564	16940.873167	1737.147461	291.780670
19477.683564	16940.873167	1736.133789	163.082809
19477.683564	16940.873167	1735.120117	-125.983551
19477.683564	16940.873167	1734.106445	-63.773537
19477.683564	16940.873167	1733.091797	-81.809937
19477.683564	16940.873167	1732.078125	62.678383
19477.683564	16940.873167	1731.063477	9.114226
19477.683564	16940.873167	1730.048828	21.444939
19477.683564	16940.873167	1729.034180	99.631874
19477.683564	16940.873167	1728.019531	67.034828
19477.683564	16940.873167	1727.003906	420.460754
19477.683564	16940.873167	1725.988281	-229.048889
19477.683564	16940.873167	1724.972656	37.061092
19477.683564	16940.873167	1723.957031	-82.886543
19477.683564	16940.873167	1722.941406	-104.069016
19477.683564	16940.873167	1721.924805	-40.652336
19477.683564	16940.873167	1720.909180	-38.478703
19477.683564	16940.873167	1719.892578	-74.005730
19477.683564	16940.873167	1718.875977	-469.247925
19477.683564	16940.873167	1717.858398	-166.410553
19477.683564	16940.873167	1716.841797	-178.632095
19477.683564	16940.873167	1715.824219	119.180145
19477.683564	16940.873167	1714.806641	205.404587
19477.683564	16940.873167	1713.789063	-142.934662
19477.683564	16940.873167	1712.770508	-216.509979
19477.683564	16940.873167	1711.752930	247.449219
19477.683564	16940.873167	1710.734375	-237.052948
19477.683564	16940.873167	1709.715820	24.772543
19477.683564	16940.873167	1708.697266	96.389336
19477.683564	16940.873167	1707.678711	-167.529938
19477.683564	16940.873167	1706.659180	-135.921646
19477.683564	16940.873167	1705.640625	-348.252594
19477.683564	16940.873167	1704.621094	-375.370911
19477.683564	16940.873167	1703.600586	115.448616
19477.683564	16940.873167	1702.581055	352.923218
19477.683564	16940.873167	1701.561523	128.669174
19477.683564	16940.873167	1700.541016	77.777222
19477.683564	16940.873167	1699.520508	216.548859
19477.683564	16940.873167	1698.500000	130.404922
19477.683564	16940.873167	1697.478516	-26.011326
19477.683564	16940.873167	1696.458008	4.832593
19477.683564	16940.873167	1695.436523	-67.375328
19477.683564	16940.873167	1694.415039	-118.557800
19477.683564	16940.873167	1693.393555	213.879868
19477.683564	16940.873167	1692.372070	-31.590660
19477.683564	16940.873167	1691.349609	-8.103701
19477.683564	16940.873167	1690.327148	155.599945
19477.683564	16940.873167	1689.304688	148.536896
19477.683564	16940.873167	1688.282227	92.342918
19477.683564	16940.873167	1687.259766	309.507294
19477.683564	16940.873167	1686.236328	278.885773
19477.683564	16940.873167	1685.213867	-15.716408
19477.683564	16940.873167	1684.190430	-25.350573
19477.683564	16940.873167	1683.166016	154.091629
19477.683564	16940.873167	1682.142578	226.032928
19477.683564	16940.873167	1681.119141	150.854401
19477.683564	16940.873167	1680.094727	82.653763
19477.683564	16940.873167	1679.070313	226.745544
19477.683564	16940.873167	1678.045898	46.494133
19477.683564	16940.873167	1677.020508	302.385803
19477.683564	16940.873167	1675.996094	150.084106
19477.683564	16940.873167	1674.970703	-142.087967
19477.683564	16940.873167	1673.945313	29.653124
19477.683564	16940.873167	1672.919922	373.738220
19477.683564	16940.873167	1671.893555	291.262817
19477.683564	16940.873167	1670.868164	-26.495855
19477.683564	16940.873167	1669.841797	33.134514
19477.683564	16940.873167	1668.815430	386.111511
19477.683564	16940.873167	1667.789063	45.123779
19477.683564	16940.873167	1666.761719	237.274567
19477.683564	16940.873167	1665.735352	403.724243
19477.683564	16940.873167	1664.708008	195.457352
19477.683564	16940.873167	1663.680664	166.369125
19477.683564	16940.873167	1662.653320	276.818237
19477.683564	16940.873167	1661.625000	315.101135
19477.683564	16940.873167	1660.597656	506.800354
19477.683564	16940.873167	1659.569336	384.577972
19477.683564	16940.873167	1658.541016	371.610626
19477.683564	16940.873167	1657.512695	432.983582
19477.683564	16940.873167	1656.483398	364.204132
19477.683564	16940.873167	1655.455078	416.222260
19477.683564	16940.873167	1654.425781	398.524048
19477.683564	16940.873167	1653.396484	650.151489
19477.683564	16940.873167	1652.366211	562.731140
19477.683564	16940.873167	1651.336914	865.259827
19477.683564	16940.873167	1650.306641	432.041992
19477.683564	16940.873167	1649.276367	674.123596
19477.683564	16940.873167	1648.246094	751.404358
19477.683564	16940.873167	1647.215820	900.539856
19477.683564	16940.873167	1646.185547	544.125122
19477.683564	16940.873167	1645.154297	591.216248
19477.683564	16940.873167	1644.123047	872.380737
19477.683564	16940.873167	1643.091797	743.256592
19477.683564	16940.873167	1642.060547	482.110779
19477.683564	16940.873167	1641.028320	1008.663391
19477.683564	16940.873167	1639.997070	874.944763
19477.683564	16940.873167	1638.964844	882.524841
19477.683564	16940.873167	1637.931641	670.156860
19477.683564	16940.873167	1636.899414	943.964783
19477.683564	16940.873167	1635.867188	872.846619
19477.683564	16940.873167	1634.833984	824.893677
19477.683564	16940.873167	1633.800781	779.278870
19477.683564	16940.873167	1632.767578	1034.364868
19477.683564	16940.873167	1631.734375	942.492859
19477.683564	16940.873167	1630.700195	799.799011
19477.683564	16940.873167	1629.666016	888.323486
19477.683564	16940.873167	1628.631836	951.405518
19477.683564	16940.873167	1627.597656	1201.640137
19477.683564	16940.873167	1626.563477	1022.094910
19477.683564	16940.873167	1625.528320	1186.781372
19477.683564	16940.873167	1624.493164	755.622192
19477.683564	16940.873167	1623.458008	911.099304
19477.683564	16940.873167	1622.422852	1022.674866
19477.683564	16940.873167	1621.387695	1025.756348
19477.683564	16940.873167	1620.351563	1058.849365
19477.683564	16940.873167	1619.315430	1101.183350
19477.683564	16940.873167	1618.279297	910.558411
19477.683564	16940.873167	1617.243164	1155.897583
19477.683564	16940.873167	1616.207031	1308.940552
19477.683564	16940.873167	1615.169922	1153.044434
19477.683564	16940.873167	1614.132813	1241.548096
19477.683564	16940.873167	1613.095703	1327.743530
19477.683564	16940.873167	1612.058594	1506.097046
19477.683564	16940.873167	1611.020508	1147.700317
19477.683564	16940.873167	1609.983398	1178.695679
19477.683564	16940.873167	1608.945313	1304.115356
19477.683564	16940.873167	1607.907227	1466.358154
19477.683564	16940.873167	1606.868164	1391.498413
19477.683564	16940.873167	1605.830078	1526.125488
19477.683564	16940.873167	1604.791016	1267.302979
19477.683564	16940.873167	1603.751953	1351.375000
19477.683564	16940.873167	1602.712891	1430.858276
19477.683564	16940.873167	1601.673828	1291.908325
19477.683564	16940.873167	1600.633789	1463.418213
19477.683564	16940.873167	1599.594727	1457.927734
19477.683564	16940.873167	1598.554688	1238.758789
19477.683564	16940.873167	1597.513672	1626.299561
19477.683564	16940.873167	1596.473633	1657.681274
19477.683564	16940.873167	1595.433594	1321.623291
19477.683564	16940.873167	1594.392578	1589.671143
19477.683564	16940.873167	1593.351563	1667.113647
19477.683564	16940.873167	1592.310547	1166.143433
19477.683564	16940.873167	1591.268555	1528.321777
19477.683564	16940.873167	1590.227539	1426.931641
19477.683564	16940.873167	1589.185547	1396.753052
19477.683564	16940.873167	1588.143555	1375.820679
19477.683564	16940.873167	1587.100586	1322.852051
19477.683564	16940.873167	1586.058594	1402.946411
19477.683564	16940.873167	1585.015625	1668.743286
19477.683564	16940.873167	1583.972656	1301.962646
19477.683564	16940.873167	1582.929688	1826.732544
19477.683564	16940.873167	1581.886719	1478.524536
19477.683564	16940.873167	1580.843750	1535.935669
19477.683564	16940.873167	1579.799805	1492.629272
19477.683564	16940.873167	1578.755859	1284.561279
19477.683564	16940.873167	1577.711914	1449.773682
19477.683564	16940.873167	1576.666992	1363.236938
19477.683564	16940.873167	1575.623047	1581.144165
19477.683564	16940.873167	1574.578125	1076.103149
19477.683564	16940.873167	1573.533203	1236.946411
19477.683564	16940.873167	1572.488281	1443.543945
19477.683564	16940.873167	1571.443359	1298.025757
19477.683564	16940.873167	1570.397461	1209.792114
19477.683564	16940.873167	1569.351563	1057.679199
19477.683564	16940.873167	1568.305664	1038.240479
19477.683564	16940.873167	1567.259766	820.131348
19477.683564	16940.873167	1566.213867	997.352722
19477.683564	16940.873167	1565.166992	717.838501
19477.683564	16940.873167	1564.120117	1246.805176
19477.683564	16940.873167	1563.073242	976.655884
19477.683564	16940.873167	1562.026367	891.573242
19477.683564	16940.873167	1560.978516	756.407593
19477.683564	16940.873167	1559.930664	785.652222
19477.683564	16940.873167	1558.883789	716.891968
19477.683564	16940.873167	1557.834961	650.526184
19477.683564	16940.873167	1556.787109	613.922791
19477.683564	16940.873167	1555.739258	383.651001
19477.683564	16940.873167	1554.690430	595.737427
19477.683564	16940.873167	1553.641602	623.250916
19477.683564	16940.873167	1552.592773	694.137695
19477.683564	16940.873167	1551.542969	544.135437
19477.683564	16940.873167	1550.494141	483.110870
19477.683564	16940.873167	1549.444336	690.894287
19477.683564	16940.873167	1548.394531	504.849030
19477.683564	16940.873167	1547.344727	612.595032
19477.683564	16940.873167	1546.293945	301.675018
19477.683564	16940.873167	1545.244141	607.564209
19477.683564	16940.873167	1544.193359	597.240234
19477.683564	16940.873167	1543.142578	768.968262
19477.683564	16940.873167	1542.090820	522.340271
19477.683564	16940.873167	1541.040039	682.855957
19477.683564	16940.873167	1539.988281	311.536713
19477.683564	16940.873167	1538.936523	467.694122
19477.683564	16940.873167	1537.884766	369.424500
19477.683564	16940.873167	1536.833008	557.527283
19477.683564	16940.873167	1535.780273	568.511047
19477.683564	16940.873167	1534.727539	354.794342
19477.683564	16940.873167	1533.674805	266.137543
19477.683564	16940.873167	1532.622070	497.672058
19477.683564	16940.873167	1531.569336	352.505890
19477.683564	16940.873167	1530.515625	382.218292
19477.683564	16940.873167	1529.461914	389.344513
19477.683564	16940.873167	1528.408203	149.363586
19477.683564	16940.873167	1527.354492	310.953705
19477.683564	16940.873167	1526.299805	363.772736
19477.683564	16940.873167	1525.246094	362.279968
19477.683564	16940.873167	1524.191406	159.208618
19477.683564	16940.873167	1523.136719	210.101028
19477.683564	16940.873167	1522.081055	356.236481
19477.683564	16940.873167	1521.026367	17.737461
19477.683564	16940.873167	1519.970703	220.697357
19477.683564	16940.873167	1518.915039	335.396301
19477.683564	16940.873167	1517.859375	189.856140
19477.683564	16940.873167	1516.802734	411.120331
19477.683564	16940.873167	1515.747070	541.903992
19477.683564	16940.873167	1514.690430	102.678413
19477.683564	16940.873167	1513.633789	464.412628
19477.683564	16940.873167	1512.577148	129.634277
19477.683564	16940.873167	1511.519531	527.637268
19477.683564	16940.873167	1510.461914	475.776978
19477.683564	16940.873167	1509.405273	71.494156
19477.683564	16940.873167	1508.346680	-104.286400
19477.683564	16940.873167	1507.289063	-358.946014
19477.683564	16940.873167	1506.231445	258.452026
19477.683564	16940.873167	1505.172852	53.747116
19477.683564	16940.873167	1504.114258	309.825104
19477.683564	16940.873167	1503.055664	116.723289
19477.683564	16940.873167	1501.996094	56.976738
19477.683564	16940.873167	1500.937500	121.476906
19477.683564	16940.873167	1499.877930	206.381729
19477.683564	16940.873167	1498.818359	-114.615028
19477.683564	16940.873167	1497.757813	169.000626
19477.683564	16940.873167	1496.698242	24.246141
19477.683564	16940.873167	1495.637695	-205.981415
19477.683564	16940.873167	1494.577148	-19.053221
19477.683564	16940.873167	1493.516602	-109.228966
19477.683564	16940.873167	1492.456055	3.510944
19477.683564	16940.873167	1491.394531	-273.324738
19477.683564	16940.873167	1490.333008	-221.144836
19477.683564	16940.873167	1489.271484	-222.896576
19477.683564	16940.873167	1488.209961	-19.677584
19477.683564	16940.873167	1487.148438	-0.960531
19477.683564	16940.873167	1486.085938	65.131027
19477.683564	16940.873167	1485.023438	59.332180
19477.683564	16940.873167	1483.960938	-193.755539
19477.683564	16940.873167	1482.898438	30.127571
19477.683564	16940.873167	1481.834961	42.707985
19477.683564	16940.873167	1480.772461	26.185051
19477.683564	16940.873167	1479.708984	-493.613159
19477.683564	16940.873167	1478.644531	238.452255
19477.683564	16940.873167	1477.581055	-112.433739
19477.683564	16940.873167	1476.517578	-101.478111
19477.683564	16940.873167	1475.453125	-166.715515
19477.683564	16940.873167	1474.388672	143.025375
19477.683564	16940.873167	1473.323242	-47.690281
19477.683564	16940.873167	1472.258789	161.233368
19477.683564	16940.873167	1471.193359	-82.985191
19477.683564	16940.873167	1470.127930	130.733032
19477.683564	16940.873167	1469.062500	55.081207
19477.683564	16940.873167	1467.997070	6.453635
19477.683564	16940.873167	1466.930664	-37.240150
19477.683564	16940.873167	1465.865234	109.031761
19477.683564	16940.873167	1464.798828	47.791878
19477.683564	16940.873167	1463.731445	-61.082783
19477.683564	16940.873167	1462.665039	-101.752419
19477.683564	16940.873167	1461.597656	347.017029
19477.683564	16940.873167	1460.530273	576.574951
19477.683564	16940.873167	1459.462891	53.362465
19477.683564	16940.873167	1458.395508	-65.452843
19477.683564	16940.873167	1457.327148	30.666447
19477.683564	16940.873167	1456.259766	415.736450
19477.683564	16940.873167	1455.191406	553.162415
19477.683564	16940.873167	1454.123047	429.660187
19477.683564	16940.873167	1453.053711	320.636688
19477.683564	16940.873167	1451.985352	552.890320
19477.683564	16940.873167	1450.916016	522.088867
19477.683564	16940.873167	1449.846680	409.603912
19477.683564	16940.873167	1448.776367	354.708069
19477.683564	16940.873167	1447.707031	275.888184
19477.683564	16940.873167	1446.636719	362.855957
19477.683564	16940.873167	1445.566406	271.906281
19477.683564	16940.873167	1444.496094	449.198822
19477.683564	16940.873167	1443.425781	436.119873
19477.683564	16940.873167	1442.354492	220.014786
19477.683564	16940.873167	1441.283203	40.687801
19477.683564	16940.873167	1440.211914	242.730209
19477.683564	16940.873167	1439.140625	448.393433
19477.683564	16940.873167	1438.069336	-5.057410
19477.683564	16940.873167	1436.997070	6.129777
19477.683564	16940.873167	1435.924805	-127.292137
19477.683564	16940.873167	1434.852539	56.055206
19477.683564	16940.873167	1433.780273	60.350914
19477.683564	16940.873167	1432.707031	248.189270
19477.683564	16940.873167	1431.633789	218.045364
19477.683564	16940.873167	1430.560547	174.670532
19477.683564	16940.873167	1429.487305	-135.338181
19477.683564	16940.873167	1428.413086	-99.001335
19477.683564	16940.873167	1427.339844	127.866959
19477.683564	16940.873167	1426.265625	-43.426125
19477.683564	16940.873167	1425.191406	223.693436
19477.683564	16940.873167	1424.116211	379.633148
19477.683564	16940.873167	1423.041992	528.179688
19477.683564	16940.873167	1421.966797	25.945593
19477.683564	16940.873167	1420.891602	0.721311
19477.683564	16940.873167	1419.816406	143.738571
19477.683564	16940.873167	1418.740234	71.893570
19477.683564	16940.873167	1417.665039	18.706358
19477.683564	16940.873167	1416.588867	138.610748
19477.683564	16940.873167	1415.512695	50.228664
19477.683564	16940.873167	1414.435547	46.956646
19477.683564	16940.873167	1413.359375	164.134262
19477.683564	16940.873167	1412.282227	136.110107
19477.683564	16940.873167	1411.205078	83.689278
19477.683564	16940.873167	1410.127930	242.695236
19477.683564	16940.873167	1409.049805	-9.064877
19477.683564	16940.873167	1407.972656	316.015137
19477.683564	16940.873167	1406.894531	260.474152
19477.683564	16940.873167	1405.816406	13.667604
19477.683564	16940.873167	1404.737305	446.275970
19477.683564	16940.873167	1403.659180	122.832451
19477.683564	16940.873167	1402.580078	133.177414
19477.683564	16940.873167	1401.500977	688.910034
19477.683564	16940.873167	1400.421875	563.394653
19477.683564	16940.873167	1399.341797	371.890381
19477.683564	16940.873167	1398.262695	461.861115
19477.683564	16940.873167	1397.182617	693.333618
19477.683564	16940.873167	1396.102539	507.455353
19477.683564	16940.873167	1395.021484	202.589218
19477.683564	16940.873167	1393.941406	380.948456
19477.683564	16940.873167	1392.860352	163.019409
19477.683564	16940.873167	1391.779297	297.855499
19477.683564	16940.873167	1390.698242	684.268372
19477.683564	16940.873167	1389.616211	529.375061
19477.683564	16940.873167	1388.535156	394.776825
19477.683564	16940.873167	1387.453125	668.400146
19477.683564	16940.873167	1386.371094	416.098755
19477.683564	16940.873167	1385.288086	664.898254
19477.683564	16940.873167	1384.206055	463.244965
19477.683564	16940.873167	1383.123047	400.614716
19477.683564	16940.873167	1382.040039	523.396179
19477.683564	16940.873167	1380.957031	468.106018
19477.683564	16940.873167	1379.873047	783.367798
19477.683564	16940.873167	1378.789063	642.261292
19477.683564	16940.873167	1377.705078	662.068848
19477.683564	16940.873167	1376.621094	789.877380
19477.683564	16940.873167	1375.537109	827.889099
19477.683564	16940.873167	1374.452148	516.872375
19477.683564	16940.873167	1373.367188	603.226990
19477.683564	16940.873167	1372.282227	408.307495
19477.683564	16940.873167	1371.197266	814.581665
19477.683564	16940.873167	1370.112305	571.376648
19477.683564	16940.873167	1369.026367	520.111572
19477.683564	16940.873167	1367.940430	470.375305
19477.683564	16940.873167	1366.854492	742.512634
19477.683564	16940.873167	1365.767578	573.954407
19477.683564	16940.873167	1364.681641	720.316467
19477.683564	16940.873167	1363.594727	725.139404
19477.683564	16940.873167	1362.507813	408.986481
19477.683564	16940.873167	1361.419922	267.601288
19477.683564	16940.873167	1360.333008	473.560089
19477.683564	16940.873167	1359.245117	630.562134
19477.683564	16940.873167	1358.157227	591.354004
19477.683564	16940.873167	1357.069336	699.991394
19477.683564	16940.873167	1355.981445	352.129547
19477.683564	16940.873167	1354.892578	744.242920
19477.683564	16940.873167	1353.803711	689.620728
19477.683564	16940.873167	1352.714844	542.723022
19477.683564	16940.873167	1351.625000	594.370056
19477.683564	16940.873167	1350.536133	765.871521
19477.683564	16940.873167	1349.446289	514.423645
19477.683564	16940.873167	1348.356445	769.518616
19477.683564	16940.873167	1347.266602	582.096863
19477.683564	16940.873167	1346.175781	1193.240601
19477.683564	16940.873167	1345.085938	1085.456299
19477.683564	16940.873167	1343.995117	995.405518
19477.683564	16940.873167	1342.903320	1063.411499
19477.683564	16940.873167	1341.812500	1191.418091
19477.683564	16940.873167	1340.720703	1284.555908
19477.683564	16940.873167	1339.629883	1391.403076
19477.683564	16940.873167	1338.538086	1465.184204
19477.683564	16940.873167	1337.445313	1430.878662
19477.683564	16940.873167	1336.353516	1607.281616
19477.683564	16940.873167	1335.260742	1447.496582
19477.683564	16940.873167	1334.167969	1312.548218
19477.683564	16940.873167	1333.075195	1389.105713
19477.683564	16940.873167	1331.981445	1480.167603
19477.683564	16940.873167	1330.888672	1130.376343
19477.683564	16940.873167	1329.794922	1178.509399
19477.683564	16940.873167	1328.701172	1069.040771
19477.683564	16940.873167	1327.606445	791.453613
19477.683564	16940.873167	1326.512695	962.972168
19477.683564	16940.873167	1325.417969	761.159363
19477.683564	16940.873167	1324.323242	1026.987183
19477.683564	16940.873167	1323.227539	871.751282
19477.683564	16940.873167	1322.132813	774.351440
19477.683564	16940.873167	1321.037109	744.417297
19477.683564	16940.873167	1319.941406	802.024109
19477.683564	16940.873167	1318.845703	1005.467896
19477.683564	16940.873167	1317.750000	1130.532837
19477.683564	16940.873167	1316.653320	964.266663
19477.683564	16940.873167	1315.556641	805.379517
19477.683564	16940.873167	1314.459961	838.749268
19477.683564	16940.873167	1313.363281	735.757813
19477.683564	16940.873167	1312.265625	414.882813
19477.683564	16940.873167	1311.167969	698.002075
19477.683564	16940.873167	1310.070313	484.931183
19477.683564	16940.873167	1308.972656	537.145691
19477.683564	16940.873167	1307.874023	614.179932
19477.683564	16940.873167	1306.776367	419.288635
19477.683564	16940.873167	1305.677734	526.133179
19477.683564	16940.873167	1304.579102	532.384399
19477.683564	16940.873167	1303.479492	375.342285
19477.683564	16940.873167	1302.380859	577.029175
19477.683564	16940.873167	1301.281250	588.416931
19477.683564	16940.873167	1300.181641	616.889343
19477.683564	16940.873167	1299.081055	457.764069
19477.683564	16940.873167	1297.981445	537.358215
19477.683564	16940.873167	1296.880859	435.262909
19477.683564	16940.873167	1295.780273	594.365906
19477.683564	16940.873167	1294.679688	481.718903
19477.683564	16940.873167	1293.578125	490.516602
19477.683564	16940.873167	1292.476563	489.273529
19477.683564	16940.873167	1291.375000	554.469299
19477.683564	16940.873167	1290.273438	527.411621
19477.683564	16940.873167	1289.171875	682.101501
19477.683564	16940.873167	1288.069336	494.124298
19477.683564	16940.873167	1286.966797	413.765991
19477.683564	16940.873167	1285.864258	561.189880
19477.683564	16940.873167	1284.761719	466.541473
19477.683564	16940.873167	1283.658203	99.117050
19477.683564	16940.873167	1282.554688	513.894104
19477.683564	16940.873167	1281.451172	486.938171
19477.683564	16940.873167	1280.347656	379.670349
19477.683564	16940.873167	1279.244141	405.501892
19477.683564	16940.873167	1278.139648	366.201599
19477.683564	16940.873167	1277.035156	275.358398
19477.683564	16940.873167	1275.930664	437.828918
19477.683564	16940.873167	1274.825195	444.727661
19477.683564	16940.873167	1273.720703	260.498993
19477.683564	16940.873167	1272.615234	392.599243
19477.683564	16940.873167	1271.508789	560.832336
19477.683564	16940.873167	1270.403320	447.011810
19477.683564	16940.873167	1269.297852	709.138977
19477.683564	16940.873167	1268.191406	519.707092
19477.683564	16940.873167	1267.084961	476.047485
19477.683564	16940.873167	1265.977539	567.122253
19477.683564	16940.873167	1264.871094	439.950226
19477.683564	16940.873167	1263.763672	366.333282
19477.683564	16940.873167	1262.656250	456.583282
19477.683564	16940.873167	1261.548828	220.603760
19477.683564	16940.873167	1260.440430	281.954407
19477.683564	16940.873167	1259.333008	162.101593
19477.683564	16940.873167	1258.224609	352.362640
19477.683564	16940.873167	1257.115234	251.027817
19477.683564	16940.873167	1256.006836	329.796051
19477.683564	16940.873167	1254.897461	338.949402
19477.683564	16940.873167	1253.788086	393.665131
19477.683564	16940.873167	1252.678711	177.221909
19477.683564	16940.873167	1251.569336	367.302643
19477.683564	16940.873167	1250.458984	64.873093
19477.683564	16940.873167	1249.349609	273.917725
19477.683564	16940.873167	1248.239258	298.081604
19477.683564	16940.873167	1247.127930	19.053457
19477.683564	16940.873167	1246.017578	342.355042
19477.683564	16940.873167	1244.906250	363.976990
19477.683564	16940.873167	1243.794922	345.014832
19477.683564	16940.873167	1242.683594	439.462128
19477.683564	16940.873167	1241.571289	219.895798
19477.683564	16940.873167	1240.459961	74.478546
19477.683564	16940.873167	1239.347656	305.493683
19477.683564	16940.873167	1238.234375	197.598770
19477.683564	16940.873167	1237.122070	386.765320
19477.683564	16940.873167	1236.008789	239.956146
19477.683564	16940.873167	1234.896484	93.480850
19477.683564	16940.873167	1233.782227	175.252457
19477.683564	16940.873167	1232.668945	-11.229080
19477.683564	16940.873167	1231.555664	28.443096
19477.683564	16940.873167	1230.441406	54.486282
19477.683564	16940.873167	1229.327148	-77.661659
19477.683564	16940.873167	1228.211914	-101.394821
19477.683564	16940.873167	1227.097656	251.684784
19477.683564	16940.873167	1225.982422	215.047256
19477.683564	16940.873167	1224.867188	168.825958
19477.683564	16940.873167	1223.751953	205.182510
19477.683564	16940.873167	1222.635742	159.759796
19477.683564	16940.873167	1221.520508	-164.594574
19477.683564	16940.873167	1220.404297	11.860663
19477.683564	16940.873167	1219.287109	-145.052795
19477.683564	16940.873167	1218.170898	-17.535885
19477.683564	16940.873167	1217.053711	25.724689
19477.683564	16940.873167	1215.936523	-125.602196
19477.683564	16940.873167	1214.819336	-52.932949
19477.683564	16940.873167	1213.702148	-116.986725
19477.683564	16940.873167	1212.583984	109.582191
19477.683564	16940.873167	1211.465820	228.612778
19477.683564	16940.873167	1210.347656	-136.528137
19477.683564	16940.873167	1209.229492	73.250893
19477.683564	16940.873167	1208.110352	120.408691
19477.683564	16940.873167	1206.992188	-21.010620
19477.683564	16940.873167	1205.873047	3.014484
19477.683564	16940.873167	1204.752930	175.221832
19477.683564	16940.873167	1203.633789	145.556198
19477.683564	16940.873167	1202.513672	162.140442
19477.683564	16940.873167	1201.393555	12.620661
19477.683564	16940.873167	1200.273438	1.168437
19477.683564	16940.873167	1199.152344	-76.728378
19477.683564	16940.873167	1198.032227	-244.997559
19477.683564	16940.873167	1196.911133	-132.706116
19477.683564	16940.873167	1195.790039	-60.061192
19477.683564	16940.873167	1194.667969	-9.215714
19477.683564	16940.873167	1193.545898	-42.015400
19477.683564	16940.873167	1192.424805	-5.721790
19477.683564	16940.873167	1191.301758	41.940979
19477.683564	16940.873167	1190.179688	-218.668640
19477.683564	16940.873167	1189.056641	-68.604568
19477.683564	16940.873167	1187.933594	-354.499359
19477.683564	16940.873167	1186.810547	-157.603210
19477.683564	16940.873167	1185.687500	-116.904594
19477.683564	16940.873167	1184.563477	-103.423973
19477.683564	16940.873167	1183.440430	-148.716705
19477.683564	16940.873167	1182.316406	-335.427094
19477.683564	16940.873167	1181.191406	-119.981178
19477.683564	16940.873167	1180.067383	59.058132
19477.683564	16940.873167	1178.942383	-22.141197
19477.683564	16940.873167	1177.817383	-188.304977
19477.683564	16940.873167	1176.692383	-166.111053
19477.683564	16940.873167	1175.566406	58.945171
19477.683564	16940.873167	1174.440430	-219.274048
19477.683564	16940.873167	1173.314453	-112.872314
19477.683564	16940.873167	1172.188477	8.275264
19477.683564	16940.873167	1171.062500	11.846342
19477.683564	16940.873167	1169.935547	-114.867577
19477.683564	16940.873167	1168.808594	151.529266
19477.683564	16940.873167	1167.681641	76.566086
19477.683564	16940.873167	1166.553711	20.971771
19477.683564	16940.873167	1165.426758	-153.928436
19477.683564	16940.873167	1164.298828	56.090816
19477.683564	16940.873167	1163.170898	84.005646
19477.683564	16940.873167	1162.041992	109.533028
19477.683564	16940.873167	1160.914063	54.924431
19477.683564	16940.873167	1159.785156	112.031776
19477.683564	16940.873167	1158.656250	8.298218
19477.683564	16940.873167	1157.526367	70.674942
19477.683564	16940.873167	1156.397461	-101.863525
19477.683564	16940.873167	1155.267578	278.676971
19477.683564	16940.873167	1154.137695	-102.310974
19477.683564	16940.873167	1153.006836	228.473251
19477.683564	16940.873167	1151.876953	254.475327
19477.683564	16940.873167	1150.746094	-86.262154
19477.683564	16940.873167	1149.615234	-127.035820
19477.683564	16940.873167	1148.484375	-93.632736
19477.683564	16940.873167	1147.352539	49.868622
19477.683564	16940.873167	1146.220703	-73.037209
19477.683564	16940.873167	1145.088867	58.226032
19477.683564	16940.873167	1143.957031	35.574440
19477.683564	16940.873167	1142.825195	145.551086
19477.683564	16940.873167	1141.692383	-4.235251
19477.683564	16940.873167	1140.559570	-77.664734
19477.683564	16940.873167	1139.426758	-258.053650
19477.683564	16940.873167	1138.292969	-50.478889
19477.683564	16940.873167	1137.159180	-39.300922
19477.683564	16940.873167	1136.025391	-227.064545
19477.683564	16940.873167	1134.891602	-190.087967
19477.683564	16940.873167	1133.757813	-47.540989
19477.683564	16940.873167	1132.623047	-112.762405
19477.683564	16940.873167	1131.488281	-70.858513
19477.683564	16940.873167	1130.353516	-150.692444
19477.683564	16940.873167	1129.217773	95.049232
19477.683564	16940.873167	1128.083008	-96.978622
19477.683564	16940.873167	1126.947266	156.176788
19477.683564	16940.873167	1125.811523	16.723902
19477.683564	16940.873167	1124.674805	147.938828
19477.683564	16940.873167	1123.539063	-67.130547
19477.683564	16940.873167	1122.402344	2.907644
19477.683564	16940.873167	1121.265625	25.033529
19477.683564	16940.873167	1120.127930	-0.867556
19477.683564	16940.873167	1118.990234	190.239304
19477.683564	16940.873167	1117.853516	-61.040474
19477.683564	16940.873167	1116.714844	63.288277
19477.683564	16940.873167	1115.577148	17.558971
19477.683564	16940.873167	1114.439453	-147.151718
19477.683564	16940.873167	1113.300781	55.312771
19477.683564	16940.873167	1112.162109	-29.318970
19477.683564	16940.873167	1111.022461	20.097824
19477.683564	16940.873167	1109.883789	98.594627
19477.683564	16940.873167	1108.744141	-11.041263
19477.683564	16940.873167	1107.604492	135.614258
19477.683564	16940.873167	1106.463867	275.248749
19477.683564	16940.873167	1105.324219	67.165573
19477.683564	16940.873167	1104.183594	266.288391
19477.683564	16940.873167	1103.042969	-15.552271
19477.683564	16940.873167	1101.902344	335.401703
19477.683564	16940.873167	1100.760742	307.363068
19477.683564	16940.873167	1099.619141	113.002350
19477.683564	16940.873167	1098.477539	235.657730
19477.683564	16940.873167	1097.335938	-108.813065
19477.683564	16940.873167	1096.193359	134.646301
19477.683564	16940.873167	1095.051758	196.541168
19477.683564	16940.873167	1093.909180	219.728058
19477.683564	16940.873167	1092.765625	117.859482
19477.683564	16940.873167	1091.623047	381.554321
19477.683564	16940.873167	1090.479492	297.750854
19477.683564	16940.873167	1089.335938	264.942322
19477.683564	16940.873167	1088.192383	162.714966
19477.683564	16940.873167	1087.047852	480.183441
19477.683564	16940.873167	1085.903320	300.315674
19477.683564	16940.873167	1084.758789	98.299507
19477.683564	16940.873167	1083.614258	233.336426
19477.683564	16940.873167	1082.469727	471.618164
19477.683564	16940.873167	1081.324219	129.364655
19477.683564	16940.873167	1080.178711	302.354584
19477.683564	16940.873167	1079.033203	307.420349
19477.683564	16940.873167	1077.886719	188.613785
19477.683564	16940.873167	1076.740234	144.623871
19477.683564	16940.873167	1075.593750	268.716553
19477.683564	16940.873167	1074.447266	157.450806
19477.683564	16940.873167	1073.300781	246.815216
19477.683564	16940.873167	1072.153320	188.220825
19477.683564	16940.873167	1071.005859	323.073639
19477.683564	16940.873167	1069.858398	139.858368
19477.683564	16940.873167	1068.709961	128.726166
19477.683564	16940.873167	1067.561523	113.770653
19477.683564	16940.873167	1066.413086	157.466751
19477.683564	16940.873167	1065.264648	71.590225
19477.683564	16940.873167	1064.116211	37.787903
19477.683564	16940.873167	1062.966797	204.163910
19477.683564	16940.873167	1061.817383	148.532715
19477.683564	16940.873167	1060.667969	243.658325
19477.683564	16940.873167	1059.517578	319.363556
19477.683564	16940.873167	1058.368164	277.290955
19477.683564	16940.873167	1057.217773	266.038818
19477.683564	16940.873167	1056.067383	146.078033
19477.683564	16940.873167	1054.916016	65.664856
19477.683564	16940.873167	1053.764648	16.752655
19477.683564	16940.873167	1052.613281	48.390614
19477.683564	16940.873167	1051.461914	-77.387718
19477.683564	16940.873167	1050.310547	181.957062
19477.683564	16940.873167	1049.158203	104.155663
19477.683564	16940.873167	1048.005859	-48.631363
19477.683564	16940.873167	1046.853516	58.379539
19477.683564	16940.873167	1045.700195	71.508804
19477.683564	16940.873167	1044.547852	-25.945934
19477.683564	16940.873167	1043.394531	78.491753
19477.683564	16940.873167	1042.240234	32.638531
19477.683564	16940.873167	1041.086914	-46.385532
19477.683564	16940.873167	1039.932617	0.643863
19477.683564	16940.873167	1038.778320	124.479317
19477.683564	16940.873167	1037.624023	43.486401
19477.683564	16940.873167	1036.469727	-131.012283
19477.683564	16940.873167	1035.314453	332.490936
19477.683564	16940.873167	1034.159180	328.959656
19477.683564	16940.873167	1033.003906	479.163818
19477.683564	16940.873167	1031.847656	503.614838
19477.683564	16940.873167	1030.692383	708.222351
19477.683564	16940.873167	1029.536133	309.766846
19477.683564	16940.873167	1028.378906	460.785583
19477.683564	16940.873167	1027.222656	518.135620
19477.683564	16940.873167	1026.065430	400.724213
19477.683564	16940.873167	1024.908203	216.105026
19477.683564	16940.873167	1023.750977	253.047882
19477.683564	16940.873167	1022.593750	64.644897
19477.683564	16940.873167	1021.435547	146.993240
19477.683564	16940.873167	1020.277344	86.508018
19477.683564	16940.873167	1019.119141	178.425858
19477.683564	16940.873167	1017.959961	103.482513
19477.683564	16940.873167	1016.800781	147.565811
19477.683564	16940.873167	1015.641602	380.974854
19477.683564	16940.873167	1014.482422	162.229492
19477.683564	16940.873167	1013.323242	91.544823
19477.683564	16940.873167	1012.163086	198.181870
19477.683564	16940.873167	1011.002930	173.782471
19477.683564	16940.873167	1009.842773	337.071472
19477.683564	16940.873167	1008.681641	45.483704
19477.683564	16940.873167	1007.520508	163.823120
19477.683564	16940.873167	1006.359375	119.586067
19477.683564	16940.873167	1005.198242	46.360718
19477.683564	16940.873167	1004.037109	308.926605
19477.683564	16940.873167	1002.875000	139.419540
19477.683564	16940.873167	1001.712891	353.401428
19477.683564	16940.873167	1000.550781	267.858826
19477.683564	16940.873167	999.387695	-115.470963
19477.683564	16940.873167	998.224609	-56.846291
19477.683564	16940.873167	997.061523	15.250633
19477.683564	16940.873167	995.898438	-91.152626
19477.683564	16940.873167	994.734375	-45.555187
19477.683564	16940.873167	993.571289	-24.466000
19477.683564	16940.873167	992.407227	-110.574959
19477.683564	16940.873167	991.242188	-198.559662
19477.683564	16940.873167	990.078125	-202.417221
19477.683564	16940.873167	988.913086	-66.488060
19477.683564	16940.873167	987.748047	-175.253067
19477.683564	16940.873167	986.583008	-154.196442
19477.683564	16940.873167	985.416992	-79.475677
19477.683564	16940.873167	984.250977	81.436165
19477.683564	16940.873167	983.084961	-78.116982
19477.683564	16940.873167	981.918945	-2.633017
19477.683564	16940.873167	980.751953	66.312492
19477.683564	16940.873167	979.584961	68.340309
19477.683564	16940.873167	978.417969	-44.625591
19477.683564	16940.873167	977.250977	-224.672958
19477.683564	16940.873167	976.083008	-156.377487
19477.683564	16940.873167	974.915039	131.055511
19477.683564	16940.873167	973.747070	-23.360203
19477.683564	16940.873167	972.579102	-99.630363
19477.683564	16940.873167	971.410156	-33.725258
19477.683564	16940.873167	970.242188	-139.741104
19477.683564	16940.873167	969.072266	-107.530479
19477.683564	16940.873167	967.903320	73.036736
19477.683564	16940.873167	966.733398	-130.370895
19477.683564	16940.873167	965.563477	-69.331696
19477.683564	16940.873167	964.393555	108.798965
19477.683564	16940.873167	963.223633	-21.146824
19477.683564	16940.873167	962.052734	42.413200
19477.683564	16940.873167	960.881836	-13.630484
19477.683564	16940.873167	959.710938	98.604996
19477.683564	16940.873167	958.540039	63.451706
19477.683564	16940.873167	957.368164	168.556274
19477.683564	16940.873167	956.196289	57.207676
19477.683564	16940.873167	955.024414	81.275063
19477.683564	16940.873167	953.851563	-197.708282
19477.683564	16940.873167	952.679688	-92.840126
19477.683564	16940.873167	951.506836	120.219475
19477.683564	16940.873167	950.333984	-136.299057
19477.683564	16940.873167	949.160156	0.740977
19477.683564	16940.873167	947.986328	-73.381157
19477.683564	16940.873167	946.812500	-201.520950
19477.683564	16940.873167	945.638672	-79.033875
19477.683564	16940.873167	944.464844	101.775337
19477.683564	16940.873167	943.290039	-291.523132
19477.683564	16940.873167	942.115234	-50.987835
19477.683564	16940.873167	940.940430	-79.515327
19477.683564	16940.873167	939.764648	-82.363609
19477.683564	16940.873167	938.588867	-55.237709
19477.683564	16940.873167	937.413086	157.622070
19477.683564	16940.873167	936.237305	1.375820
19477.683564	16940.873167	935.060547	-98.791206
19477.683564	16940.873167	933.883789	113.894516
19477.683564	16940.873167	932.707031	-25.028028
19477.683564	16940.873167	931.530273	17.161757
19477.683564	16940.873167	930.352539	-5.304087
19477.683564	16940.873167	929.175781	235.153000
19477.683564	16940.873167	927.998047	212.604584
19477.683564	16940.873167	926.819336	21.988010
19477.683564	16940.873167	925.641602	85.629951
19477.683564	16940.873167	924.462891	54.420223
19477.683564	16940.873167	923.284180	107.214493
19477.683564	16940.873167	922.104492	190.143066
19477.683564	16940.873167	920.924805	-45.653229
19477.683564	16940.873167	919.746094	-36.740498
19477.683564	16940.873167	919.551758	30.072554
19477.683564	16940.873167	918.386719	179.505112
19477.683564	16940.873167	917.220703	-34.795452
19477.683564	16940.873167	916.054688	198.460205
19477.683564	16940.873167	914.887695	186.402267
19477.683564	16940.873167	913.721680	142.060837
19477.683564	16940.873167	912.554688	228.881958
19477.683564	16940.873167	911.387695	31.893301
19477.683564	16940.873167	910.220703	-3.846743
19477.683564	16940.873167	909.052734	39.920784
19477.683564	16940.873167	907.885742	150.237885
19477.683564	16940.873167	906.717773	11.341404
19477.683564	16940.873167	905.548828	-56.645901
19477.683564	16940.873167	904.380859	29.948944
19477.683564	16940.873167	903.211914	-164.707672
19477.683564	16940.873167	902.042969	-26.654388
19477.683564	16940.873167	900.874023	40.510914
19477.683564	16940.873167	899.704102	32.548939
19477.683564	16940.873167	898.535156	69.601585
19477.683564	16940.873167	897.365234	70.168991
19477.683564	16940.873167	896.194336	-325.915161
19477.683564	16940.873167	895.024414	-63.805782
19477.683564	16940.873167	893.853516	69.592873
19477.683564	16940.873167	892.682617	-45.632706
19477.683564	16940.873167	891.511719	239.755493
19477.683564	16940.873167	890.340820	68.806007
19477.683564	16940.873167	889.168945	157.007843
19477.683564	16940.873167	887.997070	82.439735
19477.683564	16940.873167	886.825195	-15.668123
19477.683564	16940.873167	885.653320	61.719131
19477.683564	16940.873167	884.480469	102.682167
19477.683564	16940.873167	883.307617	164.993179
19477.683564	16940.873167	882.134766	199.448746
19477.683564	16940.873167	880.961914	152.607147
19477.683564	16940.873167	879.788086	73.695427
19477.683564	16940.873167	878.614258	-199.717255
19477.683564	16940.873167	877.440430	129.579697
19477.683564	16940.873167	876.266602	148.916061
19477.683564	16940.873167	875.091797	76.368378
19477.683564	16940.873167	873.916992	25.179697
19477.683564	16940.873167	872.742188	131.986420
19477.683564	16940.873167	871.567383	-145.541855
19477.683564	16940.873167	870.391602	-72.947884
19477.683564	16940.873167	869.215820	3.851377
19477.683564	16940.873167	868.040039	-192.494034
19477.683564	16940.873167	866.864258	121.001854
19477.683564	16940.873167	865.687500	-92.406921
19477.683564	16940.873167	864.510742	-20.051304
19477.683564	16940.873167	863.333984	73.558586
19477.683564	16940.873167	862.157227	105.289574
19477.683564	16940.873167	860.979492	388.420959
19477.683564	16940.873167	859.802734	59.967304
19477.683564	16940.873167	858.625000	140.573425
19477.683564	16940.873167	857.446289	-136.643936
19477.683564	16940.873167	856.268555	-19.904430
19477.683564	16940.873167	855.089844	15.868238
19477.683564	16940.873167	853.911133	-154.848038
19477.683564	16940.873167	852.731445	-168.069107
19477.683564	16940.873167	851.552734	48.427017
19477.683564	16940.873167	850.373047	113.792557
19477.683564	16940.873167	849.193359	149.321930
19477.683564	16940.873167	848.013672	-163.871948
19477.683564	16940.873167	846.833008	-43.346111
19477.683564	16940.873167	845.652344	-27.042364
19477.683564	16940.873167	844.471680	-51.152481
19477.683564	16940.873167	843.291016	-124.153389
19477.683564	16940.873167	842.110352	-214.154831
19477.683564	16940.873167	840.928711	-221.340958
19477.683564	16940.873167	839.747070	-213.702255
19477.683564	16940.873167	838.564453	-148.795959
19477.683564	16940.873167	837.382813	-43.641499
19477.683564	16940.873167	836.200195	-288.644073
19477.683564	16940.873167	835.017578	-181.462021
19477.683564	16940.873167	833.834961	-72.247993
19477.683564	16940.873167	832.651367	-240.881729
19477.683564	16940.873167	831.467773	-157.220627
19477.683564	16940.873167	830.284180	57.772064
19477.683564	16940.873167	829.100586	122.178040
19477.683564	16940.873167	827.916992	-173.651505
19477.683564	16940.873167	826.732422	0.837151
19477.683564	16940.873167	825.547852	-13.271803
19477.683564	16940.873167	824.363281	91.148247
19477.683564	16940.873167	823.177734	269.576691
19477.683564	16940.873167	821.992188	26.711094
19477.683564	16940.873167	820.806641	1.848039
19477.683564	16940.873167	819.621094	-92.864380
19477.683564	16940.873167	818.434570	0.664393
19477.683564	16940.873167	817.249023	68.724892
19477.683564	16940.873167	816.062500	-4.940942
19477.683564	16940.873167	814.875000	213.086380
19477.683564	16940.873167	813.688477	-2.273441
19477.683564	16940.873167	812.500977	145.838486
19477.683564	16940.873167	811.313477	61.461971
19477.683564	16940.873167	810.125977	285.432648
19477.683564	16940.873167	808.937500	122.836861
19477.683564	16940.873167	807.749023	48.927452
19477.683564	16940.873167	806.560547	69.979523
19477.683564	16940.873167	805.372070	-151.714233
19477.683564	16940.873167	804.182617	230.065186
19477.683564	16940.873167	802.994141	324.744141
19477.683564	16940.873167	801.803711	147.276978
19477.683564	16940.873167	800.614258	-40.718903
19477.683564	16940.873167	799.424805	95.967697
19477.683564	16940.873167	798.234375	-62.532310
19477.683564	16940.873167	797.043945	-31.366037
19477.683564	16940.873167	795.852539	271.519226
19477.683564	16940.873167	794.662109	85.536880
19477.683564	16940.873167	793.470703	-134.115677
19477.683564	16940.873167	792.279297	-65.272842
19477.683564	16940.873167	791.087891	264.518311
19477.683564	16940.873167	789.895508	78.478287
19477.683564	16940.873167	788.703125	79.737671
19477.683564	16940.873167	787.510742	-32.662701
19477.683564	16940.873167	786.318359	-52.527679
19477.683564	16940.873167	785.125000	5.372849
19477.683564	16940.873167	783.931641	80.013435
19477.683564	16940.873167	782.738281	202.911514
19477.683564	16940.873167	781.544922	-10.552176
19477.683564	16940.873167	780.350586	126.912857
19477.683564	16940.873167	779.156250	28.982563
19477.683564	16940.873167	777.961914	120.063087
19477.683564	16940.873167	776.767578	122.853554
19477.683564	16940.873167	775.572266	-42.365456
19477.683564	16940.873167	774.376953	88.384979
19477.683564	16940.873167	773.181641	-194.391312
19477.683564	16940.873167	771.986328	51.616154
19477.683564	16940.873167	770.790039	73.015945
19477.683564	16940.873167	769.593750	39.820415
19477.683564	16940.873167	768.397461	209.970932
19477.683564	16940.873167	767.201172	250.018250
19477.683564	16940.873167	766.003906	95.070808
19477.683564	16940.873167	764.806641	185.303268
19477.683564	16940.873167	763.609375	206.303558
19477.683564	16940.873167	762.412109	162.302155
19477.683564	16940.873167	761.213867	191.561630
19477.683564	16940.873167	760.015625	141.188553
19477.683564	16940.873167	758.817383	254.056030
19477.683564	16940.873167	757.618164	159.625732
19477.683564	16940.873167	756.419922	6.585817
19477.683564	16940.873167	755.220703	119.238457
19477.683564	16940.873167	754.021484	217.145584
19477.683564	16940.873167	752.821289	285.680847
19477.683564	16940.873167	751.621094	301.863342
19477.683564	16940.873167	750.420898	217.646332
19477.683564	16940.873167	749.220703	114.600288
19477.683564	16940.873167	748.020508	222.567200
19477.683564	16940.873167	746.819336	230.162704
19477.683564	16940.873167	745.618164	220.992142
19477.683564	16940.873167	744.416992	224.295975
19477.683564	16940.873167	743.214844	271.383087
19477.683564	16940.873167	742.012695	230.732086
19477.683564	16940.873167	740.810547	252.643982
19477.683564	16940.873167	739.608398	670.896362
19477.683564	16940.873167	738.406250	333.819611
19477.683564	16940.873167	737.203125	359.701019
19477.683564	16940.873167	736.000000	398.027252
19477.683564	16940.873167	734.795898	575.950745
19477.683564	16940.873167	733.592773	318.153839
19477.683564	16940.873167	732.388672	372.970459
19477.683564	16940.873167	731.184570	406.877686
19477.683564	16940.873167	729.979492	321.994690
19477.683564	16940.873167	728.775391	372.449524
19477.683564	16940.873167	727.570313	324.978149
19477.683564	16940.873167	726.365234	-5.617875
19477.683564	16940.873167	725.160156	200.800568
19477.683564	16940.873167	723.954102	205.256775
19477.683564	16940.873167	722.748047	163.892365
19477.683564	16940.873167	721.541992	60.100384
19477.683564	16940.873167	720.334961	20.761482
19477.683564	16940.873167	719.128906	160.178345
19477.683564	16940.873167	717.921875	-14.366773
19477.683564	16940.873167	716.714844	226.727005
19477.683564	16940.873167	715.506836	-14.339454
19477.683564	16940.873167	714.298828	-60.097992
19477.683564	16940.873167	713.090820	-178.571457
19477.683564	16940.873167	711.882813	62.164593
19477.683564	16940.873167	710.674805	-214.147034
19477.683564	16940.873167	709.465820	-143.785095
19477.683564	16940.873167	708.256836	32.329224
19477.683564	16940.873167	707.047852	-24.030972
19477.683564	16940.873167	705.837891	-115.669861
19477.683564	16940.873167	704.627930	-126.439178
19477.683564	16940.873167	703.417969	-176.638977
19477.683564	16940.873167	702.208008	-46.522442
19477.683564	16940.873167	700.998047	-84.366173
19477.683564	16940.873167	699.787109	-49.715656
19477.683564	16940.873167	698.576172	243.823715
19477.683564	16940.873167	697.364258	-94.485947
19477.683564	16940.873167	696.153320	-76.538559
19477.683564	16940.873167	694.941406	-29.649588
19477.683564	16940.873167	693.729492	-42.843170
19477.683564	16940.873167	692.516602	37.055817
19477.683564	16940.873167	691.304688	-32.079639
19477.683564	16940.873167	690.091797	-26.751692
19477.683564	16940.873167	688.878906	26.106508
19477.683564	16940.873167	687.665039	124.396606
19477.683564	16940.873167	686.451172	-112.270515
19477.683564	16940.873167	685.237305	-251.731812
19477.683564	16940.873167	684.023438	-168.000977
19477.683564	16940.873167	682.809570	184.232529
19477.683564	16940.873167	681.594727	42.645695
19477.683564	16940.873167	680.379883	12.601542
19477.683564	16940.873167	679.165039	137.390137
19477.683564	16940.873167	677.949219	-35.137703
19477.683564	16940.873167	676.733398	-170.468475
19477.683564	16940.873167	675.517578	-159.272995
19477.683564	16940.873167	674.301758	29.301365
19477.683564	16940.873167	673.084961	96.093658
19477.683564	16940.873167	671.869141	12.312758
19477.683564	16940.873167	670.651367	114.086998
19477.683564	16940.873167	669.434570	-66.569138
19477.683564	16940.873167	668.216797	294.790955
19477.683564	16940.873167	667.000000	68.814758
19477.683564	16940.873167	665.781250	-10.834330
19477.683564	16940.873167	664.563477	96.940407
19477.683564	16940.873167	663.344727	-48.590275
19477.683564	16940.873167	662.125977	83.826729
19477.683564	16940.873167	660.907227	-65.776154
19477.683564	16940.873167	659.688477	171.510498
19477.683564	16940.873167	658.468750	256.455444
19477.683564	16940.873167	657.249023	388.665344
19477.683564	16940.873167	656.029297	212.366089
19477.683564	16940.873167	654.808594	120.429955
19477.683564	16940.873167	653.587891	164.190231
19477.683564	16940.873167	652.367188	277.802490
19477.683564	16940.873167	651.146484	142.760117
19477.683564	16940.873167	649.924805	320.009735
19477.683564	16940.873167	648.704102	111.085831
19477.683564	16940.873167	647.482422	142.489655
19477.683564	16940.873167	646.259766	132.829926
19477.683564	16940.873167	645.037109	114.969269
19477.683564	16940.873167	643.815430	468.535919
19477.683564	16940.873167	642.591797	389.083954
19477.683564	16940.873167	641.369141	518.890015
19477.683564	16940.873167	640.145508	380.014099
19477.683564	16940.873167	638.921875	321.168396
19477.683564	16940.873167	637.698242	309.510468
19477.683564	16940.873167	636.474609	226.143173
19477.683564	16940.873167	635.250000	167.415619
19477.683564	16940.873167	634.025391	282.856384
19477.683564	16940.873167	632.800781	431.039063
19477.683564	16940.873167	631.575195	425.603760
19477.683564	16940.873167	630.349609	57.838810
19477.683564	16940.873167	629.124023	66.860756
19477.683564	16940.873167	627.898438	364.438477
19477.683564	16940.873167	626.671875	371.395813
19477.683564	16940.873167	625.445313	167.696762
19477.683564	16940.873167	624.218750	-46.114422
19477.683564	16940.873167	622.992188	100.049500
19477.683564	16940.873167	621.764648	41.764385
19477.683564	16940.873167	620.537109	102.076149
19477.683564	16940.873167	619.309570	111.312248
19477.683564	16940.873167	618.081055	257.454834
19477.683564	16940.873167	616.852539	-9.002971
19477.683564	16940.873167	615.624023	-60.895889
19477.683564	16940.873167	614.395508	228.214844
19477.683564	16940.873167	613.166992	396.816772
19477.683564	16940.873167	611.937500	508.249634
19477.683564	16940.873167	610.708008	731.894958
19477.683564	16940.873167	609.477539	508.764313
19477.683564	16940.873167	608.248047	340.838165
19477.683564	16940.873167	607.017578	340.226410
19477.683564	16940.873167	605.787109	141.925613
19477.683564	16940.873167	604.555664	-115.346397
19477.683564	16940.873167	603.325195	-129.975891
19477.683564	16940.873167	602.093750	-105.837990
19477.683564	16940.873167	600.861328	-75.546730
19477.683564	16940.873167	599.629883	70.859001
19477.683564	16940.873167	598.397461	-157.356094
19477.683564	16940.873167	597.165039	-53.629448
19477.683564	16940.873167	595.932617	-69.958122
19477.683564	16940.873167	594.699219	-216.438599
19477.683564	16940.873167	593.465820	-157.341537
19477.683564	16940.873167	592.232422	-395.140625
19477.683564	16940.873167	590.999023	7.724570
19477.683564	16940.873167	589.764648	-111.974167
19477.683564	16940.873167	588.530273	-138.066391
19477.683564	16940.873167	587.295898	-80.770081
19477.683564	16940.873167	586.061523	133.001480
19477.683564	16940.873167	584.826172	96.912704
19477.683564	16940.873167	583.590820	-79.214935
19477.683564	16940.873167	582.355469	-86.684494
19477.683564	16940.873167	581.119141	-12.887161
19477.683564	16940.873167	579.882813	89.358612
19477.683564	16940.873167	578.646484	140.905899
19477.683564	16940.873167	577.410156	117.442703
19477.683564	16940.873167	576.172852	380.030029
19477.683564	16940.873167	574.935547	80.896881
19477.683564	16940.873167	573.698242	219.856140
19477.683564	16940.873167	572.460938	419.632721
19477.683564	16940.873167	571.222656	228.299362
19477.683564	16940.873167	569.984375	341.018311
19477.683564	16940.873167	568.746094	91.184196
19477.683564	16940.873167	567.506836	364.014374
19477.683564	16940.873167	566.267578	387.762512
19477.683564	16940.873167	565.028320	209.147293
19477.683564	16940.873167	563.789063	328.182404
19477.683564	16940.873167	562.548828	499.850708
19477.683564	16940.873167	561.309570	521.814880
19477.683564	16940.873167	560.068359	640.930298
19477.683564	16940.873167	558.828125	687.266846
19477.683564	16940.873167	557.586914	931.780701
19477.683564	16940.873167	556.345703	962.009705
19477.683564	16940.873167	555.104492	826.590149
19477.683564	16940.873167	553.863281	828.685486
19477.683564	16940.873167	552.621094	451.102722
19477.683564	16940.873167	551.378906	469.572571
19477.683564	16940.873167	550.136719	478.008301
19477.683564	16940.873167	548.893555	656.074280
19477.683564	16940.873167	547.650391	674.692200
19477.683564	16940.873167	546.407227	707.491882
19477.683564	16940.873167	545.164063	589.042542
19477.683564	16940.873167	543.919922	450.539551
19477.683564	16940.873167	542.675781	618.661926
19477.683564	16940.873167	541.431641	542.830200
19477.683564	16940.873167	540.186523	809.747437
19477.683564	16940.873167	538.941406	1062.502441
19477.683564	16940.873167	537.696289	918.298462
19477.683564	16940.873167	536.451172	1116.643555
19477.683564	16940.873167	535.205078	1401.557007
19477.683564	16940.873167	533.959961	1046.113403
19477.683564	16940.873167	532.712891	892.181335
19477.683564	16940.873167	531.466797	826.911255
19477.683564	16940.873167	530.219727	1131.953003
19477.683564	16940.873167	528.972656	966.159668
19477.683564	16940.873167	527.725586	1170.554077
19477.683564	16940.873167	526.478516	930.496826
19477.683564	16940.873167	525.230469	1084.621826
19477.683564	16940.873167	523.982422	989.473022
19477.683564	16940.873167	522.734375	1033.049194
19477.683564	16940.873167	521.485352	940.015442
19477.683564	16940.873167	520.236328	1059.963867
19477.683564	16940.873167	518.987305	1137.703491
19477.683564	16940.873167	517.737305	845.982849
19477.683564	16940.873167	516.488281	1040.186646
19477.683564	16940.873167	515.238281	746.619690
19477.683564	16940.873167	513.988281	701.994812
19477.683564	16940.873167	512.737305	876.055847
19477.683564	16940.873167	511.486328	853.478027
19477.683564	16940.873167	510.235352	866.993286
19477.683564	16940.873167	508.984375	1121.067627
19477.683564	16940.873167	507.732422	956.094604
19477.683564	16940.873167	506.480469	1047.674805
19477.683564	16940.873167	505.228516	1026.986572
19477.683564	16940.873167	503.976563	1182.542236
19477.683564	16940.873167	502.723633	1101.679932
19477.683564	16940.873167	501.470703	1257.067871
19477.683564	16940.873167	500.217773	1350.278320
19477.683564	16940.873167	498.963867	1351.330444
19477.683564	16940.873167	497.709961	1322.302246
19477.683564	16940.873167	496.456055	1299.214478
19477.683564	16940.873167	495.202148	1536.070557
19477.683564	16940.873167	493.947266	1610.769287
19477.683564	16940.873167	492.692383	1675.347046
19477.683564	16940.873167	491.437500	1823.745850
19477.683564	16940.873167	490.181641	1716.186279
19477.683564	16940.873167	488.926758	1886.267456
19477.683564	16940.873167	487.670898	1598.724121
19477.683564	16940.873167	486.414063	1974.208130
19477.683564	16940.873167	485.158203	1934.084351
19477.683564	16940.873167	483.901367	2085.469238
19477.683564	16940.873167	482.644531	1977.178955
19477.683564	16940.873167	481.386719	2106.220947
19477.683564	16940.873167	480.128906	2336.770996
19477.683564	16940.873167	478.871094	2182.098877
19477.683564	16940.873167	477.613281	2485.935059
19477.683564	16940.873167	476.355469	2464.470947
19477.683564	16940.873167	475.096680	2440.811279
19477.683564	16940.873167	473.837891	2638.133301
19477.683564	16940.873167	472.578125	2438.657959
19477.683564	16940.873167	471.319336	2593.580811
19477.683564	16940.873167	470.059570	2505.217041
19477.683564	16940.873167	468.799805	2536.085449
19477.683564	16940.873167	467.539063	2518.881592
19477.683564	16940.873167	466.278320	2716.332764
19477.683564	16940.873167	465.017578	2841.759033
19477.683564	16940.873167	463.756836	2801.696533
19477.683564	16940.873167	462.495117	2747.395264
19477.683564	16940.873167	461.233398	2943.317139
19477.683564	16940.873167	459.971680	2868.421387
19477.683564	16940.873167	458.709961	2999.895020
19477.683564	16940.873167	457.447266	2918.291016
19477.683564	16940.873167	456.184570	2760.822510
19477.683564	16940.873167	454.921875	3091.640869
19477.683564	16940.873167	453.658203	2933.347656
19477.683564	16940.873167	452.394531	2975.206787
19477.683564	16940.873167	451.130859	2933.208252
19477.683564	16940.873167	449.867188	3134.856201
19477.683564	16940.873167	448.602539	3173.207520
19477.683564	16940.873167	447.337891	3155.483887
19477.683564	16940.873167	446.073242	3059.882813
19477.683564	16940.873167	444.807617	3064.893311
19477.683564	16940.873167	443.542969	3023.742432
19477.683564	16940.873167	442.276367	3160.392334
19477.683564	16940.873167	441.010742	3238.916504
19477.683564	16940.873167	439.744141	3358.376709
19477.683564	16940.873167	438.478516	3302.839844
19477.683564	16940.873167	437.210938	3452.599365
19477.683564	16940.873167	435.944336	3366.005615
19477.683564	16940.873167	434.676758	3542.003906
19477.683564	16940.873167	433.409180	3327.323730
19477.683564	16940.873167	432.141602	3377.117676
19477.683564	16940.873167	430.873047	3343.024902
19477.683564	16940.873167	429.604492	3430.767578
19477.683564	16940.873167	428.335938	3173.600586
19477.683564	16940.873167	427.067383	3232.003174
19477.683564	16940.873167	425.797852	3309.266113
19477.683564	16940.873167	424.528320	3296.680908
19477.683564	16940.873167	423.258789	3142.916504
19477.683564	16940.873167	421.988281	3276.637695
19477.683564	16940.873167	420.717773	3630.505371
19477.683564	16940.873167	419.447266	3452.128906
19477.683564	16940.873167	418.175781	3237.258789
19477.683564	16940.873167	416.905273	3281.950928
19477.683564	16940.873167	415.633789	3252.525879
19477.683564	16940.873167	414.362305	3068.142090
19477.683564	16940.873167	413.089844	3425.035645
19477.683564	16940.873167	411.817383	3356.679688
19477.683564	16940.873167	410.544922	3377.840332
19477.683564	16940.873167	409.272461	3090.306396
19477.683564	16940.873167	407.999023	3510.989502
19477.683564	16940.873167	406.725586	3378.589111
19477.683564	16940.873167	405.452148	3469.460938
19477.683564	16940.873167	404.177734	3623.896729
19477.683564	16940.873167	402.903320	3546.532959
19477.683564	16940.873167	401.628906	3731.539795
19477.683564	16940.873167	400.354492	3842.200439
19477.683564	16940.873167	399.079102	3827.339111
19477.683564	16940.873167	397.803711	3761.781738
19477.683564	16940.873167	396.528320	3322.995117
19477.683564	16940.873167	395.251953	3392.014893
19477.683564	16940.873167	393.976563	3463.335205
19477.683564	16940.873167	392.700195	3175.218262
19477.683564	16940.873167	391.422852	3252.914063
19477.683564	16940.873167	390.145508	3018.431641
19477.683564	16940.873167	388.869141	2925.675537
19477.683564	16940.873167	387.590820	3162.898193
19477.683564	16940.873167	386.313477	2919.158203
19477.683564	16940.873167	385.035156	3077.895996
19477.683564	16940.873167	383.756836	2924.552002
19477.683564	16940.873167	382.478516	2643.705078
19477.683564	16940.873167	381.199219	2945.411865
19477.683564	16940.873167	379.919922	2774.231934
19477.683564	16940.873167	378.640625	2624.516113
19477.683564	16940.873167	377.360352	2666.687012
19477.683564	16940.873167	376.080078	2506.703125
19477.683564	16940.873167	374.799805	2587.472168
19477.683564	16940.873167	373.519531	2746.193115
19477.683564	16940.873167	372.238281	2555.745361
19477.683564	16940.873167	370.957031	2464.769775
19477.683564	16940.873167	369.675781	2212.783691
19477.683564	16940.873167	368.394531	2326.337158
19477.683564	16940.873167	367.112305	2523.289307
19477.683564	16940.873167	365.830078	2279.284912
19477.683564	16940.873167	364.546875	2517.699219
19477.683564	16940.873167	363.264648	2127.564941
19477.683564	16940.873167	361.981445	2190.262451
19477.683564	16940.873167	360.698242	2398.628906
19477.683564	16940.873167	359.414063	2297.086182
19477.683564	16940.873167	358.129883	2333.286621
19477.683564	16940.873167	356.845703	2180.860840
19477.683564	16940.873167	355.561523	1884.792725
19477.683564	16940.873167	354.276367	2009.313477
19477.683564	16940.873167	352.991211	1726.467896
19477.683564	16940.873167	351.706055	1659.055298
19477.683564	16940.873167	350.420898	1806.874268
19477.683564	16940.873167	349.134766	1738.474854
19477.683564	16940.873167	347.848633	1518.398315
19477.683564	16940.873167	346.561523	1259.670044
19477.683564	16940.873167	345.275391	1245.148315
19477.683564	16940.873167	343.988281	1458.796997
19477.683564	16940.873167	342.700195	1140.382935
19477.683564	16940.873167	341.413086	1336.657471
19477.683564	16940.873167	340.125000	1012.648315
19477.683564	16940.873167	338.836914	1255.424561
19477.683564	16940.873167	337.548828	701.619324
19477.683564	16940.873167	336.259766	1029.526367
19477.683564	16940.873167	334.970703	642.745972
19477.683564	16940.873167	333.681641	625.461060
19477.683564	16940.873167	332.391602	706.808411
19477.683564	16940.873167	331.101563	674.786987
19477.683564	16940.873167	329.811523	544.945923
19477.683564	16940.873167	328.521484	517.511047
19477.683564	16940.873167	327.230469	512.486267
19477.683564	16940.873167	325.939453	238.444153
19477.683564	16940.873167	324.648438	600.814453
19477.683564	16940.873167	323.356445	153.815506
19477.683564	16940.873167	322.064453	140.888535
19477.683564	16940.873167	320.772461	-5.258680
19477.683564	16940.873167	319.480469	-20.640114
19477.683564	16940.873167	318.187500	43.935184
19477.683564	16940.873167	316.894531	-19.108467
19477.683564	16940.873167	315.601563	-9.979773
19477.683564	16940.873167	314.307617	76.807182
19477.683564	16940.873167	313.013672	-229.875443
19477.683564	16940.873167	311.719727	-218.419479
19477.683564	16940.873167	310.425781	17.842693
19477.683564	16940.873167	309.130859	-77.663887
19477.683564	16940.873167	307.835938	2.944993
19477.683564	16940.873167	306.541016	139.372452
19477.683564	16940.873167	305.245117	-164.469833
19477.683564	16940.873167	303.949219	21.101017
19477.683564	16940.873167	302.653320	111.116501
19477.683564	16940.873167	301.356445	18.212406
19477.683564	16940.873167	300.060547	-44.303856
19477.683564	16940.873167	298.763672	83.506577
