#X		#Y		#Wave		#Intensity
19471.826915	16915.193667	2000.043945	330.871246
19471.826915	16915.193667	1999.080078	-51.754028
19471.826915	16915.193667	1998.116211	31.533089
19471.826915	16915.193667	1997.151367	407.510651
19471.826915	16915.193667	1996.186523	-242.139420
19471.826915	16915.193667	1995.222656	-271.974304
19471.826915	16915.193667	1994.256836	302.804962
19471.826915	16915.193667	1993.291992	365.020264
19471.826915	16915.193667	1992.327148	424.974609
19471.826915	16915.193667	1991.361328	202.952789
19471.826915	16915.193667	1990.395508	411.870697
19471.826915	16915.193667	1989.429688	502.152954
19471.826915	16915.193667	1988.463867	248.716583
19471.826915	16915.193667	1987.497070	52.472870
19471.826915	16915.193667	1986.531250	462.390228
19471.826915	16915.193667	1985.564453	44.007412
19471.826915	16915.193667	1984.597656	150.056671
19471.826915	16915.193667	1983.630859	-304.848785
19471.826915	16915.193667	1982.664063	238.959137
19471.826915	16915.193667	1981.696289	115.608673
19471.826915	16915.193667	1980.728516	-34.726582
19471.826915	16915.193667	1979.761719	-377.533569
19471.826915	16915.193667	1978.792969	30.643427
19471.826915	16915.193667	1977.825195	-87.114410
19471.826915	16915.193667	1976.857422	-51.662125
19471.826915	16915.193667	1975.888672	-137.041672
19471.826915	16915.193667	1974.919922	78.764458
19471.826915	16915.193667	1973.951172	-198.847626
19471.826915	16915.193667	1972.982422	100.940201
19471.826915	16915.193667	1972.013672	-196.128006
19471.826915	16915.193667	1971.043945	182.625702
19471.826915	16915.193667	1970.075195	107.683693
19471.826915	16915.193667	1969.105469	0.802565
19471.826915	16915.193667	1968.135742	253.824402
19471.826915	16915.193667	1967.165039	-101.771263
19471.826915	16915.193667	1966.195313	-11.302825
19471.826915	16915.193667	1965.224609	111.206032
19471.826915	16915.193667	1964.253906	-140.597641
19471.826915	16915.193667	1963.283203	132.156403
19471.826915	16915.193667	1962.312500	343.303375
19471.826915	16915.193667	1961.341797	345.194244
19471.826915	16915.193667	1960.370117	46.915062
19471.826915	16915.193667	1959.399414	75.964233
19471.826915	16915.193667	1958.427734	-495.161163
19471.826915	16915.193667	1957.455078	62.792686
19471.826915	16915.193667	1956.483398	276.289215
19471.826915	16915.193667	1955.511719	457.751068
19471.826915	16915.193667	1954.539063	122.975883
19471.826915	16915.193667	1953.566406	464.142975
19471.826915	16915.193667	1952.593750	188.451920
19471.826915	16915.193667	1951.621094	436.106293
19471.826915	16915.193667	1950.647461	-94.931816
19471.826915	16915.193667	1949.674805	336.829224
19471.826915	16915.193667	1948.701172	-17.257116
19471.826915	16915.193667	1947.727539	38.715645
19471.826915	16915.193667	1946.753906	317.982788
19471.826915	16915.193667	1945.780273	359.092224
19471.826915	16915.193667	1944.805664	51.775902
19471.826915	16915.193667	1943.831055	127.202484
19471.826915	16915.193667	1942.856445	371.787292
19471.826915	16915.193667	1941.881836	84.140991
19471.826915	16915.193667	1940.907227	-159.313095
19471.826915	16915.193667	1939.932617	-35.050037
19471.826915	16915.193667	1938.957031	-190.247833
19471.826915	16915.193667	1937.981445	-78.362114
19471.826915	16915.193667	1937.005859	665.464294
19471.826915	16915.193667	1936.030273	88.783920
19471.826915	16915.193667	1935.054688	6.926769
19471.826915	16915.193667	1934.078125	532.257874
19471.826915	16915.193667	1933.101563	-181.330154
19471.826915	16915.193667	1932.125000	1.067089
19471.826915	16915.193667	1931.148438	545.486816
19471.826915	16915.193667	1930.171875	-197.256210
19471.826915	16915.193667	1929.194336	129.171677
19471.826915	16915.193667	1928.217773	-107.105209
19471.826915	16915.193667	1927.240234	-86.609009
19471.826915	16915.193667	1926.262695	26.706125
19471.826915	16915.193667	1925.284180	-390.497986
19471.826915	16915.193667	1924.306641	-186.897064
19471.826915	16915.193667	1923.328125	102.080147
19471.826915	16915.193667	1922.350586	-114.827591
19471.826915	16915.193667	1921.372070	24.876505
19471.826915	16915.193667	1920.392578	52.124569
19471.826915	16915.193667	1919.414063	413.761505
19471.826915	16915.193667	1918.434570	418.791534
19471.826915	16915.193667	1917.456055	506.700592
19471.826915	16915.193667	1916.476563	84.504387
19471.826915	16915.193667	1915.497070	55.172047
19471.826915	16915.193667	1914.516602	272.142303
19471.826915	16915.193667	1913.537109	462.105133
19471.826915	16915.193667	1912.556641	-91.787643
19471.826915	16915.193667	1911.576172	-214.054642
19471.826915	16915.193667	1910.595703	231.561157
19471.826915	16915.193667	1909.615234	-139.480057
19471.826915	16915.193667	1908.633789	130.346054
19471.826915	16915.193667	1907.653320	124.691734
19471.826915	16915.193667	1906.671875	48.313374
19471.826915	16915.193667	1905.690430	468.650146
19471.826915	16915.193667	1904.708984	75.533501
19471.826915	16915.193667	1903.727539	6.220685
19471.826915	16915.193667	1902.745117	-301.666687
19471.826915	16915.193667	1901.762695	-125.298309
19471.826915	16915.193667	1900.780273	94.696434
19471.826915	16915.193667	1899.797852	236.672577
19471.826915	16915.193667	1898.815430	278.785950
19471.826915	16915.193667	1897.832031	174.892181
19471.826915	16915.193667	1896.849609	-264.557159
19471.826915	16915.193667	1895.866211	-215.381744
19471.826915	16915.193667	1894.882813	212.784775
19471.826915	16915.193667	1893.898438	183.907043
19471.826915	16915.193667	1892.915039	-262.906158
19471.826915	16915.193667	1891.930664	135.587219
19471.826915	16915.193667	1890.947266	349.258118
19471.826915	16915.193667	1889.962891	184.004501
19471.826915	16915.193667	1888.977539	69.689156
19471.826915	16915.193667	1887.993164	1.418036
19471.826915	16915.193667	1887.007813	195.143234
19471.826915	16915.193667	1886.023438	296.494598
19471.826915	16915.193667	1885.038086	-143.208939
19471.826915	16915.193667	1884.051758	202.914963
19471.826915	16915.193667	1883.066406	342.696075
19471.826915	16915.193667	1882.081055	181.707764
19471.826915	16915.193667	1881.094727	192.772919
19471.826915	16915.193667	1880.108398	213.423782
19471.826915	16915.193667	1879.122070	287.265778
19471.826915	16915.193667	1878.135742	230.158279
19471.826915	16915.193667	1877.148438	303.763672
19471.826915	16915.193667	1876.162109	248.885941
19471.826915	16915.193667	1875.174805	53.506073
19471.826915	16915.193667	1874.187500	279.285889
19471.826915	16915.193667	1873.199219	410.492920
19471.826915	16915.193667	1872.211914	420.549164
19471.826915	16915.193667	1871.223633	285.348907
19471.826915	16915.193667	1870.236328	-261.118958
19471.826915	16915.193667	1869.248047	-125.495758
19471.826915	16915.193667	1868.258789	89.765167
19471.826915	16915.193667	1867.270508	-156.901337
19471.826915	16915.193667	1866.282227	0.060925
19471.826915	16915.193667	1865.292969	113.364021
19471.826915	16915.193667	1864.303711	-234.958008
19471.826915	16915.193667	1863.314453	387.841064
19471.826915	16915.193667	1862.324219	283.324524
19471.826915	16915.193667	1861.334961	152.178543
19471.826915	16915.193667	1860.344727	-239.767349
19471.826915	16915.193667	1859.354492	145.587875
19471.826915	16915.193667	1858.364258	28.705269
19471.826915	16915.193667	1857.374023	-122.016563
19471.826915	16915.193667	1856.383789	81.844414
19471.826915	16915.193667	1855.392578	343.417236
19471.826915	16915.193667	1854.401367	-46.337193
19471.826915	16915.193667	1853.410156	-105.731178
19471.826915	16915.193667	1852.418945	61.399494
19471.826915	16915.193667	1851.426758	192.210815
19471.826915	16915.193667	1850.435547	313.227173
19471.826915	16915.193667	1849.443359	171.479034
19471.826915	16915.193667	1848.451172	-40.177540
19471.826915	16915.193667	1847.458984	350.242035
19471.826915	16915.193667	1846.466797	417.745728
19471.826915	16915.193667	1845.473633	331.043640
19471.826915	16915.193667	1844.480469	362.211029
19471.826915	16915.193667	1843.487305	335.509796
19471.826915	16915.193667	1842.494141	248.557327
19471.826915	16915.193667	1841.500977	317.900696
19471.826915	16915.193667	1840.506836	-120.383347
19471.826915	16915.193667	1839.513672	-3.107992
19471.826915	16915.193667	1838.519531	-30.237185
19471.826915	16915.193667	1837.525391	115.621452
19471.826915	16915.193667	1836.530273	-113.611969
19471.826915	16915.193667	1835.536133	94.480637
19471.826915	16915.193667	1834.541016	-168.506882
19471.826915	16915.193667	1833.545898	375.603394
19471.826915	16915.193667	1832.550781	18.796059
19471.826915	16915.193667	1831.555664	142.250992
19471.826915	16915.193667	1830.560547	-60.937840
19471.826915	16915.193667	1829.564453	194.297409
19471.826915	16915.193667	1828.568359	101.361755
19471.826915	16915.193667	1827.572266	32.353043
19471.826915	16915.193667	1826.576172	-75.115234
19471.826915	16915.193667	1825.580078	325.828217
19471.826915	16915.193667	1824.583008	-378.960175
19471.826915	16915.193667	1823.585938	-9.481179
19471.826915	16915.193667	1822.588867	-146.031448
19471.826915	16915.193667	1821.591797	93.643127
19471.826915	16915.193667	1820.594727	-52.664299
19471.826915	16915.193667	1819.596680	-7.355583
19471.826915	16915.193667	1818.599609	-180.138214
19471.826915	16915.193667	1817.601563	49.375183
19471.826915	16915.193667	1816.603516	44.051723
19471.826915	16915.193667	1815.604492	153.536026
19471.826915	16915.193667	1814.606445	78.586212
19471.826915	16915.193667	1813.607422	223.717804
19471.826915	16915.193667	1812.608398	112.688927
19471.826915	16915.193667	1811.609375	-22.320553
19471.826915	16915.193667	1810.610352	2.865350
19471.826915	16915.193667	1809.610352	82.937561
19471.826915	16915.193667	1808.611328	189.178787
19471.826915	16915.193667	1807.611328	-10.681771
19471.826915	16915.193667	1806.611328	90.559898
19471.826915	16915.193667	1805.610352	-279.058014
19471.826915	16915.193667	1804.610352	-10.775449
19471.826915	16915.193667	1803.609375	-172.633514
19471.826915	16915.193667	1802.608398	-69.451279
19471.826915	16915.193667	1801.607422	121.935539
19471.826915	16915.193667	1800.606445	-97.441620
19471.826915	16915.193667	1799.605469	110.386177
19471.826915	16915.193667	1798.603516	-152.059143
19471.826915	16915.193667	1797.601563	-288.057098
19471.826915	16915.193667	1796.599609	110.220604
19471.826915	16915.193667	1795.597656	33.653088
19471.826915	16915.193667	1794.595703	147.767883
19471.826915	16915.193667	1793.592773	147.313019
19471.826915	16915.193667	1792.589844	-203.627289
19471.826915	16915.193667	1791.587891	-56.460632
19471.826915	16915.193667	1790.583984	-69.088440
19471.826915	16915.193667	1789.581055	-115.155769
19471.826915	16915.193667	1788.577148	203.098206
19471.826915	16915.193667	1787.574219	-17.035963
19471.826915	16915.193667	1786.570313	-232.422821
19471.826915	16915.193667	1785.566406	-16.977514
19471.826915	16915.193667	1784.561523	-389.558289
19471.826915	16915.193667	1783.557617	344.372223
19471.826915	16915.193667	1782.552734	-66.395004
19471.826915	16915.193667	1781.547852	-146.477844
19471.826915	16915.193667	1780.542969	-404.985474
19471.826915	16915.193667	1779.538086	-283.066101
19471.826915	16915.193667	1778.532227	-192.191803
19471.826915	16915.193667	1777.527344	309.734467
19471.826915	16915.193667	1776.521484	-134.407562
19471.826915	16915.193667	1775.515625	120.030449
19471.826915	16915.193667	1774.508789	51.216671
19471.826915	16915.193667	1773.502930	-164.911270
19471.826915	16915.193667	1772.496094	108.092094
19471.826915	16915.193667	1771.489258	-359.812073
19471.826915	16915.193667	1770.482422	-15.854027
19471.826915	16915.193667	1769.475586	104.798508
19471.826915	16915.193667	1768.467773	417.496796
19471.826915	16915.193667	1767.460938	-107.425896
19471.826915	16915.193667	1766.453125	86.416214
19471.826915	16915.193667	1765.445313	28.723129
19471.826915	16915.193667	1764.437500	184.338852
19471.826915	16915.193667	1763.428711	-193.553741
19471.826915	16915.193667	1762.420898	-78.433014
19471.826915	16915.193667	1761.412109	204.789108
19471.826915	16915.193667	1760.403320	305.383392
19471.826915	16915.193667	1759.393555	261.356628
19471.826915	16915.193667	1758.384766	15.957658
19471.826915	16915.193667	1757.375000	234.637222
19471.826915	16915.193667	1756.366211	-112.640610
19471.826915	16915.193667	1755.356445	302.242523
19471.826915	16915.193667	1754.345703	139.470200
19471.826915	16915.193667	1753.335938	-120.332779
19471.826915	16915.193667	1752.325195	346.076416
19471.826915	16915.193667	1751.315430	22.291655
19471.826915	16915.193667	1750.304688	180.914810
19471.826915	16915.193667	1749.292969	171.524094
19471.826915	16915.193667	1748.282227	332.241180
19471.826915	16915.193667	1747.270508	353.366760
19471.826915	16915.193667	1746.259766	171.198593
19471.826915	16915.193667	1745.248047	29.165958
19471.826915	16915.193667	1744.235352	231.925171
19471.826915	16915.193667	1743.223633	231.442551
19471.826915	16915.193667	1742.211914	-38.284046
19471.826915	16915.193667	1741.199219	88.571075
19471.826915	16915.193667	1740.186523	231.807785
19471.826915	16915.193667	1739.173828	230.961578
19471.826915	16915.193667	1738.160156	-312.591248
19471.826915	16915.193667	1737.147461	40.304039
19471.826915	16915.193667	1736.133789	211.383911
19471.826915	16915.193667	1735.120117	462.475983
19471.826915	16915.193667	1734.106445	-73.985718
19471.826915	16915.193667	1733.091797	264.093414
19471.826915	16915.193667	1732.078125	-314.713043
19471.826915	16915.193667	1731.063477	-304.380341
19471.826915	16915.193667	1730.048828	47.423504
19471.826915	16915.193667	1729.034180	194.112976
19471.826915	16915.193667	1728.019531	11.001007
19471.826915	16915.193667	1727.003906	30.334162
19471.826915	16915.193667	1725.988281	-185.801346
19471.826915	16915.193667	1724.972656	-8.932400
19471.826915	16915.193667	1723.957031	-53.386662
19471.826915	16915.193667	1722.941406	123.226967
19471.826915	16915.193667	1721.924805	-55.470291
19471.826915	16915.193667	1720.909180	-27.239038
19471.826915	16915.193667	1719.892578	308.889191
19471.826915	16915.193667	1718.875977	-48.635509
19471.826915	16915.193667	1717.858398	-265.098450
19471.826915	16915.193667	1716.841797	68.291183
19471.826915	16915.193667	1715.824219	6.782554
19471.826915	16915.193667	1714.806641	-198.064575
19471.826915	16915.193667	1713.789063	198.281616
19471.826915	16915.193667	1712.770508	134.191757
19471.826915	16915.193667	1711.752930	53.625351
19471.826915	16915.193667	1710.734375	123.213745
19471.826915	16915.193667	1709.715820	-142.865707
19471.826915	16915.193667	1708.697266	-0.690564
19471.826915	16915.193667	1707.678711	146.048370
19471.826915	16915.193667	1706.659180	449.779999
19471.826915	16915.193667	1705.640625	272.644379
19471.826915	16915.193667	1704.621094	381.506470
19471.826915	16915.193667	1703.600586	143.343246
19471.826915	16915.193667	1702.581055	380.931885
19471.826915	16915.193667	1701.561523	597.267639
19471.826915	16915.193667	1700.541016	370.697052
19471.826915	16915.193667	1699.520508	724.988037
19471.826915	16915.193667	1698.500000	805.094421
19471.826915	16915.193667	1697.478516	1217.542236
19471.826915	16915.193667	1696.458008	1089.062622
19471.826915	16915.193667	1695.436523	485.468658
19471.826915	16915.193667	1694.415039	1019.208435
19471.826915	16915.193667	1693.393555	1045.028687
19471.826915	16915.193667	1692.372070	921.074646
19471.826915	16915.193667	1691.349609	1269.473755
19471.826915	16915.193667	1690.327148	1407.248413
19471.826915	16915.193667	1689.304688	1484.125977
19471.826915	16915.193667	1688.282227	932.216553
19471.826915	16915.193667	1687.259766	1450.669434
19471.826915	16915.193667	1686.236328	1845.029541
19471.826915	16915.193667	1685.213867	1842.095947
19471.826915	16915.193667	1684.190430	1619.575073
19471.826915	16915.193667	1683.166016	1562.842529
19471.826915	16915.193667	1682.142578	2047.678101
19471.826915	16915.193667	1681.119141	1946.435425
19471.826915	16915.193667	1680.094727	1896.499146
19471.826915	16915.193667	1679.070313	2324.814209
19471.826915	16915.193667	1678.045898	2090.432373
19471.826915	16915.193667	1677.020508	1881.730469
19471.826915	16915.193667	1675.996094	2169.730713
19471.826915	16915.193667	1674.970703	2422.584473
19471.826915	16915.193667	1673.945313	2169.494873
19471.826915	16915.193667	1672.919922	2168.130615
19471.826915	16915.193667	1671.893555	2078.169189
19471.826915	16915.193667	1670.868164	2072.066895
19471.826915	16915.193667	1669.841797	2345.392822
19471.826915	16915.193667	1668.815430	2478.850342
19471.826915	16915.193667	1667.789063	2495.803223
19471.826915	16915.193667	1666.761719	2203.101074
19471.826915	16915.193667	1665.735352	2108.298340
19471.826915	16915.193667	1664.708008	2355.518066
19471.826915	16915.193667	1663.680664	2302.499268
19471.826915	16915.193667	1662.653320	2386.683838
19471.826915	16915.193667	1661.625000	2980.065674
19471.826915	16915.193667	1660.597656	3008.207764
19471.826915	16915.193667	1659.569336	2673.654297
19471.826915	16915.193667	1658.541016	2750.562744
19471.826915	16915.193667	1657.512695	2678.687744
19471.826915	16915.193667	1656.483398	3050.526611
19471.826915	16915.193667	1655.455078	3215.474609
19471.826915	16915.193667	1654.425781	2778.830078
19471.826915	16915.193667	1653.396484	3531.121582
19471.826915	16915.193667	1652.366211	3127.005859
19471.826915	16915.193667	1651.336914	3707.125244
19471.826915	16915.193667	1650.306641	3581.538818
19471.826915	16915.193667	1649.276367	3249.482666
19471.826915	16915.193667	1648.246094	3446.403076
19471.826915	16915.193667	1647.215820	3652.496094
19471.826915	16915.193667	1646.185547	4268.903809
19471.826915	16915.193667	1645.154297	3876.580811
19471.826915	16915.193667	1644.123047	3941.000488
19471.826915	16915.193667	1643.091797	4543.007813
19471.826915	16915.193667	1642.060547	3990.924561
19471.826915	16915.193667	1641.028320	4465.228027
19471.826915	16915.193667	1639.997070	4661.416016
19471.826915	16915.193667	1638.964844	4431.434570
19471.826915	16915.193667	1637.931641	5120.621094
19471.826915	16915.193667	1636.899414	5041.062988
19471.826915	16915.193667	1635.867188	5431.312012
19471.826915	16915.193667	1634.833984	5108.736328
19471.826915	16915.193667	1633.800781	5191.111328
19471.826915	16915.193667	1632.767578	5220.246094
19471.826915	16915.193667	1631.734375	5258.615234
19471.826915	16915.193667	1630.700195	5181.344727
19471.826915	16915.193667	1629.666016	4669.529785
19471.826915	16915.193667	1628.631836	4645.553711
19471.826915	16915.193667	1627.597656	4697.833008
19471.826915	16915.193667	1626.563477	4334.251465
19471.826915	16915.193667	1625.528320	5109.509277
19471.826915	16915.193667	1624.493164	4445.768555
19471.826915	16915.193667	1623.458008	4742.775879
19471.826915	16915.193667	1622.422852	5321.291016
19471.826915	16915.193667	1621.387695	5006.409180
19471.826915	16915.193667	1620.351563	4802.404785
19471.826915	16915.193667	1619.315430	4483.134766
19471.826915	16915.193667	1618.279297	4417.721680
19471.826915	16915.193667	1617.243164	4393.858398
19471.826915	16915.193667	1616.207031	4363.096680
19471.826915	16915.193667	1615.169922	4466.055664
19471.826915	16915.193667	1614.132813	4195.607910
19471.826915	16915.193667	1613.095703	4446.070801
19471.826915	16915.193667	1612.058594	4226.449707
19471.826915	16915.193667	1611.020508	3956.250000
19471.826915	16915.193667	1609.983398	3762.184082
19471.826915	16915.193667	1608.945313	4088.585938
19471.826915	16915.193667	1607.907227	4256.034180
19471.826915	16915.193667	1606.868164	4161.042969
19471.826915	16915.193667	1605.830078	4040.812500
19471.826915	16915.193667	1604.791016	4120.812988
19471.826915	16915.193667	1603.751953	4196.206055
19471.826915	16915.193667	1602.712891	4037.016602
19471.826915	16915.193667	1601.673828	4041.179688
19471.826915	16915.193667	1600.633789	4185.603516
19471.826915	16915.193667	1599.594727	4231.179199
19471.826915	16915.193667	1598.554688	4364.088867
19471.826915	16915.193667	1597.513672	3798.490723
19471.826915	16915.193667	1596.473633	4606.884766
19471.826915	16915.193667	1595.433594	4252.851074
19471.826915	16915.193667	1594.392578	4339.876465
19471.826915	16915.193667	1593.351563	4004.477783
19471.826915	16915.193667	1592.310547	4204.081543
19471.826915	16915.193667	1591.268555	4215.459961
19471.826915	16915.193667	1590.227539	4139.703125
19471.826915	16915.193667	1589.185547	4252.126465
19471.826915	16915.193667	1588.143555	4130.609375
19471.826915	16915.193667	1587.100586	4254.549316
19471.826915	16915.193667	1586.058594	4334.945313
19471.826915	16915.193667	1585.015625	4190.715332
19471.826915	16915.193667	1583.972656	4126.813477
19471.826915	16915.193667	1582.929688	3861.357910
19471.826915	16915.193667	1581.886719	4118.393066
19471.826915	16915.193667	1580.843750	4157.795898
19471.826915	16915.193667	1579.799805	3670.537842
19471.826915	16915.193667	1578.755859	3913.904297
19471.826915	16915.193667	1577.711914	3417.861816
19471.826915	16915.193667	1576.666992	4016.054199
19471.826915	16915.193667	1575.623047	4566.038086
19471.826915	16915.193667	1574.578125	4237.369629
19471.826915	16915.193667	1573.533203	4345.778809
19471.826915	16915.193667	1572.488281	4296.431152
19471.826915	16915.193667	1571.443359	3975.090088
19471.826915	16915.193667	1570.397461	3818.536865
19471.826915	16915.193667	1569.351563	4295.220215
19471.826915	16915.193667	1568.305664	4595.844238
19471.826915	16915.193667	1567.259766	3971.157227
19471.826915	16915.193667	1566.213867	4210.222656
19471.826915	16915.193667	1565.166992	4216.334473
19471.826915	16915.193667	1564.120117	4174.581055
19471.826915	16915.193667	1563.073242	4288.167480
19471.826915	16915.193667	1562.026367	3746.751221
19471.826915	16915.193667	1560.978516	4061.364258
19471.826915	16915.193667	1559.930664	4362.263184
19471.826915	16915.193667	1558.883789	3992.516357
19471.826915	16915.193667	1557.834961	3675.451660
19471.826915	16915.193667	1556.787109	3563.830322
19471.826915	16915.193667	1555.739258	3208.430908
19471.826915	16915.193667	1554.690430	3509.687744
19471.826915	16915.193667	1553.641602	3232.114990
19471.826915	16915.193667	1552.592773	3244.112305
19471.826915	16915.193667	1551.542969	2873.513428
19471.826915	16915.193667	1550.494141	2769.640381
19471.826915	16915.193667	1549.444336	2460.982666
19471.826915	16915.193667	1548.394531	2758.124268
19471.826915	16915.193667	1547.344727	2422.500244
19471.826915	16915.193667	1546.293945	2426.194580
19471.826915	16915.193667	1545.244141	2750.820801
19471.826915	16915.193667	1544.193359	2718.288330
19471.826915	16915.193667	1543.142578	2319.722656
19471.826915	16915.193667	1542.090820	2201.119141
19471.826915	16915.193667	1541.040039	2025.855591
19471.826915	16915.193667	1539.988281	1746.225098
19471.826915	16915.193667	1538.936523	1900.884155
19471.826915	16915.193667	1537.884766	1773.873413
19471.826915	16915.193667	1536.833008	2130.901367
19471.826915	16915.193667	1535.780273	1665.740845
19471.826915	16915.193667	1534.727539	1400.727661
19471.826915	16915.193667	1533.674805	1344.820190
19471.826915	16915.193667	1532.622070	1743.035645
19471.826915	16915.193667	1531.569336	1610.199585
19471.826915	16915.193667	1530.515625	1484.355103
19471.826915	16915.193667	1529.461914	1449.438843
19471.826915	16915.193667	1528.408203	1328.495117
19471.826915	16915.193667	1527.354492	1359.673950
19471.826915	16915.193667	1526.299805	1436.323364
19471.826915	16915.193667	1525.246094	1825.899902
19471.826915	16915.193667	1524.191406	1485.731323
19471.826915	16915.193667	1523.136719	1209.292725
19471.826915	16915.193667	1522.081055	736.022583
19471.826915	16915.193667	1521.026367	913.126099
19471.826915	16915.193667	1519.970703	954.444153
19471.826915	16915.193667	1518.915039	608.755615
19471.826915	16915.193667	1517.859375	888.104858
19471.826915	16915.193667	1516.802734	479.513245
19471.826915	16915.193667	1515.747070	607.500793
19471.826915	16915.193667	1514.690430	294.460541
19471.826915	16915.193667	1513.633789	583.342529
19471.826915	16915.193667	1512.577148	433.577850
19471.826915	16915.193667	1511.519531	550.817383
19471.826915	16915.193667	1510.461914	347.198273
19471.826915	16915.193667	1509.405273	421.809967
19471.826915	16915.193667	1508.346680	571.127258
19471.826915	16915.193667	1507.289063	94.787323
19471.826915	16915.193667	1506.231445	43.433537
19471.826915	16915.193667	1505.172852	26.147543
19471.826915	16915.193667	1504.114258	76.776291
19471.826915	16915.193667	1503.055664	226.887405
19471.826915	16915.193667	1501.996094	-13.323758
19471.826915	16915.193667	1500.937500	150.642548
19471.826915	16915.193667	1499.877930	201.925995
19471.826915	16915.193667	1498.818359	224.048447
19471.826915	16915.193667	1497.757813	433.514496
19471.826915	16915.193667	1496.698242	189.908417
19471.826915	16915.193667	1495.637695	478.570404
19471.826915	16915.193667	1494.577148	120.486473
19471.826915	16915.193667	1493.516602	-374.713409
19471.826915	16915.193667	1492.456055	-200.438293
19471.826915	16915.193667	1491.394531	-152.174759
19471.826915	16915.193667	1490.333008	-245.609497
19471.826915	16915.193667	1489.271484	-397.346924
19471.826915	16915.193667	1488.209961	-98.624245
19471.826915	16915.193667	1487.148438	22.379841
19471.826915	16915.193667	1486.085938	-9.476631
19471.826915	16915.193667	1485.023438	-61.365692
19471.826915	16915.193667	1483.960938	82.651146
19471.826915	16915.193667	1482.898438	381.977203
19471.826915	16915.193667	1481.834961	600.451660
19471.826915	16915.193667	1480.772461	441.395325
19471.826915	16915.193667	1479.708984	48.919342
19471.826915	16915.193667	1478.644531	584.728333
19471.826915	16915.193667	1477.581055	880.184875
19471.826915	16915.193667	1476.517578	369.542511
19471.826915	16915.193667	1475.453125	712.371948
19471.826915	16915.193667	1474.388672	934.385925
19471.826915	16915.193667	1473.323242	1120.292114
19471.826915	16915.193667	1472.258789	1082.181641
19471.826915	16915.193667	1471.193359	1210.184204
19471.826915	16915.193667	1470.127930	1084.843750
19471.826915	16915.193667	1469.062500	894.875854
19471.826915	16915.193667	1467.997070	1121.890625
19471.826915	16915.193667	1466.930664	1093.847046
19471.826915	16915.193667	1465.865234	1034.560181
19471.826915	16915.193667	1464.798828	879.259705
19471.826915	16915.193667	1463.731445	795.704773
19471.826915	16915.193667	1462.665039	951.873352
19471.826915	16915.193667	1461.597656	1363.343994
19471.826915	16915.193667	1460.530273	987.553040
19471.826915	16915.193667	1459.462891	1133.376221
19471.826915	16915.193667	1458.395508	1149.005493
19471.826915	16915.193667	1457.327148	1033.284302
19471.826915	16915.193667	1456.259766	965.906860
19471.826915	16915.193667	1455.191406	901.590576
19471.826915	16915.193667	1454.123047	1404.341064
19471.826915	16915.193667	1453.053711	1286.635132
19471.826915	16915.193667	1451.985352	1434.481812
19471.826915	16915.193667	1450.916016	1369.842163
19471.826915	16915.193667	1449.846680	1193.135132
19471.826915	16915.193667	1448.776367	1179.639038
19471.826915	16915.193667	1447.707031	1545.142090
19471.826915	16915.193667	1446.636719	1868.224731
19471.826915	16915.193667	1445.566406	1381.679565
19471.826915	16915.193667	1444.496094	1385.108398
19471.826915	16915.193667	1443.425781	1316.644653
19471.826915	16915.193667	1442.354492	1615.227905
19471.826915	16915.193667	1441.283203	1528.443115
19471.826915	16915.193667	1440.211914	1671.028809
19471.826915	16915.193667	1439.140625	1360.137695
19471.826915	16915.193667	1438.069336	1370.543335
19471.826915	16915.193667	1436.997070	876.522644
19471.826915	16915.193667	1435.924805	1360.760742
19471.826915	16915.193667	1434.852539	638.171814
19471.826915	16915.193667	1433.780273	977.740601
19471.826915	16915.193667	1432.707031	736.900757
19471.826915	16915.193667	1431.633789	474.078735
19471.826915	16915.193667	1430.560547	679.177002
19471.826915	16915.193667	1429.487305	526.465332
19471.826915	16915.193667	1428.413086	517.182861
19471.826915	16915.193667	1427.339844	774.929810
19471.826915	16915.193667	1426.265625	206.509003
19471.826915	16915.193667	1425.191406	644.075867
19471.826915	16915.193667	1424.116211	358.335205
19471.826915	16915.193667	1423.041992	402.065216
19471.826915	16915.193667	1421.966797	499.777252
19471.826915	16915.193667	1420.891602	-137.190491
19471.826915	16915.193667	1419.816406	368.896271
19471.826915	16915.193667	1418.740234	365.895782
19471.826915	16915.193667	1417.665039	250.220551
19471.826915	16915.193667	1416.588867	614.770813
19471.826915	16915.193667	1415.512695	416.051453
19471.826915	16915.193667	1414.435547	124.714493
19471.826915	16915.193667	1413.359375	300.428436
19471.826915	16915.193667	1412.282227	207.130295
19471.826915	16915.193667	1411.205078	209.995941
19471.826915	16915.193667	1410.127930	339.056427
19471.826915	16915.193667	1409.049805	199.128708
19471.826915	16915.193667	1407.972656	585.593933
19471.826915	16915.193667	1406.894531	519.965454
19471.826915	16915.193667	1405.816406	513.828003
19471.826915	16915.193667	1404.737305	603.026794
19471.826915	16915.193667	1403.659180	308.288727
19471.826915	16915.193667	1402.580078	176.160065
19471.826915	16915.193667	1401.500977	533.209045
19471.826915	16915.193667	1400.421875	200.954803
19471.826915	16915.193667	1399.341797	572.575439
19471.826915	16915.193667	1398.262695	341.741089
19471.826915	16915.193667	1397.182617	146.808502
19471.826915	16915.193667	1396.102539	51.899490
19471.826915	16915.193667	1395.021484	-249.576599
19471.826915	16915.193667	1393.941406	-301.818665
19471.826915	16915.193667	1392.860352	-31.585461
19471.826915	16915.193667	1391.779297	-59.744411
19471.826915	16915.193667	1390.698242	-388.815613
19471.826915	16915.193667	1389.616211	-501.904388
19471.826915	16915.193667	1388.535156	-339.692322
19471.826915	16915.193667	1387.453125	122.899780
19471.826915	16915.193667	1386.371094	-381.184143
19471.826915	16915.193667	1385.288086	-222.556488
19471.826915	16915.193667	1384.206055	-245.627136
19471.826915	16915.193667	1383.123047	-20.686401
19471.826915	16915.193667	1382.040039	65.157944
19471.826915	16915.193667	1380.957031	252.842651
19471.826915	16915.193667	1379.873047	-61.638271
19471.826915	16915.193667	1378.789063	-3.037789
19471.826915	16915.193667	1377.705078	307.584686
19471.826915	16915.193667	1376.621094	70.993958
19471.826915	16915.193667	1375.537109	-55.056911
19471.826915	16915.193667	1374.452148	-79.623772
19471.826915	16915.193667	1373.367188	162.336151
19471.826915	16915.193667	1372.282227	93.556328
19471.826915	16915.193667	1371.197266	16.246786
19471.826915	16915.193667	1370.112305	316.398773
19471.826915	16915.193667	1369.026367	-99.265358
19471.826915	16915.193667	1367.940430	-38.793720
19471.826915	16915.193667	1366.854492	251.257980
19471.826915	16915.193667	1365.767578	245.589233
19471.826915	16915.193667	1364.681641	489.973969
19471.826915	16915.193667	1363.594727	27.066235
19471.826915	16915.193667	1362.507813	312.000397
19471.826915	16915.193667	1361.419922	594.628967
19471.826915	16915.193667	1360.333008	823.548462
19471.826915	16915.193667	1359.245117	404.637115
19471.826915	16915.193667	1358.157227	665.715881
19471.826915	16915.193667	1357.069336	590.928162
19471.826915	16915.193667	1355.981445	816.210205
19471.826915	16915.193667	1354.892578	869.403931
19471.826915	16915.193667	1353.803711	783.372437
19471.826915	16915.193667	1352.714844	895.384033
19471.826915	16915.193667	1351.625000	1202.066162
19471.826915	16915.193667	1350.536133	778.445435
19471.826915	16915.193667	1349.446289	1089.543823
19471.826915	16915.193667	1348.356445	1207.180664
19471.826915	16915.193667	1347.266602	777.084839
19471.826915	16915.193667	1346.175781	1226.119141
19471.826915	16915.193667	1345.085938	884.917664
19471.826915	16915.193667	1343.995117	1178.464966
19471.826915	16915.193667	1342.903320	1151.174316
19471.826915	16915.193667	1341.812500	1061.483398
19471.826915	16915.193667	1340.720703	1120.713623
19471.826915	16915.193667	1339.629883	1021.388062
19471.826915	16915.193667	1338.538086	707.570984
19471.826915	16915.193667	1337.445313	863.800476
19471.826915	16915.193667	1336.353516	1271.211792
19471.826915	16915.193667	1335.260742	1035.202148
19471.826915	16915.193667	1334.167969	631.982727
19471.826915	16915.193667	1333.075195	670.392029
19471.826915	16915.193667	1331.981445	984.970337
19471.826915	16915.193667	1330.888672	618.440918
19471.826915	16915.193667	1329.794922	790.839417
19471.826915	16915.193667	1328.701172	739.790283
19471.826915	16915.193667	1327.606445	660.588196
19471.826915	16915.193667	1326.512695	715.119446
19471.826915	16915.193667	1325.417969	793.951904
19471.826915	16915.193667	1324.323242	806.971008
19471.826915	16915.193667	1323.227539	932.855042
19471.826915	16915.193667	1322.132813	819.480957
19471.826915	16915.193667	1321.037109	892.078064
19471.826915	16915.193667	1319.941406	605.242065
19471.826915	16915.193667	1318.845703	790.756409
19471.826915	16915.193667	1317.750000	1064.845947
19471.826915	16915.193667	1316.653320	822.603699
19471.826915	16915.193667	1315.556641	708.253662
19471.826915	16915.193667	1314.459961	1325.930786
19471.826915	16915.193667	1313.363281	970.551270
19471.826915	16915.193667	1312.265625	1084.560181
19471.826915	16915.193667	1311.167969	1198.259033
19471.826915	16915.193667	1310.070313	1281.099121
19471.826915	16915.193667	1308.972656	913.340454
19471.826915	16915.193667	1307.874023	1286.373657
19471.826915	16915.193667	1306.776367	1476.837646
19471.826915	16915.193667	1305.677734	1287.750122
19471.826915	16915.193667	1304.579102	1204.408203
19471.826915	16915.193667	1303.479492	1347.105225
19471.826915	16915.193667	1302.380859	1156.709473
19471.826915	16915.193667	1301.281250	1309.216431
19471.826915	16915.193667	1300.181641	996.945679
19471.826915	16915.193667	1299.081055	1167.453125
19471.826915	16915.193667	1297.981445	1277.406616
19471.826915	16915.193667	1296.880859	1281.822144
19471.826915	16915.193667	1295.780273	664.940552
19471.826915	16915.193667	1294.679688	861.146851
19471.826915	16915.193667	1293.578125	813.852600
19471.826915	16915.193667	1292.476563	527.771240
19471.826915	16915.193667	1291.375000	980.592102
19471.826915	16915.193667	1290.273438	1055.922729
19471.826915	16915.193667	1289.171875	954.311646
19471.826915	16915.193667	1288.069336	757.835144
19471.826915	16915.193667	1286.966797	731.299927
19471.826915	16915.193667	1285.864258	670.016296
19471.826915	16915.193667	1284.761719	921.818237
19471.826915	16915.193667	1283.658203	996.747070
19471.826915	16915.193667	1282.554688	1345.538696
19471.826915	16915.193667	1281.451172	1167.507446
19471.826915	16915.193667	1280.347656	1486.651245
19471.826915	16915.193667	1279.244141	2263.339111
19471.826915	16915.193667	1278.139648	2429.952393
19471.826915	16915.193667	1277.035156	2558.758057
19471.826915	16915.193667	1275.930664	2883.070557
19471.826915	16915.193667	1274.825195	2979.728271
19471.826915	16915.193667	1273.720703	2683.328613
19471.826915	16915.193667	1272.615234	2116.114258
19471.826915	16915.193667	1271.508789	1853.207886
19471.826915	16915.193667	1270.403320	1466.585449
19471.826915	16915.193667	1269.297852	1192.019409
19471.826915	16915.193667	1268.191406	964.122375
19471.826915	16915.193667	1267.084961	1089.445557
19471.826915	16915.193667	1265.977539	898.422058
19471.826915	16915.193667	1264.871094	824.585571
19471.826915	16915.193667	1263.763672	960.819885
19471.826915	16915.193667	1262.656250	1049.558838
19471.826915	16915.193667	1261.548828	1167.675293
19471.826915	16915.193667	1260.440430	809.235291
19471.826915	16915.193667	1259.333008	756.443909
19471.826915	16915.193667	1258.224609	965.154236
19471.826915	16915.193667	1257.115234	851.817444
19471.826915	16915.193667	1256.006836	853.845337
19471.826915	16915.193667	1254.897461	1111.239746
19471.826915	16915.193667	1253.788086	1038.332397
19471.826915	16915.193667	1252.678711	916.554688
19471.826915	16915.193667	1251.569336	1378.740479
19471.826915	16915.193667	1250.458984	1259.409180
19471.826915	16915.193667	1249.349609	1320.761353
19471.826915	16915.193667	1248.239258	1356.619507
19471.826915	16915.193667	1247.127930	1541.649414
19471.826915	16915.193667	1246.017578	1954.629639
19471.826915	16915.193667	1244.906250	1655.546875
19471.826915	16915.193667	1243.794922	1978.830322
19471.826915	16915.193667	1242.683594	2072.833252
19471.826915	16915.193667	1241.571289	1665.043945
19471.826915	16915.193667	1240.459961	1736.651001
19471.826915	16915.193667	1239.347656	1415.059326
19471.826915	16915.193667	1238.234375	1323.551758
19471.826915	16915.193667	1237.122070	1241.832520
19471.826915	16915.193667	1236.008789	1252.736084
19471.826915	16915.193667	1234.896484	834.169495
19471.826915	16915.193667	1233.782227	771.055908
19471.826915	16915.193667	1232.668945	568.639771
19471.826915	16915.193667	1231.555664	367.479950
19471.826915	16915.193667	1230.441406	233.939957
19471.826915	16915.193667	1229.327148	294.429291
19471.826915	16915.193667	1228.211914	301.928680
19471.826915	16915.193667	1227.097656	393.048309
19471.826915	16915.193667	1225.982422	253.865112
19471.826915	16915.193667	1224.867188	194.526855
19471.826915	16915.193667	1223.751953	-76.425636
19471.826915	16915.193667	1222.635742	-159.683533
19471.826915	16915.193667	1221.520508	14.773681
19471.826915	16915.193667	1220.404297	147.264969
19471.826915	16915.193667	1219.287109	8.049864
19471.826915	16915.193667	1218.170898	-247.800171
19471.826915	16915.193667	1217.053711	-135.149918
19471.826915	16915.193667	1215.936523	20.351763
19471.826915	16915.193667	1214.819336	0.198858
19471.826915	16915.193667	1213.702148	269.647125
19471.826915	16915.193667	1212.583984	303.665314
19471.826915	16915.193667	1211.465820	217.889862
19471.826915	16915.193667	1210.347656	458.256226
19471.826915	16915.193667	1209.229492	340.906860
19471.826915	16915.193667	1208.110352	545.927612
19471.826915	16915.193667	1206.992188	593.086060
19471.826915	16915.193667	1205.873047	530.758911
19471.826915	16915.193667	1204.752930	493.596436
19471.826915	16915.193667	1203.633789	532.026550
19471.826915	16915.193667	1202.513672	1068.257935
19471.826915	16915.193667	1201.393555	855.790588
19471.826915	16915.193667	1200.273438	984.056274
19471.826915	16915.193667	1199.152344	844.007568
19471.826915	16915.193667	1198.032227	1106.100464
19471.826915	16915.193667	1196.911133	1013.332092
19471.826915	16915.193667	1195.790039	1089.589600
19471.826915	16915.193667	1194.667969	1054.719971
19471.826915	16915.193667	1193.545898	868.997437
19471.826915	16915.193667	1192.424805	807.239014
19471.826915	16915.193667	1191.301758	1225.512939
19471.826915	16915.193667	1190.179688	999.137878
19471.826915	16915.193667	1189.056641	1037.665039
19471.826915	16915.193667	1187.933594	961.450867
19471.826915	16915.193667	1186.810547	813.856750
19471.826915	16915.193667	1185.687500	585.779297
19471.826915	16915.193667	1184.563477	363.959625
19471.826915	16915.193667	1183.440430	394.359375
19471.826915	16915.193667	1182.316406	359.638184
19471.826915	16915.193667	1181.191406	438.680817
19471.826915	16915.193667	1180.067383	503.332184
19471.826915	16915.193667	1178.942383	425.868744
19471.826915	16915.193667	1177.817383	439.229736
19471.826915	16915.193667	1176.692383	383.706390
19471.826915	16915.193667	1175.566406	429.047150
19471.826915	16915.193667	1174.440430	93.718796
19471.826915	16915.193667	1173.314453	-91.346664
19471.826915	16915.193667	1172.188477	59.263180
19471.826915	16915.193667	1171.062500	227.999832
19471.826915	16915.193667	1169.935547	227.525345
19471.826915	16915.193667	1168.808594	-114.513222
19471.826915	16915.193667	1167.681641	248.609161
19471.826915	16915.193667	1166.553711	191.491760
19471.826915	16915.193667	1165.426758	0.161747
19471.826915	16915.193667	1164.298828	47.358234
19471.826915	16915.193667	1163.170898	-37.075794
19471.826915	16915.193667	1162.041992	-28.088282
19471.826915	16915.193667	1160.914063	-73.569130
19471.826915	16915.193667	1159.785156	-64.865936
19471.826915	16915.193667	1158.656250	-172.424286
19471.826915	16915.193667	1157.526367	-161.602646
19471.826915	16915.193667	1156.397461	-304.696228
19471.826915	16915.193667	1155.267578	-166.447952
19471.826915	16915.193667	1154.137695	-143.576355
19471.826915	16915.193667	1153.006836	128.153488
19471.826915	16915.193667	1151.876953	-82.150345
19471.826915	16915.193667	1150.746094	149.248886
19471.826915	16915.193667	1149.615234	-22.308226
19471.826915	16915.193667	1148.484375	-282.022186
19471.826915	16915.193667	1147.352539	-21.568674
19471.826915	16915.193667	1146.220703	-200.567673
19471.826915	16915.193667	1145.088867	-21.215673
19471.826915	16915.193667	1143.957031	-73.752144
19471.826915	16915.193667	1142.825195	-135.986832
19471.826915	16915.193667	1141.692383	-196.162384
19471.826915	16915.193667	1140.559570	-217.753510
19471.826915	16915.193667	1139.426758	-229.980042
19471.826915	16915.193667	1138.292969	-77.416985
19471.826915	16915.193667	1137.159180	-59.050327
19471.826915	16915.193667	1136.025391	248.950928
19471.826915	16915.193667	1134.891602	159.546722
19471.826915	16915.193667	1133.757813	-36.869431
19471.826915	16915.193667	1132.623047	16.931627
19471.826915	16915.193667	1131.488281	315.484192
19471.826915	16915.193667	1130.353516	138.705307
19471.826915	16915.193667	1129.217773	525.163635
19471.826915	16915.193667	1128.083008	823.328369
19471.826915	16915.193667	1126.947266	575.247864
19471.826915	16915.193667	1125.811523	486.378967
19471.826915	16915.193667	1124.674805	546.821228
19471.826915	16915.193667	1123.539063	610.728577
19471.826915	16915.193667	1122.402344	678.062378
19471.826915	16915.193667	1121.265625	196.366135
19471.826915	16915.193667	1120.127930	395.031799
19471.826915	16915.193667	1118.990234	317.220428
19471.826915	16915.193667	1117.853516	443.796722
19471.826915	16915.193667	1116.714844	859.109070
19471.826915	16915.193667	1115.577148	793.784363
19471.826915	16915.193667	1114.439453	726.069885
19471.826915	16915.193667	1113.300781	747.845032
19471.826915	16915.193667	1112.162109	321.166473
19471.826915	16915.193667	1111.022461	428.514984
19471.826915	16915.193667	1109.883789	400.306030
19471.826915	16915.193667	1108.744141	376.204865
19471.826915	16915.193667	1107.604492	405.010925
19471.826915	16915.193667	1106.463867	452.989624
19471.826915	16915.193667	1105.324219	533.538208
19471.826915	16915.193667	1104.183594	463.016205
19471.826915	16915.193667	1103.042969	515.875977
19471.826915	16915.193667	1101.902344	691.800781
19471.826915	16915.193667	1100.760742	394.071075
19471.826915	16915.193667	1099.619141	356.389801
19471.826915	16915.193667	1098.477539	342.264526
19471.826915	16915.193667	1097.335938	198.667633
19471.826915	16915.193667	1096.193359	334.257996
19471.826915	16915.193667	1095.051758	540.830261
19471.826915	16915.193667	1093.909180	243.260941
19471.826915	16915.193667	1092.765625	402.315033
19471.826915	16915.193667	1091.623047	611.436646
19471.826915	16915.193667	1090.479492	626.798279
19471.826915	16915.193667	1089.335938	1051.198120
19471.826915	16915.193667	1088.192383	497.800354
19471.826915	16915.193667	1087.047852	488.129883
19471.826915	16915.193667	1085.903320	646.700378
19471.826915	16915.193667	1084.758789	479.418030
19471.826915	16915.193667	1083.614258	754.544678
19471.826915	16915.193667	1082.469727	449.674011
19471.826915	16915.193667	1081.324219	763.240662
19471.826915	16915.193667	1080.178711	1105.501221
19471.826915	16915.193667	1079.033203	955.432495
19471.826915	16915.193667	1077.886719	637.613159
19471.826915	16915.193667	1076.740234	810.835571
19471.826915	16915.193667	1075.593750	981.064697
19471.826915	16915.193667	1074.447266	704.726563
19471.826915	16915.193667	1073.300781	750.055847
19471.826915	16915.193667	1072.153320	659.212524
19471.826915	16915.193667	1071.005859	485.191101
19471.826915	16915.193667	1069.858398	646.300415
19471.826915	16915.193667	1068.709961	692.643616
19471.826915	16915.193667	1067.561523	1018.442078
19471.826915	16915.193667	1066.413086	1185.887695
19471.826915	16915.193667	1065.264648	1686.072632
19471.826915	16915.193667	1064.116211	2239.837158
19471.826915	16915.193667	1062.966797	2662.777588
19471.826915	16915.193667	1061.817383	3034.567871
19471.826915	16915.193667	1060.667969	3161.356689
19471.826915	16915.193667	1059.517578	3013.134766
19471.826915	16915.193667	1058.368164	1966.601807
19471.826915	16915.193667	1057.217773	1285.598022
19471.826915	16915.193667	1056.067383	1340.864136
19471.826915	16915.193667	1054.916016	1000.913879
19471.826915	16915.193667	1053.764648	933.890686
19471.826915	16915.193667	1052.613281	779.908508
19471.826915	16915.193667	1051.461914	1150.210083
19471.826915	16915.193667	1050.310547	1346.061890
19471.826915	16915.193667	1049.158203	1063.080322
19471.826915	16915.193667	1048.005859	900.946960
19471.826915	16915.193667	1046.853516	931.635071
19471.826915	16915.193667	1045.700195	710.782410
19471.826915	16915.193667	1044.547852	294.709381
19471.826915	16915.193667	1043.394531	500.577332
19471.826915	16915.193667	1042.240234	737.185486
19471.826915	16915.193667	1041.086914	598.327881
19471.826915	16915.193667	1039.932617	458.118103
19471.826915	16915.193667	1038.778320	906.348267
19471.826915	16915.193667	1037.624023	982.195007
19471.826915	16915.193667	1036.469727	1052.434570
19471.826915	16915.193667	1035.314453	1088.662842
19471.826915	16915.193667	1034.159180	1870.084229
19471.826915	16915.193667	1033.003906	1711.186401
19471.826915	16915.193667	1031.847656	1898.376953
19471.826915	16915.193667	1030.692383	2219.878418
19471.826915	16915.193667	1029.536133	2367.575439
19471.826915	16915.193667	1028.378906	1941.621094
19471.826915	16915.193667	1027.222656	1988.598022
19471.826915	16915.193667	1026.065430	1412.790771
19471.826915	16915.193667	1024.908203	1035.606323
19471.826915	16915.193667	1023.750977	1104.172974
19471.826915	16915.193667	1022.593750	1204.571777
19471.826915	16915.193667	1021.435547	849.822937
19471.826915	16915.193667	1020.277344	686.511841
19471.826915	16915.193667	1019.119141	935.545898
19471.826915	16915.193667	1017.959961	562.472290
19471.826915	16915.193667	1016.800781	683.605347
19471.826915	16915.193667	1015.641602	780.110474
19471.826915	16915.193667	1014.482422	1061.193848
19471.826915	16915.193667	1013.323242	639.214233
19471.826915	16915.193667	1012.163086	631.015137
19471.826915	16915.193667	1011.002930	1092.979858
19471.826915	16915.193667	1009.842773	1110.355957
19471.826915	16915.193667	1008.681641	965.896667
19471.826915	16915.193667	1007.520508	994.476135
19471.826915	16915.193667	1006.359375	1006.107300
19471.826915	16915.193667	1005.198242	1038.777954
19471.826915	16915.193667	1004.037109	1354.196289
19471.826915	16915.193667	1002.875000	1628.576416
19471.826915	16915.193667	1001.712891	1143.777100
19471.826915	16915.193667	1000.550781	1354.358521
19471.826915	16915.193667	999.387695	1614.493164
19471.826915	16915.193667	998.224609	1200.917236
19471.826915	16915.193667	997.061523	824.761292
19471.826915	16915.193667	995.898438	539.725830
19471.826915	16915.193667	994.734375	666.977234
19471.826915	16915.193667	993.571289	416.144196
19471.826915	16915.193667	992.407227	538.801880
19471.826915	16915.193667	991.242188	253.047180
19471.826915	16915.193667	990.078125	347.790710
19471.826915	16915.193667	988.913086	678.978210
19471.826915	16915.193667	987.748047	395.829407
19471.826915	16915.193667	986.583008	370.054840
19471.826915	16915.193667	985.416992	198.081863
19471.826915	16915.193667	984.250977	239.741837
19471.826915	16915.193667	983.084961	203.639816
19471.826915	16915.193667	981.918945	620.162170
19471.826915	16915.193667	980.751953	32.128410
19471.826915	16915.193667	979.584961	18.128197
19471.826915	16915.193667	978.417969	-12.583015
19471.826915	16915.193667	977.250977	-473.116943
19471.826915	16915.193667	976.083008	276.195343
19471.826915	16915.193667	974.915039	198.189865
19471.826915	16915.193667	973.747070	125.360390
19471.826915	16915.193667	972.579102	-32.664513
19471.826915	16915.193667	971.410156	61.787674
19471.826915	16915.193667	970.242188	98.071907
19471.826915	16915.193667	969.072266	212.821533
19471.826915	16915.193667	967.903320	169.673981
19471.826915	16915.193667	966.733398	154.962646
19471.826915	16915.193667	965.563477	-195.204346
19471.826915	16915.193667	964.393555	89.957825
19471.826915	16915.193667	963.223633	130.833588
19471.826915	16915.193667	962.052734	-145.580826
19471.826915	16915.193667	960.881836	123.612068
19471.826915	16915.193667	959.710938	68.023270
19471.826915	16915.193667	958.540039	-6.044831
19471.826915	16915.193667	957.368164	192.733841
19471.826915	16915.193667	956.196289	223.403503
19471.826915	16915.193667	955.024414	-26.973682
19471.826915	16915.193667	953.851563	-51.683136
19471.826915	16915.193667	952.679688	427.178894
19471.826915	16915.193667	951.506836	-23.262873
19471.826915	16915.193667	950.333984	-58.073280
19471.826915	16915.193667	949.160156	-21.774296
19471.826915	16915.193667	947.986328	102.336868
19471.826915	16915.193667	946.812500	-75.706940
19471.826915	16915.193667	945.638672	231.797043
19471.826915	16915.193667	944.464844	-34.591022
19471.826915	16915.193667	943.290039	329.698486
19471.826915	16915.193667	942.115234	204.657608
19471.826915	16915.193667	940.940430	300.623871
19471.826915	16915.193667	939.764648	139.389389
19471.826915	16915.193667	938.588867	112.077194
19471.826915	16915.193667	937.413086	110.384140
19471.826915	16915.193667	936.237305	-20.416733
19471.826915	16915.193667	935.060547	295.894257
19471.826915	16915.193667	933.883789	411.172699
19471.826915	16915.193667	932.707031	-61.193211
19471.826915	16915.193667	931.530273	295.885956
19471.826915	16915.193667	930.352539	359.125854
19471.826915	16915.193667	929.175781	271.130890
19471.826915	16915.193667	927.998047	289.006592
19471.826915	16915.193667	926.819336	2.396934
19471.826915	16915.193667	925.641602	328.994354
19471.826915	16915.193667	924.462891	-205.769608
19471.826915	16915.193667	923.284180	-56.232616
19471.826915	16915.193667	922.104492	283.115662
19471.826915	16915.193667	920.924805	-29.175611
19471.826915	16915.193667	919.746094	-16.115891
19471.826915	16915.193667	919.551758	-414.706177
19471.826915	16915.193667	918.386719	1.957077
19471.826915	16915.193667	917.220703	-183.079819
19471.826915	16915.193667	916.054688	-253.808777
19471.826915	16915.193667	914.887695	-76.670883
19471.826915	16915.193667	913.721680	-265.924622
19471.826915	16915.193667	912.554688	-446.480865
19471.826915	16915.193667	911.387695	-489.130310
19471.826915	16915.193667	910.220703	-325.043610
19471.826915	16915.193667	909.052734	-133.033066
19471.826915	16915.193667	907.885742	95.478806
19471.826915	16915.193667	906.717773	113.000916
19471.826915	16915.193667	905.548828	-205.125717
19471.826915	16915.193667	904.380859	-71.388130
19471.826915	16915.193667	903.211914	-344.185638
19471.826915	16915.193667	902.042969	-201.859863
19471.826915	16915.193667	900.874023	-113.337410
19471.826915	16915.193667	899.704102	-128.008835
19471.826915	16915.193667	898.535156	179.668060
19471.826915	16915.193667	897.365234	149.911011
19471.826915	16915.193667	896.194336	-135.441010
19471.826915	16915.193667	895.024414	438.392395
19471.826915	16915.193667	893.853516	-269.892548
19471.826915	16915.193667	892.682617	114.842873
19471.826915	16915.193667	891.511719	22.941450
19471.826915	16915.193667	890.340820	-352.175964
19471.826915	16915.193667	889.168945	68.861656
19471.826915	16915.193667	887.997070	75.743729
19471.826915	16915.193667	886.825195	-116.810120
19471.826915	16915.193667	885.653320	91.689247
19471.826915	16915.193667	884.480469	6.438998
19471.826915	16915.193667	883.307617	146.286621
19471.826915	16915.193667	882.134766	-206.763199
19471.826915	16915.193667	880.961914	158.061829
19471.826915	16915.193667	879.788086	-160.525574
19471.826915	16915.193667	878.614258	45.716473
19471.826915	16915.193667	877.440430	189.802368
19471.826915	16915.193667	876.266602	451.588226
19471.826915	16915.193667	875.091797	143.995804
19471.826915	16915.193667	873.916992	196.040237
19471.826915	16915.193667	872.742188	171.067825
19471.826915	16915.193667	871.567383	357.883850
19471.826915	16915.193667	870.391602	-216.640762
19471.826915	16915.193667	869.215820	160.522629
19471.826915	16915.193667	868.040039	71.562050
19471.826915	16915.193667	866.864258	-156.254456
19471.826915	16915.193667	865.687500	-121.120438
19471.826915	16915.193667	864.510742	33.656647
19471.826915	16915.193667	863.333984	376.354553
19471.826915	16915.193667	862.157227	150.918976
19471.826915	16915.193667	860.979492	-89.330017
19471.826915	16915.193667	859.802734	56.888428
19471.826915	16915.193667	858.625000	92.114449
19471.826915	16915.193667	857.446289	229.781982
19471.826915	16915.193667	856.268555	-52.834198
19471.826915	16915.193667	855.089844	351.464294
19471.826915	16915.193667	853.911133	297.172363
19471.826915	16915.193667	852.731445	-260.188812
19471.826915	16915.193667	851.552734	105.627892
19471.826915	16915.193667	850.373047	200.694031
19471.826915	16915.193667	849.193359	176.437851
19471.826915	16915.193667	848.013672	235.298843
19471.826915	16915.193667	846.833008	-208.438110
19471.826915	16915.193667	845.652344	-13.174991
19471.826915	16915.193667	844.471680	-141.546600
19471.826915	16915.193667	843.291016	181.388428
19471.826915	16915.193667	842.110352	8.403438
19471.826915	16915.193667	840.928711	158.918015
19471.826915	16915.193667	839.747070	62.656883
19471.826915	16915.193667	838.564453	-237.683029
19471.826915	16915.193667	837.382813	91.482430
19471.826915	16915.193667	836.200195	178.213257
19471.826915	16915.193667	835.017578	75.782784
19471.826915	16915.193667	833.834961	56.296207
19471.826915	16915.193667	832.651367	225.936737
19471.826915	16915.193667	831.467773	-78.125954
19471.826915	16915.193667	830.284180	-101.718399
19471.826915	16915.193667	829.100586	165.600388
19471.826915	16915.193667	827.916992	-85.109467
19471.826915	16915.193667	826.732422	101.514877
19471.826915	16915.193667	825.547852	46.197540
19471.826915	16915.193667	824.363281	88.516136
19471.826915	16915.193667	823.177734	283.563934
19471.826915	16915.193667	821.992188	120.184074
19471.826915	16915.193667	820.806641	41.702099
19471.826915	16915.193667	819.621094	-197.818176
19471.826915	16915.193667	818.434570	50.216496
19471.826915	16915.193667	817.249023	-59.915588
19471.826915	16915.193667	816.062500	-91.587875
19471.826915	16915.193667	814.875000	-121.097954
19471.826915	16915.193667	813.688477	31.517862
19471.826915	16915.193667	812.500977	46.493534
19471.826915	16915.193667	811.313477	-181.927826
19471.826915	16915.193667	810.125977	-109.741257
19471.826915	16915.193667	808.937500	-177.195404
19471.826915	16915.193667	807.749023	15.577670
19471.826915	16915.193667	806.560547	-189.305786
19471.826915	16915.193667	805.372070	-89.616272
19471.826915	16915.193667	804.182617	52.338829
19471.826915	16915.193667	802.994141	-34.028030
19471.826915	16915.193667	801.803711	131.134552
19471.826915	16915.193667	800.614258	-177.009399
19471.826915	16915.193667	799.424805	-204.091583
19471.826915	16915.193667	798.234375	157.428207
19471.826915	16915.193667	797.043945	-42.816765
19471.826915	16915.193667	795.852539	179.223419
19471.826915	16915.193667	794.662109	434.931641
19471.826915	16915.193667	793.470703	374.043610
19471.826915	16915.193667	792.279297	623.292114
19471.826915	16915.193667	791.087891	324.054779
19471.826915	16915.193667	789.895508	237.934067
19471.826915	16915.193667	788.703125	459.658783
19471.826915	16915.193667	787.510742	78.438461
19471.826915	16915.193667	786.318359	224.228760
19471.826915	16915.193667	785.125000	93.948441
19471.826915	16915.193667	783.931641	-103.697220
19471.826915	16915.193667	782.738281	-107.506561
19471.826915	16915.193667	781.544922	330.866547
19471.826915	16915.193667	780.350586	-287.772491
19471.826915	16915.193667	779.156250	-249.470474
19471.826915	16915.193667	777.961914	-47.060947
19471.826915	16915.193667	776.767578	-410.707642
19471.826915	16915.193667	775.572266	-326.167816
19471.826915	16915.193667	774.376953	35.919933
19471.826915	16915.193667	773.181641	-28.994862
19471.826915	16915.193667	771.986328	124.718948
19471.826915	16915.193667	770.790039	482.223785
19471.826915	16915.193667	769.593750	230.174103
19471.826915	16915.193667	768.397461	202.993927
19471.826915	16915.193667	767.201172	648.390503
19471.826915	16915.193667	766.003906	474.082703
19471.826915	16915.193667	764.806641	253.621490
19471.826915	16915.193667	763.609375	142.372238
19471.826915	16915.193667	762.412109	163.346802
19471.826915	16915.193667	761.213867	-57.013477
19471.826915	16915.193667	760.015625	39.443966
19471.826915	16915.193667	758.817383	108.553200
19471.826915	16915.193667	757.618164	-9.027789
19471.826915	16915.193667	756.419922	-23.892145
19471.826915	16915.193667	755.220703	93.264229
19471.826915	16915.193667	754.021484	-223.472382
19471.826915	16915.193667	752.821289	2.532304
19471.826915	16915.193667	751.621094	77.565811
19471.826915	16915.193667	750.420898	16.380085
19471.826915	16915.193667	749.220703	-30.181139
19471.826915	16915.193667	748.020508	-263.102264
19471.826915	16915.193667	746.819336	-69.005119
19471.826915	16915.193667	745.618164	-149.182114
19471.826915	16915.193667	744.416992	-24.361814
19471.826915	16915.193667	743.214844	161.005615
19471.826915	16915.193667	742.012695	143.370102
19471.826915	16915.193667	740.810547	115.215973
19471.826915	16915.193667	739.608398	220.781418
19471.826915	16915.193667	738.406250	299.054657
19471.826915	16915.193667	737.203125	320.809753
19471.826915	16915.193667	736.000000	580.629761
19471.826915	16915.193667	734.795898	940.521057
19471.826915	16915.193667	733.592773	679.966614
19471.826915	16915.193667	732.388672	680.414795
19471.826915	16915.193667	731.184570	286.265259
19471.826915	16915.193667	729.979492	353.402954
19471.826915	16915.193667	728.775391	585.237305
19471.826915	16915.193667	727.570313	405.942596
19471.826915	16915.193667	726.365234	145.284042
19471.826915	16915.193667	725.160156	191.150223
19471.826915	16915.193667	723.954102	374.496002
19471.826915	16915.193667	722.748047	313.797852
19471.826915	16915.193667	721.541992	198.836975
19471.826915	16915.193667	720.334961	-55.764099
19471.826915	16915.193667	719.128906	14.563704
19471.826915	16915.193667	717.921875	420.045959
19471.826915	16915.193667	716.714844	-40.910675
19471.826915	16915.193667	715.506836	49.857010
19471.826915	16915.193667	714.298828	-134.253906
19471.826915	16915.193667	713.090820	-83.282478
19471.826915	16915.193667	711.882813	48.677547
19471.826915	16915.193667	710.674805	-214.729279
19471.826915	16915.193667	709.465820	282.946930
19471.826915	16915.193667	708.256836	-24.308258
19471.826915	16915.193667	707.047852	223.423157
19471.826915	16915.193667	705.837891	36.586884
19471.826915	16915.193667	704.627930	400.291870
19471.826915	16915.193667	703.417969	273.462097
19471.826915	16915.193667	702.208008	44.779312
19471.826915	16915.193667	700.998047	200.190948
19471.826915	16915.193667	699.787109	-200.965179
19471.826915	16915.193667	698.576172	147.178360
19471.826915	16915.193667	697.364258	42.656414
19471.826915	16915.193667	696.153320	-72.350151
19471.826915	16915.193667	694.941406	152.724197
19471.826915	16915.193667	693.729492	43.667366
19471.826915	16915.193667	692.516602	15.369322
19471.826915	16915.193667	691.304688	297.861603
19471.826915	16915.193667	690.091797	325.165894
19471.826915	16915.193667	688.878906	426.892975
19471.826915	16915.193667	687.665039	468.344513
19471.826915	16915.193667	686.451172	573.823059
19471.826915	16915.193667	685.237305	979.352478
19471.826915	16915.193667	684.023438	819.345520
19471.826915	16915.193667	682.809570	982.140625
19471.826915	16915.193667	681.594727	1136.427612
19471.826915	16915.193667	680.379883	909.777344
19471.826915	16915.193667	679.165039	1082.288208
19471.826915	16915.193667	677.949219	917.448669
19471.826915	16915.193667	676.733398	893.109314
19471.826915	16915.193667	675.517578	980.237793
19471.826915	16915.193667	674.301758	1029.946289
19471.826915	16915.193667	673.084961	1240.642700
19471.826915	16915.193667	671.869141	1269.258057
19471.826915	16915.193667	670.651367	671.832031
19471.826915	16915.193667	669.434570	530.860046
19471.826915	16915.193667	668.216797	744.890808
19471.826915	16915.193667	667.000000	688.227661
19471.826915	16915.193667	665.781250	734.602295
19471.826915	16915.193667	664.563477	1117.095947
19471.826915	16915.193667	663.344727	1012.393066
19471.826915	16915.193667	662.125977	897.235291
19471.826915	16915.193667	660.907227	938.655334
19471.826915	16915.193667	659.688477	629.390747
19471.826915	16915.193667	658.468750	765.287781
19471.826915	16915.193667	657.249023	892.694397
19471.826915	16915.193667	656.029297	834.426575
19471.826915	16915.193667	654.808594	903.707092
19471.826915	16915.193667	653.587891	1096.335693
19471.826915	16915.193667	652.367188	782.171570
19471.826915	16915.193667	651.146484	562.642334
19471.826915	16915.193667	649.924805	758.761292
19471.826915	16915.193667	648.704102	695.331360
19471.826915	16915.193667	647.482422	563.846252
19471.826915	16915.193667	646.259766	956.717651
19471.826915	16915.193667	645.037109	902.992920
19471.826915	16915.193667	643.815430	672.280640
19471.826915	16915.193667	642.591797	1006.748108
19471.826915	16915.193667	641.369141	738.736450
19471.826915	16915.193667	640.145508	965.819824
19471.826915	16915.193667	638.921875	792.040894
19471.826915	16915.193667	637.698242	878.976257
19471.826915	16915.193667	636.474609	930.775024
19471.826915	16915.193667	635.250000	1041.894775
19471.826915	16915.193667	634.025391	592.449219
19471.826915	16915.193667	632.800781	729.892395
19471.826915	16915.193667	631.575195	815.794922
19471.826915	16915.193667	630.349609	928.140320
19471.826915	16915.193667	629.124023	1128.431641
19471.826915	16915.193667	627.898438	1061.910156
19471.826915	16915.193667	626.671875	1464.653931
19471.826915	16915.193667	625.445313	1037.016602
19471.826915	16915.193667	624.218750	1281.452759
19471.826915	16915.193667	622.992188	970.438049
19471.826915	16915.193667	621.764648	991.173645
19471.826915	16915.193667	620.537109	823.330322
19471.826915	16915.193667	619.309570	503.882263
19471.826915	16915.193667	618.081055	483.231415
19471.826915	16915.193667	616.852539	94.059067
19471.826915	16915.193667	615.624023	416.876740
19471.826915	16915.193667	614.395508	201.408951
19471.826915	16915.193667	613.166992	646.433044
19471.826915	16915.193667	611.937500	140.325211
19471.826915	16915.193667	610.708008	529.640808
19471.826915	16915.193667	609.477539	640.668091
19471.826915	16915.193667	608.248047	283.557709
19471.826915	16915.193667	607.017578	249.219925
19471.826915	16915.193667	605.787109	159.591721
19471.826915	16915.193667	604.555664	206.662323
19471.826915	16915.193667	603.325195	102.480156
19471.826915	16915.193667	602.093750	104.333710
19471.826915	16915.193667	600.861328	103.992874
19471.826915	16915.193667	599.629883	262.655457
19471.826915	16915.193667	598.397461	239.554749
19471.826915	16915.193667	597.165039	93.957253
19471.826915	16915.193667	595.932617	-43.559856
19471.826915	16915.193667	594.699219	-197.466675
19471.826915	16915.193667	593.465820	19.507710
19471.826915	16915.193667	592.232422	-67.360085
19471.826915	16915.193667	590.999023	-170.613708
19471.826915	16915.193667	589.764648	-37.674530
19471.826915	16915.193667	588.530273	-295.901825
19471.826915	16915.193667	587.295898	-96.038231
19471.826915	16915.193667	586.061523	-79.572464
19471.826915	16915.193667	584.826172	-333.894714
19471.826915	16915.193667	583.590820	-433.578491
19471.826915	16915.193667	582.355469	-431.608337
19471.826915	16915.193667	581.119141	-468.384338
19471.826915	16915.193667	579.882813	-381.200195
19471.826915	16915.193667	578.646484	-216.893860
19471.826915	16915.193667	577.410156	237.909668
19471.826915	16915.193667	576.172852	-85.857613
19471.826915	16915.193667	574.935547	-47.932327
19471.826915	16915.193667	573.698242	184.900543
19471.826915	16915.193667	572.460938	216.516235
19471.826915	16915.193667	571.222656	-222.993134
19471.826915	16915.193667	569.984375	-122.420372
19471.826915	16915.193667	568.746094	-255.339355
19471.826915	16915.193667	567.506836	-10.855165
19471.826915	16915.193667	566.267578	-42.416637
19471.826915	16915.193667	565.028320	49.709145
19471.826915	16915.193667	563.789063	155.948471
19471.826915	16915.193667	562.548828	-216.344727
19471.826915	16915.193667	561.309570	262.787415
19471.826915	16915.193667	560.068359	105.370422
19471.826915	16915.193667	558.828125	-43.891476
19471.826915	16915.193667	557.586914	-31.068277
19471.826915	16915.193667	556.345703	-453.668884
19471.826915	16915.193667	555.104492	-165.423096
19471.826915	16915.193667	553.863281	-71.634872
19471.826915	16915.193667	552.621094	26.155300
19471.826915	16915.193667	551.378906	123.909294
19471.826915	16915.193667	550.136719	31.469631
19471.826915	16915.193667	548.893555	234.372070
19471.826915	16915.193667	547.650391	180.396805
19471.826915	16915.193667	546.407227	-31.221050
19471.826915	16915.193667	545.164063	-165.914368
19471.826915	16915.193667	543.919922	178.413223
19471.826915	16915.193667	542.675781	225.633575
19471.826915	16915.193667	541.431641	169.858719
19471.826915	16915.193667	540.186523	485.739746
19471.826915	16915.193667	538.941406	345.224548
19471.826915	16915.193667	537.696289	134.171097
19471.826915	16915.193667	536.451172	399.570160
19471.826915	16915.193667	535.205078	295.660828
19471.826915	16915.193667	533.959961	250.372681
19471.826915	16915.193667	532.712891	98.269646
19471.826915	16915.193667	531.466797	-47.635323
19471.826915	16915.193667	530.219727	12.238999
19471.826915	16915.193667	528.972656	-111.248230
19471.826915	16915.193667	527.725586	-22.997292
19471.826915	16915.193667	526.478516	-43.486671
19471.826915	16915.193667	525.230469	105.331291
19471.826915	16915.193667	523.982422	-33.802059
19471.826915	16915.193667	522.734375	62.808331
19471.826915	16915.193667	521.485352	280.262817
19471.826915	16915.193667	520.236328	44.901814
19471.826915	16915.193667	518.987305	-1.095624
19471.826915	16915.193667	517.737305	25.462606
19471.826915	16915.193667	516.488281	249.246750
19471.826915	16915.193667	515.238281	392.622009
19471.826915	16915.193667	513.988281	658.701050
19471.826915	16915.193667	512.737305	944.892578
19471.826915	16915.193667	511.486328	921.621277
19471.826915	16915.193667	510.235352	856.303467
19471.826915	16915.193667	508.984375	875.519348
19471.826915	16915.193667	507.732422	643.827698
19471.826915	16915.193667	506.480469	378.245850
19471.826915	16915.193667	505.228516	408.013489
19471.826915	16915.193667	503.976563	421.856537
19471.826915	16915.193667	502.723633	209.099045
19471.826915	16915.193667	501.470703	443.944427
19471.826915	16915.193667	500.217773	560.502625
19471.826915	16915.193667	498.963867	875.677368
19471.826915	16915.193667	497.709961	944.272522
19471.826915	16915.193667	496.456055	632.149231
19471.826915	16915.193667	495.202148	885.429993
19471.826915	16915.193667	493.947266	780.111694
19471.826915	16915.193667	492.692383	811.197693
19471.826915	16915.193667	491.437500	1152.833008
19471.826915	16915.193667	490.181641	1084.000366
19471.826915	16915.193667	488.926758	1071.392944
19471.826915	16915.193667	487.670898	1076.940063
19471.826915	16915.193667	486.414063	980.572937
19471.826915	16915.193667	485.158203	1262.481079
19471.826915	16915.193667	483.901367	1504.394043
19471.826915	16915.193667	482.644531	1544.366089
19471.826915	16915.193667	481.386719	1444.493286
19471.826915	16915.193667	480.128906	1498.690063
19471.826915	16915.193667	478.871094	1441.066406
19471.826915	16915.193667	477.613281	1591.358765
19471.826915	16915.193667	476.355469	1442.060791
19471.826915	16915.193667	475.096680	1648.401489
19471.826915	16915.193667	473.837891	1802.825684
19471.826915	16915.193667	472.578125	1390.338745
19471.826915	16915.193667	471.319336	1664.648560
19471.826915	16915.193667	470.059570	1661.547729
19471.826915	16915.193667	468.799805	1664.486694
19471.826915	16915.193667	467.539063	1649.517334
19471.826915	16915.193667	466.278320	1636.579102
19471.826915	16915.193667	465.017578	1791.133301
19471.826915	16915.193667	463.756836	1824.045166
19471.826915	16915.193667	462.495117	1936.651489
19471.826915	16915.193667	461.233398	1792.179688
19471.826915	16915.193667	459.971680	1805.102417
19471.826915	16915.193667	458.709961	1975.301636
19471.826915	16915.193667	457.447266	2041.833740
19471.826915	16915.193667	456.184570	2311.302490
19471.826915	16915.193667	454.921875	2323.830078
19471.826915	16915.193667	453.658203	2021.858521
19471.826915	16915.193667	452.394531	1807.421387
19471.826915	16915.193667	451.130859	1948.938965
19471.826915	16915.193667	449.867188	2233.398926
19471.826915	16915.193667	448.602539	2024.513550
19471.826915	16915.193667	447.337891	2143.461426
19471.826915	16915.193667	446.073242	2492.637695
19471.826915	16915.193667	444.807617	2471.868652
19471.826915	16915.193667	443.542969	2252.197754
19471.826915	16915.193667	442.276367	2328.206543
19471.826915	16915.193667	441.010742	2689.755371
19471.826915	16915.193667	439.744141	2560.481934
19471.826915	16915.193667	438.478516	2565.827637
19471.826915	16915.193667	437.210938	2644.157959
19471.826915	16915.193667	435.944336	2912.445557
19471.826915	16915.193667	434.676758	2838.998779
19471.826915	16915.193667	433.409180	2699.627930
19471.826915	16915.193667	432.141602	2835.328125
19471.826915	16915.193667	430.873047	2560.095459
19471.826915	16915.193667	429.604492	2960.079346
19471.826915	16915.193667	428.335938	3067.993896
19471.826915	16915.193667	427.067383	3004.813721
19471.826915	16915.193667	425.797852	2851.794678
19471.826915	16915.193667	424.528320	2979.196777
19471.826915	16915.193667	423.258789	3123.525391
19471.826915	16915.193667	421.988281	3217.429199
19471.826915	16915.193667	420.717773	2811.762695
19471.826915	16915.193667	419.447266	3105.568359
19471.826915	16915.193667	418.175781	2883.999756
19471.826915	16915.193667	416.905273	2979.810547
19471.826915	16915.193667	415.633789	3019.087646
19471.826915	16915.193667	414.362305	3357.584229
19471.826915	16915.193667	413.089844	3139.418213
19471.826915	16915.193667	411.817383	2698.782471
19471.826915	16915.193667	410.544922	3212.956055
19471.826915	16915.193667	409.272461	3216.007080
19471.826915	16915.193667	407.999023	3152.402100
19471.826915	16915.193667	406.725586	3039.902588
19471.826915	16915.193667	405.452148	3176.462158
19471.826915	16915.193667	404.177734	3145.518311
19471.826915	16915.193667	402.903320	3122.691895
19471.826915	16915.193667	401.628906	3137.488770
19471.826915	16915.193667	400.354492	3485.563721
19471.826915	16915.193667	399.079102	3261.770020
19471.826915	16915.193667	397.803711	3213.384033
19471.826915	16915.193667	396.528320	3361.889648
19471.826915	16915.193667	395.251953	3486.392578
19471.826915	16915.193667	393.976563	3159.492676
19471.826915	16915.193667	392.700195	3344.244385
19471.826915	16915.193667	391.422852	3534.250732
19471.826915	16915.193667	390.145508	3318.076660
19471.826915	16915.193667	388.869141	3109.189941
19471.826915	16915.193667	387.590820	3123.773193
19471.826915	16915.193667	386.313477	3285.000488
19471.826915	16915.193667	385.035156	3142.224121
19471.826915	16915.193667	383.756836	2872.540283
19471.826915	16915.193667	382.478516	3189.484619
19471.826915	16915.193667	381.199219	3052.855713
19471.826915	16915.193667	379.919922	2928.565186
19471.826915	16915.193667	378.640625	3217.234131
19471.826915	16915.193667	377.360352	3150.474609
19471.826915	16915.193667	376.080078	2891.433594
19471.826915	16915.193667	374.799805	2989.797363
19471.826915	16915.193667	373.519531	3050.692871
19471.826915	16915.193667	372.238281	3144.573242
19471.826915	16915.193667	370.957031	2555.266113
19471.826915	16915.193667	369.675781	3030.742920
19471.826915	16915.193667	368.394531	2675.802734
19471.826915	16915.193667	367.112305	2514.187012
19471.826915	16915.193667	365.830078	2718.201660
19471.826915	16915.193667	364.546875	2636.717529
19471.826915	16915.193667	363.264648	2461.975586
19471.826915	16915.193667	361.981445	2538.434326
19471.826915	16915.193667	360.698242	2436.963135
19471.826915	16915.193667	359.414063	2560.749756
19471.826915	16915.193667	358.129883	2453.460693
19471.826915	16915.193667	356.845703	2128.768066
19471.826915	16915.193667	355.561523	2234.323975
19471.826915	16915.193667	354.276367	2255.016357
19471.826915	16915.193667	352.991211	2452.924316
19471.826915	16915.193667	351.706055	2084.652832
19471.826915	16915.193667	350.420898	1899.173950
19471.826915	16915.193667	349.134766	1770.904541
19471.826915	16915.193667	347.848633	1762.290039
19471.826915	16915.193667	346.561523	1679.445435
19471.826915	16915.193667	345.275391	1708.105469
19471.826915	16915.193667	343.988281	1759.752686
19471.826915	16915.193667	342.700195	1808.747803
19471.826915	16915.193667	341.413086	1695.164429
19471.826915	16915.193667	340.125000	1570.714722
19471.826915	16915.193667	338.836914	1308.532349
19471.826915	16915.193667	337.548828	1442.980957
19471.826915	16915.193667	336.259766	941.585327
19471.826915	16915.193667	334.970703	1319.819824
19471.826915	16915.193667	333.681641	995.786621
19471.826915	16915.193667	332.391602	628.234009
19471.826915	16915.193667	331.101563	926.469910
19471.826915	16915.193667	329.811523	549.377441
19471.826915	16915.193667	328.521484	706.721008
19471.826915	16915.193667	327.230469	513.463196
19471.826915	16915.193667	325.939453	721.339355
19471.826915	16915.193667	324.648438	755.549744
19471.826915	16915.193667	323.356445	144.637177
19471.826915	16915.193667	322.064453	247.095093
19471.826915	16915.193667	320.772461	385.187714
19471.826915	16915.193667	319.480469	126.802223
19471.826915	16915.193667	318.187500	-149.309204
19471.826915	16915.193667	316.894531	11.750252
19471.826915	16915.193667	315.601563	286.711761
19471.826915	16915.193667	314.307617	-15.044693
19471.826915	16915.193667	313.013672	54.908108
19471.826915	16915.193667	311.719727	-88.675919
19471.826915	16915.193667	310.425781	-224.655014
19471.826915	16915.193667	309.130859	-206.282013
19471.826915	16915.193667	307.835938	-204.456482
19471.826915	16915.193667	306.541016	-297.191010
19471.826915	16915.193667	305.245117	-143.814087
19471.826915	16915.193667	303.949219	-248.793060
19471.826915	16915.193667	302.653320	76.079117
19471.826915	16915.193667	301.356445	261.496063
19471.826915	16915.193667	300.060547	573.678894
19471.826915	16915.193667	298.763672	863.792908
