#X		#Y		#Wave		#Intensity
19512.453245	16958.584333	2000.043945	-143.177124
19512.453245	16958.584333	1999.080078	143.334061
19512.453245	16958.584333	1998.116211	-198.003555
19512.453245	16958.584333	1997.151367	-170.359802
19512.453245	16958.584333	1996.186523	-222.401337
19512.453245	16958.584333	1995.222656	552.577637
19512.453245	16958.584333	1994.256836	269.345184
19512.453245	16958.584333	1993.291992	196.342773
19512.453245	16958.584333	1992.327148	167.585938
19512.453245	16958.584333	1991.361328	148.428375
19512.453245	16958.584333	1990.395508	185.887726
19512.453245	16958.584333	1989.429688	381.389832
19512.453245	16958.584333	1988.463867	225.211853
19512.453245	16958.584333	1987.497070	313.709167
19512.453245	16958.584333	1986.531250	-102.627739
19512.453245	16958.584333	1985.564453	-298.994659
19512.453245	16958.584333	1984.597656	16.200613
19512.453245	16958.584333	1983.630859	-267.117554
19512.453245	16958.584333	1982.664063	-157.634430
19512.453245	16958.584333	1981.696289	297.514160
19512.453245	16958.584333	1980.728516	161.865860
19512.453245	16958.584333	1979.761719	586.716736
19512.453245	16958.584333	1978.792969	169.161118
19512.453245	16958.584333	1977.825195	331.775085
19512.453245	16958.584333	1976.857422	217.675201
19512.453245	16958.584333	1975.888672	-131.003448
19512.453245	16958.584333	1974.919922	161.858749
19512.453245	16958.584333	1973.951172	412.519867
19512.453245	16958.584333	1972.982422	-94.328636
19512.453245	16958.584333	1972.013672	59.820911
19512.453245	16958.584333	1971.043945	366.672211
19512.453245	16958.584333	1970.075195	340.460999
19512.453245	16958.584333	1969.105469	508.871918
19512.453245	16958.584333	1968.135742	240.918671
19512.453245	16958.584333	1967.165039	145.440552
19512.453245	16958.584333	1966.195313	69.607002
19512.453245	16958.584333	1965.224609	180.905746
19512.453245	16958.584333	1964.253906	82.764328
19512.453245	16958.584333	1963.283203	408.063721
19512.453245	16958.584333	1962.312500	314.688629
19512.453245	16958.584333	1961.341797	312.343933
19512.453245	16958.584333	1960.370117	228.745972
19512.453245	16958.584333	1959.399414	-68.928062
19512.453245	16958.584333	1958.427734	4.897136
19512.453245	16958.584333	1957.455078	120.464684
19512.453245	16958.584333	1956.483398	176.928177
19512.453245	16958.584333	1955.511719	533.268677
19512.453245	16958.584333	1954.539063	80.767792
19512.453245	16958.584333	1953.566406	532.781616
19512.453245	16958.584333	1952.593750	419.478455
19512.453245	16958.584333	1951.621094	399.549866
19512.453245	16958.584333	1950.647461	11.194702
19512.453245	16958.584333	1949.674805	136.206558
19512.453245	16958.584333	1948.701172	302.912537
19512.453245	16958.584333	1947.727539	98.879021
19512.453245	16958.584333	1946.753906	398.058594
19512.453245	16958.584333	1945.780273	68.934998
19512.453245	16958.584333	1944.805664	12.276563
19512.453245	16958.584333	1943.831055	-10.010978
19512.453245	16958.584333	1942.856445	225.235397
19512.453245	16958.584333	1941.881836	43.557510
19512.453245	16958.584333	1940.907227	170.868134
19512.453245	16958.584333	1939.932617	-170.017746
19512.453245	16958.584333	1938.957031	67.609001
19512.453245	16958.584333	1937.981445	65.051788
19512.453245	16958.584333	1937.005859	-148.155991
19512.453245	16958.584333	1936.030273	-108.981018
19512.453245	16958.584333	1935.054688	91.836456
19512.453245	16958.584333	1934.078125	476.247345
19512.453245	16958.584333	1933.101563	42.933292
19512.453245	16958.584333	1932.125000	-20.611881
19512.453245	16958.584333	1931.148438	96.984459
19512.453245	16958.584333	1930.171875	-56.991085
19512.453245	16958.584333	1929.194336	-294.033234
19512.453245	16958.584333	1928.217773	-173.890762
19512.453245	16958.584333	1927.240234	210.343842
19512.453245	16958.584333	1926.262695	129.976318
19512.453245	16958.584333	1925.284180	267.230499
19512.453245	16958.584333	1924.306641	-345.787598
19512.453245	16958.584333	1923.328125	143.442810
19512.453245	16958.584333	1922.350586	349.152374
19512.453245	16958.584333	1921.372070	156.717392
19512.453245	16958.584333	1920.392578	-25.822365
19512.453245	16958.584333	1919.414063	-137.451599
19512.453245	16958.584333	1918.434570	-43.922882
19512.453245	16958.584333	1917.456055	122.825623
19512.453245	16958.584333	1916.476563	252.971069
19512.453245	16958.584333	1915.497070	92.786591
19512.453245	16958.584333	1914.516602	154.698792
19512.453245	16958.584333	1913.537109	45.909496
19512.453245	16958.584333	1912.556641	95.713158
19512.453245	16958.584333	1911.576172	57.784767
19512.453245	16958.584333	1910.595703	219.792175
19512.453245	16958.584333	1909.615234	-212.842926
19512.453245	16958.584333	1908.633789	73.528671
19512.453245	16958.584333	1907.653320	267.260132
19512.453245	16958.584333	1906.671875	339.193054
19512.453245	16958.584333	1905.690430	182.243942
19512.453245	16958.584333	1904.708984	144.705322
19512.453245	16958.584333	1903.727539	-150.810059
19512.453245	16958.584333	1902.745117	50.343075
19512.453245	16958.584333	1901.762695	-38.098839
19512.453245	16958.584333	1900.780273	384.445557
19512.453245	16958.584333	1899.797852	288.764648
19512.453245	16958.584333	1898.815430	222.349838
19512.453245	16958.584333	1897.832031	-33.649719
19512.453245	16958.584333	1896.849609	-148.515198
19512.453245	16958.584333	1895.866211	-117.447548
19512.453245	16958.584333	1894.882813	69.183624
19512.453245	16958.584333	1893.898438	289.808685
19512.453245	16958.584333	1892.915039	-111.514130
19512.453245	16958.584333	1891.930664	587.619812
19512.453245	16958.584333	1890.947266	-32.086922
19512.453245	16958.584333	1889.962891	-343.167114
19512.453245	16958.584333	1888.977539	-265.696014
19512.453245	16958.584333	1887.993164	110.294220
19512.453245	16958.584333	1887.007813	-20.959517
19512.453245	16958.584333	1886.023438	-326.825531
19512.453245	16958.584333	1885.038086	49.069862
19512.453245	16958.584333	1884.051758	68.358292
19512.453245	16958.584333	1883.066406	-50.547562
19512.453245	16958.584333	1882.081055	46.376377
19512.453245	16958.584333	1881.094727	310.544891
19512.453245	16958.584333	1880.108398	-132.990738
19512.453245	16958.584333	1879.122070	-215.317856
19512.453245	16958.584333	1878.135742	-234.613663
19512.453245	16958.584333	1877.148438	417.028809
19512.453245	16958.584333	1876.162109	15.056911
19512.453245	16958.584333	1875.174805	-67.155388
19512.453245	16958.584333	1874.187500	213.778870
19512.453245	16958.584333	1873.199219	37.215862
19512.453245	16958.584333	1872.211914	10.743405
19512.453245	16958.584333	1871.223633	-163.276245
19512.453245	16958.584333	1870.236328	-88.091255
19512.453245	16958.584333	1869.248047	-264.425323
19512.453245	16958.584333	1868.258789	-140.858093
19512.453245	16958.584333	1867.270508	-87.446449
19512.453245	16958.584333	1866.282227	415.513397
19512.453245	16958.584333	1865.292969	268.236938
19512.453245	16958.584333	1864.303711	278.067963
19512.453245	16958.584333	1863.314453	302.383759
19512.453245	16958.584333	1862.324219	111.743538
19512.453245	16958.584333	1861.334961	119.168533
19512.453245	16958.584333	1860.344727	46.923290
19512.453245	16958.584333	1859.354492	92.972687
19512.453245	16958.584333	1858.364258	459.979126
19512.453245	16958.584333	1857.374023	233.249603
19512.453245	16958.584333	1856.383789	199.594940
19512.453245	16958.584333	1855.392578	11.574217
19512.453245	16958.584333	1854.401367	351.742218
19512.453245	16958.584333	1853.410156	84.163727
19512.453245	16958.584333	1852.418945	-106.194183
19512.453245	16958.584333	1851.426758	168.680618
19512.453245	16958.584333	1850.435547	402.450348
19512.453245	16958.584333	1849.443359	212.078369
19512.453245	16958.584333	1848.451172	291.545380
19512.453245	16958.584333	1847.458984	354.095825
19512.453245	16958.584333	1846.466797	-45.736740
19512.453245	16958.584333	1845.473633	284.032288
19512.453245	16958.584333	1844.480469	-12.190462
19512.453245	16958.584333	1843.487305	437.710571
19512.453245	16958.584333	1842.494141	131.878311
19512.453245	16958.584333	1841.500977	-46.380234
19512.453245	16958.584333	1840.506836	537.860840
19512.453245	16958.584333	1839.513672	198.393356
19512.453245	16958.584333	1838.519531	236.500397
19512.453245	16958.584333	1837.525391	2.913061
19512.453245	16958.584333	1836.530273	317.353973
19512.453245	16958.584333	1835.536133	525.888855
19512.453245	16958.584333	1834.541016	304.253448
19512.453245	16958.584333	1833.545898	193.147949
19512.453245	16958.584333	1832.550781	53.211449
19512.453245	16958.584333	1831.555664	259.040100
19512.453245	16958.584333	1830.560547	495.948853
19512.453245	16958.584333	1829.564453	864.730286
19512.453245	16958.584333	1828.568359	-168.172867
19512.453245	16958.584333	1827.572266	250.862839
19512.453245	16958.584333	1826.576172	218.687607
19512.453245	16958.584333	1825.580078	678.143799
19512.453245	16958.584333	1824.583008	67.859657
19512.453245	16958.584333	1823.585938	519.856384
19512.453245	16958.584333	1822.588867	149.413849
19512.453245	16958.584333	1821.591797	1.925216
19512.453245	16958.584333	1820.594727	106.025894
19512.453245	16958.584333	1819.596680	581.363525
19512.453245	16958.584333	1818.599609	500.732574
19512.453245	16958.584333	1817.601563	436.831940
19512.453245	16958.584333	1816.603516	466.257507
19512.453245	16958.584333	1815.604492	581.789551
19512.453245	16958.584333	1814.606445	287.902832
19512.453245	16958.584333	1813.607422	101.744987
19512.453245	16958.584333	1812.608398	662.056824
19512.453245	16958.584333	1811.609375	334.602722
19512.453245	16958.584333	1810.610352	21.533972
19512.453245	16958.584333	1809.610352	179.579575
19512.453245	16958.584333	1808.611328	155.778030
19512.453245	16958.584333	1807.611328	409.178345
19512.453245	16958.584333	1806.611328	430.580505
19512.453245	16958.584333	1805.610352	-52.274963
19512.453245	16958.584333	1804.610352	157.756653
19512.453245	16958.584333	1803.609375	-71.862183
19512.453245	16958.584333	1802.608398	360.008820
19512.453245	16958.584333	1801.607422	139.802277
19512.453245	16958.584333	1800.606445	263.337585
19512.453245	16958.584333	1799.605469	341.383331
19512.453245	16958.584333	1798.603516	708.050659
19512.453245	16958.584333	1797.601563	413.609314
19512.453245	16958.584333	1796.599609	298.085785
19512.453245	16958.584333	1795.597656	366.147186
19512.453245	16958.584333	1794.595703	341.085724
19512.453245	16958.584333	1793.592773	-151.319931
19512.453245	16958.584333	1792.589844	397.966217
19512.453245	16958.584333	1791.587891	651.433655
19512.453245	16958.584333	1790.583984	-117.439835
19512.453245	16958.584333	1789.581055	-64.277962
19512.453245	16958.584333	1788.577148	469.879211
19512.453245	16958.584333	1787.574219	534.609741
19512.453245	16958.584333	1786.570313	458.744202
19512.453245	16958.584333	1785.566406	504.202332
19512.453245	16958.584333	1784.561523	128.293320
19512.453245	16958.584333	1783.557617	35.572689
19512.453245	16958.584333	1782.552734	92.659431
19512.453245	16958.584333	1781.547852	282.821350
19512.453245	16958.584333	1780.542969	494.198578
19512.453245	16958.584333	1779.538086	343.982086
19512.453245	16958.584333	1778.532227	-196.148315
19512.453245	16958.584333	1777.527344	150.348679
19512.453245	16958.584333	1776.521484	468.090942
19512.453245	16958.584333	1775.515625	101.347046
19512.453245	16958.584333	1774.508789	340.366791
19512.453245	16958.584333	1773.502930	234.809631
19512.453245	16958.584333	1772.496094	335.769196
19512.453245	16958.584333	1771.489258	550.526367
19512.453245	16958.584333	1770.482422	394.807373
19512.453245	16958.584333	1769.475586	300.733185
19512.453245	16958.584333	1768.467773	334.713196
19512.453245	16958.584333	1767.460938	660.349670
19512.453245	16958.584333	1766.453125	245.746918
19512.453245	16958.584333	1765.445313	236.686478
19512.453245	16958.584333	1764.437500	542.847961
19512.453245	16958.584333	1763.428711	256.163818
19512.453245	16958.584333	1762.420898	424.510986
19512.453245	16958.584333	1761.412109	343.879456
19512.453245	16958.584333	1760.403320	234.731155
19512.453245	16958.584333	1759.393555	229.732574
19512.453245	16958.584333	1758.384766	302.769470
19512.453245	16958.584333	1757.375000	299.893494
19512.453245	16958.584333	1756.366211	308.740814
19512.453245	16958.584333	1755.356445	255.933060
19512.453245	16958.584333	1754.345703	23.180933
19512.453245	16958.584333	1753.335938	121.637009
19512.453245	16958.584333	1752.325195	274.344147
19512.453245	16958.584333	1751.315430	-60.321960
19512.453245	16958.584333	1750.304688	442.091309
19512.453245	16958.584333	1749.292969	-119.666107
19512.453245	16958.584333	1748.282227	673.075134
19512.453245	16958.584333	1747.270508	430.294495
19512.453245	16958.584333	1746.259766	173.314133
19512.453245	16958.584333	1745.248047	433.675537
19512.453245	16958.584333	1744.235352	110.429527
19512.453245	16958.584333	1743.223633	174.473267
19512.453245	16958.584333	1742.211914	73.108795
19512.453245	16958.584333	1741.199219	-9.444253
19512.453245	16958.584333	1740.186523	141.567795
19512.453245	16958.584333	1739.173828	21.051664
19512.453245	16958.584333	1738.160156	443.086060
19512.453245	16958.584333	1737.147461	-12.610077
19512.453245	16958.584333	1736.133789	-22.524397
19512.453245	16958.584333	1735.120117	-72.625221
19512.453245	16958.584333	1734.106445	-250.122925
19512.453245	16958.584333	1733.091797	-5.763402
19512.453245	16958.584333	1732.078125	14.521035
19512.453245	16958.584333	1731.063477	187.835587
19512.453245	16958.584333	1730.048828	530.575867
19512.453245	16958.584333	1729.034180	392.629150
19512.453245	16958.584333	1728.019531	-256.343597
19512.453245	16958.584333	1727.003906	104.797867
19512.453245	16958.584333	1725.988281	-212.198807
19512.453245	16958.584333	1724.972656	-176.176620
19512.453245	16958.584333	1723.957031	-88.509842
19512.453245	16958.584333	1722.941406	-85.666412
19512.453245	16958.584333	1721.924805	-137.025955
19512.453245	16958.584333	1720.909180	-383.647247
19512.453245	16958.584333	1719.892578	171.451813
19512.453245	16958.584333	1718.875977	-33.027187
19512.453245	16958.584333	1717.858398	234.863968
19512.453245	16958.584333	1716.841797	-47.288185
19512.453245	16958.584333	1715.824219	46.454865
19512.453245	16958.584333	1714.806641	165.904495
19512.453245	16958.584333	1713.789063	177.182709
19512.453245	16958.584333	1712.770508	56.874130
19512.453245	16958.584333	1711.752930	253.429535
19512.453245	16958.584333	1710.734375	163.478043
19512.453245	16958.584333	1709.715820	-182.316879
19512.453245	16958.584333	1708.697266	18.584826
19512.453245	16958.584333	1707.678711	-132.538437
19512.453245	16958.584333	1706.659180	300.272491
19512.453245	16958.584333	1705.640625	-141.780472
19512.453245	16958.584333	1704.621094	-128.951950
19512.453245	16958.584333	1703.600586	24.415163
19512.453245	16958.584333	1702.581055	372.148315
19512.453245	16958.584333	1701.561523	49.562084
19512.453245	16958.584333	1700.541016	-120.716805
19512.453245	16958.584333	1699.520508	-220.754364
19512.453245	16958.584333	1698.500000	-79.643188
19512.453245	16958.584333	1697.478516	-224.299652
19512.453245	16958.584333	1696.458008	-90.422668
19512.453245	16958.584333	1695.436523	153.310013
19512.453245	16958.584333	1694.415039	176.930481
19512.453245	16958.584333	1693.393555	22.666500
19512.453245	16958.584333	1692.372070	88.249802
19512.453245	16958.584333	1691.349609	-80.119164
19512.453245	16958.584333	1690.327148	293.935760
19512.453245	16958.584333	1689.304688	132.458817
19512.453245	16958.584333	1688.282227	370.630981
19512.453245	16958.584333	1687.259766	124.941864
19512.453245	16958.584333	1686.236328	-29.607580
19512.453245	16958.584333	1685.213867	261.976776
19512.453245	16958.584333	1684.190430	163.375214
19512.453245	16958.584333	1683.166016	407.975647
19512.453245	16958.584333	1682.142578	482.010834
19512.453245	16958.584333	1681.119141	268.872314
19512.453245	16958.584333	1680.094727	139.756149
19512.453245	16958.584333	1679.070313	-222.675598
19512.453245	16958.584333	1678.045898	152.094086
19512.453245	16958.584333	1677.020508	88.202538
19512.453245	16958.584333	1675.996094	464.992554
19512.453245	16958.584333	1674.970703	496.542053
19512.453245	16958.584333	1673.945313	220.353241
19512.453245	16958.584333	1672.919922	172.603333
19512.453245	16958.584333	1671.893555	255.296677
19512.453245	16958.584333	1670.868164	-76.739067
19512.453245	16958.584333	1669.841797	725.557983
19512.453245	16958.584333	1668.815430	39.514523
19512.453245	16958.584333	1667.789063	49.815632
19512.453245	16958.584333	1666.761719	-37.698586
19512.453245	16958.584333	1665.735352	696.311707
19512.453245	16958.584333	1664.708008	920.419678
19512.453245	16958.584333	1663.680664	420.905518
19512.453245	16958.584333	1662.653320	568.153442
19512.453245	16958.584333	1661.625000	694.374573
19512.453245	16958.584333	1660.597656	578.717651
19512.453245	16958.584333	1659.569336	607.193115
19512.453245	16958.584333	1658.541016	275.389862
19512.453245	16958.584333	1657.512695	517.629700
19512.453245	16958.584333	1656.483398	794.596252
19512.453245	16958.584333	1655.455078	669.594849
19512.453245	16958.584333	1654.425781	340.245087
19512.453245	16958.584333	1653.396484	700.600769
19512.453245	16958.584333	1652.366211	656.861145
19512.453245	16958.584333	1651.336914	942.706604
19512.453245	16958.584333	1650.306641	571.705933
19512.453245	16958.584333	1649.276367	511.725494
19512.453245	16958.584333	1648.246094	674.434814
19512.453245	16958.584333	1647.215820	1256.843384
19512.453245	16958.584333	1646.185547	1055.280640
19512.453245	16958.584333	1645.154297	1120.387329
19512.453245	16958.584333	1644.123047	756.658875
19512.453245	16958.584333	1643.091797	1000.217834
19512.453245	16958.584333	1642.060547	859.065735
19512.453245	16958.584333	1641.028320	919.495605
19512.453245	16958.584333	1639.997070	1179.086426
19512.453245	16958.584333	1638.964844	1239.426392
19512.453245	16958.584333	1637.931641	1468.743652
19512.453245	16958.584333	1636.899414	1343.835938
19512.453245	16958.584333	1635.867188	1552.230591
19512.453245	16958.584333	1634.833984	1441.239990
19512.453245	16958.584333	1633.800781	1071.203491
19512.453245	16958.584333	1632.767578	1406.755249
19512.453245	16958.584333	1631.734375	1291.260132
19512.453245	16958.584333	1630.700195	1434.761230
19512.453245	16958.584333	1629.666016	1273.093750
19512.453245	16958.584333	1628.631836	1344.927124
19512.453245	16958.584333	1627.597656	1462.958252
19512.453245	16958.584333	1626.563477	1601.758911
19512.453245	16958.584333	1625.528320	1886.032593
19512.453245	16958.584333	1624.493164	1565.180664
19512.453245	16958.584333	1623.458008	1609.274902
19512.453245	16958.584333	1622.422852	1856.516113
19512.453245	16958.584333	1621.387695	1757.495728
19512.453245	16958.584333	1620.351563	1713.913208
19512.453245	16958.584333	1619.315430	1903.392578
19512.453245	16958.584333	1618.279297	1656.880615
19512.453245	16958.584333	1617.243164	1103.773438
19512.453245	16958.584333	1616.207031	1632.299194
19512.453245	16958.584333	1615.169922	1690.372192
19512.453245	16958.584333	1614.132813	1621.698364
19512.453245	16958.584333	1613.095703	1857.263672
19512.453245	16958.584333	1612.058594	1860.085083
19512.453245	16958.584333	1611.020508	1326.229736
19512.453245	16958.584333	1609.983398	1907.298584
19512.453245	16958.584333	1608.945313	1698.392944
19512.453245	16958.584333	1607.907227	1938.530762
19512.453245	16958.584333	1606.868164	1923.134888
19512.453245	16958.584333	1605.830078	1834.157227
19512.453245	16958.584333	1604.791016	1641.727051
19512.453245	16958.584333	1603.751953	1759.967407
19512.453245	16958.584333	1602.712891	1963.313477
19512.453245	16958.584333	1601.673828	1743.536255
19512.453245	16958.584333	1600.633789	1928.523438
19512.453245	16958.584333	1599.594727	2168.660156
19512.453245	16958.584333	1598.554688	1882.501709
19512.453245	16958.584333	1597.513672	2336.350586
19512.453245	16958.584333	1596.473633	2353.622803
19512.453245	16958.584333	1595.433594	2102.233643
19512.453245	16958.584333	1594.392578	1772.930298
19512.453245	16958.584333	1593.351563	1700.956665
19512.453245	16958.584333	1592.310547	1732.372681
19512.453245	16958.584333	1591.268555	1818.922119
19512.453245	16958.584333	1590.227539	1813.734863
19512.453245	16958.584333	1589.185547	1854.496582
19512.453245	16958.584333	1588.143555	1670.544067
19512.453245	16958.584333	1587.100586	1617.445801
19512.453245	16958.584333	1586.058594	1919.819092
19512.453245	16958.584333	1585.015625	1811.838623
19512.453245	16958.584333	1583.972656	1768.145508
19512.453245	16958.584333	1582.929688	1566.448120
19512.453245	16958.584333	1581.886719	1770.404175
19512.453245	16958.584333	1580.843750	1745.319458
19512.453245	16958.584333	1579.799805	1443.235474
19512.453245	16958.584333	1578.755859	1457.312866
19512.453245	16958.584333	1577.711914	1682.076050
19512.453245	16958.584333	1576.666992	1760.359863
19512.453245	16958.584333	1575.623047	1561.830811
19512.453245	16958.584333	1574.578125	1569.371826
19512.453245	16958.584333	1573.533203	1693.654663
19512.453245	16958.584333	1572.488281	1959.770386
19512.453245	16958.584333	1571.443359	1812.032593
19512.453245	16958.584333	1570.397461	2149.077393
19512.453245	16958.584333	1569.351563	2202.677246
19512.453245	16958.584333	1568.305664	1979.865112
19512.453245	16958.584333	1567.259766	1892.036377
19512.453245	16958.584333	1566.213867	1770.078857
19512.453245	16958.584333	1565.166992	1461.004028
19512.453245	16958.584333	1564.120117	1914.771606
19512.453245	16958.584333	1563.073242	1432.503906
19512.453245	16958.584333	1562.026367	1272.350342
19512.453245	16958.584333	1560.978516	1504.857910
19512.453245	16958.584333	1559.930664	1680.349121
19512.453245	16958.584333	1558.883789	1842.193237
19512.453245	16958.584333	1557.834961	1235.521362
19512.453245	16958.584333	1556.787109	1260.806030
19512.453245	16958.584333	1555.739258	1106.094116
19512.453245	16958.584333	1554.690430	1049.569946
19512.453245	16958.584333	1553.641602	1093.445923
19512.453245	16958.584333	1552.592773	1217.168457
19512.453245	16958.584333	1551.542969	1432.070313
19512.453245	16958.584333	1550.494141	847.621704
19512.453245	16958.584333	1549.444336	1308.674805
19512.453245	16958.584333	1548.394531	1364.434082
19512.453245	16958.584333	1547.344727	1270.072021
19512.453245	16958.584333	1546.293945	1294.203369
19512.453245	16958.584333	1545.244141	1009.019592
19512.453245	16958.584333	1544.193359	1072.112549
19512.453245	16958.584333	1543.142578	887.408264
19512.453245	16958.584333	1542.090820	1030.338379
19512.453245	16958.584333	1541.040039	902.804138
19512.453245	16958.584333	1539.988281	911.827942
19512.453245	16958.584333	1538.936523	1136.866821
19512.453245	16958.584333	1537.884766	1039.311890
19512.453245	16958.584333	1536.833008	1321.293213
19512.453245	16958.584333	1535.780273	1060.480835
19512.453245	16958.584333	1534.727539	550.120422
19512.453245	16958.584333	1533.674805	911.888367
19512.453245	16958.584333	1532.622070	760.668213
19512.453245	16958.584333	1531.569336	707.222412
19512.453245	16958.584333	1530.515625	1066.885986
19512.453245	16958.584333	1529.461914	741.458313
19512.453245	16958.584333	1528.408203	772.381470
19512.453245	16958.584333	1527.354492	708.191284
19512.453245	16958.584333	1526.299805	877.684143
19512.453245	16958.584333	1525.246094	568.972351
19512.453245	16958.584333	1524.191406	428.230225
19512.453245	16958.584333	1523.136719	1073.920410
19512.453245	16958.584333	1522.081055	892.644592
19512.453245	16958.584333	1521.026367	587.009827
19512.453245	16958.584333	1519.970703	825.113464
19512.453245	16958.584333	1518.915039	1027.046387
19512.453245	16958.584333	1517.859375	595.238892
19512.453245	16958.584333	1516.802734	899.269592
19512.453245	16958.584333	1515.747070	651.228760
19512.453245	16958.584333	1514.690430	319.738403
19512.453245	16958.584333	1513.633789	825.380798
19512.453245	16958.584333	1512.577148	772.421997
19512.453245	16958.584333	1511.519531	771.636780
19512.453245	16958.584333	1510.461914	1012.868713
19512.453245	16958.584333	1509.405273	237.152206
19512.453245	16958.584333	1508.346680	225.631607
19512.453245	16958.584333	1507.289063	593.784485
19512.453245	16958.584333	1506.231445	957.428589
19512.453245	16958.584333	1505.172852	458.452728
19512.453245	16958.584333	1504.114258	481.363617
19512.453245	16958.584333	1503.055664	687.263123
19512.453245	16958.584333	1501.996094	398.985687
19512.453245	16958.584333	1500.937500	359.172058
19512.453245	16958.584333	1499.877930	301.490875
19512.453245	16958.584333	1498.818359	264.284027
19512.453245	16958.584333	1497.757813	33.316158
19512.453245	16958.584333	1496.698242	28.051052
19512.453245	16958.584333	1495.637695	-213.740021
19512.453245	16958.584333	1494.577148	-259.207977
19512.453245	16958.584333	1493.516602	67.291931
19512.453245	16958.584333	1492.456055	-209.943298
19512.453245	16958.584333	1491.394531	-191.839706
19512.453245	16958.584333	1490.333008	-97.025375
19512.453245	16958.584333	1489.271484	-288.027527
19512.453245	16958.584333	1488.209961	59.196873
19512.453245	16958.584333	1487.148438	415.444824
19512.453245	16958.584333	1486.085938	193.427612
19512.453245	16958.584333	1485.023438	-93.581276
19512.453245	16958.584333	1483.960938	-202.632599
19512.453245	16958.584333	1482.898438	84.312752
19512.453245	16958.584333	1481.834961	-179.529495
19512.453245	16958.584333	1480.772461	-16.008640
19512.453245	16958.584333	1479.708984	-158.036835
19512.453245	16958.584333	1478.644531	-79.629303
19512.453245	16958.584333	1477.581055	93.254379
19512.453245	16958.584333	1476.517578	302.095795
19512.453245	16958.584333	1475.453125	-7.490124
19512.453245	16958.584333	1474.388672	455.186493
19512.453245	16958.584333	1473.323242	58.502609
19512.453245	16958.584333	1472.258789	97.418976
19512.453245	16958.584333	1471.193359	544.494385
19512.453245	16958.584333	1470.127930	500.554749
19512.453245	16958.584333	1469.062500	443.377289
19512.453245	16958.584333	1467.997070	523.282104
19512.453245	16958.584333	1466.930664	335.912598
19512.453245	16958.584333	1465.865234	353.587036
19512.453245	16958.584333	1464.798828	487.272156
19512.453245	16958.584333	1463.731445	180.366562
19512.453245	16958.584333	1462.665039	441.203339
19512.453245	16958.584333	1461.597656	657.175720
19512.453245	16958.584333	1460.530273	317.381744
19512.453245	16958.584333	1459.462891	574.133545
19512.453245	16958.584333	1458.395508	337.946503
19512.453245	16958.584333	1457.327148	783.574463
19512.453245	16958.584333	1456.259766	473.801849
19512.453245	16958.584333	1455.191406	708.953247
19512.453245	16958.584333	1454.123047	723.508484
19512.453245	16958.584333	1453.053711	399.643799
19512.453245	16958.584333	1451.985352	736.236206
19512.453245	16958.584333	1450.916016	381.462952
19512.453245	16958.584333	1449.846680	444.697723
19512.453245	16958.584333	1448.776367	199.425919
19512.453245	16958.584333	1447.707031	376.492096
19512.453245	16958.584333	1446.636719	177.871414
19512.453245	16958.584333	1445.566406	303.757324
19512.453245	16958.584333	1444.496094	491.235291
19512.453245	16958.584333	1443.425781	285.480652
19512.453245	16958.584333	1442.354492	297.569305
19512.453245	16958.584333	1441.283203	78.709793
19512.453245	16958.584333	1440.211914	394.108582
19512.453245	16958.584333	1439.140625	113.644096
19512.453245	16958.584333	1438.069336	99.534515
19512.453245	16958.584333	1436.997070	437.086884
19512.453245	16958.584333	1435.924805	-52.932449
19512.453245	16958.584333	1434.852539	150.194687
19512.453245	16958.584333	1433.780273	234.217697
19512.453245	16958.584333	1432.707031	-31.419168
19512.453245	16958.584333	1431.633789	-276.883728
19512.453245	16958.584333	1430.560547	15.065543
19512.453245	16958.584333	1429.487305	72.053055
19512.453245	16958.584333	1428.413086	99.312576
19512.453245	16958.584333	1427.339844	-169.097916
19512.453245	16958.584333	1426.265625	27.973490
19512.453245	16958.584333	1425.191406	142.420593
19512.453245	16958.584333	1424.116211	-97.979378
19512.453245	16958.584333	1423.041992	507.557037
19512.453245	16958.584333	1421.966797	251.589005
19512.453245	16958.584333	1420.891602	381.298828
19512.453245	16958.584333	1419.816406	332.103729
19512.453245	16958.584333	1418.740234	238.094009
19512.453245	16958.584333	1417.665039	218.344833
19512.453245	16958.584333	1416.588867	684.303223
19512.453245	16958.584333	1415.512695	-10.892128
19512.453245	16958.584333	1414.435547	459.216705
19512.453245	16958.584333	1413.359375	495.840576
19512.453245	16958.584333	1412.282227	581.247742
19512.453245	16958.584333	1411.205078	362.892792
19512.453245	16958.584333	1410.127930	498.798370
19512.453245	16958.584333	1409.049805	414.169006
19512.453245	16958.584333	1407.972656	455.710419
19512.453245	16958.584333	1406.894531	418.309235
19512.453245	16958.584333	1405.816406	320.579498
19512.453245	16958.584333	1404.737305	321.538788
19512.453245	16958.584333	1403.659180	267.903473
19512.453245	16958.584333	1402.580078	472.834534
19512.453245	16958.584333	1401.500977	480.074463
19512.453245	16958.584333	1400.421875	26.759094
19512.453245	16958.584333	1399.341797	394.527557
19512.453245	16958.584333	1398.262695	55.778664
19512.453245	16958.584333	1397.182617	149.971390
19512.453245	16958.584333	1396.102539	126.628845
19512.453245	16958.584333	1395.021484	362.499939
19512.453245	16958.584333	1393.941406	238.752151
19512.453245	16958.584333	1392.860352	-98.404747
19512.453245	16958.584333	1391.779297	41.567528
19512.453245	16958.584333	1390.698242	75.222702
19512.453245	16958.584333	1389.616211	-52.631222
19512.453245	16958.584333	1388.535156	-82.929428
19512.453245	16958.584333	1387.453125	169.992004
19512.453245	16958.584333	1386.371094	117.299713
19512.453245	16958.584333	1385.288086	160.009094
19512.453245	16958.584333	1384.206055	542.098206
19512.453245	16958.584333	1383.123047	24.055904
19512.453245	16958.584333	1382.040039	-10.510132
19512.453245	16958.584333	1380.957031	513.879517
19512.453245	16958.584333	1379.873047	496.533722
19512.453245	16958.584333	1378.789063	697.434753
19512.453245	16958.584333	1377.705078	858.812012
19512.453245	16958.584333	1376.621094	630.937988
19512.453245	16958.584333	1375.537109	628.967834
19512.453245	16958.584333	1374.452148	668.628845
19512.453245	16958.584333	1373.367188	732.012085
19512.453245	16958.584333	1372.282227	704.925232
19512.453245	16958.584333	1371.197266	708.527283
19512.453245	16958.584333	1370.112305	716.364136
19512.453245	16958.584333	1369.026367	1115.354858
19512.453245	16958.584333	1367.940430	1074.480591
19512.453245	16958.584333	1366.854492	1133.521851
19512.453245	16958.584333	1365.767578	1003.581177
19512.453245	16958.584333	1364.681641	1173.578735
19512.453245	16958.584333	1363.594727	1068.955933
19512.453245	16958.584333	1362.507813	1318.939453
19512.453245	16958.584333	1361.419922	1229.066406
19512.453245	16958.584333	1360.333008	1317.748047
19512.453245	16958.584333	1359.245117	1451.801514
19512.453245	16958.584333	1358.157227	1431.004028
19512.453245	16958.584333	1357.069336	1239.190674
19512.453245	16958.584333	1355.981445	1262.836670
19512.453245	16958.584333	1354.892578	1169.780151
19512.453245	16958.584333	1353.803711	1088.173218
19512.453245	16958.584333	1352.714844	903.889771
19512.453245	16958.584333	1351.625000	941.057068
19512.453245	16958.584333	1350.536133	846.679016
19512.453245	16958.584333	1349.446289	1126.632446
19512.453245	16958.584333	1348.356445	1242.303467
19512.453245	16958.584333	1347.266602	817.460388
19512.453245	16958.584333	1346.175781	1047.012329
19512.453245	16958.584333	1345.085938	982.524719
19512.453245	16958.584333	1343.995117	752.871277
19512.453245	16958.584333	1342.903320	723.055054
19512.453245	16958.584333	1341.812500	869.883423
19512.453245	16958.584333	1340.720703	1142.574097
19512.453245	16958.584333	1339.629883	1183.946167
19512.453245	16958.584333	1338.538086	1060.240845
19512.453245	16958.584333	1337.445313	983.219116
19512.453245	16958.584333	1336.353516	761.558838
19512.453245	16958.584333	1335.260742	1089.314331
19512.453245	16958.584333	1334.167969	1336.804321
19512.453245	16958.584333	1333.075195	825.840332
19512.453245	16958.584333	1331.981445	1088.199097
19512.453245	16958.584333	1330.888672	1301.769043
19512.453245	16958.584333	1329.794922	1512.671265
19512.453245	16958.584333	1328.701172	1408.357300
19512.453245	16958.584333	1327.606445	1287.256470
19512.453245	16958.584333	1326.512695	1284.510620
19512.453245	16958.584333	1325.417969	1425.772583
19512.453245	16958.584333	1324.323242	1571.431152
19512.453245	16958.584333	1323.227539	1578.861206
19512.453245	16958.584333	1322.132813	1461.407104
19512.453245	16958.584333	1321.037109	1346.570068
19512.453245	16958.584333	1319.941406	1052.742310
19512.453245	16958.584333	1318.845703	1314.809570
19512.453245	16958.584333	1317.750000	1046.969849
19512.453245	16958.584333	1316.653320	942.274231
19512.453245	16958.584333	1315.556641	1113.380371
19512.453245	16958.584333	1314.459961	1060.998291
19512.453245	16958.584333	1313.363281	992.185364
19512.453245	16958.584333	1312.265625	1219.016235
19512.453245	16958.584333	1311.167969	708.171875
19512.453245	16958.584333	1310.070313	813.725586
19512.453245	16958.584333	1308.972656	639.637085
19512.453245	16958.584333	1307.874023	553.332764
19512.453245	16958.584333	1306.776367	705.550476
19512.453245	16958.584333	1305.677734	647.909607
19512.453245	16958.584333	1304.579102	585.153564
19512.453245	16958.584333	1303.479492	901.950928
19512.453245	16958.584333	1302.380859	867.672302
19512.453245	16958.584333	1301.281250	804.042603
19512.453245	16958.584333	1300.181641	1229.047485
19512.453245	16958.584333	1299.081055	950.101624
19512.453245	16958.584333	1297.981445	1039.094971
19512.453245	16958.584333	1296.880859	1106.002808
19512.453245	16958.584333	1295.780273	981.286987
19512.453245	16958.584333	1294.679688	1113.282471
19512.453245	16958.584333	1293.578125	582.041016
19512.453245	16958.584333	1292.476563	898.391663
19512.453245	16958.584333	1291.375000	666.024719
19512.453245	16958.584333	1290.273438	1031.669800
19512.453245	16958.584333	1289.171875	507.079559
19512.453245	16958.584333	1288.069336	635.977844
19512.453245	16958.584333	1286.966797	782.646729
19512.453245	16958.584333	1285.864258	514.874268
19512.453245	16958.584333	1284.761719	786.675171
19512.453245	16958.584333	1283.658203	574.023071
19512.453245	16958.584333	1282.554688	467.485260
19512.453245	16958.584333	1281.451172	448.435791
19512.453245	16958.584333	1280.347656	454.080719
19512.453245	16958.584333	1279.244141	449.407318
19512.453245	16958.584333	1278.139648	367.389404
19512.453245	16958.584333	1277.035156	380.891144
19512.453245	16958.584333	1275.930664	334.755280
19512.453245	16958.584333	1274.825195	707.295471
19512.453245	16958.584333	1273.720703	466.631653
19512.453245	16958.584333	1272.615234	345.591217
19512.453245	16958.584333	1271.508789	528.907654
19512.453245	16958.584333	1270.403320	345.181335
19512.453245	16958.584333	1269.297852	324.815765
19512.453245	16958.584333	1268.191406	118.761322
19512.453245	16958.584333	1267.084961	138.468170
19512.453245	16958.584333	1265.977539	24.136719
19512.453245	16958.584333	1264.871094	196.203262
19512.453245	16958.584333	1263.763672	-52.469475
19512.453245	16958.584333	1262.656250	269.556915
19512.453245	16958.584333	1261.548828	21.961245
19512.453245	16958.584333	1260.440430	103.787720
19512.453245	16958.584333	1259.333008	-21.671824
19512.453245	16958.584333	1258.224609	-110.425781
19512.453245	16958.584333	1257.115234	81.267174
19512.453245	16958.584333	1256.006836	-178.394821
19512.453245	16958.584333	1254.897461	-85.017822
19512.453245	16958.584333	1253.788086	139.465576
19512.453245	16958.584333	1252.678711	-99.558693
19512.453245	16958.584333	1251.569336	-90.071922
19512.453245	16958.584333	1250.458984	92.091179
19512.453245	16958.584333	1249.349609	-107.175781
19512.453245	16958.584333	1248.239258	-136.119568
19512.453245	16958.584333	1247.127930	-92.049583
19512.453245	16958.584333	1246.017578	-110.021339
19512.453245	16958.584333	1244.906250	224.159760
19512.453245	16958.584333	1243.794922	339.432373
19512.453245	16958.584333	1242.683594	55.502827
19512.453245	16958.584333	1241.571289	184.380066
19512.453245	16958.584333	1240.459961	220.747086
19512.453245	16958.584333	1239.347656	-77.104012
19512.453245	16958.584333	1238.234375	136.568207
19512.453245	16958.584333	1237.122070	65.009338
19512.453245	16958.584333	1236.008789	210.386414
19512.453245	16958.584333	1234.896484	92.226402
19512.453245	16958.584333	1233.782227	-61.927002
19512.453245	16958.584333	1232.668945	-38.071960
19512.453245	16958.584333	1231.555664	250.390305
19512.453245	16958.584333	1230.441406	365.753784
19512.453245	16958.584333	1229.327148	185.543457
19512.453245	16958.584333	1228.211914	347.252533
19512.453245	16958.584333	1227.097656	451.412231
19512.453245	16958.584333	1225.982422	469.740021
19512.453245	16958.584333	1224.867188	38.362606
19512.453245	16958.584333	1223.751953	134.021561
19512.453245	16958.584333	1222.635742	343.354492
19512.453245	16958.584333	1221.520508	-4.380437
19512.453245	16958.584333	1220.404297	23.678518
19512.453245	16958.584333	1219.287109	-72.813019
19512.453245	16958.584333	1218.170898	134.348557
19512.453245	16958.584333	1217.053711	-46.748554
19512.453245	16958.584333	1215.936523	234.733551
19512.453245	16958.584333	1214.819336	340.860748
19512.453245	16958.584333	1213.702148	28.636431
19512.453245	16958.584333	1212.583984	260.018372
19512.453245	16958.584333	1211.465820	168.801620
19512.453245	16958.584333	1210.347656	-12.072881
19512.453245	16958.584333	1209.229492	184.511566
19512.453245	16958.584333	1208.110352	248.864212
19512.453245	16958.584333	1206.992188	-107.459091
19512.453245	16958.584333	1205.873047	30.586382
19512.453245	16958.584333	1204.752930	191.589920
19512.453245	16958.584333	1203.633789	37.279514
19512.453245	16958.584333	1202.513672	-2.745629
19512.453245	16958.584333	1201.393555	50.602913
19512.453245	16958.584333	1200.273438	199.832550
19512.453245	16958.584333	1199.152344	145.658539
19512.453245	16958.584333	1198.032227	-146.417267
19512.453245	16958.584333	1196.911133	60.500885
19512.453245	16958.584333	1195.790039	39.509457
19512.453245	16958.584333	1194.667969	-25.160765
19512.453245	16958.584333	1193.545898	-11.018700
19512.453245	16958.584333	1192.424805	121.899544
19512.453245	16958.584333	1191.301758	24.724360
19512.453245	16958.584333	1190.179688	-198.069839
19512.453245	16958.584333	1189.056641	-60.818207
19512.453245	16958.584333	1187.933594	-99.845840
19512.453245	16958.584333	1186.810547	210.307907
19512.453245	16958.584333	1185.687500	35.244286
19512.453245	16958.584333	1184.563477	-20.091316
19512.453245	16958.584333	1183.440430	-39.035828
19512.453245	16958.584333	1182.316406	-103.217789
19512.453245	16958.584333	1181.191406	54.784302
19512.453245	16958.584333	1180.067383	79.633789
19512.453245	16958.584333	1178.942383	-36.134014
19512.453245	16958.584333	1177.817383	212.843719
19512.453245	16958.584333	1176.692383	278.918335
19512.453245	16958.584333	1175.566406	155.773224
19512.453245	16958.584333	1174.440430	110.013573
19512.453245	16958.584333	1173.314453	-205.860840
19512.453245	16958.584333	1172.188477	58.821705
19512.453245	16958.584333	1171.062500	24.932102
19512.453245	16958.584333	1169.935547	49.348892
19512.453245	16958.584333	1168.808594	-126.138901
19512.453245	16958.584333	1167.681641	51.757626
19512.453245	16958.584333	1166.553711	114.350502
19512.453245	16958.584333	1165.426758	-89.488693
19512.453245	16958.584333	1164.298828	-66.631897
19512.453245	16958.584333	1163.170898	-190.895294
19512.453245	16958.584333	1162.041992	-201.898636
19512.453245	16958.584333	1160.914063	-2.506312
19512.453245	16958.584333	1159.785156	-239.959686
19512.453245	16958.584333	1158.656250	-248.910706
19512.453245	16958.584333	1157.526367	-233.498779
19512.453245	16958.584333	1156.397461	-141.451202
19512.453245	16958.584333	1155.267578	-246.128799
19512.453245	16958.584333	1154.137695	-92.923523
19512.453245	16958.584333	1153.006836	-191.726913
19512.453245	16958.584333	1151.876953	-306.152588
19512.453245	16958.584333	1150.746094	-413.755035
19512.453245	16958.584333	1149.615234	-411.935791
19512.453245	16958.584333	1148.484375	-250.220291
19512.453245	16958.584333	1147.352539	-331.099823
19512.453245	16958.584333	1146.220703	47.182461
19512.453245	16958.584333	1145.088867	-81.740646
19512.453245	16958.584333	1143.957031	-111.066391
19512.453245	16958.584333	1142.825195	-10.472487
19512.453245	16958.584333	1141.692383	-200.880142
19512.453245	16958.584333	1140.559570	75.264641
19512.453245	16958.584333	1139.426758	199.315384
19512.453245	16958.584333	1138.292969	-62.375748
19512.453245	16958.584333	1137.159180	-14.403090
19512.453245	16958.584333	1136.025391	-86.655251
19512.453245	16958.584333	1134.891602	-23.380211
19512.453245	16958.584333	1133.757813	-214.691177
19512.453245	16958.584333	1132.623047	-10.572159
19512.453245	16958.584333	1131.488281	-1.927745
19512.453245	16958.584333	1130.353516	266.304657
19512.453245	16958.584333	1129.217773	162.203415
19512.453245	16958.584333	1128.083008	267.108093
19512.453245	16958.584333	1126.947266	142.890213
19512.453245	16958.584333	1125.811523	58.768459
19512.453245	16958.584333	1124.674805	-180.712143
19512.453245	16958.584333	1123.539063	9.596942
19512.453245	16958.584333	1122.402344	-92.651871
19512.453245	16958.584333	1121.265625	-71.688904
19512.453245	16958.584333	1120.127930	-107.525909
19512.453245	16958.584333	1118.990234	-126.313049
19512.453245	16958.584333	1117.853516	110.379768
19512.453245	16958.584333	1116.714844	360.778503
19512.453245	16958.584333	1115.577148	11.272749
19512.453245	16958.584333	1114.439453	103.200310
19512.453245	16958.584333	1113.300781	195.017960
19512.453245	16958.584333	1112.162109	264.489868
19512.453245	16958.584333	1111.022461	35.969273
19512.453245	16958.584333	1109.883789	77.677986
19512.453245	16958.584333	1108.744141	31.314379
19512.453245	16958.584333	1107.604492	27.183836
19512.453245	16958.584333	1106.463867	222.746826
19512.453245	16958.584333	1105.324219	314.528259
19512.453245	16958.584333	1104.183594	158.587555
19512.453245	16958.584333	1103.042969	546.409912
19512.453245	16958.584333	1101.902344	208.485840
19512.453245	16958.584333	1100.760742	198.238464
19512.453245	16958.584333	1099.619141	-15.288234
19512.453245	16958.584333	1098.477539	150.511459
19512.453245	16958.584333	1097.335938	296.344788
19512.453245	16958.584333	1096.193359	81.441406
19512.453245	16958.584333	1095.051758	164.823135
19512.453245	16958.584333	1093.909180	444.454865
19512.453245	16958.584333	1092.765625	270.993011
19512.453245	16958.584333	1091.623047	247.404861
19512.453245	16958.584333	1090.479492	499.952057
19512.453245	16958.584333	1089.335938	163.784378
19512.453245	16958.584333	1088.192383	384.595459
19512.453245	16958.584333	1087.047852	318.044373
19512.453245	16958.584333	1085.903320	161.015411
19512.453245	16958.584333	1084.758789	-41.129803
19512.453245	16958.584333	1083.614258	419.433197
19512.453245	16958.584333	1082.469727	400.503479
19512.453245	16958.584333	1081.324219	295.954803
19512.453245	16958.584333	1080.178711	329.786926
19512.453245	16958.584333	1079.033203	147.591873
19512.453245	16958.584333	1077.886719	612.567566
19512.453245	16958.584333	1076.740234	777.389526
19512.453245	16958.584333	1075.593750	583.796448
19512.453245	16958.584333	1074.447266	342.345215
19512.453245	16958.584333	1073.300781	614.998901
19512.453245	16958.584333	1072.153320	605.000183
19512.453245	16958.584333	1071.005859	655.569763
19512.453245	16958.584333	1069.858398	377.362274
19512.453245	16958.584333	1068.709961	353.877991
19512.453245	16958.584333	1067.561523	417.290894
19512.453245	16958.584333	1066.413086	432.206757
19512.453245	16958.584333	1065.264648	389.162933
19512.453245	16958.584333	1064.116211	258.325714
19512.453245	16958.584333	1062.966797	236.933502
19512.453245	16958.584333	1061.817383	413.654633
19512.453245	16958.584333	1060.667969	322.337036
19512.453245	16958.584333	1059.517578	405.230743
19512.453245	16958.584333	1058.368164	-96.866692
19512.453245	16958.584333	1057.217773	30.899990
19512.453245	16958.584333	1056.067383	-32.361294
19512.453245	16958.584333	1054.916016	20.716551
19512.453245	16958.584333	1053.764648	72.276665
19512.453245	16958.584333	1052.613281	197.715790
19512.453245	16958.584333	1051.461914	-30.329081
19512.453245	16958.584333	1050.310547	343.372772
19512.453245	16958.584333	1049.158203	414.948059
19512.453245	16958.584333	1048.005859	-31.809570
19512.453245	16958.584333	1046.853516	58.434155
19512.453245	16958.584333	1045.700195	260.180817
19512.453245	16958.584333	1044.547852	-53.441177
19512.453245	16958.584333	1043.394531	89.418724
19512.453245	16958.584333	1042.240234	84.514587
19512.453245	16958.584333	1041.086914	19.750362
19512.453245	16958.584333	1039.932617	468.972534
19512.453245	16958.584333	1038.778320	443.953522
19512.453245	16958.584333	1037.624023	326.439636
19512.453245	16958.584333	1036.469727	782.462402
19512.453245	16958.584333	1035.314453	558.007446
19512.453245	16958.584333	1034.159180	1063.925415
19512.453245	16958.584333	1033.003906	1016.790894
19512.453245	16958.584333	1031.847656	691.591309
19512.453245	16958.584333	1030.692383	1218.984985
19512.453245	16958.584333	1029.536133	1429.849121
19512.453245	16958.584333	1028.378906	1159.342163
19512.453245	16958.584333	1027.222656	1057.620483
19512.453245	16958.584333	1026.065430	614.213562
19512.453245	16958.584333	1024.908203	662.956604
19512.453245	16958.584333	1023.750977	521.918091
19512.453245	16958.584333	1022.593750	291.676392
19512.453245	16958.584333	1021.435547	438.050781
19512.453245	16958.584333	1020.277344	247.335602
19512.453245	16958.584333	1019.119141	27.113010
19512.453245	16958.584333	1017.959961	207.618256
19512.453245	16958.584333	1016.800781	477.536316
19512.453245	16958.584333	1015.641602	308.062683
19512.453245	16958.584333	1014.482422	421.121307
19512.453245	16958.584333	1013.323242	259.610809
19512.453245	16958.584333	1012.163086	289.328735
19512.453245	16958.584333	1011.002930	41.940681
19512.453245	16958.584333	1009.842773	352.409637
19512.453245	16958.584333	1008.681641	-15.019634
19512.453245	16958.584333	1007.520508	176.947388
19512.453245	16958.584333	1006.359375	122.420189
19512.453245	16958.584333	1005.198242	171.281708
19512.453245	16958.584333	1004.037109	68.557442
19512.453245	16958.584333	1002.875000	530.634583
19512.453245	16958.584333	1001.712891	186.147537
19512.453245	16958.584333	1000.550781	311.942139
19512.453245	16958.584333	999.387695	117.538292
19512.453245	16958.584333	998.224609	434.582214
19512.453245	16958.584333	997.061523	381.337646
19512.453245	16958.584333	995.898438	-58.718773
19512.453245	16958.584333	994.734375	84.436630
19512.453245	16958.584333	993.571289	46.246880
19512.453245	16958.584333	992.407227	265.595184
19512.453245	16958.584333	991.242188	145.426804
19512.453245	16958.584333	990.078125	31.874359
19512.453245	16958.584333	988.913086	-47.720139
19512.453245	16958.584333	987.748047	-109.856781
19512.453245	16958.584333	986.583008	67.509361
19512.453245	16958.584333	985.416992	8.511114
19512.453245	16958.584333	984.250977	118.076157
19512.453245	16958.584333	983.084961	244.044327
19512.453245	16958.584333	981.918945	86.726151
19512.453245	16958.584333	980.751953	-15.108961
19512.453245	16958.584333	979.584961	543.070251
19512.453245	16958.584333	978.417969	73.296997
19512.453245	16958.584333	977.250977	400.454010
19512.453245	16958.584333	976.083008	-108.292969
19512.453245	16958.584333	974.915039	-30.359823
19512.453245	16958.584333	973.747070	123.673279
19512.453245	16958.584333	972.579102	105.630493
19512.453245	16958.584333	971.410156	344.167694
19512.453245	16958.584333	970.242188	36.771656
19512.453245	16958.584333	969.072266	62.335884
19512.453245	16958.584333	967.903320	191.640518
19512.453245	16958.584333	966.733398	43.483555
19512.453245	16958.584333	965.563477	158.162094
19512.453245	16958.584333	964.393555	276.156494
19512.453245	16958.584333	963.223633	51.777119
19512.453245	16958.584333	962.052734	-242.332092
19512.453245	16958.584333	960.881836	187.620132
19512.453245	16958.584333	959.710938	126.110222
19512.453245	16958.584333	958.540039	-42.959671
19512.453245	16958.584333	957.368164	50.060085
19512.453245	16958.584333	956.196289	382.189362
19512.453245	16958.584333	955.024414	181.314728
19512.453245	16958.584333	953.851563	266.351288
19512.453245	16958.584333	952.679688	142.259125
19512.453245	16958.584333	951.506836	-131.658630
19512.453245	16958.584333	950.333984	351.479309
19512.453245	16958.584333	949.160156	106.544998
19512.453245	16958.584333	947.986328	88.437332
19512.453245	16958.584333	946.812500	-4.234541
19512.453245	16958.584333	945.638672	-58.324409
19512.453245	16958.584333	944.464844	81.642082
19512.453245	16958.584333	943.290039	62.704750
19512.453245	16958.584333	942.115234	42.911053
19512.453245	16958.584333	940.940430	-164.598679
19512.453245	16958.584333	939.764648	16.004354
19512.453245	16958.584333	938.588867	-27.808529
19512.453245	16958.584333	937.413086	-124.516144
19512.453245	16958.584333	936.237305	181.777664
19512.453245	16958.584333	935.060547	-94.584801
19512.453245	16958.584333	933.883789	127.819069
19512.453245	16958.584333	932.707031	409.713531
19512.453245	16958.584333	931.530273	142.295502
19512.453245	16958.584333	930.352539	-118.442490
19512.453245	16958.584333	929.175781	12.839547
19512.453245	16958.584333	927.998047	290.238312
19512.453245	16958.584333	926.819336	53.856884
19512.453245	16958.584333	925.641602	85.277557
19512.453245	16958.584333	924.462891	63.657391
19512.453245	16958.584333	923.284180	179.180908
19512.453245	16958.584333	922.104492	237.137268
19512.453245	16958.584333	920.924805	328.224670
19512.453245	16958.584333	919.746094	347.598602
19512.453245	16958.584333	919.551758	8.851958
19512.453245	16958.584333	918.386719	185.877243
19512.453245	16958.584333	917.220703	9.098063
19512.453245	16958.584333	916.054688	-52.712978
19512.453245	16958.584333	914.887695	-145.456451
19512.453245	16958.584333	913.721680	-26.117727
19512.453245	16958.584333	912.554688	-32.755371
19512.453245	16958.584333	911.387695	-107.891586
19512.453245	16958.584333	910.220703	-132.249496
19512.453245	16958.584333	909.052734	220.867783
19512.453245	16958.584333	907.885742	-355.401764
19512.453245	16958.584333	906.717773	26.224728
19512.453245	16958.584333	905.548828	39.234924
19512.453245	16958.584333	904.380859	-223.533752
19512.453245	16958.584333	903.211914	-117.937370
19512.453245	16958.584333	902.042969	25.056795
19512.453245	16958.584333	900.874023	-142.872070
19512.453245	16958.584333	899.704102	99.175674
19512.453245	16958.584333	898.535156	-247.268829
19512.453245	16958.584333	897.365234	-133.163635
19512.453245	16958.584333	896.194336	-34.552353
19512.453245	16958.584333	895.024414	-259.761047
19512.453245	16958.584333	893.853516	-187.675751
19512.453245	16958.584333	892.682617	51.629093
19512.453245	16958.584333	891.511719	-195.591171
19512.453245	16958.584333	890.340820	-196.317596
19512.453245	16958.584333	889.168945	302.304138
19512.453245	16958.584333	887.997070	-268.267029
19512.453245	16958.584333	886.825195	-240.523865
19512.453245	16958.584333	885.653320	101.554558
19512.453245	16958.584333	884.480469	91.757881
19512.453245	16958.584333	883.307617	-399.374695
19512.453245	16958.584333	882.134766	-44.431664
19512.453245	16958.584333	880.961914	66.473129
19512.453245	16958.584333	879.788086	25.748255
19512.453245	16958.584333	878.614258	156.265121
19512.453245	16958.584333	877.440430	5.657881
19512.453245	16958.584333	876.266602	206.254089
19512.453245	16958.584333	875.091797	121.436699
19512.453245	16958.584333	873.916992	130.944504
19512.453245	16958.584333	872.742188	19.741724
19512.453245	16958.584333	871.567383	64.241844
19512.453245	16958.584333	870.391602	-218.037628
19512.453245	16958.584333	869.215820	-4.804985
19512.453245	16958.584333	868.040039	-203.783478
19512.453245	16958.584333	866.864258	-76.225693
19512.453245	16958.584333	865.687500	-86.795944
19512.453245	16958.584333	864.510742	163.244949
19512.453245	16958.584333	863.333984	211.636581
19512.453245	16958.584333	862.157227	-265.555206
19512.453245	16958.584333	860.979492	95.838959
19512.453245	16958.584333	859.802734	277.533051
19512.453245	16958.584333	858.625000	-31.063196
19512.453245	16958.584333	857.446289	-127.368568
19512.453245	16958.584333	856.268555	5.954299
19512.453245	16958.584333	855.089844	-22.659847
19512.453245	16958.584333	853.911133	-265.602173
19512.453245	16958.584333	852.731445	-42.881405
19512.453245	16958.584333	851.552734	103.168419
19512.453245	16958.584333	850.373047	-238.172714
19512.453245	16958.584333	849.193359	-81.344574
19512.453245	16958.584333	848.013672	14.191314
19512.453245	16958.584333	846.833008	113.996239
19512.453245	16958.584333	845.652344	174.386505
19512.453245	16958.584333	844.471680	153.916214
19512.453245	16958.584333	843.291016	107.190231
19512.453245	16958.584333	842.110352	29.862289
19512.453245	16958.584333	840.928711	127.024612
19512.453245	16958.584333	839.747070	-122.717102
19512.453245	16958.584333	838.564453	-143.456299
19512.453245	16958.584333	837.382813	-109.771523
19512.453245	16958.584333	836.200195	183.219193
19512.453245	16958.584333	835.017578	105.537857
19512.453245	16958.584333	833.834961	117.140961
19512.453245	16958.584333	832.651367	21.930819
19512.453245	16958.584333	831.467773	-5.802758
19512.453245	16958.584333	830.284180	70.912354
19512.453245	16958.584333	829.100586	58.255302
19512.453245	16958.584333	827.916992	-30.657236
19512.453245	16958.584333	826.732422	-26.028719
19512.453245	16958.584333	825.547852	-152.026001
19512.453245	16958.584333	824.363281	-3.977695
19512.453245	16958.584333	823.177734	30.850037
19512.453245	16958.584333	821.992188	115.589409
19512.453245	16958.584333	820.806641	389.333710
19512.453245	16958.584333	819.621094	-91.300369
19512.453245	16958.584333	818.434570	-2.487418
19512.453245	16958.584333	817.249023	-0.713646
19512.453245	16958.584333	816.062500	-72.864983
19512.453245	16958.584333	814.875000	-69.057320
19512.453245	16958.584333	813.688477	106.174782
19512.453245	16958.584333	812.500977	281.255524
19512.453245	16958.584333	811.313477	30.798349
19512.453245	16958.584333	810.125977	-158.888565
19512.453245	16958.584333	808.937500	-326.882690
19512.453245	16958.584333	807.749023	53.843754
19512.453245	16958.584333	806.560547	295.540375
19512.453245	16958.584333	805.372070	231.349411
19512.453245	16958.584333	804.182617	290.656006
19512.453245	16958.584333	802.994141	-152.942017
19512.453245	16958.584333	801.803711	105.582298
19512.453245	16958.584333	800.614258	67.121284
19512.453245	16958.584333	799.424805	-192.332504
19512.453245	16958.584333	798.234375	-36.011440
19512.453245	16958.584333	797.043945	61.698978
19512.453245	16958.584333	795.852539	14.265473
19512.453245	16958.584333	794.662109	12.189378
19512.453245	16958.584333	793.470703	295.623077
19512.453245	16958.584333	792.279297	-35.484600
19512.453245	16958.584333	791.087891	377.411133
19512.453245	16958.584333	789.895508	124.083282
19512.453245	16958.584333	788.703125	367.973206
19512.453245	16958.584333	787.510742	-6.473903
19512.453245	16958.584333	786.318359	-166.933960
19512.453245	16958.584333	785.125000	137.076767
19512.453245	16958.584333	783.931641	-181.210938
19512.453245	16958.584333	782.738281	189.431381
19512.453245	16958.584333	781.544922	123.685333
19512.453245	16958.584333	780.350586	-6.881649
19512.453245	16958.584333	779.156250	134.442108
19512.453245	16958.584333	777.961914	-60.997681
19512.453245	16958.584333	776.767578	114.601746
19512.453245	16958.584333	775.572266	70.040016
19512.453245	16958.584333	774.376953	290.636597
19512.453245	16958.584333	773.181641	73.387718
19512.453245	16958.584333	771.986328	-169.733902
19512.453245	16958.584333	770.790039	179.795761
19512.453245	16958.584333	769.593750	440.743835
19512.453245	16958.584333	768.397461	326.663239
19512.453245	16958.584333	767.201172	10.085448
19512.453245	16958.584333	766.003906	195.260742
19512.453245	16958.584333	764.806641	203.730133
19512.453245	16958.584333	763.609375	113.091553
19512.453245	16958.584333	762.412109	422.651917
19512.453245	16958.584333	761.213867	-46.836731
19512.453245	16958.584333	760.015625	36.586948
19512.453245	16958.584333	758.817383	29.556120
19512.453245	16958.584333	757.618164	226.701569
19512.453245	16958.584333	756.419922	139.907349
19512.453245	16958.584333	755.220703	18.672894
19512.453245	16958.584333	754.021484	170.292084
19512.453245	16958.584333	752.821289	-148.725601
19512.453245	16958.584333	751.621094	232.509628
19512.453245	16958.584333	750.420898	106.695564
19512.453245	16958.584333	749.220703	126.838631
19512.453245	16958.584333	748.020508	123.269478
19512.453245	16958.584333	746.819336	27.335222
19512.453245	16958.584333	745.618164	105.146873
19512.453245	16958.584333	744.416992	-57.425766
19512.453245	16958.584333	743.214844	198.214264
19512.453245	16958.584333	742.012695	106.279854
19512.453245	16958.584333	740.810547	406.623322
19512.453245	16958.584333	739.608398	561.001282
19512.453245	16958.584333	738.406250	595.223083
19512.453245	16958.584333	737.203125	727.905090
19512.453245	16958.584333	736.000000	631.244995
19512.453245	16958.584333	734.795898	817.241821
19512.453245	16958.584333	733.592773	831.779053
19512.453245	16958.584333	732.388672	981.096069
19512.453245	16958.584333	731.184570	907.681946
19512.453245	16958.584333	729.979492	973.310974
19512.453245	16958.584333	728.775391	687.968872
19512.453245	16958.584333	727.570313	381.283234
19512.453245	16958.584333	726.365234	483.098999
19512.453245	16958.584333	725.160156	636.110718
19512.453245	16958.584333	723.954102	592.326843
19512.453245	16958.584333	722.748047	516.430542
19512.453245	16958.584333	721.541992	181.950333
19512.453245	16958.584333	720.334961	131.666122
19512.453245	16958.584333	719.128906	-117.304283
19512.453245	16958.584333	717.921875	297.863190
19512.453245	16958.584333	716.714844	46.695934
19512.453245	16958.584333	715.506836	-46.479408
19512.453245	16958.584333	714.298828	152.679184
19512.453245	16958.584333	713.090820	-130.496765
19512.453245	16958.584333	711.882813	-82.982399
19512.453245	16958.584333	710.674805	4.969879
19512.453245	16958.584333	709.465820	-278.176697
19512.453245	16958.584333	708.256836	-279.868744
19512.453245	16958.584333	707.047852	-175.051926
19512.453245	16958.584333	705.837891	-294.071655
19512.453245	16958.584333	704.627930	-31.745403
19512.453245	16958.584333	703.417969	-201.971878
19512.453245	16958.584333	702.208008	-112.374367
19512.453245	16958.584333	700.998047	-208.093735
19512.453245	16958.584333	699.787109	43.155441
19512.453245	16958.584333	698.576172	-107.977135
19512.453245	16958.584333	697.364258	-242.065430
19512.453245	16958.584333	696.153320	-148.520477
19512.453245	16958.584333	694.941406	129.986511
19512.453245	16958.584333	693.729492	-12.691389
19512.453245	16958.584333	692.516602	225.205856
19512.453245	16958.584333	691.304688	150.513687
19512.453245	16958.584333	690.091797	-66.556427
19512.453245	16958.584333	688.878906	94.620346
19512.453245	16958.584333	687.665039	-154.264313
19512.453245	16958.584333	686.451172	104.502449
19512.453245	16958.584333	685.237305	-6.315526
19512.453245	16958.584333	684.023438	135.510498
19512.453245	16958.584333	682.809570	-92.040741
19512.453245	16958.584333	681.594727	151.562363
19512.453245	16958.584333	680.379883	-10.158505
19512.453245	16958.584333	679.165039	-203.640533
19512.453245	16958.584333	677.949219	92.813965
19512.453245	16958.584333	676.733398	166.517792
19512.453245	16958.584333	675.517578	185.070984
19512.453245	16958.584333	674.301758	-1.957649
19512.453245	16958.584333	673.084961	150.108154
19512.453245	16958.584333	671.869141	191.952438
19512.453245	16958.584333	670.651367	-24.598022
19512.453245	16958.584333	669.434570	273.494354
19512.453245	16958.584333	668.216797	101.491913
19512.453245	16958.584333	667.000000	208.957703
19512.453245	16958.584333	665.781250	22.257725
19512.453245	16958.584333	664.563477	241.861221
19512.453245	16958.584333	663.344727	188.528793
19512.453245	16958.584333	662.125977	458.806000
19512.453245	16958.584333	660.907227	147.545120
19512.453245	16958.584333	659.688477	257.110168
19512.453245	16958.584333	658.468750	235.629059
19512.453245	16958.584333	657.249023	-49.938553
19512.453245	16958.584333	656.029297	190.681564
19512.453245	16958.584333	654.808594	340.422150
19512.453245	16958.584333	653.587891	325.428406
19512.453245	16958.584333	652.367188	-14.646466
19512.453245	16958.584333	651.146484	415.909363
19512.453245	16958.584333	649.924805	415.827667
19512.453245	16958.584333	648.704102	118.296120
19512.453245	16958.584333	647.482422	211.201279
19512.453245	16958.584333	646.259766	342.093079
19512.453245	16958.584333	645.037109	238.938828
19512.453245	16958.584333	643.815430	97.941986
19512.453245	16958.584333	642.591797	448.169983
19512.453245	16958.584333	641.369141	267.295685
19512.453245	16958.584333	640.145508	250.905594
19512.453245	16958.584333	638.921875	32.388714
19512.453245	16958.584333	637.698242	-76.447289
19512.453245	16958.584333	636.474609	14.861550
19512.453245	16958.584333	635.250000	396.711914
19512.453245	16958.584333	634.025391	199.738678
19512.453245	16958.584333	632.800781	299.620667
19512.453245	16958.584333	631.575195	92.426674
19512.453245	16958.584333	630.349609	83.119522
19512.453245	16958.584333	629.124023	103.358490
19512.453245	16958.584333	627.898438	-65.517426
19512.453245	16958.584333	626.671875	97.889038
19512.453245	16958.584333	625.445313	19.673204
19512.453245	16958.584333	624.218750	-47.890411
19512.453245	16958.584333	622.992188	12.824286
19512.453245	16958.584333	621.764648	147.144608
19512.453245	16958.584333	620.537109	35.870590
19512.453245	16958.584333	619.309570	-127.709602
19512.453245	16958.584333	618.081055	-14.047652
19512.453245	16958.584333	616.852539	93.404190
19512.453245	16958.584333	615.624023	163.184082
19512.453245	16958.584333	614.395508	-37.492115
19512.453245	16958.584333	613.166992	91.282860
19512.453245	16958.584333	611.937500	27.274597
19512.453245	16958.584333	610.708008	51.475559
19512.453245	16958.584333	609.477539	-121.162910
19512.453245	16958.584333	608.248047	121.266113
19512.453245	16958.584333	607.017578	-159.929321
19512.453245	16958.584333	605.787109	-507.862762
19512.453245	16958.584333	604.555664	-279.666443
19512.453245	16958.584333	603.325195	-566.389587
19512.453245	16958.584333	602.093750	22.048176
19512.453245	16958.584333	600.861328	-111.504265
19512.453245	16958.584333	599.629883	-62.823627
19512.453245	16958.584333	598.397461	-260.789703
19512.453245	16958.584333	597.165039	-107.171440
19512.453245	16958.584333	595.932617	82.105965
19512.453245	16958.584333	594.699219	-75.491219
19512.453245	16958.584333	593.465820	-161.777435
19512.453245	16958.584333	592.232422	-24.269773
19512.453245	16958.584333	590.999023	50.706039
19512.453245	16958.584333	589.764648	180.153778
19512.453245	16958.584333	588.530273	-72.370697
19512.453245	16958.584333	587.295898	224.459076
19512.453245	16958.584333	586.061523	460.838623
19512.453245	16958.584333	584.826172	273.723328
19512.453245	16958.584333	583.590820	-194.753723
19512.453245	16958.584333	582.355469	-32.893250
19512.453245	16958.584333	581.119141	110.352196
19512.453245	16958.584333	579.882813	164.095520
19512.453245	16958.584333	578.646484	-5.009138
19512.453245	16958.584333	577.410156	122.114128
19512.453245	16958.584333	576.172852	161.901825
19512.453245	16958.584333	574.935547	620.612366
19512.453245	16958.584333	573.698242	523.260864
19512.453245	16958.584333	572.460938	413.682709
19512.453245	16958.584333	571.222656	166.984665
19512.453245	16958.584333	569.984375	480.519806
19512.453245	16958.584333	568.746094	115.756012
19512.453245	16958.584333	567.506836	398.431152
19512.453245	16958.584333	566.267578	635.456116
19512.453245	16958.584333	565.028320	697.923401
19512.453245	16958.584333	563.789063	521.489990
19512.453245	16958.584333	562.548828	484.653809
19512.453245	16958.584333	561.309570	572.752747
19512.453245	16958.584333	560.068359	810.682190
19512.453245	16958.584333	558.828125	620.785461
19512.453245	16958.584333	557.586914	902.689331
19512.453245	16958.584333	556.345703	985.362671
19512.453245	16958.584333	555.104492	1124.289673
19512.453245	16958.584333	553.863281	1105.645874
19512.453245	16958.584333	552.621094	1085.185425
19512.453245	16958.584333	551.378906	818.073242
19512.453245	16958.584333	550.136719	1030.472778
19512.453245	16958.584333	548.893555	1228.513062
19512.453245	16958.584333	547.650391	1258.754883
19512.453245	16958.584333	546.407227	959.614685
19512.453245	16958.584333	545.164063	1040.104858
19512.453245	16958.584333	543.919922	1363.237549
19512.453245	16958.584333	542.675781	1180.979980
19512.453245	16958.584333	541.431641	1092.230591
19512.453245	16958.584333	540.186523	1125.933228
19512.453245	16958.584333	538.941406	723.009155
19512.453245	16958.584333	537.696289	1347.129639
19512.453245	16958.584333	536.451172	1217.930542
19512.453245	16958.584333	535.205078	1463.502197
19512.453245	16958.584333	533.959961	1336.827271
19512.453245	16958.584333	532.712891	1371.758423
19512.453245	16958.584333	531.466797	1423.404785
19512.453245	16958.584333	530.219727	1572.404663
19512.453245	16958.584333	528.972656	1661.604126
19512.453245	16958.584333	527.725586	1670.369873
19512.453245	16958.584333	526.478516	1778.484619
19512.453245	16958.584333	525.230469	1907.406982
19512.453245	16958.584333	523.982422	2007.545898
19512.453245	16958.584333	522.734375	2008.716431
19512.453245	16958.584333	521.485352	1954.343628
19512.453245	16958.584333	520.236328	1644.264771
19512.453245	16958.584333	518.987305	1916.302124
19512.453245	16958.584333	517.737305	1955.300049
19512.453245	16958.584333	516.488281	2107.835449
19512.453245	16958.584333	515.238281	2318.195313
19512.453245	16958.584333	513.988281	1932.837891
19512.453245	16958.584333	512.737305	1900.222046
19512.453245	16958.584333	511.486328	2106.758545
19512.453245	16958.584333	510.235352	2381.298584
19512.453245	16958.584333	508.984375	2365.406006
19512.453245	16958.584333	507.732422	2569.968506
19512.453245	16958.584333	506.480469	2782.758301
19512.453245	16958.584333	505.228516	2754.705566
19512.453245	16958.584333	503.976563	2819.331543
19512.453245	16958.584333	502.723633	3141.182861
19512.453245	16958.584333	501.470703	2872.575195
19512.453245	16958.584333	500.217773	3091.522949
19512.453245	16958.584333	498.963867	3413.221924
19512.453245	16958.584333	497.709961	3486.051270
19512.453245	16958.584333	496.456055	3519.797607
19512.453245	16958.584333	495.202148	3452.827148
19512.453245	16958.584333	493.947266	3611.853760
19512.453245	16958.584333	492.692383	3596.188477
19512.453245	16958.584333	491.437500	4069.199951
19512.453245	16958.584333	490.181641	4016.380127
19512.453245	16958.584333	488.926758	3969.636475
19512.453245	16958.584333	487.670898	4146.513672
19512.453245	16958.584333	486.414063	3982.637451
19512.453245	16958.584333	485.158203	4534.571777
19512.453245	16958.584333	483.901367	4688.278320
19512.453245	16958.584333	482.644531	4657.216309
19512.453245	16958.584333	481.386719	4757.202637
19512.453245	16958.584333	480.128906	4998.357422
19512.453245	16958.584333	478.871094	4685.944336
19512.453245	16958.584333	477.613281	5283.010254
19512.453245	16958.584333	476.355469	5220.049805
19512.453245	16958.584333	475.096680	5711.789063
19512.453245	16958.584333	473.837891	5574.497559
19512.453245	16958.584333	472.578125	5355.087402
19512.453245	16958.584333	471.319336	5311.402832
19512.453245	16958.584333	470.059570	5662.260254
19512.453245	16958.584333	468.799805	5552.333008
19512.453245	16958.584333	467.539063	5605.663574
19512.453245	16958.584333	466.278320	5946.824707
19512.453245	16958.584333	465.017578	5849.920898
19512.453245	16958.584333	463.756836	5928.330566
19512.453245	16958.584333	462.495117	6412.828125
19512.453245	16958.584333	461.233398	6191.781250
19512.453245	16958.584333	459.971680	6168.377930
19512.453245	16958.584333	458.709961	6544.616699
19512.453245	16958.584333	457.447266	6626.093750
19512.453245	16958.584333	456.184570	6543.590332
19512.453245	16958.584333	454.921875	6601.241699
19512.453245	16958.584333	453.658203	6778.532227
19512.453245	16958.584333	452.394531	6995.791992
19512.453245	16958.584333	451.130859	6969.489746
19512.453245	16958.584333	449.867188	6854.708496
19512.453245	16958.584333	448.602539	6839.018066
19512.453245	16958.584333	447.337891	6956.956543
19512.453245	16958.584333	446.073242	7000.566406
19512.453245	16958.584333	444.807617	7165.431152
19512.453245	16958.584333	443.542969	7021.678711
19512.453245	16958.584333	442.276367	7365.664063
19512.453245	16958.584333	441.010742	7443.764160
19512.453245	16958.584333	439.744141	7453.547363
19512.453245	16958.584333	438.478516	7403.151855
19512.453245	16958.584333	437.210938	7390.236328
19512.453245	16958.584333	435.944336	7764.586426
19512.453245	16958.584333	434.676758	7444.023438
19512.453245	16958.584333	433.409180	7274.752441
19512.453245	16958.584333	432.141602	7563.574219
19512.453245	16958.584333	430.873047	7574.450195
19512.453245	16958.584333	429.604492	7547.272949
19512.453245	16958.584333	428.335938	7557.178223
19512.453245	16958.584333	427.067383	7839.689941
19512.453245	16958.584333	425.797852	7612.811523
19512.453245	16958.584333	424.528320	7733.529297
19512.453245	16958.584333	423.258789	8187.358887
19512.453245	16958.584333	421.988281	7797.068848
19512.453245	16958.584333	420.717773	8151.694824
19512.453245	16958.584333	419.447266	8009.356445
19512.453245	16958.584333	418.175781	8258.519531
19512.453245	16958.584333	416.905273	8185.238281
19512.453245	16958.584333	415.633789	7951.790527
19512.453245	16958.584333	414.362305	8095.274902
19512.453245	16958.584333	413.089844	7756.282227
19512.453245	16958.584333	411.817383	7856.774414
19512.453245	16958.584333	410.544922	8094.636719
19512.453245	16958.584333	409.272461	7787.350098
19512.453245	16958.584333	407.999023	7983.801270
19512.453245	16958.584333	406.725586	7807.250488
19512.453245	16958.584333	405.452148	8016.688477
19512.453245	16958.584333	404.177734	8120.149414
19512.453245	16958.584333	402.903320	7891.128418
19512.453245	16958.584333	401.628906	7817.115234
19512.453245	16958.584333	400.354492	7703.843750
19512.453245	16958.584333	399.079102	7777.606934
19512.453245	16958.584333	397.803711	7664.383301
19512.453245	16958.584333	396.528320	7778.403809
19512.453245	16958.584333	395.251953	7757.805176
19512.453245	16958.584333	393.976563	7754.166504
19512.453245	16958.584333	392.700195	7997.459961
19512.453245	16958.584333	391.422852	7692.074707
19512.453245	16958.584333	390.145508	7552.790039
19512.453245	16958.584333	388.869141	7674.312500
19512.453245	16958.584333	387.590820	7678.937500
19512.453245	16958.584333	386.313477	7506.338379
19512.453245	16958.584333	385.035156	7815.787109
19512.453245	16958.584333	383.756836	7532.391602
19512.453245	16958.584333	382.478516	7329.652344
19512.453245	16958.584333	381.199219	7374.589355
19512.453245	16958.584333	379.919922	6869.193359
19512.453245	16958.584333	378.640625	7467.444824
19512.453245	16958.584333	377.360352	7186.800781
19512.453245	16958.584333	376.080078	6955.997070
19512.453245	16958.584333	374.799805	7139.240723
19512.453245	16958.584333	373.519531	6840.577637
19512.453245	16958.584333	372.238281	6860.910156
19512.453245	16958.584333	370.957031	6741.362793
19512.453245	16958.584333	369.675781	6801.697266
19512.453245	16958.584333	368.394531	6705.875000
19512.453245	16958.584333	367.112305	6475.866699
19512.453245	16958.584333	365.830078	6348.926270
19512.453245	16958.584333	364.546875	6147.895020
19512.453245	16958.584333	363.264648	5955.329590
19512.453245	16958.584333	361.981445	6098.222656
19512.453245	16958.584333	360.698242	6116.497070
19512.453245	16958.584333	359.414063	5961.760742
19512.453245	16958.584333	358.129883	5899.092773
19512.453245	16958.584333	356.845703	5922.283203
19512.453245	16958.584333	355.561523	5411.153320
19512.453245	16958.584333	354.276367	5446.957520
19512.453245	16958.584333	352.991211	5578.113281
19512.453245	16958.584333	351.706055	5206.889648
19512.453245	16958.584333	350.420898	5448.061035
19512.453245	16958.584333	349.134766	5026.197754
19512.453245	16958.584333	347.848633	5121.995117
19512.453245	16958.584333	346.561523	4684.991699
19512.453245	16958.584333	345.275391	4609.088379
19512.453245	16958.584333	343.988281	4575.076172
19512.453245	16958.584333	342.700195	4592.759766
19512.453245	16958.584333	341.413086	4278.068848
19512.453245	16958.584333	340.125000	3930.773193
19512.453245	16958.584333	338.836914	3869.068604
19512.453245	16958.584333	337.548828	3536.509521
19512.453245	16958.584333	336.259766	3750.779053
19512.453245	16958.584333	334.970703	3421.907715
19512.453245	16958.584333	333.681641	3343.661377
19512.453245	16958.584333	332.391602	2849.896729
19512.453245	16958.584333	331.101563	3017.941895
19512.453245	16958.584333	329.811523	2744.460449
19512.453245	16958.584333	328.521484	2648.692139
19512.453245	16958.584333	327.230469	2426.502686
19512.453245	16958.584333	325.939453	2497.304932
19512.453245	16958.584333	324.648438	1844.774414
19512.453245	16958.584333	323.356445	1945.514038
19512.453245	16958.584333	322.064453	1723.802368
19512.453245	16958.584333	320.772461	1604.497803
19512.453245	16958.584333	319.480469	1461.674438
19512.453245	16958.584333	318.187500	1514.087891
19512.453245	16958.584333	316.894531	828.857910
19512.453245	16958.584333	315.601563	888.951782
19512.453245	16958.584333	314.307617	726.919983
19512.453245	16958.584333	313.013672	526.317383
19512.453245	16958.584333	311.719727	611.566223
19512.453245	16958.584333	310.425781	118.081711
19512.453245	16958.584333	309.130859	122.537979
19512.453245	16958.584333	307.835938	-43.946468
19512.453245	16958.584333	306.541016	-51.197048
19512.453245	16958.584333	305.245117	-202.428894
19512.453245	16958.584333	303.949219	250.492340
19512.453245	16958.584333	302.653320	36.246349
19512.453245	16958.584333	301.356445	96.859489
19512.453245	16958.584333	300.060547	-91.867165
19512.453245	16958.584333	298.763672	25.369480
