#X		#Y		#Wave		#Intensity
19424.902234	16946.504333	2000.043945	-54.826134
19424.902234	16946.504333	1999.080078	-1.066390
19424.902234	16946.504333	1998.116211	-8.728659
19424.902234	16946.504333	1997.151367	-148.018768
19424.902234	16946.504333	1996.186523	-62.079330
19424.902234	16946.504333	1995.222656	-35.921024
19424.902234	16946.504333	1994.256836	74.180344
19424.902234	16946.504333	1993.291992	179.007462
19424.902234	16946.504333	1992.327148	-45.756081
19424.902234	16946.504333	1991.361328	-206.326355
19424.902234	16946.504333	1990.395508	147.701904
19424.902234	16946.504333	1989.429688	-60.351978
19424.902234	16946.504333	1988.463867	85.217873
19424.902234	16946.504333	1987.497070	104.361931
19424.902234	16946.504333	1986.531250	338.423218
19424.902234	16946.504333	1985.564453	260.635468
19424.902234	16946.504333	1984.597656	36.805145
19424.902234	16946.504333	1983.630859	-61.090923
19424.902234	16946.504333	1982.664063	186.826294
19424.902234	16946.504333	1981.696289	170.087357
19424.902234	16946.504333	1980.728516	135.872177
19424.902234	16946.504333	1979.761719	42.203167
19424.902234	16946.504333	1978.792969	323.756439
19424.902234	16946.504333	1977.825195	-91.224907
19424.902234	16946.504333	1976.857422	108.441124
19424.902234	16946.504333	1975.888672	177.068558
19424.902234	16946.504333	1974.919922	-90.080154
19424.902234	16946.504333	1973.951172	-110.568314
19424.902234	16946.504333	1972.982422	68.605118
19424.902234	16946.504333	1972.013672	18.208658
19424.902234	16946.504333	1971.043945	-66.821846
19424.902234	16946.504333	1970.075195	-48.416321
19424.902234	16946.504333	1969.105469	31.477388
19424.902234	16946.504333	1968.135742	392.159241
19424.902234	16946.504333	1967.165039	107.038765
19424.902234	16946.504333	1966.195313	289.964081
19424.902234	16946.504333	1965.224609	233.800446
19424.902234	16946.504333	1964.253906	37.183872
19424.902234	16946.504333	1963.283203	355.114471
19424.902234	16946.504333	1962.312500	141.111816
19424.902234	16946.504333	1961.341797	308.574280
19424.902234	16946.504333	1960.370117	128.923752
19424.902234	16946.504333	1959.399414	278.923248
19424.902234	16946.504333	1958.427734	-210.769089
19424.902234	16946.504333	1957.455078	111.232819
19424.902234	16946.504333	1956.483398	236.317261
19424.902234	16946.504333	1955.511719	260.485626
19424.902234	16946.504333	1954.539063	48.606113
19424.902234	16946.504333	1953.566406	301.211395
19424.902234	16946.504333	1952.593750	155.609268
19424.902234	16946.504333	1951.621094	290.052765
19424.902234	16946.504333	1950.647461	173.860748
19424.902234	16946.504333	1949.674805	217.271515
19424.902234	16946.504333	1948.701172	42.097260
19424.902234	16946.504333	1947.727539	249.882324
19424.902234	16946.504333	1946.753906	194.926270
19424.902234	16946.504333	1945.780273	117.860626
19424.902234	16946.504333	1944.805664	-18.100075
19424.902234	16946.504333	1943.831055	91.242760
19424.902234	16946.504333	1942.856445	53.356388
19424.902234	16946.504333	1941.881836	191.993149
19424.902234	16946.504333	1940.907227	-49.454056
19424.902234	16946.504333	1939.932617	140.556061
19424.902234	16946.504333	1938.957031	122.161255
19424.902234	16946.504333	1937.981445	373.266998
19424.902234	16946.504333	1937.005859	-42.083641
19424.902234	16946.504333	1936.030273	81.544861
19424.902234	16946.504333	1935.054688	178.166153
19424.902234	16946.504333	1934.078125	193.935150
19424.902234	16946.504333	1933.101563	483.848969
19424.902234	16946.504333	1932.125000	203.374176
19424.902234	16946.504333	1931.148438	116.301506
19424.902234	16946.504333	1930.171875	-369.543182
19424.902234	16946.504333	1929.194336	267.551300
19424.902234	16946.504333	1928.217773	-46.969540
19424.902234	16946.504333	1927.240234	68.977142
19424.902234	16946.504333	1926.262695	-223.402832
19424.902234	16946.504333	1925.284180	88.064407
19424.902234	16946.504333	1924.306641	30.386688
19424.902234	16946.504333	1923.328125	-29.714703
19424.902234	16946.504333	1922.350586	-45.827717
19424.902234	16946.504333	1921.372070	-93.686264
19424.902234	16946.504333	1920.392578	129.538879
19424.902234	16946.504333	1919.414063	135.380737
19424.902234	16946.504333	1918.434570	236.425552
19424.902234	16946.504333	1917.456055	100.688690
19424.902234	16946.504333	1916.476563	-159.442917
19424.902234	16946.504333	1915.497070	-9.595945
19424.902234	16946.504333	1914.516602	167.033813
19424.902234	16946.504333	1913.537109	192.395081
19424.902234	16946.504333	1912.556641	264.081757
19424.902234	16946.504333	1911.576172	208.978607
19424.902234	16946.504333	1910.595703	-19.155811
19424.902234	16946.504333	1909.615234	-81.481041
19424.902234	16946.504333	1908.633789	-151.081741
19424.902234	16946.504333	1907.653320	-142.695023
19424.902234	16946.504333	1906.671875	-92.891251
19424.902234	16946.504333	1905.690430	227.210236
19424.902234	16946.504333	1904.708984	-0.612778
19424.902234	16946.504333	1903.727539	-111.494621
19424.902234	16946.504333	1902.745117	96.511147
19424.902234	16946.504333	1901.762695	90.316261
19424.902234	16946.504333	1900.780273	-154.291855
19424.902234	16946.504333	1899.797852	-41.223083
19424.902234	16946.504333	1898.815430	-76.535751
19424.902234	16946.504333	1897.832031	-65.621407
19424.902234	16946.504333	1896.849609	120.340782
19424.902234	16946.504333	1895.866211	204.161224
19424.902234	16946.504333	1894.882813	185.895874
19424.902234	16946.504333	1893.898438	-60.739449
19424.902234	16946.504333	1892.915039	32.825859
19424.902234	16946.504333	1891.930664	-60.644676
19424.902234	16946.504333	1890.947266	64.481941
19424.902234	16946.504333	1889.962891	114.314949
19424.902234	16946.504333	1888.977539	20.924660
19424.902234	16946.504333	1887.993164	10.100164
19424.902234	16946.504333	1887.007813	57.532738
19424.902234	16946.504333	1886.023438	-50.312866
19424.902234	16946.504333	1885.038086	86.889404
19424.902234	16946.504333	1884.051758	-103.342987
19424.902234	16946.504333	1883.066406	-358.961456
19424.902234	16946.504333	1882.081055	-73.857742
19424.902234	16946.504333	1881.094727	29.367384
19424.902234	16946.504333	1880.108398	144.685333
19424.902234	16946.504333	1879.122070	-149.501816
19424.902234	16946.504333	1878.135742	106.333008
19424.902234	16946.504333	1877.148438	-39.967602
19424.902234	16946.504333	1876.162109	-186.203018
19424.902234	16946.504333	1875.174805	47.741905
19424.902234	16946.504333	1874.187500	56.490723
19424.902234	16946.504333	1873.199219	-101.742897
19424.902234	16946.504333	1872.211914	-105.047562
19424.902234	16946.504333	1871.223633	266.650879
19424.902234	16946.504333	1870.236328	4.482542
19424.902234	16946.504333	1869.248047	-187.443283
19424.902234	16946.504333	1868.258789	2.747974
19424.902234	16946.504333	1867.270508	117.930458
19424.902234	16946.504333	1866.282227	100.140022
19424.902234	16946.504333	1865.292969	87.201599
19424.902234	16946.504333	1864.303711	-7.874780
19424.902234	16946.504333	1863.314453	-105.324013
19424.902234	16946.504333	1862.324219	26.715931
19424.902234	16946.504333	1861.334961	-102.084106
19424.902234	16946.504333	1860.344727	112.000435
19424.902234	16946.504333	1859.354492	193.249023
19424.902234	16946.504333	1858.364258	262.403259
19424.902234	16946.504333	1857.374023	-42.472950
19424.902234	16946.504333	1856.383789	152.152969
19424.902234	16946.504333	1855.392578	-113.987839
19424.902234	16946.504333	1854.401367	210.809799
19424.902234	16946.504333	1853.410156	29.148762
19424.902234	16946.504333	1852.418945	45.229618
19424.902234	16946.504333	1851.426758	191.459229
19424.902234	16946.504333	1850.435547	21.949688
19424.902234	16946.504333	1849.443359	-101.717072
19424.902234	16946.504333	1848.451172	191.392593
19424.902234	16946.504333	1847.458984	178.520203
19424.902234	16946.504333	1846.466797	290.862396
19424.902234	16946.504333	1845.473633	463.347412
19424.902234	16946.504333	1844.480469	5.113983
19424.902234	16946.504333	1843.487305	100.565742
19424.902234	16946.504333	1842.494141	491.930511
19424.902234	16946.504333	1841.500977	21.900974
19424.902234	16946.504333	1840.506836	-111.221603
19424.902234	16946.504333	1839.513672	-68.758659
19424.902234	16946.504333	1838.519531	468.977020
19424.902234	16946.504333	1837.525391	32.924988
19424.902234	16946.504333	1836.530273	147.415726
19424.902234	16946.504333	1835.536133	50.385696
19424.902234	16946.504333	1834.541016	104.742722
19424.902234	16946.504333	1833.545898	-136.388092
19424.902234	16946.504333	1832.550781	52.445656
19424.902234	16946.504333	1831.555664	-6.125871
19424.902234	16946.504333	1830.560547	283.414185
19424.902234	16946.504333	1829.564453	80.777130
19424.902234	16946.504333	1828.568359	173.375214
19424.902234	16946.504333	1827.572266	414.682343
19424.902234	16946.504333	1826.576172	-44.601044
19424.902234	16946.504333	1825.580078	40.717739
19424.902234	16946.504333	1824.583008	-164.169662
19424.902234	16946.504333	1823.585938	-261.110657
19424.902234	16946.504333	1822.588867	-67.986778
19424.902234	16946.504333	1821.591797	33.968807
19424.902234	16946.504333	1820.594727	1.675346
19424.902234	16946.504333	1819.596680	86.767754
19424.902234	16946.504333	1818.599609	95.149864
19424.902234	16946.504333	1817.601563	515.418396
19424.902234	16946.504333	1816.603516	166.905716
19424.902234	16946.504333	1815.604492	285.319000
19424.902234	16946.504333	1814.606445	90.111076
19424.902234	16946.504333	1813.607422	-78.725052
19424.902234	16946.504333	1812.608398	290.803345
19424.902234	16946.504333	1811.609375	155.426025
19424.902234	16946.504333	1810.610352	316.638458
19424.902234	16946.504333	1809.610352	116.686653
19424.902234	16946.504333	1808.611328	148.680069
19424.902234	16946.504333	1807.611328	266.685608
19424.902234	16946.504333	1806.611328	-45.561600
19424.902234	16946.504333	1805.610352	58.035881
19424.902234	16946.504333	1804.610352	314.451080
19424.902234	16946.504333	1803.609375	274.563202
19424.902234	16946.504333	1802.608398	143.908218
19424.902234	16946.504333	1801.607422	82.507042
19424.902234	16946.504333	1800.606445	224.001617
19424.902234	16946.504333	1799.605469	150.602295
19424.902234	16946.504333	1798.603516	110.603622
19424.902234	16946.504333	1797.601563	144.541809
19424.902234	16946.504333	1796.599609	180.812775
19424.902234	16946.504333	1795.597656	326.736267
19424.902234	16946.504333	1794.595703	-114.010582
19424.902234	16946.504333	1793.592773	50.907658
19424.902234	16946.504333	1792.589844	377.802826
19424.902234	16946.504333	1791.587891	15.815074
19424.902234	16946.504333	1790.583984	316.303040
19424.902234	16946.504333	1789.581055	166.395309
19424.902234	16946.504333	1788.577148	-88.291710
19424.902234	16946.504333	1787.574219	-66.697662
19424.902234	16946.504333	1786.570313	278.637482
19424.902234	16946.504333	1785.566406	162.002487
19424.902234	16946.504333	1784.561523	292.880859
19424.902234	16946.504333	1783.557617	21.528692
19424.902234	16946.504333	1782.552734	33.339252
19424.902234	16946.504333	1781.547852	242.521439
19424.902234	16946.504333	1780.542969	187.604095
19424.902234	16946.504333	1779.538086	-74.198387
19424.902234	16946.504333	1778.532227	-93.472984
19424.902234	16946.504333	1777.527344	-39.109547
19424.902234	16946.504333	1776.521484	8.056235
19424.902234	16946.504333	1775.515625	223.842941
19424.902234	16946.504333	1774.508789	142.569672
19424.902234	16946.504333	1773.502930	82.649742
19424.902234	16946.504333	1772.496094	243.532257
19424.902234	16946.504333	1771.489258	302.217682
19424.902234	16946.504333	1770.482422	149.576782
19424.902234	16946.504333	1769.475586	-76.627167
19424.902234	16946.504333	1768.467773	352.075134
19424.902234	16946.504333	1767.460938	346.433563
19424.902234	16946.504333	1766.453125	442.730682
19424.902234	16946.504333	1765.445313	95.492722
19424.902234	16946.504333	1764.437500	137.160767
19424.902234	16946.504333	1763.428711	280.690216
19424.902234	16946.504333	1762.420898	343.530762
19424.902234	16946.504333	1761.412109	12.944954
19424.902234	16946.504333	1760.403320	104.129234
19424.902234	16946.504333	1759.393555	311.290771
19424.902234	16946.504333	1758.384766	411.746918
19424.902234	16946.504333	1757.375000	256.390686
19424.902234	16946.504333	1756.366211	285.686157
19424.902234	16946.504333	1755.356445	101.897263
19424.902234	16946.504333	1754.345703	64.840096
19424.902234	16946.504333	1753.335938	214.650925
19424.902234	16946.504333	1752.325195	21.347321
19424.902234	16946.504333	1751.315430	-181.399048
19424.902234	16946.504333	1750.304688	-135.842270
19424.902234	16946.504333	1749.292969	-111.638901
19424.902234	16946.504333	1748.282227	23.592077
19424.902234	16946.504333	1747.270508	-65.796303
19424.902234	16946.504333	1746.259766	64.532280
19424.902234	16946.504333	1745.248047	-53.295891
19424.902234	16946.504333	1744.235352	133.549011
19424.902234	16946.504333	1743.223633	32.167370
19424.902234	16946.504333	1742.211914	152.699356
19424.902234	16946.504333	1741.199219	70.118958
19424.902234	16946.504333	1740.186523	11.112170
19424.902234	16946.504333	1739.173828	81.848900
19424.902234	16946.504333	1738.160156	310.566650
19424.902234	16946.504333	1737.147461	138.151703
19424.902234	16946.504333	1736.133789	-81.424904
19424.902234	16946.504333	1735.120117	-15.676022
19424.902234	16946.504333	1734.106445	-171.605530
19424.902234	16946.504333	1733.091797	99.070747
19424.902234	16946.504333	1732.078125	254.116608
19424.902234	16946.504333	1731.063477	81.553429
19424.902234	16946.504333	1730.048828	-387.809082
19424.902234	16946.504333	1729.034180	-58.654404
19424.902234	16946.504333	1728.019531	-40.505886
19424.902234	16946.504333	1727.003906	-170.741730
19424.902234	16946.504333	1725.988281	-46.776573
19424.902234	16946.504333	1724.972656	-92.358315
19424.902234	16946.504333	1723.957031	-152.098129
19424.902234	16946.504333	1722.941406	124.525620
19424.902234	16946.504333	1721.924805	-187.013931
19424.902234	16946.504333	1720.909180	-286.852051
19424.902234	16946.504333	1719.892578	88.209328
19424.902234	16946.504333	1718.875977	192.744278
19424.902234	16946.504333	1717.858398	-64.748840
19424.902234	16946.504333	1716.841797	145.399887
19424.902234	16946.504333	1715.824219	-74.512306
19424.902234	16946.504333	1714.806641	-191.049713
19424.902234	16946.504333	1713.789063	-112.680824
19424.902234	16946.504333	1712.770508	28.994850
19424.902234	16946.504333	1711.752930	64.923180
19424.902234	16946.504333	1710.734375	-171.477966
19424.902234	16946.504333	1709.715820	75.555550
19424.902234	16946.504333	1708.697266	97.207634
19424.902234	16946.504333	1707.678711	-94.663979
19424.902234	16946.504333	1706.659180	-129.385605
19424.902234	16946.504333	1705.640625	-32.836849
19424.902234	16946.504333	1704.621094	-145.030106
19424.902234	16946.504333	1703.600586	73.251648
19424.902234	16946.504333	1702.581055	-60.118927
19424.902234	16946.504333	1701.561523	136.873596
19424.902234	16946.504333	1700.541016	127.588196
19424.902234	16946.504333	1699.520508	-179.192780
19424.902234	16946.504333	1698.500000	-26.945498
19424.902234	16946.504333	1697.478516	31.542439
19424.902234	16946.504333	1696.458008	-106.666214
19424.902234	16946.504333	1695.436523	131.913437
19424.902234	16946.504333	1694.415039	40.431175
19424.902234	16946.504333	1693.393555	-289.684784
19424.902234	16946.504333	1692.372070	91.317947
19424.902234	16946.504333	1691.349609	149.407440
19424.902234	16946.504333	1690.327148	6.352823
19424.902234	16946.504333	1689.304688	122.779610
19424.902234	16946.504333	1688.282227	108.231262
19424.902234	16946.504333	1687.259766	-72.264366
19424.902234	16946.504333	1686.236328	97.698097
19424.902234	16946.504333	1685.213867	97.036003
19424.902234	16946.504333	1684.190430	117.344688
19424.902234	16946.504333	1683.166016	352.405823
19424.902234	16946.504333	1682.142578	248.840195
19424.902234	16946.504333	1681.119141	79.916367
19424.902234	16946.504333	1680.094727	219.039536
19424.902234	16946.504333	1679.070313	225.079025
19424.902234	16946.504333	1678.045898	429.349884
19424.902234	16946.504333	1677.020508	600.843140
19424.902234	16946.504333	1675.996094	207.947601
19424.902234	16946.504333	1674.970703	223.136932
19424.902234	16946.504333	1673.945313	56.472088
19424.902234	16946.504333	1672.919922	470.104095
19424.902234	16946.504333	1671.893555	363.951538
19424.902234	16946.504333	1670.868164	246.157608
19424.902234	16946.504333	1669.841797	584.863525
19424.902234	16946.504333	1668.815430	278.372772
19424.902234	16946.504333	1667.789063	311.877289
19424.902234	16946.504333	1666.761719	429.125702
19424.902234	16946.504333	1665.735352	336.843567
19424.902234	16946.504333	1664.708008	211.982407
19424.902234	16946.504333	1663.680664	115.050873
19424.902234	16946.504333	1662.653320	78.596527
19424.902234	16946.504333	1661.625000	367.686188
19424.902234	16946.504333	1660.597656	419.481293
19424.902234	16946.504333	1659.569336	401.485809
19424.902234	16946.504333	1658.541016	406.706665
19424.902234	16946.504333	1657.512695	332.888702
19424.902234	16946.504333	1656.483398	475.127930
19424.902234	16946.504333	1655.455078	640.513855
19424.902234	16946.504333	1654.425781	429.585327
19424.902234	16946.504333	1653.396484	269.794739
19424.902234	16946.504333	1652.366211	325.925537
19424.902234	16946.504333	1651.336914	576.975586
19424.902234	16946.504333	1650.306641	500.704376
19424.902234	16946.504333	1649.276367	640.204956
19424.902234	16946.504333	1648.246094	536.067993
19424.902234	16946.504333	1647.215820	789.100891
19424.902234	16946.504333	1646.185547	814.779053
19424.902234	16946.504333	1645.154297	824.192505
19424.902234	16946.504333	1644.123047	794.178528
19424.902234	16946.504333	1643.091797	773.427368
19424.902234	16946.504333	1642.060547	854.607910
19424.902234	16946.504333	1641.028320	731.884216
19424.902234	16946.504333	1639.997070	1060.822998
19424.902234	16946.504333	1638.964844	1049.222412
19424.902234	16946.504333	1637.931641	1185.772827
19424.902234	16946.504333	1636.899414	995.888611
19424.902234	16946.504333	1635.867188	935.661621
19424.902234	16946.504333	1634.833984	1085.996216
19424.902234	16946.504333	1633.800781	1062.757202
19424.902234	16946.504333	1632.767578	984.008118
19424.902234	16946.504333	1631.734375	1141.146240
19424.902234	16946.504333	1630.700195	909.794495
19424.902234	16946.504333	1629.666016	1378.921387
19424.902234	16946.504333	1628.631836	1159.151001
19424.902234	16946.504333	1627.597656	1034.194946
19424.902234	16946.504333	1626.563477	1128.749512
19424.902234	16946.504333	1625.528320	1019.998169
19424.902234	16946.504333	1624.493164	994.419312
19424.902234	16946.504333	1623.458008	1167.408325
19424.902234	16946.504333	1622.422852	1201.823364
19424.902234	16946.504333	1621.387695	862.331543
19424.902234	16946.504333	1620.351563	1275.213989
19424.902234	16946.504333	1619.315430	1016.581909
19424.902234	16946.504333	1618.279297	1212.451782
19424.902234	16946.504333	1617.243164	1066.935669
19424.902234	16946.504333	1616.207031	1345.729858
19424.902234	16946.504333	1615.169922	856.758423
19424.902234	16946.504333	1614.132813	948.796265
19424.902234	16946.504333	1613.095703	893.322876
19424.902234	16946.504333	1612.058594	948.466125
19424.902234	16946.504333	1611.020508	1229.329712
19424.902234	16946.504333	1609.983398	1443.308472
19424.902234	16946.504333	1608.945313	1357.870605
19424.902234	16946.504333	1607.907227	938.670105
19424.902234	16946.504333	1606.868164	1042.117432
19424.902234	16946.504333	1605.830078	1039.683472
19424.902234	16946.504333	1604.791016	1062.567139
19424.902234	16946.504333	1603.751953	1186.668213
19424.902234	16946.504333	1602.712891	1313.034668
19424.902234	16946.504333	1601.673828	1483.057983
19424.902234	16946.504333	1600.633789	1273.691650
19424.902234	16946.504333	1599.594727	1696.525391
19424.902234	16946.504333	1598.554688	1193.076782
19424.902234	16946.504333	1597.513672	1422.786133
19424.902234	16946.504333	1596.473633	1408.927002
19424.902234	16946.504333	1595.433594	1395.093262
19424.902234	16946.504333	1594.392578	1241.209351
19424.902234	16946.504333	1593.351563	1385.864502
19424.902234	16946.504333	1592.310547	1220.610474
19424.902234	16946.504333	1591.268555	1259.687866
19424.902234	16946.504333	1590.227539	1133.576904
19424.902234	16946.504333	1589.185547	1161.236816
19424.902234	16946.504333	1588.143555	1149.922607
19424.902234	16946.504333	1587.100586	1058.373291
19424.902234	16946.504333	1586.058594	1063.187988
19424.902234	16946.504333	1585.015625	1212.437378
19424.902234	16946.504333	1583.972656	898.712463
19424.902234	16946.504333	1582.929688	883.017944
19424.902234	16946.504333	1581.886719	1123.944580
19424.902234	16946.504333	1580.843750	1087.663208
19424.902234	16946.504333	1579.799805	1113.254761
19424.902234	16946.504333	1578.755859	1035.841187
19424.902234	16946.504333	1577.711914	910.423401
19424.902234	16946.504333	1576.666992	1128.387207
19424.902234	16946.504333	1575.623047	1078.582764
19424.902234	16946.504333	1574.578125	919.021057
19424.902234	16946.504333	1573.533203	910.523132
19424.902234	16946.504333	1572.488281	767.144531
19424.902234	16946.504333	1571.443359	1097.151733
19424.902234	16946.504333	1570.397461	969.872009
19424.902234	16946.504333	1569.351563	710.124451
19424.902234	16946.504333	1568.305664	932.673462
19424.902234	16946.504333	1567.259766	1022.672241
19424.902234	16946.504333	1566.213867	1066.996704
19424.902234	16946.504333	1565.166992	729.962524
19424.902234	16946.504333	1564.120117	530.103394
19424.902234	16946.504333	1563.073242	880.535339
19424.902234	16946.504333	1562.026367	941.015015
19424.902234	16946.504333	1560.978516	828.090881
19424.902234	16946.504333	1559.930664	1071.173340
19424.902234	16946.504333	1558.883789	917.312988
19424.902234	16946.504333	1557.834961	952.847107
19424.902234	16946.504333	1556.787109	762.690186
19424.902234	16946.504333	1555.739258	809.748047
19424.902234	16946.504333	1554.690430	742.877991
19424.902234	16946.504333	1553.641602	872.068115
19424.902234	16946.504333	1552.592773	839.498962
19424.902234	16946.504333	1551.542969	747.770020
19424.902234	16946.504333	1550.494141	385.122101
19424.902234	16946.504333	1549.444336	667.066101
19424.902234	16946.504333	1548.394531	448.113312
19424.902234	16946.504333	1547.344727	491.063354
19424.902234	16946.504333	1546.293945	713.830566
19424.902234	16946.504333	1545.244141	629.420532
19424.902234	16946.504333	1544.193359	545.102722
19424.902234	16946.504333	1543.142578	731.526733
19424.902234	16946.504333	1542.090820	440.425507
19424.902234	16946.504333	1541.040039	572.362732
19424.902234	16946.504333	1539.988281	729.315369
19424.902234	16946.504333	1538.936523	731.741333
19424.902234	16946.504333	1537.884766	457.037872
19424.902234	16946.504333	1536.833008	452.836456
19424.902234	16946.504333	1535.780273	723.514954
19424.902234	16946.504333	1534.727539	753.460693
19424.902234	16946.504333	1533.674805	615.461487
19424.902234	16946.504333	1532.622070	656.904785
19424.902234	16946.504333	1531.569336	673.441528
19424.902234	16946.504333	1530.515625	467.686218
19424.902234	16946.504333	1529.461914	661.338379
19424.902234	16946.504333	1528.408203	641.793152
19424.902234	16946.504333	1527.354492	821.879333
19424.902234	16946.504333	1526.299805	407.973358
19424.902234	16946.504333	1525.246094	615.384827
19424.902234	16946.504333	1524.191406	498.715698
19424.902234	16946.504333	1523.136719	520.383728
19424.902234	16946.504333	1522.081055	394.871033
19424.902234	16946.504333	1521.026367	249.103897
19424.902234	16946.504333	1519.970703	400.118378
19424.902234	16946.504333	1518.915039	437.951019
19424.902234	16946.504333	1517.859375	328.717712
19424.902234	16946.504333	1516.802734	679.021973
19424.902234	16946.504333	1515.747070	409.297119
19424.902234	16946.504333	1514.690430	343.361145
19424.902234	16946.504333	1513.633789	273.010010
19424.902234	16946.504333	1512.577148	356.543091
19424.902234	16946.504333	1511.519531	229.863113
19424.902234	16946.504333	1510.461914	-11.964618
19424.902234	16946.504333	1509.405273	234.548615
19424.902234	16946.504333	1508.346680	248.315582
19424.902234	16946.504333	1507.289063	203.428421
19424.902234	16946.504333	1506.231445	-10.752920
19424.902234	16946.504333	1505.172852	77.836853
19424.902234	16946.504333	1504.114258	134.869873
19424.902234	16946.504333	1503.055664	47.504837
19424.902234	16946.504333	1501.996094	-82.618515
19424.902234	16946.504333	1500.937500	-104.291908
19424.902234	16946.504333	1499.877930	-73.980362
19424.902234	16946.504333	1498.818359	-129.297348
19424.902234	16946.504333	1497.757813	-121.360588
19424.902234	16946.504333	1496.698242	28.707361
19424.902234	16946.504333	1495.637695	-62.389877
19424.902234	16946.504333	1494.577148	-151.102081
19424.902234	16946.504333	1493.516602	177.168777
19424.902234	16946.504333	1492.456055	-48.791733
19424.902234	16946.504333	1491.394531	20.494806
19424.902234	16946.504333	1490.333008	-119.581924
19424.902234	16946.504333	1489.271484	-167.195389
19424.902234	16946.504333	1488.209961	181.484833
19424.902234	16946.504333	1487.148438	-28.021360
19424.902234	16946.504333	1486.085938	-185.592575
19424.902234	16946.504333	1485.023438	120.431862
19424.902234	16946.504333	1483.960938	-122.385223
19424.902234	16946.504333	1482.898438	6.046322
19424.902234	16946.504333	1481.834961	-126.274811
19424.902234	16946.504333	1480.772461	80.971382
19424.902234	16946.504333	1479.708984	18.565266
19424.902234	16946.504333	1478.644531	88.839409
19424.902234	16946.504333	1477.581055	17.662079
19424.902234	16946.504333	1476.517578	-120.758911
19424.902234	16946.504333	1475.453125	3.683043
19424.902234	16946.504333	1474.388672	-120.955887
19424.902234	16946.504333	1473.323242	59.815845
19424.902234	16946.504333	1472.258789	182.107727
19424.902234	16946.504333	1471.193359	232.910477
19424.902234	16946.504333	1470.127930	245.397064
19424.902234	16946.504333	1469.062500	168.489563
19424.902234	16946.504333	1467.997070	-90.048180
19424.902234	16946.504333	1466.930664	-103.618645
19424.902234	16946.504333	1465.865234	21.159910
19424.902234	16946.504333	1464.798828	222.736328
19424.902234	16946.504333	1463.731445	155.290726
19424.902234	16946.504333	1462.665039	88.014809
19424.902234	16946.504333	1461.597656	181.740768
19424.902234	16946.504333	1460.530273	553.470703
19424.902234	16946.504333	1459.462891	600.661743
19424.902234	16946.504333	1458.395508	406.827698
19424.902234	16946.504333	1457.327148	194.539490
19424.902234	16946.504333	1456.259766	588.118469
19424.902234	16946.504333	1455.191406	679.892090
19424.902234	16946.504333	1454.123047	383.971191
19424.902234	16946.504333	1453.053711	580.764954
19424.902234	16946.504333	1451.985352	383.043121
19424.902234	16946.504333	1450.916016	214.590912
19424.902234	16946.504333	1449.846680	105.774620
19424.902234	16946.504333	1448.776367	491.683441
19424.902234	16946.504333	1447.707031	427.381317
19424.902234	16946.504333	1446.636719	275.589661
19424.902234	16946.504333	1445.566406	227.822815
19424.902234	16946.504333	1444.496094	182.285797
19424.902234	16946.504333	1443.425781	306.443481
19424.902234	16946.504333	1442.354492	101.369919
19424.902234	16946.504333	1441.283203	351.829041
19424.902234	16946.504333	1440.211914	52.943817
19424.902234	16946.504333	1439.140625	257.798187
19424.902234	16946.504333	1438.069336	35.751434
19424.902234	16946.504333	1436.997070	43.360535
19424.902234	16946.504333	1435.924805	308.742371
19424.902234	16946.504333	1434.852539	262.027710
19424.902234	16946.504333	1433.780273	130.995697
19424.902234	16946.504333	1432.707031	191.527908
19424.902234	16946.504333	1431.633789	299.320862
19424.902234	16946.504333	1430.560547	501.309998
19424.902234	16946.504333	1429.487305	365.715851
19424.902234	16946.504333	1428.413086	684.650757
19424.902234	16946.504333	1427.339844	510.301758
19424.902234	16946.504333	1426.265625	421.872314
19424.902234	16946.504333	1425.191406	603.991943
19424.902234	16946.504333	1424.116211	450.005676
19424.902234	16946.504333	1423.041992	425.152588
19424.902234	16946.504333	1421.966797	246.478577
19424.902234	16946.504333	1420.891602	249.440903
19424.902234	16946.504333	1419.816406	388.615479
19424.902234	16946.504333	1418.740234	387.773651
19424.902234	16946.504333	1417.665039	85.192467
19424.902234	16946.504333	1416.588867	297.780090
19424.902234	16946.504333	1415.512695	-2.159082
19424.902234	16946.504333	1414.435547	357.173920
19424.902234	16946.504333	1413.359375	-7.544234
19424.902234	16946.504333	1412.282227	-44.121441
19424.902234	16946.504333	1411.205078	253.863449
19424.902234	16946.504333	1410.127930	118.138634
19424.902234	16946.504333	1409.049805	-87.361702
19424.902234	16946.504333	1407.972656	57.192467
19424.902234	16946.504333	1406.894531	138.099548
19424.902234	16946.504333	1405.816406	24.795834
19424.902234	16946.504333	1404.737305	-13.946307
19424.902234	16946.504333	1403.659180	196.040298
19424.902234	16946.504333	1402.580078	300.830139
19424.902234	16946.504333	1401.500977	174.603271
19424.902234	16946.504333	1400.421875	153.441299
19424.902234	16946.504333	1399.341797	262.550629
19424.902234	16946.504333	1398.262695	248.550629
19424.902234	16946.504333	1397.182617	94.807648
19424.902234	16946.504333	1396.102539	118.331299
19424.902234	16946.504333	1395.021484	-26.609211
19424.902234	16946.504333	1393.941406	-46.498764
19424.902234	16946.504333	1392.860352	384.529633
19424.902234	16946.504333	1391.779297	247.498947
19424.902234	16946.504333	1390.698242	24.154764
19424.902234	16946.504333	1389.616211	268.153412
19424.902234	16946.504333	1388.535156	419.479858
19424.902234	16946.504333	1387.453125	372.574127
19424.902234	16946.504333	1386.371094	375.874725
19424.902234	16946.504333	1385.288086	310.852722
19424.902234	16946.504333	1384.206055	220.195450
19424.902234	16946.504333	1383.123047	175.206940
19424.902234	16946.504333	1382.040039	456.713959
19424.902234	16946.504333	1380.957031	229.727676
19424.902234	16946.504333	1379.873047	391.430511
19424.902234	16946.504333	1378.789063	237.373596
19424.902234	16946.504333	1377.705078	441.489929
19424.902234	16946.504333	1376.621094	486.941132
19424.902234	16946.504333	1375.537109	548.244202
19424.902234	16946.504333	1374.452148	389.202972
19424.902234	16946.504333	1373.367188	216.538086
19424.902234	16946.504333	1372.282227	553.354370
19424.902234	16946.504333	1371.197266	475.465790
19424.902234	16946.504333	1370.112305	438.149048
19424.902234	16946.504333	1369.026367	275.290375
19424.902234	16946.504333	1367.940430	242.170517
19424.902234	16946.504333	1366.854492	132.767365
19424.902234	16946.504333	1365.767578	363.561096
19424.902234	16946.504333	1364.681641	324.906006
19424.902234	16946.504333	1363.594727	220.339325
19424.902234	16946.504333	1362.507813	353.910858
19424.902234	16946.504333	1361.419922	287.106934
19424.902234	16946.504333	1360.333008	440.701172
19424.902234	16946.504333	1359.245117	222.551590
19424.902234	16946.504333	1358.157227	365.768311
19424.902234	16946.504333	1357.069336	185.661194
19424.902234	16946.504333	1355.981445	329.471771
19424.902234	16946.504333	1354.892578	427.233643
19424.902234	16946.504333	1353.803711	281.212830
19424.902234	16946.504333	1352.714844	429.697662
19424.902234	16946.504333	1351.625000	408.891876
19424.902234	16946.504333	1350.536133	482.216156
19424.902234	16946.504333	1349.446289	326.135284
19424.902234	16946.504333	1348.356445	374.965668
19424.902234	16946.504333	1347.266602	345.952728
19424.902234	16946.504333	1346.175781	492.540649
19424.902234	16946.504333	1345.085938	319.633850
19424.902234	16946.504333	1343.995117	494.504364
19424.902234	16946.504333	1342.903320	439.282532
19424.902234	16946.504333	1341.812500	525.968079
19424.902234	16946.504333	1340.720703	559.040344
19424.902234	16946.504333	1339.629883	376.627838
19424.902234	16946.504333	1338.538086	395.042114
19424.902234	16946.504333	1337.445313	403.733856
19424.902234	16946.504333	1336.353516	455.543915
19424.902234	16946.504333	1335.260742	590.087097
19424.902234	16946.504333	1334.167969	365.745270
19424.902234	16946.504333	1333.075195	347.410339
19424.902234	16946.504333	1331.981445	554.478394
19424.902234	16946.504333	1330.888672	228.967453
19424.902234	16946.504333	1329.794922	470.363922
19424.902234	16946.504333	1328.701172	275.037720
19424.902234	16946.504333	1327.606445	147.412521
19424.902234	16946.504333	1326.512695	530.273499
19424.902234	16946.504333	1325.417969	108.904312
19424.902234	16946.504333	1324.323242	329.196167
19424.902234	16946.504333	1323.227539	353.945953
19424.902234	16946.504333	1322.132813	422.143463
19424.902234	16946.504333	1321.037109	218.777908
19424.902234	16946.504333	1319.941406	289.181641
19424.902234	16946.504333	1318.845703	158.592117
19424.902234	16946.504333	1317.750000	307.295654
19424.902234	16946.504333	1316.653320	247.983963
19424.902234	16946.504333	1315.556641	213.227478
19424.902234	16946.504333	1314.459961	214.966797
19424.902234	16946.504333	1313.363281	139.781189
19424.902234	16946.504333	1312.265625	107.053925
19424.902234	16946.504333	1311.167969	-32.845924
19424.902234	16946.504333	1310.070313	-78.303932
19424.902234	16946.504333	1308.972656	100.431023
19424.902234	16946.504333	1307.874023	60.730648
19424.902234	16946.504333	1306.776367	21.247536
19424.902234	16946.504333	1305.677734	-256.818970
19424.902234	16946.504333	1304.579102	6.409736
19424.902234	16946.504333	1303.479492	96.020332
19424.902234	16946.504333	1302.380859	-47.391537
19424.902234	16946.504333	1301.281250	74.229240
19424.902234	16946.504333	1300.181641	187.110703
19424.902234	16946.504333	1299.081055	22.238119
19424.902234	16946.504333	1297.981445	20.652145
19424.902234	16946.504333	1296.880859	-55.529327
19424.902234	16946.504333	1295.780273	-66.980743
19424.902234	16946.504333	1294.679688	-127.367020
19424.902234	16946.504333	1293.578125	-59.288658
19424.902234	16946.504333	1292.476563	-63.654583
19424.902234	16946.504333	1291.375000	-278.705872
19424.902234	16946.504333	1290.273438	64.095673
19424.902234	16946.504333	1289.171875	-32.002728
19424.902234	16946.504333	1288.069336	78.537224
19424.902234	16946.504333	1286.966797	159.566208
19424.902234	16946.504333	1285.864258	29.872461
19424.902234	16946.504333	1284.761719	50.130898
19424.902234	16946.504333	1283.658203	8.885784
19424.902234	16946.504333	1282.554688	185.294342
19424.902234	16946.504333	1281.451172	-53.515366
19424.902234	16946.504333	1280.347656	87.973389
19424.902234	16946.504333	1279.244141	113.544922
19424.902234	16946.504333	1278.139648	-22.213425
19424.902234	16946.504333	1277.035156	26.203108
19424.902234	16946.504333	1275.930664	233.518280
19424.902234	16946.504333	1274.825195	261.768738
19424.902234	16946.504333	1273.720703	-34.849827
19424.902234	16946.504333	1272.615234	-73.044533
19424.902234	16946.504333	1271.508789	256.795166
19424.902234	16946.504333	1270.403320	22.788702
19424.902234	16946.504333	1269.297852	-4.568250
19424.902234	16946.504333	1268.191406	-17.153048
19424.902234	16946.504333	1267.084961	-43.478661
19424.902234	16946.504333	1265.977539	-92.758339
19424.902234	16946.504333	1264.871094	-101.306351
19424.902234	16946.504333	1263.763672	-130.124512
19424.902234	16946.504333	1262.656250	-103.815704
19424.902234	16946.504333	1261.548828	-75.337776
19424.902234	16946.504333	1260.440430	12.941782
19424.902234	16946.504333	1259.333008	-72.433960
19424.902234	16946.504333	1258.224609	-262.581970
19424.902234	16946.504333	1257.115234	22.088747
19424.902234	16946.504333	1256.006836	24.953264
19424.902234	16946.504333	1254.897461	22.918098
19424.902234	16946.504333	1253.788086	155.321732
19424.902234	16946.504333	1252.678711	10.962206
19424.902234	16946.504333	1251.569336	38.143379
19424.902234	16946.504333	1250.458984	185.534943
19424.902234	16946.504333	1249.349609	-11.493944
19424.902234	16946.504333	1248.239258	91.369560
19424.902234	16946.504333	1247.127930	49.595352
19424.902234	16946.504333	1246.017578	81.642456
19424.902234	16946.504333	1244.906250	-74.939964
19424.902234	16946.504333	1243.794922	-96.641541
19424.902234	16946.504333	1242.683594	154.064285
19424.902234	16946.504333	1241.571289	123.282753
19424.902234	16946.504333	1240.459961	184.990494
19424.902234	16946.504333	1239.347656	-39.860989
19424.902234	16946.504333	1238.234375	1.594706
19424.902234	16946.504333	1237.122070	101.465103
19424.902234	16946.504333	1236.008789	31.883316
19424.902234	16946.504333	1234.896484	115.370972
19424.902234	16946.504333	1233.782227	-123.967606
19424.902234	16946.504333	1232.668945	166.738312
19424.902234	16946.504333	1231.555664	103.539268
19424.902234	16946.504333	1230.441406	99.403778
19424.902234	16946.504333	1229.327148	121.834488
19424.902234	16946.504333	1228.211914	97.059647
19424.902234	16946.504333	1227.097656	238.649857
19424.902234	16946.504333	1225.982422	297.941223
19424.902234	16946.504333	1224.867188	312.799774
19424.902234	16946.504333	1223.751953	280.570465
19424.902234	16946.504333	1222.635742	120.040131
19424.902234	16946.504333	1221.520508	306.045105
19424.902234	16946.504333	1220.404297	183.743683
19424.902234	16946.504333	1219.287109	203.865601
19424.902234	16946.504333	1218.170898	52.362541
19424.902234	16946.504333	1217.053711	32.060688
19424.902234	16946.504333	1215.936523	9.009785
19424.902234	16946.504333	1214.819336	79.588058
19424.902234	16946.504333	1213.702148	67.697182
19424.902234	16946.504333	1212.583984	104.852341
19424.902234	16946.504333	1211.465820	42.187366
19424.902234	16946.504333	1210.347656	113.553162
19424.902234	16946.504333	1209.229492	71.009613
19424.902234	16946.504333	1208.110352	33.483967
19424.902234	16946.504333	1206.992188	-24.136076
19424.902234	16946.504333	1205.873047	57.594440
19424.902234	16946.504333	1204.752930	-96.045891
19424.902234	16946.504333	1203.633789	113.301498
19424.902234	16946.504333	1202.513672	3.171273
19424.902234	16946.504333	1201.393555	14.197511
19424.902234	16946.504333	1200.273438	76.326866
19424.902234	16946.504333	1199.152344	-73.607330
19424.902234	16946.504333	1198.032227	120.744011
19424.902234	16946.504333	1196.911133	3.425087
19424.902234	16946.504333	1195.790039	-20.863459
19424.902234	16946.504333	1194.667969	-150.962219
19424.902234	16946.504333	1193.545898	-271.916565
19424.902234	16946.504333	1192.424805	-98.396790
19424.902234	16946.504333	1191.301758	2.006056
19424.902234	16946.504333	1190.179688	-49.202068
19424.902234	16946.504333	1189.056641	-308.819122
19424.902234	16946.504333	1187.933594	-91.710602
19424.902234	16946.504333	1186.810547	32.443233
19424.902234	16946.504333	1185.687500	-215.393280
19424.902234	16946.504333	1184.563477	-210.666443
19424.902234	16946.504333	1183.440430	-85.262604
19424.902234	16946.504333	1182.316406	-29.743759
19424.902234	16946.504333	1181.191406	33.897305
19424.902234	16946.504333	1180.067383	137.231461
19424.902234	16946.504333	1178.942383	-209.830795
19424.902234	16946.504333	1177.817383	-72.928078
19424.902234	16946.504333	1176.692383	-4.426094
19424.902234	16946.504333	1175.566406	136.916153
19424.902234	16946.504333	1174.440430	-22.750755
19424.902234	16946.504333	1173.314453	-18.110874
19424.902234	16946.504333	1172.188477	6.931055
19424.902234	16946.504333	1171.062500	110.831619
19424.902234	16946.504333	1169.935547	-55.162472
19424.902234	16946.504333	1168.808594	-25.595743
19424.902234	16946.504333	1167.681641	56.980610
19424.902234	16946.504333	1166.553711	63.213585
19424.902234	16946.504333	1165.426758	151.876266
19424.902234	16946.504333	1164.298828	45.390007
19424.902234	16946.504333	1163.170898	-60.850044
19424.902234	16946.504333	1162.041992	26.832279
19424.902234	16946.504333	1160.914063	109.237770
19424.902234	16946.504333	1159.785156	51.590195
19424.902234	16946.504333	1158.656250	-8.775631
19424.902234	16946.504333	1157.526367	-119.810646
19424.902234	16946.504333	1156.397461	-235.721497
19424.902234	16946.504333	1155.267578	-230.040588
19424.902234	16946.504333	1154.137695	-107.317688
19424.902234	16946.504333	1153.006836	-51.312447
19424.902234	16946.504333	1151.876953	-100.832718
19424.902234	16946.504333	1150.746094	-134.678802
19424.902234	16946.504333	1149.615234	-150.066254
19424.902234	16946.504333	1148.484375	-169.106720
19424.902234	16946.504333	1147.352539	-74.466278
19424.902234	16946.504333	1146.220703	-2.836931
19424.902234	16946.504333	1145.088867	-109.906441
19424.902234	16946.504333	1143.957031	-5.925076
19424.902234	16946.504333	1142.825195	-22.174349
19424.902234	16946.504333	1141.692383	-209.750244
19424.902234	16946.504333	1140.559570	-166.606186
19424.902234	16946.504333	1139.426758	-17.986553
19424.902234	16946.504333	1138.292969	-18.217924
19424.902234	16946.504333	1137.159180	-173.200836
19424.902234	16946.504333	1136.025391	-54.970657
19424.902234	16946.504333	1134.891602	-156.172119
19424.902234	16946.504333	1133.757813	64.770729
19424.902234	16946.504333	1132.623047	-72.109482
19424.902234	16946.504333	1131.488281	-174.105621
19424.902234	16946.504333	1130.353516	-121.336975
19424.902234	16946.504333	1129.217773	4.586338
19424.902234	16946.504333	1128.083008	-25.989088
19424.902234	16946.504333	1126.947266	22.869043
19424.902234	16946.504333	1125.811523	-88.985352
19424.902234	16946.504333	1124.674805	-40.074638
19424.902234	16946.504333	1123.539063	-193.551819
19424.902234	16946.504333	1122.402344	188.392014
19424.902234	16946.504333	1121.265625	118.171516
19424.902234	16946.504333	1120.127930	85.635277
19424.902234	16946.504333	1118.990234	12.360190
19424.902234	16946.504333	1117.853516	118.843292
19424.902234	16946.504333	1116.714844	-139.992828
19424.902234	16946.504333	1115.577148	89.493507
19424.902234	16946.504333	1114.439453	225.928162
19424.902234	16946.504333	1113.300781	-17.278048
19424.902234	16946.504333	1112.162109	7.264606
19424.902234	16946.504333	1111.022461	129.589905
19424.902234	16946.504333	1109.883789	63.016811
19424.902234	16946.504333	1108.744141	128.579697
19424.902234	16946.504333	1107.604492	28.322826
19424.902234	16946.504333	1106.463867	43.066910
19424.902234	16946.504333	1105.324219	242.051270
19424.902234	16946.504333	1104.183594	123.266930
19424.902234	16946.504333	1103.042969	240.764236
19424.902234	16946.504333	1101.902344	160.511963
19424.902234	16946.504333	1100.760742	145.623550
19424.902234	16946.504333	1099.619141	216.534302
19424.902234	16946.504333	1098.477539	107.080193
19424.902234	16946.504333	1097.335938	243.872559
19424.902234	16946.504333	1096.193359	96.905571
19424.902234	16946.504333	1095.051758	130.579666
19424.902234	16946.504333	1093.909180	281.232666
19424.902234	16946.504333	1092.765625	130.130142
19424.902234	16946.504333	1091.623047	-54.856487
19424.902234	16946.504333	1090.479492	172.463882
19424.902234	16946.504333	1089.335938	210.667679
19424.902234	16946.504333	1088.192383	270.272552
19424.902234	16946.504333	1087.047852	162.350433
19424.902234	16946.504333	1085.903320	325.116608
19424.902234	16946.504333	1084.758789	-43.733517
19424.902234	16946.504333	1083.614258	131.024780
19424.902234	16946.504333	1082.469727	-41.444340
19424.902234	16946.504333	1081.324219	-89.065224
19424.902234	16946.504333	1080.178711	254.362045
19424.902234	16946.504333	1079.033203	214.820007
19424.902234	16946.504333	1077.886719	149.792374
19424.902234	16946.504333	1076.740234	98.069077
19424.902234	16946.504333	1075.593750	257.380737
19424.902234	16946.504333	1074.447266	247.002899
19424.902234	16946.504333	1073.300781	124.974792
19424.902234	16946.504333	1072.153320	273.471313
19424.902234	16946.504333	1071.005859	297.274872
19424.902234	16946.504333	1069.858398	309.434448
19424.902234	16946.504333	1068.709961	47.490040
19424.902234	16946.504333	1067.561523	37.855087
19424.902234	16946.504333	1066.413086	207.396957
19424.902234	16946.504333	1065.264648	222.695938
19424.902234	16946.504333	1064.116211	106.935837
19424.902234	16946.504333	1062.966797	183.724808
19424.902234	16946.504333	1061.817383	111.581993
19424.902234	16946.504333	1060.667969	139.185333
19424.902234	16946.504333	1059.517578	211.906570
19424.902234	16946.504333	1058.368164	125.506813
19424.902234	16946.504333	1057.217773	54.774151
19424.902234	16946.504333	1056.067383	244.663528
19424.902234	16946.504333	1054.916016	-182.094162
19424.902234	16946.504333	1053.764648	85.512802
19424.902234	16946.504333	1052.613281	130.402618
19424.902234	16946.504333	1051.461914	-111.727165
19424.902234	16946.504333	1050.310547	204.615906
19424.902234	16946.504333	1049.158203	-46.855042
19424.902234	16946.504333	1048.005859	129.981308
19424.902234	16946.504333	1046.853516	150.467041
19424.902234	16946.504333	1045.700195	59.289787
19424.902234	16946.504333	1044.547852	25.428612
19424.902234	16946.504333	1043.394531	68.908852
19424.902234	16946.504333	1042.240234	136.470901
19424.902234	16946.504333	1041.086914	48.451538
19424.902234	16946.504333	1039.932617	51.979362
19424.902234	16946.504333	1038.778320	212.459259
19424.902234	16946.504333	1037.624023	173.266541
19424.902234	16946.504333	1036.469727	70.540215
19424.902234	16946.504333	1035.314453	223.610123
19424.902234	16946.504333	1034.159180	528.855957
19424.902234	16946.504333	1033.003906	549.774109
19424.902234	16946.504333	1031.847656	539.508850
19424.902234	16946.504333	1030.692383	387.731659
19424.902234	16946.504333	1029.536133	497.201324
19424.902234	16946.504333	1028.378906	385.437531
19424.902234	16946.504333	1027.222656	325.381622
19424.902234	16946.504333	1026.065430	336.698395
19424.902234	16946.504333	1024.908203	249.041275
19424.902234	16946.504333	1023.750977	276.805176
19424.902234	16946.504333	1022.593750	-29.135550
19424.902234	16946.504333	1021.435547	189.832718
19424.902234	16946.504333	1020.277344	109.180984
19424.902234	16946.504333	1019.119141	209.322708
19424.902234	16946.504333	1017.959961	-101.015343
19424.902234	16946.504333	1016.800781	-132.869843
19424.902234	16946.504333	1015.641602	-84.821465
19424.902234	16946.504333	1014.482422	267.810822
19424.902234	16946.504333	1013.323242	-56.862297
19424.902234	16946.504333	1012.163086	104.387779
19424.902234	16946.504333	1011.002930	125.269669
19424.902234	16946.504333	1009.842773	243.022034
19424.902234	16946.504333	1008.681641	122.415321
19424.902234	16946.504333	1007.520508	205.794998
19424.902234	16946.504333	1006.359375	48.160461
19424.902234	16946.504333	1005.198242	21.613659
19424.902234	16946.504333	1004.037109	175.257507
19424.902234	16946.504333	1002.875000	116.387688
19424.902234	16946.504333	1001.712891	88.798080
19424.902234	16946.504333	1000.550781	236.156067
19424.902234	16946.504333	999.387695	205.211319
19424.902234	16946.504333	998.224609	195.968781
19424.902234	16946.504333	997.061523	150.796967
19424.902234	16946.504333	995.898438	-42.287102
19424.902234	16946.504333	994.734375	-176.205750
19424.902234	16946.504333	993.571289	-20.475554
19424.902234	16946.504333	992.407227	100.658073
19424.902234	16946.504333	991.242188	12.090939
19424.902234	16946.504333	990.078125	-68.214836
19424.902234	16946.504333	988.913086	101.992226
19424.902234	16946.504333	987.748047	132.283707
19424.902234	16946.504333	986.583008	-52.292126
19424.902234	16946.504333	985.416992	-171.746719
19424.902234	16946.504333	984.250977	-102.572807
19424.902234	16946.504333	983.084961	-216.165543
19424.902234	16946.504333	981.918945	29.806528
19424.902234	16946.504333	980.751953	-130.013840
19424.902234	16946.504333	979.584961	-44.747223
19424.902234	16946.504333	978.417969	-74.891296
19424.902234	16946.504333	977.250977	71.985962
19424.902234	16946.504333	976.083008	-118.124168
19424.902234	16946.504333	974.915039	43.240852
19424.902234	16946.504333	973.747070	211.953461
19424.902234	16946.504333	972.579102	103.021820
19424.902234	16946.504333	971.410156	47.189091
19424.902234	16946.504333	970.242188	12.945646
19424.902234	16946.504333	969.072266	-52.215263
19424.902234	16946.504333	967.903320	145.125946
19424.902234	16946.504333	966.733398	121.819305
19424.902234	16946.504333	965.563477	-78.587509
19424.902234	16946.504333	964.393555	127.775978
19424.902234	16946.504333	963.223633	317.911072
19424.902234	16946.504333	962.052734	-36.773235
19424.902234	16946.504333	960.881836	180.111588
19424.902234	16946.504333	959.710938	83.177231
19424.902234	16946.504333	958.540039	-65.401169
19424.902234	16946.504333	957.368164	103.124115
19424.902234	16946.504333	956.196289	145.916138
19424.902234	16946.504333	955.024414	-94.243515
19424.902234	16946.504333	953.851563	139.838120
19424.902234	16946.504333	952.679688	128.121780
19424.902234	16946.504333	951.506836	-141.317535
19424.902234	16946.504333	950.333984	28.233166
19424.902234	16946.504333	949.160156	170.257736
19424.902234	16946.504333	947.986328	-147.569870
19424.902234	16946.504333	946.812500	194.817032
19424.902234	16946.504333	945.638672	46.835739
19424.902234	16946.504333	944.464844	-38.881599
19424.902234	16946.504333	943.290039	189.211273
19424.902234	16946.504333	942.115234	171.548126
19424.902234	16946.504333	940.940430	39.980816
19424.902234	16946.504333	939.764648	-20.704235
19424.902234	16946.504333	938.588867	-57.005825
19424.902234	16946.504333	937.413086	-0.834817
19424.902234	16946.504333	936.237305	124.247528
19424.902234	16946.504333	935.060547	52.745342
19424.902234	16946.504333	933.883789	-123.964157
19424.902234	16946.504333	932.707031	-79.603386
19424.902234	16946.504333	931.530273	-2.463094
19424.902234	16946.504333	930.352539	39.654106
19424.902234	16946.504333	929.175781	-27.721071
19424.902234	16946.504333	927.998047	43.277584
19424.902234	16946.504333	926.819336	68.844589
19424.902234	16946.504333	925.641602	-2.677749
19424.902234	16946.504333	924.462891	148.709488
19424.902234	16946.504333	923.284180	97.853348
19424.902234	16946.504333	922.104492	-33.462006
19424.902234	16946.504333	920.924805	-16.246925
19424.902234	16946.504333	919.746094	-8.281252
19424.902234	16946.504333	919.551758	158.965317
19424.902234	16946.504333	918.386719	213.114029
19424.902234	16946.504333	917.220703	-27.512749
19424.902234	16946.504333	916.054688	-152.655792
19424.902234	16946.504333	914.887695	-11.971496
19424.902234	16946.504333	913.721680	-174.172989
19424.902234	16946.504333	912.554688	-33.569313
19424.902234	16946.504333	911.387695	-98.945198
19424.902234	16946.504333	910.220703	80.673149
19424.902234	16946.504333	909.052734	-83.515305
19424.902234	16946.504333	907.885742	-95.376892
19424.902234	16946.504333	906.717773	-195.710083
19424.902234	16946.504333	905.548828	-45.056793
19424.902234	16946.504333	904.380859	72.611221
19424.902234	16946.504333	903.211914	227.234650
19424.902234	16946.504333	902.042969	122.761253
19424.902234	16946.504333	900.874023	22.427464
19424.902234	16946.504333	899.704102	47.477032
19424.902234	16946.504333	898.535156	84.824036
19424.902234	16946.504333	897.365234	-120.227699
19424.902234	16946.504333	896.194336	19.807205
19424.902234	16946.504333	895.024414	-12.703020
19424.902234	16946.504333	893.853516	-162.215393
19424.902234	16946.504333	892.682617	22.857561
19424.902234	16946.504333	891.511719	273.504150
19424.902234	16946.504333	890.340820	-77.062706
19424.902234	16946.504333	889.168945	-27.525192
19424.902234	16946.504333	887.997070	110.160233
19424.902234	16946.504333	886.825195	28.396894
19424.902234	16946.504333	885.653320	53.247303
19424.902234	16946.504333	884.480469	22.746967
19424.902234	16946.504333	883.307617	121.334953
19424.902234	16946.504333	882.134766	193.237808
19424.902234	16946.504333	880.961914	-72.851135
19424.902234	16946.504333	879.788086	54.334034
19424.902234	16946.504333	878.614258	-148.168961
19424.902234	16946.504333	877.440430	-37.421707
19424.902234	16946.504333	876.266602	-196.871506
19424.902234	16946.504333	875.091797	-12.519114
19424.902234	16946.504333	873.916992	-53.278965
19424.902234	16946.504333	872.742188	67.540283
19424.902234	16946.504333	871.567383	-85.711830
19424.902234	16946.504333	870.391602	51.400360
19424.902234	16946.504333	869.215820	14.702708
19424.902234	16946.504333	868.040039	-48.559772
19424.902234	16946.504333	866.864258	96.593285
19424.902234	16946.504333	865.687500	-103.544121
19424.902234	16946.504333	864.510742	123.232780
19424.902234	16946.504333	863.333984	53.826206
19424.902234	16946.504333	862.157227	-87.017883
19424.902234	16946.504333	860.979492	168.155563
19424.902234	16946.504333	859.802734	-164.503433
19424.902234	16946.504333	858.625000	104.833305
19424.902234	16946.504333	857.446289	-74.706505
19424.902234	16946.504333	856.268555	59.871952
19424.902234	16946.504333	855.089844	-27.861069
19424.902234	16946.504333	853.911133	49.550243
19424.902234	16946.504333	852.731445	-89.122803
19424.902234	16946.504333	851.552734	-227.760315
19424.902234	16946.504333	850.373047	43.146305
19424.902234	16946.504333	849.193359	-81.228355
19424.902234	16946.504333	848.013672	-313.501709
19424.902234	16946.504333	846.833008	-136.444504
19424.902234	16946.504333	845.652344	-57.185883
19424.902234	16946.504333	844.471680	24.057146
19424.902234	16946.504333	843.291016	-132.820145
19424.902234	16946.504333	842.110352	46.021839
19424.902234	16946.504333	840.928711	72.231155
19424.902234	16946.504333	839.747070	47.573269
19424.902234	16946.504333	838.564453	-13.682707
19424.902234	16946.504333	837.382813	148.658585
19424.902234	16946.504333	836.200195	128.015472
19424.902234	16946.504333	835.017578	-26.741079
19424.902234	16946.504333	833.834961	-92.070328
19424.902234	16946.504333	832.651367	159.453949
19424.902234	16946.504333	831.467773	102.201767
19424.902234	16946.504333	830.284180	158.644516
19424.902234	16946.504333	829.100586	-140.168289
19424.902234	16946.504333	827.916992	-43.153011
19424.902234	16946.504333	826.732422	27.428965
19424.902234	16946.504333	825.547852	207.501450
19424.902234	16946.504333	824.363281	-68.846046
19424.902234	16946.504333	823.177734	88.828125
19424.902234	16946.504333	821.992188	151.133362
19424.902234	16946.504333	820.806641	-31.858410
19424.902234	16946.504333	819.621094	-54.710041
19424.902234	16946.504333	818.434570	120.978012
19424.902234	16946.504333	817.249023	33.236633
19424.902234	16946.504333	816.062500	58.922848
19424.902234	16946.504333	814.875000	250.608505
19424.902234	16946.504333	813.688477	262.017914
19424.902234	16946.504333	812.500977	289.593964
19424.902234	16946.504333	811.313477	33.842648
19424.902234	16946.504333	810.125977	49.263592
19424.902234	16946.504333	808.937500	-131.542694
19424.902234	16946.504333	807.749023	-118.164856
19424.902234	16946.504333	806.560547	-64.384521
19424.902234	16946.504333	805.372070	82.331093
19424.902234	16946.504333	804.182617	36.967167
19424.902234	16946.504333	802.994141	-81.151962
19424.902234	16946.504333	801.803711	-49.749775
19424.902234	16946.504333	800.614258	199.736237
19424.902234	16946.504333	799.424805	75.513840
19424.902234	16946.504333	798.234375	84.565140
19424.902234	16946.504333	797.043945	194.504822
19424.902234	16946.504333	795.852539	82.386177
19424.902234	16946.504333	794.662109	-104.377213
19424.902234	16946.504333	793.470703	166.821671
19424.902234	16946.504333	792.279297	191.823196
19424.902234	16946.504333	791.087891	75.633751
19424.902234	16946.504333	789.895508	-14.329217
19424.902234	16946.504333	788.703125	-142.584656
19424.902234	16946.504333	787.510742	-29.005049
19424.902234	16946.504333	786.318359	62.330048
19424.902234	16946.504333	785.125000	-3.519479
19424.902234	16946.504333	783.931641	-135.836121
19424.902234	16946.504333	782.738281	-219.810745
19424.902234	16946.504333	781.544922	-50.143986
19424.902234	16946.504333	780.350586	-1.337609
19424.902234	16946.504333	779.156250	9.177570
19424.902234	16946.504333	777.961914	-42.716068
19424.902234	16946.504333	776.767578	70.306229
19424.902234	16946.504333	775.572266	-78.179314
19424.902234	16946.504333	774.376953	153.350723
19424.902234	16946.504333	773.181641	113.376381
19424.902234	16946.504333	771.986328	133.669678
19424.902234	16946.504333	770.790039	37.378002
19424.902234	16946.504333	769.593750	133.937012
19424.902234	16946.504333	768.397461	184.218353
19424.902234	16946.504333	767.201172	81.825111
19424.902234	16946.504333	766.003906	-42.648201
19424.902234	16946.504333	764.806641	198.198090
19424.902234	16946.504333	763.609375	-116.981155
19424.902234	16946.504333	762.412109	-231.435379
19424.902234	16946.504333	761.213867	-4.871977
19424.902234	16946.504333	760.015625	129.297363
19424.902234	16946.504333	758.817383	-7.327160
19424.902234	16946.504333	757.618164	-71.766541
19424.902234	16946.504333	756.419922	-162.286728
19424.902234	16946.504333	755.220703	310.274811
19424.902234	16946.504333	754.021484	185.563248
19424.902234	16946.504333	752.821289	189.053558
19424.902234	16946.504333	751.621094	26.276737
19424.902234	16946.504333	750.420898	263.957977
19424.902234	16946.504333	749.220703	-137.075912
19424.902234	16946.504333	748.020508	-29.647617
19424.902234	16946.504333	746.819336	-18.356533
19424.902234	16946.504333	745.618164	114.912544
19424.902234	16946.504333	744.416992	10.061594
19424.902234	16946.504333	743.214844	119.172737
19424.902234	16946.504333	742.012695	146.216797
19424.902234	16946.504333	740.810547	217.171936
19424.902234	16946.504333	739.608398	220.098373
19424.902234	16946.504333	738.406250	256.936218
19424.902234	16946.504333	737.203125	119.917786
19424.902234	16946.504333	736.000000	296.460449
19424.902234	16946.504333	734.795898	163.379425
19424.902234	16946.504333	733.592773	192.001297
19424.902234	16946.504333	732.388672	406.181458
19424.902234	16946.504333	731.184570	274.992737
19424.902234	16946.504333	729.979492	217.625229
19424.902234	16946.504333	728.775391	226.046524
19424.902234	16946.504333	727.570313	174.584335
19424.902234	16946.504333	726.365234	67.258972
19424.902234	16946.504333	725.160156	-40.077244
19424.902234	16946.504333	723.954102	103.696259
19424.902234	16946.504333	722.748047	414.731812
19424.902234	16946.504333	721.541992	-39.418064
19424.902234	16946.504333	720.334961	207.667892
19424.902234	16946.504333	719.128906	8.528380
19424.902234	16946.504333	717.921875	98.101791
19424.902234	16946.504333	716.714844	48.243847
19424.902234	16946.504333	715.506836	-142.946594
19424.902234	16946.504333	714.298828	97.645088
19424.902234	16946.504333	713.090820	109.311745
19424.902234	16946.504333	711.882813	63.238808
19424.902234	16946.504333	710.674805	-48.492775
19424.902234	16946.504333	709.465820	219.476410
19424.902234	16946.504333	708.256836	-144.782654
19424.902234	16946.504333	707.047852	262.078613
19424.902234	16946.504333	705.837891	78.642136
19424.902234	16946.504333	704.627930	-23.336302
19424.902234	16946.504333	703.417969	23.612003
19424.902234	16946.504333	702.208008	30.771221
19424.902234	16946.504333	700.998047	67.644287
19424.902234	16946.504333	699.787109	-52.346199
19424.902234	16946.504333	698.576172	133.230621
19424.902234	16946.504333	697.364258	-119.759338
19424.902234	16946.504333	696.153320	-67.255806
19424.902234	16946.504333	694.941406	-28.714531
19424.902234	16946.504333	693.729492	231.802429
19424.902234	16946.504333	692.516602	-5.376279
19424.902234	16946.504333	691.304688	-97.847137
19424.902234	16946.504333	690.091797	57.331242
19424.902234	16946.504333	688.878906	93.528679
19424.902234	16946.504333	687.665039	52.412586
19424.902234	16946.504333	686.451172	-42.207623
19424.902234	16946.504333	685.237305	-99.234093
19424.902234	16946.504333	684.023438	110.905663
19424.902234	16946.504333	682.809570	83.436485
19424.902234	16946.504333	681.594727	287.397675
19424.902234	16946.504333	680.379883	-5.266218
19424.902234	16946.504333	679.165039	54.146221
19424.902234	16946.504333	677.949219	-109.943924
19424.902234	16946.504333	676.733398	224.121902
19424.902234	16946.504333	675.517578	164.696579
19424.902234	16946.504333	674.301758	69.672073
19424.902234	16946.504333	673.084961	225.523041
19424.902234	16946.504333	671.869141	59.309059
19424.902234	16946.504333	670.651367	-100.964684
19424.902234	16946.504333	669.434570	129.677917
19424.902234	16946.504333	668.216797	182.521637
19424.902234	16946.504333	667.000000	91.227028
19424.902234	16946.504333	665.781250	-59.272430
19424.902234	16946.504333	664.563477	137.414017
19424.902234	16946.504333	663.344727	77.581604
19424.902234	16946.504333	662.125977	25.608400
19424.902234	16946.504333	660.907227	206.224457
19424.902234	16946.504333	659.688477	234.949875
19424.902234	16946.504333	658.468750	310.905518
19424.902234	16946.504333	657.249023	390.717773
19424.902234	16946.504333	656.029297	163.174362
19424.902234	16946.504333	654.808594	162.145111
19424.902234	16946.504333	653.587891	320.543671
19424.902234	16946.504333	652.367188	252.457657
19424.902234	16946.504333	651.146484	127.279373
19424.902234	16946.504333	649.924805	6.042646
19424.902234	16946.504333	648.704102	103.169304
19424.902234	16946.504333	647.482422	123.504601
19424.902234	16946.504333	646.259766	141.820694
19424.902234	16946.504333	645.037109	317.360718
19424.902234	16946.504333	643.815430	172.403137
19424.902234	16946.504333	642.591797	82.486053
19424.902234	16946.504333	641.369141	0.424620
19424.902234	16946.504333	640.145508	165.857758
19424.902234	16946.504333	638.921875	77.841354
19424.902234	16946.504333	637.698242	-10.176385
19424.902234	16946.504333	636.474609	9.772264
19424.902234	16946.504333	635.250000	318.179962
19424.902234	16946.504333	634.025391	118.210228
19424.902234	16946.504333	632.800781	169.399200
19424.902234	16946.504333	631.575195	348.020782
19424.902234	16946.504333	630.349609	97.084335
19424.902234	16946.504333	629.124023	93.250069
19424.902234	16946.504333	627.898438	58.024918
19424.902234	16946.504333	626.671875	-4.652220
19424.902234	16946.504333	625.445313	79.614906
19424.902234	16946.504333	624.218750	171.654572
19424.902234	16946.504333	622.992188	99.118279
19424.902234	16946.504333	621.764648	36.375587
19424.902234	16946.504333	620.537109	6.915678
19424.902234	16946.504333	619.309570	143.808090
19424.902234	16946.504333	618.081055	202.347168
19424.902234	16946.504333	616.852539	12.379613
19424.902234	16946.504333	615.624023	16.114668
19424.902234	16946.504333	614.395508	-205.059708
19424.902234	16946.504333	613.166992	90.000305
19424.902234	16946.504333	611.937500	-49.031036
19424.902234	16946.504333	610.708008	-10.176040
19424.902234	16946.504333	609.477539	-145.248734
19424.902234	16946.504333	608.248047	-239.250961
19424.902234	16946.504333	607.017578	-81.280807
19424.902234	16946.504333	605.787109	-7.349745
19424.902234	16946.504333	604.555664	-216.534485
19424.902234	16946.504333	603.325195	-107.489090
19424.902234	16946.504333	602.093750	-142.899567
19424.902234	16946.504333	600.861328	-303.163971
19424.902234	16946.504333	599.629883	-322.920685
19424.902234	16946.504333	598.397461	-204.209229
19424.902234	16946.504333	597.165039	-118.694275
19424.902234	16946.504333	595.932617	-62.453529
19424.902234	16946.504333	594.699219	-109.527504
19424.902234	16946.504333	593.465820	-205.289856
19424.902234	16946.504333	592.232422	-47.754791
19424.902234	16946.504333	590.999023	18.180670
19424.902234	16946.504333	589.764648	2.311022
19424.902234	16946.504333	588.530273	-11.595794
19424.902234	16946.504333	587.295898	-37.163353
19424.902234	16946.504333	586.061523	-66.598236
19424.902234	16946.504333	584.826172	79.096252
19424.902234	16946.504333	583.590820	146.937027
19424.902234	16946.504333	582.355469	-57.502209
19424.902234	16946.504333	581.119141	-49.901493
19424.902234	16946.504333	579.882813	189.046097
19424.902234	16946.504333	578.646484	-118.218582
19424.902234	16946.504333	577.410156	163.433807
19424.902234	16946.504333	576.172852	19.540104
19424.902234	16946.504333	574.935547	-124.267700
19424.902234	16946.504333	573.698242	118.445389
19424.902234	16946.504333	572.460938	163.054749
19424.902234	16946.504333	571.222656	-75.717201
19424.902234	16946.504333	569.984375	33.016327
19424.902234	16946.504333	568.746094	168.899231
19424.902234	16946.504333	567.506836	225.226227
19424.902234	16946.504333	566.267578	72.110542
19424.902234	16946.504333	565.028320	111.054428
19424.902234	16946.504333	563.789063	22.075735
19424.902234	16946.504333	562.548828	208.390152
19424.902234	16946.504333	561.309570	144.698929
19424.902234	16946.504333	560.068359	336.800995
19424.902234	16946.504333	558.828125	234.455460
19424.902234	16946.504333	557.586914	209.656937
19424.902234	16946.504333	556.345703	-93.880203
19424.902234	16946.504333	555.104492	59.574593
19424.902234	16946.504333	553.863281	139.471588
19424.902234	16946.504333	552.621094	2.681795
19424.902234	16946.504333	551.378906	113.604828
19424.902234	16946.504333	550.136719	-30.756435
19424.902234	16946.504333	548.893555	-22.251661
19424.902234	16946.504333	547.650391	-0.166056
19424.902234	16946.504333	546.407227	300.280487
19424.902234	16946.504333	545.164063	339.786011
19424.902234	16946.504333	543.919922	228.639511
19424.902234	16946.504333	542.675781	219.965561
19424.902234	16946.504333	541.431641	201.697433
19424.902234	16946.504333	540.186523	135.225632
19424.902234	16946.504333	538.941406	310.124695
19424.902234	16946.504333	537.696289	357.635284
19424.902234	16946.504333	536.451172	480.433563
19424.902234	16946.504333	535.205078	146.055573
19424.902234	16946.504333	533.959961	52.957603
19424.902234	16946.504333	532.712891	362.955994
19424.902234	16946.504333	531.466797	480.100922
19424.902234	16946.504333	530.219727	466.192596
19424.902234	16946.504333	528.972656	408.030151
19424.902234	16946.504333	527.725586	299.862518
19424.902234	16946.504333	526.478516	467.238342
19424.902234	16946.504333	525.230469	430.474670
19424.902234	16946.504333	523.982422	361.055725
19424.902234	16946.504333	522.734375	468.817017
19424.902234	16946.504333	521.485352	461.120331
19424.902234	16946.504333	520.236328	397.686798
19424.902234	16946.504333	518.987305	726.764709
19424.902234	16946.504333	517.737305	511.478455
19424.902234	16946.504333	516.488281	517.465393
19424.902234	16946.504333	515.238281	513.891968
19424.902234	16946.504333	513.988281	464.246124
19424.902234	16946.504333	512.737305	554.950684
19424.902234	16946.504333	511.486328	555.371277
19424.902234	16946.504333	510.235352	500.138245
19424.902234	16946.504333	508.984375	765.676697
19424.902234	16946.504333	507.732422	581.880859
19424.902234	16946.504333	506.480469	651.586365
19424.902234	16946.504333	505.228516	740.494385
19424.902234	16946.504333	503.976563	645.209106
19424.902234	16946.504333	502.723633	695.794312
19424.902234	16946.504333	501.470703	786.667908
19424.902234	16946.504333	500.217773	823.845886
19424.902234	16946.504333	498.963867	868.707947
19424.902234	16946.504333	497.709961	898.244751
19424.902234	16946.504333	496.456055	979.531372
19424.902234	16946.504333	495.202148	1139.351563
19424.902234	16946.504333	493.947266	1251.236938
19424.902234	16946.504333	492.692383	1010.729126
19424.902234	16946.504333	491.437500	1044.120117
19424.902234	16946.504333	490.181641	1425.884399
19424.902234	16946.504333	488.926758	1158.719238
19424.902234	16946.504333	487.670898	1412.098633
19424.902234	16946.504333	486.414063	1240.692627
19424.902234	16946.504333	485.158203	1405.951172
19424.902234	16946.504333	483.901367	1448.748657
19424.902234	16946.504333	482.644531	1342.392700
19424.902234	16946.504333	481.386719	1513.193848
19424.902234	16946.504333	480.128906	1424.009155
19424.902234	16946.504333	478.871094	1565.990112
19424.902234	16946.504333	477.613281	1803.367676
19424.902234	16946.504333	476.355469	1605.194214
19424.902234	16946.504333	475.096680	1842.353516
19424.902234	16946.504333	473.837891	1751.029297
19424.902234	16946.504333	472.578125	1652.040161
19424.902234	16946.504333	471.319336	1743.812378
19424.902234	16946.504333	470.059570	2102.519775
19424.902234	16946.504333	468.799805	1856.406250
19424.902234	16946.504333	467.539063	2016.435059
19424.902234	16946.504333	466.278320	2149.594727
19424.902234	16946.504333	465.017578	2069.110596
19424.902234	16946.504333	463.756836	2222.909424
19424.902234	16946.504333	462.495117	2334.593750
19424.902234	16946.504333	461.233398	2257.512207
19424.902234	16946.504333	459.971680	2163.168457
19424.902234	16946.504333	458.709961	2161.984131
19424.902234	16946.504333	457.447266	2352.870117
19424.902234	16946.504333	456.184570	2419.781982
19424.902234	16946.504333	454.921875	2551.151611
19424.902234	16946.504333	453.658203	2518.658447
19424.902234	16946.504333	452.394531	2550.612549
19424.902234	16946.504333	451.130859	2743.931152
19424.902234	16946.504333	449.867188	2423.644043
19424.902234	16946.504333	448.602539	2340.800049
19424.902234	16946.504333	447.337891	2618.744873
19424.902234	16946.504333	446.073242	2928.572021
19424.902234	16946.504333	444.807617	2557.982422
19424.902234	16946.504333	443.542969	2679.055908
19424.902234	16946.504333	442.276367	2497.866943
19424.902234	16946.504333	441.010742	2754.866699
19424.902234	16946.504333	439.744141	2667.893311
19424.902234	16946.504333	438.478516	2810.144775
19424.902234	16946.504333	437.210938	2868.457520
19424.902234	16946.504333	435.944336	2844.772705
19424.902234	16946.504333	434.676758	2680.340332
19424.902234	16946.504333	433.409180	2771.430664
19424.902234	16946.504333	432.141602	2882.846436
19424.902234	16946.504333	430.873047	2787.168213
19424.902234	16946.504333	429.604492	2838.773438
19424.902234	16946.504333	428.335938	3031.863770
19424.902234	16946.504333	427.067383	2915.646484
19424.902234	16946.504333	425.797852	2974.950195
19424.902234	16946.504333	424.528320	3107.436523
19424.902234	16946.504333	423.258789	3146.502441
19424.902234	16946.504333	421.988281	3048.664795
19424.902234	16946.504333	420.717773	3078.811279
19424.902234	16946.504333	419.447266	3021.243408
19424.902234	16946.504333	418.175781	3112.322021
19424.902234	16946.504333	416.905273	2989.005859
19424.902234	16946.504333	415.633789	2834.702637
19424.902234	16946.504333	414.362305	2817.586670
19424.902234	16946.504333	413.089844	2829.843750
19424.902234	16946.504333	411.817383	2786.450928
19424.902234	16946.504333	410.544922	2834.695557
19424.902234	16946.504333	409.272461	2717.742432
19424.902234	16946.504333	407.999023	2850.887695
19424.902234	16946.504333	406.725586	3033.928223
19424.902234	16946.504333	405.452148	2880.034912
19424.902234	16946.504333	404.177734	2845.844727
19424.902234	16946.504333	402.903320	2693.648438
19424.902234	16946.504333	401.628906	2774.171875
19424.902234	16946.504333	400.354492	2757.351807
19424.902234	16946.504333	399.079102	2884.426270
19424.902234	16946.504333	397.803711	2799.166992
19424.902234	16946.504333	396.528320	2940.596680
19424.902234	16946.504333	395.251953	3035.415771
19424.902234	16946.504333	393.976563	2917.961426
19424.902234	16946.504333	392.700195	2868.779785
19424.902234	16946.504333	391.422852	2853.902832
19424.902234	16946.504333	390.145508	2835.657471
19424.902234	16946.504333	388.869141	2635.304199
19424.902234	16946.504333	387.590820	2717.412354
19424.902234	16946.504333	386.313477	2703.862549
19424.902234	16946.504333	385.035156	2831.496826
19424.902234	16946.504333	383.756836	2833.291748
19424.902234	16946.504333	382.478516	2722.435547
19424.902234	16946.504333	381.199219	2515.822021
19424.902234	16946.504333	379.919922	2499.026367
19424.902234	16946.504333	378.640625	2239.919434
19424.902234	16946.504333	377.360352	2457.699951
19424.902234	16946.504333	376.080078	2585.115479
19424.902234	16946.504333	374.799805	2706.631592
19424.902234	16946.504333	373.519531	2503.200928
19424.902234	16946.504333	372.238281	2584.632080
19424.902234	16946.504333	370.957031	2568.104248
19424.902234	16946.504333	369.675781	2380.486328
19424.902234	16946.504333	368.394531	2280.550537
19424.902234	16946.504333	367.112305	2240.005859
19424.902234	16946.504333	365.830078	2258.801025
19424.902234	16946.504333	364.546875	2368.621094
19424.902234	16946.504333	363.264648	2440.212158
19424.902234	16946.504333	361.981445	1986.495850
19424.902234	16946.504333	360.698242	2372.735596
19424.902234	16946.504333	359.414063	2467.604980
19424.902234	16946.504333	358.129883	2041.085938
19424.902234	16946.504333	356.845703	1999.061768
19424.902234	16946.504333	355.561523	2189.682129
19424.902234	16946.504333	354.276367	2225.490234
19424.902234	16946.504333	352.991211	1758.780273
19424.902234	16946.504333	351.706055	2003.095459
19424.902234	16946.504333	350.420898	1976.626709
19424.902234	16946.504333	349.134766	1914.833008
19424.902234	16946.504333	347.848633	1683.220825
19424.902234	16946.504333	346.561523	1789.775757
19424.902234	16946.504333	345.275391	1522.881348
19424.902234	16946.504333	343.988281	1487.418091
19424.902234	16946.504333	342.700195	1382.613403
19424.902234	16946.504333	341.413086	1512.810303
19424.902234	16946.504333	340.125000	1203.997925
19424.902234	16946.504333	338.836914	1146.668823
19424.902234	16946.504333	337.548828	1193.226318
19424.902234	16946.504333	336.259766	1024.538086
19424.902234	16946.504333	334.970703	1127.309814
19424.902234	16946.504333	333.681641	994.312561
19424.902234	16946.504333	332.391602	839.753479
19424.902234	16946.504333	331.101563	427.063599
19424.902234	16946.504333	329.811523	577.693726
19424.902234	16946.504333	328.521484	633.823181
19424.902234	16946.504333	327.230469	431.423798
19424.902234	16946.504333	325.939453	735.695068
19424.902234	16946.504333	324.648438	351.470642
19424.902234	16946.504333	323.356445	651.993103
19424.902234	16946.504333	322.064453	505.889496
19424.902234	16946.504333	320.772461	448.924713
19424.902234	16946.504333	319.480469	49.556931
19424.902234	16946.504333	318.187500	108.893517
19424.902234	16946.504333	316.894531	134.167496
19424.902234	16946.504333	315.601563	143.851974
19424.902234	16946.504333	314.307617	50.320648
19424.902234	16946.504333	313.013672	22.696159
19424.902234	16946.504333	311.719727	-223.307144
19424.902234	16946.504333	310.425781	-67.627548
19424.902234	16946.504333	309.130859	-136.372101
19424.902234	16946.504333	307.835938	-245.634537
19424.902234	16946.504333	306.541016	-135.803696
19424.902234	16946.504333	305.245117	-98.608009
19424.902234	16946.504333	303.949219	47.792881
19424.902234	16946.504333	302.653320	69.563126
19424.902234	16946.504333	301.356445	-87.373009
19424.902234	16946.504333	300.060547	11.067506
19424.902234	16946.504333	298.763672	352.948883
