#X		#Y		#Wave		#Intensity
19334.041223	16904.637833	2000.043945	-219.621246
19334.041223	16904.637833	1999.080078	30.472586
19334.041223	16904.637833	1998.116211	-9.958381
19334.041223	16904.637833	1997.151367	1.254364
19334.041223	16904.637833	1996.186523	-39.981571
19334.041223	16904.637833	1995.222656	-168.313828
19334.041223	16904.637833	1994.256836	-76.526398
19334.041223	16904.637833	1993.291992	420.958710
19334.041223	16904.637833	1992.327148	504.432800
19334.041223	16904.637833	1991.361328	62.753731
19334.041223	16904.637833	1990.395508	249.538864
19334.041223	16904.637833	1989.429688	94.452515
19334.041223	16904.637833	1988.463867	52.918537
19334.041223	16904.637833	1987.497070	-115.045418
19334.041223	16904.637833	1986.531250	30.838421
19334.041223	16904.637833	1985.564453	-172.242798
19334.041223	16904.637833	1984.597656	20.029886
19334.041223	16904.637833	1983.630859	-22.838951
19334.041223	16904.637833	1982.664063	218.254654
19334.041223	16904.637833	1981.696289	73.581146
19334.041223	16904.637833	1980.728516	277.053375
19334.041223	16904.637833	1979.761719	136.907089
19334.041223	16904.637833	1978.792969	-0.913975
19334.041223	16904.637833	1977.825195	140.102280
19334.041223	16904.637833	1976.857422	206.816498
19334.041223	16904.637833	1975.888672	66.012161
19334.041223	16904.637833	1974.919922	310.029816
19334.041223	16904.637833	1973.951172	210.856125
19334.041223	16904.637833	1972.982422	279.292023
19334.041223	16904.637833	1972.013672	-42.113712
19334.041223	16904.637833	1971.043945	65.504486
19334.041223	16904.637833	1970.075195	148.283371
19334.041223	16904.637833	1969.105469	225.979309
19334.041223	16904.637833	1968.135742	239.446213
19334.041223	16904.637833	1967.165039	26.114834
19334.041223	16904.637833	1966.195313	46.776459
19334.041223	16904.637833	1965.224609	-41.042828
19334.041223	16904.637833	1964.253906	159.192322
19334.041223	16904.637833	1963.283203	174.601181
19334.041223	16904.637833	1962.312500	98.838028
19334.041223	16904.637833	1961.341797	448.804962
19334.041223	16904.637833	1960.370117	55.430813
19334.041223	16904.637833	1959.399414	72.993256
19334.041223	16904.637833	1958.427734	-96.458717
19334.041223	16904.637833	1957.455078	-145.394943
19334.041223	16904.637833	1956.483398	167.085251
19334.041223	16904.637833	1955.511719	12.292496
19334.041223	16904.637833	1954.539063	-73.662140
19334.041223	16904.637833	1953.566406	-56.410294
19334.041223	16904.637833	1952.593750	-14.633336
19334.041223	16904.637833	1951.621094	258.014557
19334.041223	16904.637833	1950.647461	346.323395
19334.041223	16904.637833	1949.674805	206.187500
19334.041223	16904.637833	1948.701172	348.438568
19334.041223	16904.637833	1947.727539	409.608368
19334.041223	16904.637833	1946.753906	-152.663055
19334.041223	16904.637833	1945.780273	-91.454552
19334.041223	16904.637833	1944.805664	70.315895
19334.041223	16904.637833	1943.831055	-8.373115
19334.041223	16904.637833	1942.856445	126.332771
19334.041223	16904.637833	1941.881836	86.887390
19334.041223	16904.637833	1940.907227	30.299126
19334.041223	16904.637833	1939.932617	-23.816319
19334.041223	16904.637833	1938.957031	-212.690170
19334.041223	16904.637833	1937.981445	10.151561
19334.041223	16904.637833	1937.005859	115.332031
19334.041223	16904.637833	1936.030273	2.493811
19334.041223	16904.637833	1935.054688	-85.800705
19334.041223	16904.637833	1934.078125	-41.828182
19334.041223	16904.637833	1933.101563	109.851585
19334.041223	16904.637833	1932.125000	95.066284
19334.041223	16904.637833	1931.148438	173.289993
19334.041223	16904.637833	1930.171875	427.660736
19334.041223	16904.637833	1929.194336	-98.348534
19334.041223	16904.637833	1928.217773	-103.219177
19334.041223	16904.637833	1927.240234	33.764771
19334.041223	16904.637833	1926.262695	114.491913
19334.041223	16904.637833	1925.284180	-98.096352
19334.041223	16904.637833	1924.306641	-100.411613
19334.041223	16904.637833	1923.328125	261.369354
19334.041223	16904.637833	1922.350586	68.492912
19334.041223	16904.637833	1921.372070	151.723602
19334.041223	16904.637833	1920.392578	-229.027908
19334.041223	16904.637833	1919.414063	-74.912170
19334.041223	16904.637833	1918.434570	147.532578
19334.041223	16904.637833	1917.456055	-169.463623
19334.041223	16904.637833	1916.476563	367.760193
19334.041223	16904.637833	1915.497070	370.511322
19334.041223	16904.637833	1914.516602	61.066563
19334.041223	16904.637833	1913.537109	-136.049637
19334.041223	16904.637833	1912.556641	-120.920517
19334.041223	16904.637833	1911.576172	28.317501
19334.041223	16904.637833	1910.595703	192.156311
19334.041223	16904.637833	1909.615234	170.747925
19334.041223	16904.637833	1908.633789	-47.978790
19334.041223	16904.637833	1907.653320	-86.330177
19334.041223	16904.637833	1906.671875	135.979645
19334.041223	16904.637833	1905.690430	-14.350342
19334.041223	16904.637833	1904.708984	171.394058
19334.041223	16904.637833	1903.727539	11.428963
19334.041223	16904.637833	1902.745117	219.060028
19334.041223	16904.637833	1901.762695	-23.535526
19334.041223	16904.637833	1900.780273	152.444168
19334.041223	16904.637833	1899.797852	7.297032
19334.041223	16904.637833	1898.815430	-130.479813
19334.041223	16904.637833	1897.832031	142.753174
19334.041223	16904.637833	1896.849609	2.612368
19334.041223	16904.637833	1895.866211	171.239090
19334.041223	16904.637833	1894.882813	-0.406734
19334.041223	16904.637833	1893.898438	-89.355583
19334.041223	16904.637833	1892.915039	-71.372231
19334.041223	16904.637833	1891.930664	92.350624
19334.041223	16904.637833	1890.947266	-190.799561
19334.041223	16904.637833	1889.962891	-27.089708
19334.041223	16904.637833	1888.977539	80.742538
19334.041223	16904.637833	1887.993164	21.074707
19334.041223	16904.637833	1887.007813	400.645691
19334.041223	16904.637833	1886.023438	304.561432
19334.041223	16904.637833	1885.038086	126.051025
19334.041223	16904.637833	1884.051758	-256.101837
19334.041223	16904.637833	1883.066406	210.542679
19334.041223	16904.637833	1882.081055	-156.938797
19334.041223	16904.637833	1881.094727	205.292084
19334.041223	16904.637833	1880.108398	-198.403000
19334.041223	16904.637833	1879.122070	88.581764
19334.041223	16904.637833	1878.135742	-46.057949
19334.041223	16904.637833	1877.148438	168.121552
19334.041223	16904.637833	1876.162109	-34.303284
19334.041223	16904.637833	1875.174805	-122.867310
19334.041223	16904.637833	1874.187500	-146.052689
19334.041223	16904.637833	1873.199219	-140.195145
19334.041223	16904.637833	1872.211914	-124.684959
19334.041223	16904.637833	1871.223633	-218.059158
19334.041223	16904.637833	1870.236328	7.860410
19334.041223	16904.637833	1869.248047	-141.168457
19334.041223	16904.637833	1868.258789	14.498907
19334.041223	16904.637833	1867.270508	-95.845993
19334.041223	16904.637833	1866.282227	-244.849594
19334.041223	16904.637833	1865.292969	-205.326416
19334.041223	16904.637833	1864.303711	-122.360092
19334.041223	16904.637833	1863.314453	20.934313
19334.041223	16904.637833	1862.324219	-89.451210
19334.041223	16904.637833	1861.334961	-238.470917
19334.041223	16904.637833	1860.344727	117.118744
19334.041223	16904.637833	1859.354492	120.115143
19334.041223	16904.637833	1858.364258	-0.014778
19334.041223	16904.637833	1857.374023	147.692017
19334.041223	16904.637833	1856.383789	-310.235016
19334.041223	16904.637833	1855.392578	-66.130371
19334.041223	16904.637833	1854.401367	-12.682804
19334.041223	16904.637833	1853.410156	-140.140213
19334.041223	16904.637833	1852.418945	50.606945
19334.041223	16904.637833	1851.426758	185.798187
19334.041223	16904.637833	1850.435547	111.226364
19334.041223	16904.637833	1849.443359	48.676968
19334.041223	16904.637833	1848.451172	229.385406
19334.041223	16904.637833	1847.458984	395.513947
19334.041223	16904.637833	1846.466797	402.590149
19334.041223	16904.637833	1845.473633	248.300476
19334.041223	16904.637833	1844.480469	-9.502235
19334.041223	16904.637833	1843.487305	-72.343155
19334.041223	16904.637833	1842.494141	141.477142
19334.041223	16904.637833	1841.500977	88.111244
19334.041223	16904.637833	1840.506836	25.073423
19334.041223	16904.637833	1839.513672	303.460754
19334.041223	16904.637833	1838.519531	136.866013
19334.041223	16904.637833	1837.525391	280.355469
19334.041223	16904.637833	1836.530273	354.013428
19334.041223	16904.637833	1835.536133	360.273621
19334.041223	16904.637833	1834.541016	167.040695
19334.041223	16904.637833	1833.545898	19.432072
19334.041223	16904.637833	1832.550781	104.748894
19334.041223	16904.637833	1831.555664	125.112610
19334.041223	16904.637833	1830.560547	248.607574
19334.041223	16904.637833	1829.564453	232.749252
19334.041223	16904.637833	1828.568359	58.417320
19334.041223	16904.637833	1827.572266	315.936401
19334.041223	16904.637833	1826.576172	302.185883
19334.041223	16904.637833	1825.580078	-13.865073
19334.041223	16904.637833	1824.583008	207.257614
19334.041223	16904.637833	1823.585938	56.572823
19334.041223	16904.637833	1822.588867	97.610382
19334.041223	16904.637833	1821.591797	330.255585
19334.041223	16904.637833	1820.594727	-67.491020
19334.041223	16904.637833	1819.596680	121.762161
19334.041223	16904.637833	1818.599609	-7.741041
19334.041223	16904.637833	1817.601563	-197.177063
19334.041223	16904.637833	1816.603516	-82.567139
19334.041223	16904.637833	1815.604492	120.464325
19334.041223	16904.637833	1814.606445	43.261730
19334.041223	16904.637833	1813.607422	183.739639
19334.041223	16904.637833	1812.608398	84.789444
19334.041223	16904.637833	1811.609375	16.853291
19334.041223	16904.637833	1810.610352	338.664368
19334.041223	16904.637833	1809.610352	40.906303
19334.041223	16904.637833	1808.611328	125.659409
19334.041223	16904.637833	1807.611328	148.110413
19334.041223	16904.637833	1806.611328	74.831238
19334.041223	16904.637833	1805.610352	-10.494870
19334.041223	16904.637833	1804.610352	-222.530701
19334.041223	16904.637833	1803.609375	186.395935
19334.041223	16904.637833	1802.608398	263.097748
19334.041223	16904.637833	1801.607422	24.476154
19334.041223	16904.637833	1800.606445	26.914928
19334.041223	16904.637833	1799.605469	465.985413
19334.041223	16904.637833	1798.603516	346.372131
19334.041223	16904.637833	1797.601563	112.148323
19334.041223	16904.637833	1796.599609	44.854141
19334.041223	16904.637833	1795.597656	151.543457
19334.041223	16904.637833	1794.595703	93.527985
19334.041223	16904.637833	1793.592773	-98.107925
19334.041223	16904.637833	1792.589844	263.168732
19334.041223	16904.637833	1791.587891	414.457947
19334.041223	16904.637833	1790.583984	46.130775
19334.041223	16904.637833	1789.581055	168.531601
19334.041223	16904.637833	1788.577148	207.381821
19334.041223	16904.637833	1787.574219	0.800868
19334.041223	16904.637833	1786.570313	115.566284
19334.041223	16904.637833	1785.566406	-98.350288
19334.041223	16904.637833	1784.561523	132.714584
19334.041223	16904.637833	1783.557617	-100.452408
19334.041223	16904.637833	1782.552734	-117.189995
19334.041223	16904.637833	1781.547852	168.013214
19334.041223	16904.637833	1780.542969	100.996628
19334.041223	16904.637833	1779.538086	226.447372
19334.041223	16904.637833	1778.532227	344.569214
19334.041223	16904.637833	1777.527344	-55.638382
19334.041223	16904.637833	1776.521484	202.394485
19334.041223	16904.637833	1775.515625	243.973206
19334.041223	16904.637833	1774.508789	-92.308334
19334.041223	16904.637833	1773.502930	136.632645
19334.041223	16904.637833	1772.496094	-16.965057
19334.041223	16904.637833	1771.489258	161.712402
19334.041223	16904.637833	1770.482422	155.028183
19334.041223	16904.637833	1769.475586	366.525116
19334.041223	16904.637833	1768.467773	478.132355
19334.041223	16904.637833	1767.460938	364.182617
19334.041223	16904.637833	1766.453125	333.131897
19334.041223	16904.637833	1765.445313	-72.734238
19334.041223	16904.637833	1764.437500	365.445557
19334.041223	16904.637833	1763.428711	514.105713
19334.041223	16904.637833	1762.420898	-102.954582
19334.041223	16904.637833	1761.412109	-25.655735
19334.041223	16904.637833	1760.403320	297.849274
19334.041223	16904.637833	1759.393555	320.252228
19334.041223	16904.637833	1758.384766	325.919922
19334.041223	16904.637833	1757.375000	163.317719
19334.041223	16904.637833	1756.366211	83.486832
19334.041223	16904.637833	1755.356445	79.265160
19334.041223	16904.637833	1754.345703	552.902527
19334.041223	16904.637833	1753.335938	396.868927
19334.041223	16904.637833	1752.325195	172.136185
19334.041223	16904.637833	1751.315430	63.231468
19334.041223	16904.637833	1750.304688	164.661285
19334.041223	16904.637833	1749.292969	268.257690
19334.041223	16904.637833	1748.282227	88.025322
19334.041223	16904.637833	1747.270508	-97.020294
19334.041223	16904.637833	1746.259766	100.633957
19334.041223	16904.637833	1745.248047	203.563583
19334.041223	16904.637833	1744.235352	143.323395
19334.041223	16904.637833	1743.223633	71.159882
19334.041223	16904.637833	1742.211914	22.485912
19334.041223	16904.637833	1741.199219	-19.243187
19334.041223	16904.637833	1740.186523	-39.864548
19334.041223	16904.637833	1739.173828	73.876419
19334.041223	16904.637833	1738.160156	-277.342651
19334.041223	16904.637833	1737.147461	53.115204
19334.041223	16904.637833	1736.133789	232.360321
19334.041223	16904.637833	1735.120117	220.407959
19334.041223	16904.637833	1734.106445	135.237427
19334.041223	16904.637833	1733.091797	285.643005
19334.041223	16904.637833	1732.078125	-4.807204
19334.041223	16904.637833	1731.063477	-62.048985
19334.041223	16904.637833	1730.048828	118.507912
19334.041223	16904.637833	1729.034180	-75.614113
19334.041223	16904.637833	1728.019531	-48.457088
19334.041223	16904.637833	1727.003906	-155.653137
19334.041223	16904.637833	1725.988281	-157.021561
19334.041223	16904.637833	1724.972656	15.620277
19334.041223	16904.637833	1723.957031	218.650375
19334.041223	16904.637833	1722.941406	294.435028
19334.041223	16904.637833	1721.924805	-58.015854
19334.041223	16904.637833	1720.909180	99.831779
19334.041223	16904.637833	1719.892578	-118.698669
19334.041223	16904.637833	1718.875977	99.945633
19334.041223	16904.637833	1717.858398	-330.288269
19334.041223	16904.637833	1716.841797	-151.890717
19334.041223	16904.637833	1715.824219	-185.134857
19334.041223	16904.637833	1714.806641	6.995607
19334.041223	16904.637833	1713.789063	-172.119202
19334.041223	16904.637833	1712.770508	162.900894
19334.041223	16904.637833	1711.752930	14.098081
19334.041223	16904.637833	1710.734375	-99.575279
19334.041223	16904.637833	1709.715820	35.415329
19334.041223	16904.637833	1708.697266	-193.418976
19334.041223	16904.637833	1707.678711	293.155579
19334.041223	16904.637833	1706.659180	-39.077080
19334.041223	16904.637833	1705.640625	123.469612
19334.041223	16904.637833	1704.621094	18.571087
19334.041223	16904.637833	1703.600586	-145.009827
19334.041223	16904.637833	1702.581055	164.751602
19334.041223	16904.637833	1701.561523	-221.585419
19334.041223	16904.637833	1700.541016	207.311401
19334.041223	16904.637833	1699.520508	-314.955811
19334.041223	16904.637833	1698.500000	-104.190208
19334.041223	16904.637833	1697.478516	-52.823414
19334.041223	16904.637833	1696.458008	398.701782
19334.041223	16904.637833	1695.436523	576.124084
19334.041223	16904.637833	1694.415039	224.573486
19334.041223	16904.637833	1693.393555	240.346573
19334.041223	16904.637833	1692.372070	174.153900
19334.041223	16904.637833	1691.349609	196.741165
19334.041223	16904.637833	1690.327148	322.102112
19334.041223	16904.637833	1689.304688	276.677826
19334.041223	16904.637833	1688.282227	383.095032
19334.041223	16904.637833	1687.259766	281.417847
19334.041223	16904.637833	1686.236328	518.436584
19334.041223	16904.637833	1685.213867	38.198750
19334.041223	16904.637833	1684.190430	419.796844
19334.041223	16904.637833	1683.166016	492.943329
19334.041223	16904.637833	1682.142578	297.533813
19334.041223	16904.637833	1681.119141	370.532318
19334.041223	16904.637833	1680.094727	345.402679
19334.041223	16904.637833	1679.070313	359.872009
19334.041223	16904.637833	1678.045898	675.172546
19334.041223	16904.637833	1677.020508	563.473022
19334.041223	16904.637833	1675.996094	607.990234
19334.041223	16904.637833	1674.970703	535.841003
19334.041223	16904.637833	1673.945313	652.455933
19334.041223	16904.637833	1672.919922	624.473633
19334.041223	16904.637833	1671.893555	736.222717
19334.041223	16904.637833	1670.868164	899.133484
19334.041223	16904.637833	1669.841797	880.240234
19334.041223	16904.637833	1668.815430	942.798096
19334.041223	16904.637833	1667.789063	767.805176
19334.041223	16904.637833	1666.761719	997.833984
19334.041223	16904.637833	1665.735352	974.065308
19334.041223	16904.637833	1664.708008	833.900269
19334.041223	16904.637833	1663.680664	661.172424
19334.041223	16904.637833	1662.653320	1004.821228
19334.041223	16904.637833	1661.625000	1118.055786
19334.041223	16904.637833	1660.597656	1298.645264
19334.041223	16904.637833	1659.569336	1025.818604
19334.041223	16904.637833	1658.541016	1094.704346
19334.041223	16904.637833	1657.512695	1203.031250
19334.041223	16904.637833	1656.483398	916.318665
19334.041223	16904.637833	1655.455078	1222.008057
19334.041223	16904.637833	1654.425781	1121.125000
19334.041223	16904.637833	1653.396484	1004.001282
19334.041223	16904.637833	1652.366211	1005.273865
19334.041223	16904.637833	1651.336914	1282.733643
19334.041223	16904.637833	1650.306641	1383.687378
19334.041223	16904.637833	1649.276367	1131.930176
19334.041223	16904.637833	1648.246094	1239.793823
19334.041223	16904.637833	1647.215820	1259.472046
19334.041223	16904.637833	1646.185547	1369.558350
19334.041223	16904.637833	1645.154297	1004.326477
19334.041223	16904.637833	1644.123047	1341.528320
19334.041223	16904.637833	1643.091797	1391.236328
19334.041223	16904.637833	1642.060547	1503.475830
19334.041223	16904.637833	1641.028320	1154.672729
19334.041223	16904.637833	1639.997070	1602.733398
19334.041223	16904.637833	1638.964844	1749.579834
19334.041223	16904.637833	1637.931641	1532.878052
19334.041223	16904.637833	1636.899414	1941.245361
19334.041223	16904.637833	1635.867188	1655.189575
19334.041223	16904.637833	1634.833984	1794.974609
19334.041223	16904.637833	1633.800781	1344.811401
19334.041223	16904.637833	1632.767578	1799.178711
19334.041223	16904.637833	1631.734375	1763.142700
19334.041223	16904.637833	1630.700195	2138.658936
19334.041223	16904.637833	1629.666016	1691.137451
19334.041223	16904.637833	1628.631836	1773.048950
19334.041223	16904.637833	1627.597656	1843.399658
19334.041223	16904.637833	1626.563477	2017.706909
19334.041223	16904.637833	1625.528320	2090.326660
19334.041223	16904.637833	1624.493164	1998.987305
19334.041223	16904.637833	1623.458008	1676.829468
19334.041223	16904.637833	1622.422852	2273.573975
19334.041223	16904.637833	1621.387695	1884.623291
19334.041223	16904.637833	1620.351563	2155.792236
19334.041223	16904.637833	1619.315430	2482.264404
19334.041223	16904.637833	1618.279297	2395.765869
19334.041223	16904.637833	1617.243164	2343.937744
19334.041223	16904.637833	1616.207031	2488.160889
19334.041223	16904.637833	1615.169922	2102.146729
19334.041223	16904.637833	1614.132813	2310.974854
19334.041223	16904.637833	1613.095703	2356.163086
19334.041223	16904.637833	1612.058594	2654.816895
19334.041223	16904.637833	1611.020508	2547.983887
19334.041223	16904.637833	1609.983398	2503.445557
19334.041223	16904.637833	1608.945313	2392.196289
19334.041223	16904.637833	1607.907227	2170.547119
19334.041223	16904.637833	1606.868164	2522.150146
19334.041223	16904.637833	1605.830078	2519.307373
19334.041223	16904.637833	1604.791016	2576.337891
19334.041223	16904.637833	1603.751953	2299.867188
19334.041223	16904.637833	1602.712891	2603.145508
19334.041223	16904.637833	1601.673828	2798.305420
19334.041223	16904.637833	1600.633789	2632.508789
19334.041223	16904.637833	1599.594727	2522.033691
19334.041223	16904.637833	1598.554688	2443.838135
19334.041223	16904.637833	1597.513672	2503.598389
19334.041223	16904.637833	1596.473633	2519.785156
19334.041223	16904.637833	1595.433594	2554.423828
19334.041223	16904.637833	1594.392578	2490.381348
19334.041223	16904.637833	1593.351563	2251.968506
19334.041223	16904.637833	1592.310547	2447.569580
19334.041223	16904.637833	1591.268555	2764.804443
19334.041223	16904.637833	1590.227539	2802.093506
19334.041223	16904.637833	1589.185547	2513.695801
19334.041223	16904.637833	1588.143555	2909.003418
19334.041223	16904.637833	1587.100586	2994.665039
19334.041223	16904.637833	1586.058594	2952.019043
19334.041223	16904.637833	1585.015625	2838.418701
19334.041223	16904.637833	1583.972656	2887.687012
19334.041223	16904.637833	1582.929688	2900.380371
19334.041223	16904.637833	1581.886719	2452.703613
19334.041223	16904.637833	1580.843750	2380.951660
19334.041223	16904.637833	1579.799805	2574.967285
19334.041223	16904.637833	1578.755859	2340.872314
19334.041223	16904.637833	1577.711914	2193.973145
19334.041223	16904.637833	1576.666992	1836.679199
19334.041223	16904.637833	1575.623047	2005.947754
19334.041223	16904.637833	1574.578125	1951.057739
19334.041223	16904.637833	1573.533203	2086.161133
19334.041223	16904.637833	1572.488281	2017.802734
19334.041223	16904.637833	1571.443359	2228.544434
19334.041223	16904.637833	1570.397461	2405.027588
19334.041223	16904.637833	1569.351563	2316.452148
19334.041223	16904.637833	1568.305664	2221.187012
19334.041223	16904.637833	1567.259766	1753.698730
19334.041223	16904.637833	1566.213867	2076.855957
19334.041223	16904.637833	1565.166992	2082.571533
19334.041223	16904.637833	1564.120117	1908.045410
19334.041223	16904.637833	1563.073242	2089.849365
19334.041223	16904.637833	1562.026367	1602.982666
19334.041223	16904.637833	1560.978516	1828.407837
19334.041223	16904.637833	1559.930664	1944.376831
19334.041223	16904.637833	1558.883789	1745.671753
19334.041223	16904.637833	1557.834961	1216.486572
19334.041223	16904.637833	1556.787109	1182.460327
19334.041223	16904.637833	1555.739258	1150.877930
19334.041223	16904.637833	1554.690430	1171.872559
19334.041223	16904.637833	1553.641602	908.163635
19334.041223	16904.637833	1552.592773	872.549561
19334.041223	16904.637833	1551.542969	1201.564087
19334.041223	16904.637833	1550.494141	1337.030396
19334.041223	16904.637833	1549.444336	1329.141968
19334.041223	16904.637833	1548.394531	1389.715210
19334.041223	16904.637833	1547.344727	1272.890015
19334.041223	16904.637833	1546.293945	780.782959
19334.041223	16904.637833	1545.244141	976.157043
19334.041223	16904.637833	1544.193359	816.750183
19334.041223	16904.637833	1543.142578	798.580994
19334.041223	16904.637833	1542.090820	1176.235474
19334.041223	16904.637833	1541.040039	1242.459473
19334.041223	16904.637833	1539.988281	1026.974609
19334.041223	16904.637833	1538.936523	770.839783
19334.041223	16904.637833	1537.884766	1071.642212
19334.041223	16904.637833	1536.833008	1127.164063
19334.041223	16904.637833	1535.780273	1203.275513
19334.041223	16904.637833	1534.727539	1272.722290
19334.041223	16904.637833	1533.674805	935.938965
19334.041223	16904.637833	1532.622070	973.992981
19334.041223	16904.637833	1531.569336	1168.803467
19334.041223	16904.637833	1530.515625	1320.602295
19334.041223	16904.637833	1529.461914	1343.222412
19334.041223	16904.637833	1528.408203	914.674438
19334.041223	16904.637833	1527.354492	1373.115601
19334.041223	16904.637833	1526.299805	1205.823486
19334.041223	16904.637833	1525.246094	911.853149
19334.041223	16904.637833	1524.191406	1196.081543
19334.041223	16904.637833	1523.136719	1251.541138
19334.041223	16904.637833	1522.081055	1252.795654
19334.041223	16904.637833	1521.026367	937.158264
19334.041223	16904.637833	1519.970703	791.671204
19334.041223	16904.637833	1518.915039	1246.399536
19334.041223	16904.637833	1517.859375	913.420349
19334.041223	16904.637833	1516.802734	1142.022583
19334.041223	16904.637833	1515.747070	1210.081787
19334.041223	16904.637833	1514.690430	819.077759
19334.041223	16904.637833	1513.633789	722.459290
19334.041223	16904.637833	1512.577148	1119.047363
19334.041223	16904.637833	1511.519531	993.412964
19334.041223	16904.637833	1510.461914	1035.301270
19334.041223	16904.637833	1509.405273	544.021118
19334.041223	16904.637833	1508.346680	396.584076
19334.041223	16904.637833	1507.289063	1055.907471
19334.041223	16904.637833	1506.231445	820.748047
19334.041223	16904.637833	1505.172852	732.670227
19334.041223	16904.637833	1504.114258	511.624756
19334.041223	16904.637833	1503.055664	665.586853
19334.041223	16904.637833	1501.996094	650.427856
19334.041223	16904.637833	1500.937500	863.381165
19334.041223	16904.637833	1499.877930	392.902313
19334.041223	16904.637833	1498.818359	497.974182
19334.041223	16904.637833	1497.757813	341.627197
19334.041223	16904.637833	1496.698242	259.954376
19334.041223	16904.637833	1495.637695	151.475174
19334.041223	16904.637833	1494.577148	113.115067
19334.041223	16904.637833	1493.516602	-181.891220
19334.041223	16904.637833	1492.456055	-66.555084
19334.041223	16904.637833	1491.394531	-201.063889
19334.041223	16904.637833	1490.333008	85.805855
19334.041223	16904.637833	1489.271484	5.780967
19334.041223	16904.637833	1488.209961	-1.964488
19334.041223	16904.637833	1487.148438	-164.781860
19334.041223	16904.637833	1486.085938	3.451005
19334.041223	16904.637833	1485.023438	-181.367737
19334.041223	16904.637833	1483.960938	110.939819
19334.041223	16904.637833	1482.898438	68.278107
19334.041223	16904.637833	1481.834961	84.307091
19334.041223	16904.637833	1480.772461	-74.782837
19334.041223	16904.637833	1479.708984	-177.392426
19334.041223	16904.637833	1478.644531	-153.921387
19334.041223	16904.637833	1477.581055	-154.983337
19334.041223	16904.637833	1476.517578	109.181595
19334.041223	16904.637833	1475.453125	117.591888
19334.041223	16904.637833	1474.388672	90.147438
19334.041223	16904.637833	1473.323242	-356.539185
19334.041223	16904.637833	1472.258789	114.705391
19334.041223	16904.637833	1471.193359	110.544006
19334.041223	16904.637833	1470.127930	12.401080
19334.041223	16904.637833	1469.062500	138.571426
19334.041223	16904.637833	1467.997070	65.580307
19334.041223	16904.637833	1466.930664	-240.392227
19334.041223	16904.637833	1465.865234	16.789566
19334.041223	16904.637833	1464.798828	501.968506
19334.041223	16904.637833	1463.731445	416.756317
19334.041223	16904.637833	1462.665039	320.279694
19334.041223	16904.637833	1461.597656	525.861084
19334.041223	16904.637833	1460.530273	98.963974
19334.041223	16904.637833	1459.462891	504.168182
19334.041223	16904.637833	1458.395508	504.723389
19334.041223	16904.637833	1457.327148	502.944092
19334.041223	16904.637833	1456.259766	501.620453
19334.041223	16904.637833	1455.191406	-19.916862
19334.041223	16904.637833	1454.123047	227.923187
19334.041223	16904.637833	1453.053711	599.623779
19334.041223	16904.637833	1451.985352	637.053528
19334.041223	16904.637833	1450.916016	329.907867
19334.041223	16904.637833	1449.846680	416.884369
19334.041223	16904.637833	1448.776367	504.289215
19334.041223	16904.637833	1447.707031	616.967896
19334.041223	16904.637833	1446.636719	454.492340
19334.041223	16904.637833	1445.566406	750.438171
19334.041223	16904.637833	1444.496094	687.627136
19334.041223	16904.637833	1443.425781	33.957176
19334.041223	16904.637833	1442.354492	547.198303
19334.041223	16904.637833	1441.283203	463.343445
19334.041223	16904.637833	1440.211914	465.970001
19334.041223	16904.637833	1439.140625	467.737579
19334.041223	16904.637833	1438.069336	238.999023
19334.041223	16904.637833	1436.997070	457.021423
19334.041223	16904.637833	1435.924805	502.087524
19334.041223	16904.637833	1434.852539	289.417389
19334.041223	16904.637833	1433.780273	64.553230
19334.041223	16904.637833	1432.707031	85.999146
19334.041223	16904.637833	1431.633789	-97.345726
19334.041223	16904.637833	1430.560547	125.242477
19334.041223	16904.637833	1429.487305	104.786423
19334.041223	16904.637833	1428.413086	90.284981
19334.041223	16904.637833	1427.339844	-80.416092
19334.041223	16904.637833	1426.265625	273.838165
19334.041223	16904.637833	1425.191406	67.275742
19334.041223	16904.637833	1424.116211	280.534882
19334.041223	16904.637833	1423.041992	33.510559
19334.041223	16904.637833	1421.966797	107.843521
19334.041223	16904.637833	1420.891602	87.178955
19334.041223	16904.637833	1419.816406	167.963196
19334.041223	16904.637833	1418.740234	401.038422
19334.041223	16904.637833	1417.665039	193.545807
19334.041223	16904.637833	1416.588867	83.526222
19334.041223	16904.637833	1415.512695	153.194183
19334.041223	16904.637833	1414.435547	221.533142
19334.041223	16904.637833	1413.359375	239.139832
19334.041223	16904.637833	1412.282227	866.812317
19334.041223	16904.637833	1411.205078	294.928406
19334.041223	16904.637833	1410.127930	220.713684
19334.041223	16904.637833	1409.049805	563.679626
19334.041223	16904.637833	1407.972656	676.104858
19334.041223	16904.637833	1406.894531	468.874969
19334.041223	16904.637833	1405.816406	561.212585
19334.041223	16904.637833	1404.737305	471.442413
19334.041223	16904.637833	1403.659180	667.773193
19334.041223	16904.637833	1402.580078	466.992218
19334.041223	16904.637833	1401.500977	339.548004
19334.041223	16904.637833	1400.421875	593.316284
19334.041223	16904.637833	1399.341797	472.890106
19334.041223	16904.637833	1398.262695	278.726532
19334.041223	16904.637833	1397.182617	491.424988
19334.041223	16904.637833	1396.102539	557.489685
19334.041223	16904.637833	1395.021484	541.035645
19334.041223	16904.637833	1393.941406	233.749191
19334.041223	16904.637833	1392.860352	535.557068
19334.041223	16904.637833	1391.779297	492.667908
19334.041223	16904.637833	1390.698242	312.476898
19334.041223	16904.637833	1389.616211	353.355713
19334.041223	16904.637833	1388.535156	163.709625
19334.041223	16904.637833	1387.453125	507.101715
19334.041223	16904.637833	1386.371094	362.409698
19334.041223	16904.637833	1385.288086	394.552643
19334.041223	16904.637833	1384.206055	463.139679
19334.041223	16904.637833	1383.123047	762.153015
19334.041223	16904.637833	1382.040039	471.745026
19334.041223	16904.637833	1380.957031	892.301147
19334.041223	16904.637833	1379.873047	748.741028
19334.041223	16904.637833	1378.789063	655.308533
19334.041223	16904.637833	1377.705078	684.232605
19334.041223	16904.637833	1376.621094	604.375244
19334.041223	16904.637833	1375.537109	497.641144
19334.041223	16904.637833	1374.452148	523.454651
19334.041223	16904.637833	1373.367188	681.056824
19334.041223	16904.637833	1372.282227	643.473511
19334.041223	16904.637833	1371.197266	647.261902
19334.041223	16904.637833	1370.112305	585.543579
19334.041223	16904.637833	1369.026367	576.454224
19334.041223	16904.637833	1367.940430	447.359406
19334.041223	16904.637833	1366.854492	514.228149
19334.041223	16904.637833	1365.767578	637.196716
19334.041223	16904.637833	1364.681641	645.220825
19334.041223	16904.637833	1363.594727	713.162231
19334.041223	16904.637833	1362.507813	815.498901
19334.041223	16904.637833	1361.419922	613.849915
19334.041223	16904.637833	1360.333008	717.722717
19334.041223	16904.637833	1359.245117	730.720276
19334.041223	16904.637833	1358.157227	668.632507
19334.041223	16904.637833	1357.069336	567.610291
19334.041223	16904.637833	1355.981445	458.884430
19334.041223	16904.637833	1354.892578	557.826477
19334.041223	16904.637833	1353.803711	604.776855
19334.041223	16904.637833	1352.714844	848.268982
19334.041223	16904.637833	1351.625000	808.541992
19334.041223	16904.637833	1350.536133	776.796631
19334.041223	16904.637833	1349.446289	887.157349
19334.041223	16904.637833	1348.356445	1257.010620
19334.041223	16904.637833	1347.266602	1173.794312
19334.041223	16904.637833	1346.175781	1255.410156
19334.041223	16904.637833	1345.085938	1306.786377
19334.041223	16904.637833	1343.995117	965.624390
19334.041223	16904.637833	1342.903320	1336.233521
19334.041223	16904.637833	1341.812500	1119.627197
19334.041223	16904.637833	1340.720703	1383.822021
19334.041223	16904.637833	1339.629883	1083.483398
19334.041223	16904.637833	1338.538086	1180.929199
19334.041223	16904.637833	1337.445313	1412.355225
19334.041223	16904.637833	1336.353516	1386.022095
19334.041223	16904.637833	1335.260742	1298.160156
19334.041223	16904.637833	1334.167969	1269.018066
19334.041223	16904.637833	1333.075195	1431.025635
19334.041223	16904.637833	1331.981445	1053.630615
19334.041223	16904.637833	1330.888672	1599.092896
19334.041223	16904.637833	1329.794922	1522.772339
19334.041223	16904.637833	1328.701172	1333.553955
19334.041223	16904.637833	1327.606445	1290.294067
19334.041223	16904.637833	1326.512695	1322.831665
19334.041223	16904.637833	1325.417969	1407.289185
19334.041223	16904.637833	1324.323242	1210.898926
19334.041223	16904.637833	1323.227539	1270.491821
19334.041223	16904.637833	1322.132813	1452.518066
19334.041223	16904.637833	1321.037109	1140.983154
19334.041223	16904.637833	1319.941406	1143.138794
19334.041223	16904.637833	1318.845703	1154.180420
19334.041223	16904.637833	1317.750000	1006.664856
19334.041223	16904.637833	1316.653320	1227.745972
19334.041223	16904.637833	1315.556641	1243.959961
19334.041223	16904.637833	1314.459961	1105.594360
19334.041223	16904.637833	1313.363281	1125.012573
19334.041223	16904.637833	1312.265625	1030.016968
19334.041223	16904.637833	1311.167969	939.276611
19334.041223	16904.637833	1310.070313	889.090454
19334.041223	16904.637833	1308.972656	702.161926
19334.041223	16904.637833	1307.874023	751.326782
19334.041223	16904.637833	1306.776367	764.463135
19334.041223	16904.637833	1305.677734	739.728638
19334.041223	16904.637833	1304.579102	932.715759
19334.041223	16904.637833	1303.479492	776.567078
19334.041223	16904.637833	1302.380859	664.849915
19334.041223	16904.637833	1301.281250	895.763123
19334.041223	16904.637833	1300.181641	786.703796
19334.041223	16904.637833	1299.081055	836.148621
19334.041223	16904.637833	1297.981445	725.566895
19334.041223	16904.637833	1296.880859	625.665710
19334.041223	16904.637833	1295.780273	639.341919
19334.041223	16904.637833	1294.679688	770.009949
19334.041223	16904.637833	1293.578125	763.179749
19334.041223	16904.637833	1292.476563	474.863495
19334.041223	16904.637833	1291.375000	474.783997
19334.041223	16904.637833	1290.273438	660.257996
19334.041223	16904.637833	1289.171875	649.832703
19334.041223	16904.637833	1288.069336	714.822937
19334.041223	16904.637833	1286.966797	359.844208
19334.041223	16904.637833	1285.864258	378.076477
19334.041223	16904.637833	1284.761719	499.457520
19334.041223	16904.637833	1283.658203	380.331665
19334.041223	16904.637833	1282.554688	430.898224
19334.041223	16904.637833	1281.451172	302.960266
19334.041223	16904.637833	1280.347656	450.154877
19334.041223	16904.637833	1279.244141	317.699127
19334.041223	16904.637833	1278.139648	539.831970
19334.041223	16904.637833	1277.035156	563.992859
19334.041223	16904.637833	1275.930664	466.770142
19334.041223	16904.637833	1274.825195	694.410461
19334.041223	16904.637833	1273.720703	614.925354
19334.041223	16904.637833	1272.615234	500.991608
19334.041223	16904.637833	1271.508789	826.004028
19334.041223	16904.637833	1270.403320	965.849182
19334.041223	16904.637833	1269.297852	801.717285
19334.041223	16904.637833	1268.191406	742.509216
19334.041223	16904.637833	1267.084961	709.358032
19334.041223	16904.637833	1265.977539	559.463562
19334.041223	16904.637833	1264.871094	536.739807
19334.041223	16904.637833	1263.763672	568.306763
19334.041223	16904.637833	1262.656250	352.027924
19334.041223	16904.637833	1261.548828	359.120514
19334.041223	16904.637833	1260.440430	273.671112
19334.041223	16904.637833	1259.333008	306.373138
19334.041223	16904.637833	1258.224609	444.242981
19334.041223	16904.637833	1257.115234	214.581894
19334.041223	16904.637833	1256.006836	456.544373
19334.041223	16904.637833	1254.897461	456.111542
19334.041223	16904.637833	1253.788086	251.963486
19334.041223	16904.637833	1252.678711	141.145645
19334.041223	16904.637833	1251.569336	-145.880569
19334.041223	16904.637833	1250.458984	-45.300201
19334.041223	16904.637833	1249.349609	43.137302
19334.041223	16904.637833	1248.239258	126.436295
19334.041223	16904.637833	1247.127930	6.751535
19334.041223	16904.637833	1246.017578	-124.185760
19334.041223	16904.637833	1244.906250	40.872746
19334.041223	16904.637833	1243.794922	-68.374992
19334.041223	16904.637833	1242.683594	63.591141
19334.041223	16904.637833	1241.571289	126.248001
19334.041223	16904.637833	1240.459961	-77.077087
19334.041223	16904.637833	1239.347656	14.709603
19334.041223	16904.637833	1238.234375	-185.166809
19334.041223	16904.637833	1237.122070	-162.833832
19334.041223	16904.637833	1236.008789	92.716141
19334.041223	16904.637833	1234.896484	-95.347351
19334.041223	16904.637833	1233.782227	-114.017426
19334.041223	16904.637833	1232.668945	-100.729309
19334.041223	16904.637833	1231.555664	21.788620
19334.041223	16904.637833	1230.441406	-178.782013
19334.041223	16904.637833	1229.327148	30.862841
19334.041223	16904.637833	1228.211914	62.041439
19334.041223	16904.637833	1227.097656	37.068604
19334.041223	16904.637833	1225.982422	-35.488270
19334.041223	16904.637833	1224.867188	-118.272148
19334.041223	16904.637833	1223.751953	27.872025
19334.041223	16904.637833	1222.635742	139.703690
19334.041223	16904.637833	1221.520508	161.194519
19334.041223	16904.637833	1220.404297	-71.287804
19334.041223	16904.637833	1219.287109	-260.639130
19334.041223	16904.637833	1218.170898	-14.373760
19334.041223	16904.637833	1217.053711	-78.278603
19334.041223	16904.637833	1215.936523	-186.144531
19334.041223	16904.637833	1214.819336	-36.749985
19334.041223	16904.637833	1213.702148	46.263321
19334.041223	16904.637833	1212.583984	112.722748
19334.041223	16904.637833	1211.465820	139.284988
19334.041223	16904.637833	1210.347656	-112.646706
19334.041223	16904.637833	1209.229492	14.084821
19334.041223	16904.637833	1208.110352	90.695381
19334.041223	16904.637833	1206.992188	193.082245
19334.041223	16904.637833	1205.873047	40.676075
19334.041223	16904.637833	1204.752930	73.967850
19334.041223	16904.637833	1203.633789	29.884586
19334.041223	16904.637833	1202.513672	314.229614
19334.041223	16904.637833	1201.393555	120.521660
19334.041223	16904.637833	1200.273438	-111.486290
19334.041223	16904.637833	1199.152344	-7.924619
19334.041223	16904.637833	1198.032227	-56.638931
19334.041223	16904.637833	1196.911133	90.390205
19334.041223	16904.637833	1195.790039	113.605789
19334.041223	16904.637833	1194.667969	11.121349
19334.041223	16904.637833	1193.545898	-35.200012
19334.041223	16904.637833	1192.424805	-105.194069
19334.041223	16904.637833	1191.301758	-74.790459
19334.041223	16904.637833	1190.179688	-82.781898
19334.041223	16904.637833	1189.056641	-355.411682
19334.041223	16904.637833	1187.933594	-37.548691
19334.041223	16904.637833	1186.810547	-218.234680
19334.041223	16904.637833	1185.687500	-139.657928
19334.041223	16904.637833	1184.563477	-227.506317
19334.041223	16904.637833	1183.440430	-34.828285
19334.041223	16904.637833	1182.316406	40.602657
19334.041223	16904.637833	1181.191406	-135.919540
19334.041223	16904.637833	1180.067383	-98.376350
19334.041223	16904.637833	1178.942383	-32.981213
19334.041223	16904.637833	1177.817383	23.968216
19334.041223	16904.637833	1176.692383	-150.071686
19334.041223	16904.637833	1175.566406	-251.150726
19334.041223	16904.637833	1174.440430	-21.333843
19334.041223	16904.637833	1173.314453	94.495552
19334.041223	16904.637833	1172.188477	31.282173
19334.041223	16904.637833	1171.062500	232.250031
19334.041223	16904.637833	1169.935547	220.409485
19334.041223	16904.637833	1168.808594	236.920731
19334.041223	16904.637833	1167.681641	185.220749
19334.041223	16904.637833	1166.553711	310.770782
19334.041223	16904.637833	1165.426758	452.291168
19334.041223	16904.637833	1164.298828	264.031097
19334.041223	16904.637833	1163.170898	142.131744
19334.041223	16904.637833	1162.041992	220.786514
19334.041223	16904.637833	1160.914063	389.554413
19334.041223	16904.637833	1159.785156	418.363647
19334.041223	16904.637833	1158.656250	306.060883
19334.041223	16904.637833	1157.526367	369.641937
19334.041223	16904.637833	1156.397461	203.131485
19334.041223	16904.637833	1155.267578	276.220642
19334.041223	16904.637833	1154.137695	62.864033
19334.041223	16904.637833	1153.006836	158.625427
19334.041223	16904.637833	1151.876953	57.311607
19334.041223	16904.637833	1150.746094	214.909836
19334.041223	16904.637833	1149.615234	338.252106
19334.041223	16904.637833	1148.484375	233.318619
19334.041223	16904.637833	1147.352539	230.686371
19334.041223	16904.637833	1146.220703	239.345917
19334.041223	16904.637833	1145.088867	45.105576
19334.041223	16904.637833	1143.957031	37.195583
19334.041223	16904.637833	1142.825195	50.662563
19334.041223	16904.637833	1141.692383	104.546021
19334.041223	16904.637833	1140.559570	111.182762
19334.041223	16904.637833	1139.426758	-146.480133
19334.041223	16904.637833	1138.292969	35.217648
19334.041223	16904.637833	1137.159180	9.814448
19334.041223	16904.637833	1136.025391	25.151903
19334.041223	16904.637833	1134.891602	109.589241
19334.041223	16904.637833	1133.757813	-138.387329
19334.041223	16904.637833	1132.623047	-207.496841
19334.041223	16904.637833	1131.488281	1.795706
19334.041223	16904.637833	1130.353516	280.878906
19334.041223	16904.637833	1129.217773	136.119400
19334.041223	16904.637833	1128.083008	229.088242
19334.041223	16904.637833	1126.947266	54.967983
19334.041223	16904.637833	1125.811523	169.104721
19334.041223	16904.637833	1124.674805	236.788589
19334.041223	16904.637833	1123.539063	-5.740500
19334.041223	16904.637833	1122.402344	71.058563
19334.041223	16904.637833	1121.265625	-149.248871
19334.041223	16904.637833	1120.127930	37.406250
19334.041223	16904.637833	1118.990234	150.554337
19334.041223	16904.637833	1117.853516	171.650070
19334.041223	16904.637833	1116.714844	74.831604
19334.041223	16904.637833	1115.577148	215.205063
19334.041223	16904.637833	1114.439453	-135.488770
19334.041223	16904.637833	1113.300781	-180.972397
19334.041223	16904.637833	1112.162109	-57.398300
19334.041223	16904.637833	1111.022461	82.200279
19334.041223	16904.637833	1109.883789	81.856903
19334.041223	16904.637833	1108.744141	-6.393536
19334.041223	16904.637833	1107.604492	48.261776
19334.041223	16904.637833	1106.463867	244.011902
19334.041223	16904.637833	1105.324219	122.311195
19334.041223	16904.637833	1104.183594	212.822662
19334.041223	16904.637833	1103.042969	-108.226326
19334.041223	16904.637833	1101.902344	71.178093
19334.041223	16904.637833	1100.760742	33.601501
19334.041223	16904.637833	1099.619141	-99.089752
19334.041223	16904.637833	1098.477539	119.930763
19334.041223	16904.637833	1097.335938	404.760956
19334.041223	16904.637833	1096.193359	313.610596
19334.041223	16904.637833	1095.051758	603.512085
19334.041223	16904.637833	1093.909180	300.603363
19334.041223	16904.637833	1092.765625	555.058167
19334.041223	16904.637833	1091.623047	402.026855
19334.041223	16904.637833	1090.479492	255.006058
19334.041223	16904.637833	1089.335938	485.910004
19334.041223	16904.637833	1088.192383	339.405090
19334.041223	16904.637833	1087.047852	338.151489
19334.041223	16904.637833	1085.903320	335.520813
19334.041223	16904.637833	1084.758789	200.652130
19334.041223	16904.637833	1083.614258	511.270416
19334.041223	16904.637833	1082.469727	259.389740
19334.041223	16904.637833	1081.324219	222.224594
19334.041223	16904.637833	1080.178711	124.203712
19334.041223	16904.637833	1079.033203	402.157623
19334.041223	16904.637833	1077.886719	284.997803
19334.041223	16904.637833	1076.740234	169.985321
19334.041223	16904.637833	1075.593750	-26.174221
19334.041223	16904.637833	1074.447266	277.312592
19334.041223	16904.637833	1073.300781	78.080986
19334.041223	16904.637833	1072.153320	198.280289
19334.041223	16904.637833	1071.005859	-57.806362
19334.041223	16904.637833	1069.858398	44.214108
19334.041223	16904.637833	1068.709961	349.914581
19334.041223	16904.637833	1067.561523	388.471069
19334.041223	16904.637833	1066.413086	-136.231125
19334.041223	16904.637833	1065.264648	288.164032
19334.041223	16904.637833	1064.116211	388.491028
19334.041223	16904.637833	1062.966797	383.707092
19334.041223	16904.637833	1061.817383	320.611847
19334.041223	16904.637833	1060.667969	107.629631
19334.041223	16904.637833	1059.517578	237.844421
19334.041223	16904.637833	1058.368164	189.078247
19334.041223	16904.637833	1057.217773	21.607721
19334.041223	16904.637833	1056.067383	223.666489
19334.041223	16904.637833	1054.916016	-1.939184
19334.041223	16904.637833	1053.764648	340.370239
19334.041223	16904.637833	1052.613281	196.718445
19334.041223	16904.637833	1051.461914	456.920502
19334.041223	16904.637833	1050.310547	194.363739
19334.041223	16904.637833	1049.158203	208.832565
19334.041223	16904.637833	1048.005859	226.766357
19334.041223	16904.637833	1046.853516	135.398193
19334.041223	16904.637833	1045.700195	415.272003
19334.041223	16904.637833	1044.547852	162.731491
19334.041223	16904.637833	1043.394531	137.318863
19334.041223	16904.637833	1042.240234	433.477905
19334.041223	16904.637833	1041.086914	460.414215
19334.041223	16904.637833	1039.932617	419.362854
19334.041223	16904.637833	1038.778320	437.847870
19334.041223	16904.637833	1037.624023	426.356323
19334.041223	16904.637833	1036.469727	438.818573
19334.041223	16904.637833	1035.314453	659.906799
19334.041223	16904.637833	1034.159180	670.826965
19334.041223	16904.637833	1033.003906	812.199036
19334.041223	16904.637833	1031.847656	936.103088
19334.041223	16904.637833	1030.692383	1011.998108
19334.041223	16904.637833	1029.536133	1192.545532
19334.041223	16904.637833	1028.378906	923.906067
19334.041223	16904.637833	1027.222656	736.037170
19334.041223	16904.637833	1026.065430	603.662292
19334.041223	16904.637833	1024.908203	492.835846
19334.041223	16904.637833	1023.750977	387.878876
19334.041223	16904.637833	1022.593750	383.784271
19334.041223	16904.637833	1021.435547	155.492920
19334.041223	16904.637833	1020.277344	149.071136
19334.041223	16904.637833	1019.119141	176.459167
19334.041223	16904.637833	1017.959961	-15.847710
19334.041223	16904.637833	1016.800781	-261.636414
19334.041223	16904.637833	1015.641602	184.918060
19334.041223	16904.637833	1014.482422	163.529327
19334.041223	16904.637833	1013.323242	-120.555771
19334.041223	16904.637833	1012.163086	174.368698
19334.041223	16904.637833	1011.002930	77.951714
19334.041223	16904.637833	1009.842773	-201.454407
19334.041223	16904.637833	1008.681641	142.902939
19334.041223	16904.637833	1007.520508	164.159241
19334.041223	16904.637833	1006.359375	-103.417137
19334.041223	16904.637833	1005.198242	65.285881
19334.041223	16904.637833	1004.037109	73.921387
19334.041223	16904.637833	1002.875000	115.685059
19334.041223	16904.637833	1001.712891	190.699020
19334.041223	16904.637833	1000.550781	158.167175
19334.041223	16904.637833	999.387695	78.154137
19334.041223	16904.637833	998.224609	-36.764648
19334.041223	16904.637833	997.061523	36.563923
19334.041223	16904.637833	995.898438	68.080063
19334.041223	16904.637833	994.734375	220.834488
19334.041223	16904.637833	993.571289	53.392021
19334.041223	16904.637833	992.407227	-204.332245
19334.041223	16904.637833	991.242188	55.379063
19334.041223	16904.637833	990.078125	-276.321014
19334.041223	16904.637833	988.913086	-13.675896
19334.041223	16904.637833	987.748047	-158.711243
19334.041223	16904.637833	986.583008	68.444801
19334.041223	16904.637833	985.416992	42.256573
19334.041223	16904.637833	984.250977	141.886108
19334.041223	16904.637833	983.084961	200.314606
19334.041223	16904.637833	981.918945	200.062347
19334.041223	16904.637833	980.751953	21.638351
19334.041223	16904.637833	979.584961	153.716599
19334.041223	16904.637833	978.417969	277.340759
19334.041223	16904.637833	977.250977	292.005707
19334.041223	16904.637833	976.083008	-19.570751
19334.041223	16904.637833	974.915039	279.920319
19334.041223	16904.637833	973.747070	-81.305580
19334.041223	16904.637833	972.579102	-86.900047
19334.041223	16904.637833	971.410156	251.225632
19334.041223	16904.637833	970.242188	-57.904732
19334.041223	16904.637833	969.072266	109.305534
19334.041223	16904.637833	967.903320	134.345123
19334.041223	16904.637833	966.733398	-151.031326
19334.041223	16904.637833	965.563477	262.133850
19334.041223	16904.637833	964.393555	119.958511
19334.041223	16904.637833	963.223633	91.718712
19334.041223	16904.637833	962.052734	227.383667
19334.041223	16904.637833	960.881836	-41.993122
19334.041223	16904.637833	959.710938	36.698376
19334.041223	16904.637833	958.540039	223.429504
19334.041223	16904.637833	957.368164	129.511108
19334.041223	16904.637833	956.196289	-10.376241
19334.041223	16904.637833	955.024414	240.723175
19334.041223	16904.637833	953.851563	45.094677
19334.041223	16904.637833	952.679688	-126.535637
19334.041223	16904.637833	951.506836	159.708847
19334.041223	16904.637833	950.333984	-78.668884
19334.041223	16904.637833	949.160156	20.907360
19334.041223	16904.637833	947.986328	-24.170687
19334.041223	16904.637833	946.812500	-83.990334
19334.041223	16904.637833	945.638672	-89.293198
19334.041223	16904.637833	944.464844	-129.307236
19334.041223	16904.637833	943.290039	62.121655
19334.041223	16904.637833	942.115234	29.633385
19334.041223	16904.637833	940.940430	-47.996113
19334.041223	16904.637833	939.764648	33.588306
19334.041223	16904.637833	938.588867	-155.694061
19334.041223	16904.637833	937.413086	-143.778244
19334.041223	16904.637833	936.237305	71.750320
19334.041223	16904.637833	935.060547	81.047409
19334.041223	16904.637833	933.883789	-88.235168
19334.041223	16904.637833	932.707031	75.041748
19334.041223	16904.637833	931.530273	168.728241
19334.041223	16904.637833	930.352539	-167.154846
19334.041223	16904.637833	929.175781	-210.087296
19334.041223	16904.637833	927.998047	-96.639244
19334.041223	16904.637833	926.819336	-17.857197
19334.041223	16904.637833	925.641602	-36.023567
19334.041223	16904.637833	924.462891	35.135094
19334.041223	16904.637833	923.284180	126.108643
19334.041223	16904.637833	922.104492	-36.041275
19334.041223	16904.637833	920.924805	-31.957586
19334.041223	16904.637833	919.746094	-24.113182
19334.041223	16904.637833	919.551758	-58.861744
19334.041223	16904.637833	918.386719	-151.643753
19334.041223	16904.637833	917.220703	-204.738510
19334.041223	16904.637833	916.054688	-203.302551
19334.041223	16904.637833	914.887695	48.428680
19334.041223	16904.637833	913.721680	-354.129578
19334.041223	16904.637833	912.554688	11.436133
19334.041223	16904.637833	911.387695	44.932236
19334.041223	16904.637833	910.220703	-124.672226
19334.041223	16904.637833	909.052734	-59.021088
19334.041223	16904.637833	907.885742	-85.013367
19334.041223	16904.637833	906.717773	64.699677
19334.041223	16904.637833	905.548828	-166.711838
19334.041223	16904.637833	904.380859	17.542595
19334.041223	16904.637833	903.211914	-80.252876
19334.041223	16904.637833	902.042969	9.901613
19334.041223	16904.637833	900.874023	-80.482002
19334.041223	16904.637833	899.704102	-141.182571
19334.041223	16904.637833	898.535156	-16.540249
19334.041223	16904.637833	897.365234	88.269836
19334.041223	16904.637833	896.194336	37.390381
19334.041223	16904.637833	895.024414	305.108246
19334.041223	16904.637833	893.853516	256.631012
19334.041223	16904.637833	892.682617	116.808197
19334.041223	16904.637833	891.511719	105.370430
19334.041223	16904.637833	890.340820	133.399857
19334.041223	16904.637833	889.168945	146.597839
19334.041223	16904.637833	887.997070	181.972168
19334.041223	16904.637833	886.825195	39.737782
19334.041223	16904.637833	885.653320	188.500244
19334.041223	16904.637833	884.480469	117.779129
19334.041223	16904.637833	883.307617	-61.382545
19334.041223	16904.637833	882.134766	-75.389046
19334.041223	16904.637833	880.961914	238.269440
19334.041223	16904.637833	879.788086	81.303802
19334.041223	16904.637833	878.614258	234.686752
19334.041223	16904.637833	877.440430	33.422188
19334.041223	16904.637833	876.266602	-32.384407
19334.041223	16904.637833	875.091797	-125.252731
19334.041223	16904.637833	873.916992	37.809483
19334.041223	16904.637833	872.742188	-131.344284
19334.041223	16904.637833	871.567383	176.733200
19334.041223	16904.637833	870.391602	66.604134
19334.041223	16904.637833	869.215820	160.571396
19334.041223	16904.637833	868.040039	-183.083862
19334.041223	16904.637833	866.864258	-148.131256
19334.041223	16904.637833	865.687500	41.592888
19334.041223	16904.637833	864.510742	-70.956207
19334.041223	16904.637833	863.333984	-75.409515
19334.041223	16904.637833	862.157227	1.156665
19334.041223	16904.637833	860.979492	-145.748428
19334.041223	16904.637833	859.802734	-64.337082
19334.041223	16904.637833	858.625000	-279.930573
19334.041223	16904.637833	857.446289	-34.161900
19334.041223	16904.637833	856.268555	86.364113
19334.041223	16904.637833	855.089844	-185.603622
19334.041223	16904.637833	853.911133	64.829681
19334.041223	16904.637833	852.731445	163.137894
19334.041223	16904.637833	851.552734	26.063999
19334.041223	16904.637833	850.373047	58.124290
19334.041223	16904.637833	849.193359	55.842487
19334.041223	16904.637833	848.013672	-7.701581
19334.041223	16904.637833	846.833008	136.936508
19334.041223	16904.637833	845.652344	-83.358154
19334.041223	16904.637833	844.471680	-14.706948
19334.041223	16904.637833	843.291016	149.346878
19334.041223	16904.637833	842.110352	-14.607136
19334.041223	16904.637833	840.928711	178.691696
19334.041223	16904.637833	839.747070	-229.863678
19334.041223	16904.637833	838.564453	124.762749
19334.041223	16904.637833	837.382813	92.880791
19334.041223	16904.637833	836.200195	-107.689224
19334.041223	16904.637833	835.017578	-144.448822
19334.041223	16904.637833	833.834961	-90.808510
19334.041223	16904.637833	832.651367	-68.976585
19334.041223	16904.637833	831.467773	50.523991
19334.041223	16904.637833	830.284180	194.364716
19334.041223	16904.637833	829.100586	86.631126
19334.041223	16904.637833	827.916992	-86.999428
19334.041223	16904.637833	826.732422	-9.202229
19334.041223	16904.637833	825.547852	224.697128
19334.041223	16904.637833	824.363281	-17.252947
19334.041223	16904.637833	823.177734	96.977242
19334.041223	16904.637833	821.992188	445.230133
19334.041223	16904.637833	820.806641	117.956421
19334.041223	16904.637833	819.621094	236.862717
19334.041223	16904.637833	818.434570	-114.665955
19334.041223	16904.637833	817.249023	245.389954
19334.041223	16904.637833	816.062500	10.865372
19334.041223	16904.637833	814.875000	41.882771
19334.041223	16904.637833	813.688477	155.637650
19334.041223	16904.637833	812.500977	-44.744255
19334.041223	16904.637833	811.313477	141.935150
19334.041223	16904.637833	810.125977	109.478104
19334.041223	16904.637833	808.937500	135.394333
19334.041223	16904.637833	807.749023	-4.151199
19334.041223	16904.637833	806.560547	-146.114075
19334.041223	16904.637833	805.372070	-86.237022
19334.041223	16904.637833	804.182617	185.077438
19334.041223	16904.637833	802.994141	-182.998108
19334.041223	16904.637833	801.803711	112.446861
19334.041223	16904.637833	800.614258	-78.184799
19334.041223	16904.637833	799.424805	8.130105
19334.041223	16904.637833	798.234375	-5.202567
19334.041223	16904.637833	797.043945	-142.400391
19334.041223	16904.637833	795.852539	-182.483383
19334.041223	16904.637833	794.662109	-249.294098
19334.041223	16904.637833	793.470703	52.710007
19334.041223	16904.637833	792.279297	201.702103
19334.041223	16904.637833	791.087891	-15.664081
19334.041223	16904.637833	789.895508	-22.010321
19334.041223	16904.637833	788.703125	-249.032471
19334.041223	16904.637833	787.510742	268.159515
19334.041223	16904.637833	786.318359	21.686169
19334.041223	16904.637833	785.125000	-67.238541
19334.041223	16904.637833	783.931641	112.720947
19334.041223	16904.637833	782.738281	43.087486
19334.041223	16904.637833	781.544922	-154.907089
19334.041223	16904.637833	780.350586	242.695175
19334.041223	16904.637833	779.156250	73.683136
19334.041223	16904.637833	777.961914	129.747589
19334.041223	16904.637833	776.767578	76.856712
19334.041223	16904.637833	775.572266	50.544449
19334.041223	16904.637833	774.376953	-14.507606
19334.041223	16904.637833	773.181641	75.158951
19334.041223	16904.637833	771.986328	-115.692802
19334.041223	16904.637833	770.790039	17.351765
19334.041223	16904.637833	769.593750	-28.535336
19334.041223	16904.637833	768.397461	-9.231634
19334.041223	16904.637833	767.201172	138.025970
19334.041223	16904.637833	766.003906	261.013214
19334.041223	16904.637833	764.806641	82.082031
19334.041223	16904.637833	763.609375	151.800201
19334.041223	16904.637833	762.412109	74.206207
19334.041223	16904.637833	761.213867	107.581490
19334.041223	16904.637833	760.015625	29.907064
19334.041223	16904.637833	758.817383	133.096436
19334.041223	16904.637833	757.618164	-36.313244
19334.041223	16904.637833	756.419922	348.797333
19334.041223	16904.637833	755.220703	111.790100
19334.041223	16904.637833	754.021484	207.388504
19334.041223	16904.637833	752.821289	235.416626
19334.041223	16904.637833	751.621094	142.918365
19334.041223	16904.637833	750.420898	50.391262
19334.041223	16904.637833	749.220703	5.992994
19334.041223	16904.637833	748.020508	-50.493744
19334.041223	16904.637833	746.819336	-133.501007
19334.041223	16904.637833	745.618164	144.419724
19334.041223	16904.637833	744.416992	-92.714447
19334.041223	16904.637833	743.214844	269.131042
19334.041223	16904.637833	742.012695	229.133438
19334.041223	16904.637833	740.810547	109.731720
19334.041223	16904.637833	739.608398	394.165680
19334.041223	16904.637833	738.406250	188.112564
19334.041223	16904.637833	737.203125	191.124313
19334.041223	16904.637833	736.000000	434.300385
19334.041223	16904.637833	734.795898	665.294128
19334.041223	16904.637833	733.592773	929.732971
19334.041223	16904.637833	732.388672	776.228821
19334.041223	16904.637833	731.184570	776.338379
19334.041223	16904.637833	729.979492	980.363220
19334.041223	16904.637833	728.775391	742.736145
19334.041223	16904.637833	727.570313	521.923889
19334.041223	16904.637833	726.365234	440.231537
19334.041223	16904.637833	725.160156	344.108002
19334.041223	16904.637833	723.954102	219.178879
19334.041223	16904.637833	722.748047	67.856834
19334.041223	16904.637833	721.541992	340.676758
19334.041223	16904.637833	720.334961	270.693726
19334.041223	16904.637833	719.128906	306.054474
19334.041223	16904.637833	717.921875	137.756119
19334.041223	16904.637833	716.714844	213.672745
19334.041223	16904.637833	715.506836	155.421722
19334.041223	16904.637833	714.298828	-22.558283
19334.041223	16904.637833	713.090820	81.816513
19334.041223	16904.637833	711.882813	217.163101
19334.041223	16904.637833	710.674805	-32.717930
19334.041223	16904.637833	709.465820	-72.137161
19334.041223	16904.637833	708.256836	10.311260
19334.041223	16904.637833	707.047852	200.209229
19334.041223	16904.637833	705.837891	-16.334072
19334.041223	16904.637833	704.627930	29.960495
19334.041223	16904.637833	703.417969	178.872147
19334.041223	16904.637833	702.208008	-262.286682
19334.041223	16904.637833	700.998047	98.978104
19334.041223	16904.637833	699.787109	-62.826141
19334.041223	16904.637833	698.576172	-95.755791
19334.041223	16904.637833	697.364258	-95.346542
19334.041223	16904.637833	696.153320	107.775696
19334.041223	16904.637833	694.941406	177.148865
19334.041223	16904.637833	693.729492	-204.329941
19334.041223	16904.637833	692.516602	34.197910
19334.041223	16904.637833	691.304688	-3.982723
19334.041223	16904.637833	690.091797	-39.849987
19334.041223	16904.637833	688.878906	-51.957619
19334.041223	16904.637833	687.665039	31.148531
19334.041223	16904.637833	686.451172	223.701996
19334.041223	16904.637833	685.237305	249.394394
19334.041223	16904.637833	684.023438	110.716164
19334.041223	16904.637833	682.809570	269.554260
19334.041223	16904.637833	681.594727	-38.207741
19334.041223	16904.637833	680.379883	241.775513
19334.041223	16904.637833	679.165039	257.504272
19334.041223	16904.637833	677.949219	32.932369
19334.041223	16904.637833	676.733398	400.452209
19334.041223	16904.637833	675.517578	-199.840134
19334.041223	16904.637833	674.301758	165.034241
19334.041223	16904.637833	673.084961	-45.400738
19334.041223	16904.637833	671.869141	72.038689
19334.041223	16904.637833	670.651367	507.638214
19334.041223	16904.637833	669.434570	199.654099
19334.041223	16904.637833	668.216797	74.539818
19334.041223	16904.637833	667.000000	317.346893
19334.041223	16904.637833	665.781250	215.835022
19334.041223	16904.637833	664.563477	270.895996
19334.041223	16904.637833	663.344727	-22.880356
19334.041223	16904.637833	662.125977	190.963882
19334.041223	16904.637833	660.907227	262.359009
19334.041223	16904.637833	659.688477	378.696320
19334.041223	16904.637833	658.468750	554.163330
19334.041223	16904.637833	657.249023	634.687073
19334.041223	16904.637833	656.029297	674.824829
19334.041223	16904.637833	654.808594	281.373535
19334.041223	16904.637833	653.587891	352.209564
19334.041223	16904.637833	652.367188	439.515350
19334.041223	16904.637833	651.146484	235.533936
19334.041223	16904.637833	649.924805	464.692810
19334.041223	16904.637833	648.704102	471.254669
19334.041223	16904.637833	647.482422	695.395935
19334.041223	16904.637833	646.259766	893.353760
19334.041223	16904.637833	645.037109	450.292267
19334.041223	16904.637833	643.815430	281.617950
19334.041223	16904.637833	642.591797	396.601379
19334.041223	16904.637833	641.369141	563.468140
19334.041223	16904.637833	640.145508	250.542648
19334.041223	16904.637833	638.921875	606.225769
19334.041223	16904.637833	637.698242	205.913147
19334.041223	16904.637833	636.474609	145.740555
19334.041223	16904.637833	635.250000	191.768097
19334.041223	16904.637833	634.025391	166.906616
19334.041223	16904.637833	632.800781	340.223694
19334.041223	16904.637833	631.575195	433.191406
19334.041223	16904.637833	630.349609	136.859497
19334.041223	16904.637833	629.124023	100.014359
19334.041223	16904.637833	627.898438	284.766602
19334.041223	16904.637833	626.671875	438.742584
19334.041223	16904.637833	625.445313	227.293045
19334.041223	16904.637833	624.218750	282.151733
19334.041223	16904.637833	622.992188	311.023071
19334.041223	16904.637833	621.764648	434.047058
19334.041223	16904.637833	620.537109	257.908630
19334.041223	16904.637833	619.309570	55.906086
19334.041223	16904.637833	618.081055	343.538696
19334.041223	16904.637833	616.852539	153.282623
19334.041223	16904.637833	615.624023	66.592445
19334.041223	16904.637833	614.395508	243.362198
19334.041223	16904.637833	613.166992	163.669571
19334.041223	16904.637833	611.937500	41.650494
19334.041223	16904.637833	610.708008	-87.404175
19334.041223	16904.637833	609.477539	218.371994
19334.041223	16904.637833	608.248047	56.373810
19334.041223	16904.637833	607.017578	-11.612720
19334.041223	16904.637833	605.787109	-154.761444
19334.041223	16904.637833	604.555664	44.977665
19334.041223	16904.637833	603.325195	42.696880
19334.041223	16904.637833	602.093750	-69.933105
19334.041223	16904.637833	600.861328	38.061974
19334.041223	16904.637833	599.629883	26.335085
19334.041223	16904.637833	598.397461	-86.282974
19334.041223	16904.637833	597.165039	-105.053719
19334.041223	16904.637833	595.932617	-257.485229
19334.041223	16904.637833	594.699219	-358.295044
19334.041223	16904.637833	593.465820	-266.877472
19334.041223	16904.637833	592.232422	16.646175
19334.041223	16904.637833	590.999023	-109.954788
19334.041223	16904.637833	589.764648	-156.872513
19334.041223	16904.637833	588.530273	-121.809830
19334.041223	16904.637833	587.295898	-196.807938
19334.041223	16904.637833	586.061523	-353.703003
19334.041223	16904.637833	584.826172	-2.679287
19334.041223	16904.637833	583.590820	-391.193542
19334.041223	16904.637833	582.355469	-171.308426
19334.041223	16904.637833	581.119141	69.537849
19334.041223	16904.637833	579.882813	123.220619
19334.041223	16904.637833	578.646484	146.497498
19334.041223	16904.637833	577.410156	480.647583
19334.041223	16904.637833	576.172852	90.236649
19334.041223	16904.637833	574.935547	27.096996
19334.041223	16904.637833	573.698242	-24.316509
19334.041223	16904.637833	572.460938	43.413883
19334.041223	16904.637833	571.222656	-99.007332
19334.041223	16904.637833	569.984375	62.123146
19334.041223	16904.637833	568.746094	-63.857037
19334.041223	16904.637833	567.506836	-208.426941
19334.041223	16904.637833	566.267578	125.329521
19334.041223	16904.637833	565.028320	167.427704
19334.041223	16904.637833	563.789063	22.988417
19334.041223	16904.637833	562.548828	76.806068
19334.041223	16904.637833	561.309570	240.191284
19334.041223	16904.637833	560.068359	184.477234
19334.041223	16904.637833	558.828125	215.037064
19334.041223	16904.637833	557.586914	289.876007
19334.041223	16904.637833	556.345703	171.425461
19334.041223	16904.637833	555.104492	153.190796
19334.041223	16904.637833	553.863281	302.614929
19334.041223	16904.637833	552.621094	209.966980
19334.041223	16904.637833	551.378906	110.426079
19334.041223	16904.637833	550.136719	13.300268
19334.041223	16904.637833	548.893555	148.854782
19334.041223	16904.637833	547.650391	61.163097
19334.041223	16904.637833	546.407227	117.704994
19334.041223	16904.637833	545.164063	255.630157
19334.041223	16904.637833	543.919922	240.170654
19334.041223	16904.637833	542.675781	48.194530
19334.041223	16904.637833	541.431641	-138.996338
19334.041223	16904.637833	540.186523	45.535221
19334.041223	16904.637833	538.941406	118.594444
19334.041223	16904.637833	537.696289	368.112000
19334.041223	16904.637833	536.451172	-83.336990
19334.041223	16904.637833	535.205078	-105.252899
19334.041223	16904.637833	533.959961	341.533569
19334.041223	16904.637833	532.712891	131.785278
19334.041223	16904.637833	531.466797	114.666534
19334.041223	16904.637833	530.219727	250.634766
19334.041223	16904.637833	528.972656	342.570526
19334.041223	16904.637833	527.725586	358.058228
19334.041223	16904.637833	526.478516	202.151031
19334.041223	16904.637833	525.230469	271.071106
19334.041223	16904.637833	523.982422	157.069580
19334.041223	16904.637833	522.734375	-158.259644
19334.041223	16904.637833	521.485352	-84.475723
19334.041223	16904.637833	520.236328	-87.033012
19334.041223	16904.637833	518.987305	-73.324211
19334.041223	16904.637833	517.737305	-138.211304
19334.041223	16904.637833	516.488281	-165.994400
19334.041223	16904.637833	515.238281	9.795957
19334.041223	16904.637833	513.988281	100.036659
19334.041223	16904.637833	512.737305	56.236645
19334.041223	16904.637833	511.486328	460.850616
19334.041223	16904.637833	510.235352	139.862122
19334.041223	16904.637833	508.984375	121.686249
19334.041223	16904.637833	507.732422	334.526978
19334.041223	16904.637833	506.480469	309.512177
19334.041223	16904.637833	505.228516	386.142487
19334.041223	16904.637833	503.976563	492.803192
19334.041223	16904.637833	502.723633	435.641327
19334.041223	16904.637833	501.470703	367.024292
19334.041223	16904.637833	500.217773	519.917053
19334.041223	16904.637833	498.963867	841.134216
19334.041223	16904.637833	497.709961	578.966553
19334.041223	16904.637833	496.456055	586.646118
19334.041223	16904.637833	495.202148	377.742706
19334.041223	16904.637833	493.947266	777.236633
19334.041223	16904.637833	492.692383	796.515320
19334.041223	16904.637833	491.437500	620.064209
19334.041223	16904.637833	490.181641	591.083801
19334.041223	16904.637833	488.926758	720.991699
19334.041223	16904.637833	487.670898	445.795349
19334.041223	16904.637833	486.414063	709.188354
19334.041223	16904.637833	485.158203	901.171631
19334.041223	16904.637833	483.901367	927.482544
19334.041223	16904.637833	482.644531	967.591003
19334.041223	16904.637833	481.386719	816.866211
19334.041223	16904.637833	480.128906	937.441528
19334.041223	16904.637833	478.871094	989.021179
19334.041223	16904.637833	477.613281	925.691895
19334.041223	16904.637833	476.355469	1046.145630
19334.041223	16904.637833	475.096680	1210.164673
19334.041223	16904.637833	473.837891	655.406616
19334.041223	16904.637833	472.578125	1262.438354
19334.041223	16904.637833	471.319336	1277.031860
19334.041223	16904.637833	470.059570	832.652405
19334.041223	16904.637833	468.799805	1019.300537
19334.041223	16904.637833	467.539063	1079.661133
19334.041223	16904.637833	466.278320	1286.693115
19334.041223	16904.637833	465.017578	1252.838379
19334.041223	16904.637833	463.756836	962.198303
19334.041223	16904.637833	462.495117	1210.132324
19334.041223	16904.637833	461.233398	1084.406982
19334.041223	16904.637833	459.971680	1286.195435
19334.041223	16904.637833	458.709961	1109.908569
19334.041223	16904.637833	457.447266	1196.884644
19334.041223	16904.637833	456.184570	1182.965576
19334.041223	16904.637833	454.921875	1358.871948
19334.041223	16904.637833	453.658203	1385.815674
19334.041223	16904.637833	452.394531	1069.432861
19334.041223	16904.637833	451.130859	1219.597534
19334.041223	16904.637833	449.867188	1513.575562
19334.041223	16904.637833	448.602539	1500.874023
19334.041223	16904.637833	447.337891	1545.110596
19334.041223	16904.637833	446.073242	1305.739624
19334.041223	16904.637833	444.807617	1365.534058
19334.041223	16904.637833	443.542969	1299.423096
19334.041223	16904.637833	442.276367	1347.259155
19334.041223	16904.637833	441.010742	1312.605835
19334.041223	16904.637833	439.744141	1373.548340
19334.041223	16904.637833	438.478516	1454.703369
19334.041223	16904.637833	437.210938	1480.731567
19334.041223	16904.637833	435.944336	1330.758057
19334.041223	16904.637833	434.676758	1212.422974
19334.041223	16904.637833	433.409180	1223.745972
19334.041223	16904.637833	432.141602	1136.645752
19334.041223	16904.637833	430.873047	1261.145508
19334.041223	16904.637833	429.604492	1410.237061
19334.041223	16904.637833	428.335938	1549.708740
19334.041223	16904.637833	427.067383	1403.932373
19334.041223	16904.637833	425.797852	1494.574341
19334.041223	16904.637833	424.528320	1261.368042
19334.041223	16904.637833	423.258789	1350.978638
19334.041223	16904.637833	421.988281	1264.761230
19334.041223	16904.637833	420.717773	1348.667358
19334.041223	16904.637833	419.447266	885.987732
19334.041223	16904.637833	418.175781	1673.783203
19334.041223	16904.637833	416.905273	1619.285400
19334.041223	16904.637833	415.633789	1466.391113
19334.041223	16904.637833	414.362305	1394.701660
19334.041223	16904.637833	413.089844	1447.306885
19334.041223	16904.637833	411.817383	1271.968262
19334.041223	16904.637833	410.544922	1511.608765
19334.041223	16904.637833	409.272461	1430.163086
19334.041223	16904.637833	407.999023	1288.893799
19334.041223	16904.637833	406.725586	1564.505371
19334.041223	16904.637833	405.452148	1496.442017
19334.041223	16904.637833	404.177734	1559.087402
19334.041223	16904.637833	402.903320	1319.069702
19334.041223	16904.637833	401.628906	1840.223633
19334.041223	16904.637833	400.354492	1757.010132
19334.041223	16904.637833	399.079102	1500.496704
19334.041223	16904.637833	397.803711	1385.817261
19334.041223	16904.637833	396.528320	1247.432739
19334.041223	16904.637833	395.251953	1431.917358
19334.041223	16904.637833	393.976563	1531.373901
19334.041223	16904.637833	392.700195	1113.252319
19334.041223	16904.637833	391.422852	1447.960938
19334.041223	16904.637833	390.145508	1389.653442
19334.041223	16904.637833	388.869141	1280.291626
19334.041223	16904.637833	387.590820	1110.737671
19334.041223	16904.637833	386.313477	1270.144653
19334.041223	16904.637833	385.035156	1249.348267
19334.041223	16904.637833	383.756836	1231.596924
19334.041223	16904.637833	382.478516	1155.811157
19334.041223	16904.637833	381.199219	1270.560791
19334.041223	16904.637833	379.919922	1189.315430
19334.041223	16904.637833	378.640625	833.092712
19334.041223	16904.637833	377.360352	1134.785645
19334.041223	16904.637833	376.080078	1226.841431
19334.041223	16904.637833	374.799805	1222.227783
19334.041223	16904.637833	373.519531	1157.071899
19334.041223	16904.637833	372.238281	1516.493774
19334.041223	16904.637833	370.957031	1233.051147
19334.041223	16904.637833	369.675781	1308.618286
19334.041223	16904.637833	368.394531	1431.696899
19334.041223	16904.637833	367.112305	966.332397
19334.041223	16904.637833	365.830078	1157.205444
19334.041223	16904.637833	364.546875	1320.912476
19334.041223	16904.637833	363.264648	855.910461
19334.041223	16904.637833	361.981445	1159.123657
19334.041223	16904.637833	360.698242	1025.102295
19334.041223	16904.637833	359.414063	994.428955
19334.041223	16904.637833	358.129883	821.641357
19334.041223	16904.637833	356.845703	1136.977539
19334.041223	16904.637833	355.561523	970.193665
19334.041223	16904.637833	354.276367	1066.141113
19334.041223	16904.637833	352.991211	925.305542
19334.041223	16904.637833	351.706055	592.746338
19334.041223	16904.637833	350.420898	540.662231
19334.041223	16904.637833	349.134766	822.665833
19334.041223	16904.637833	347.848633	627.260071
19334.041223	16904.637833	346.561523	779.183044
19334.041223	16904.637833	345.275391	691.998169
19334.041223	16904.637833	343.988281	801.315613
19334.041223	16904.637833	342.700195	673.562622
19334.041223	16904.637833	341.413086	302.258881
19334.041223	16904.637833	340.125000	472.828918
19334.041223	16904.637833	338.836914	433.224274
19334.041223	16904.637833	337.548828	571.604614
19334.041223	16904.637833	336.259766	347.122681
19334.041223	16904.637833	334.970703	273.540283
19334.041223	16904.637833	333.681641	581.584839
19334.041223	16904.637833	332.391602	488.543823
19334.041223	16904.637833	331.101563	156.040604
19334.041223	16904.637833	329.811523	327.969727
19334.041223	16904.637833	328.521484	125.837524
19334.041223	16904.637833	327.230469	158.802734
19334.041223	16904.637833	325.939453	158.051407
19334.041223	16904.637833	324.648438	51.875946
19334.041223	16904.637833	323.356445	-5.475082
19334.041223	16904.637833	322.064453	203.033203
19334.041223	16904.637833	320.772461	140.230988
19334.041223	16904.637833	319.480469	-5.943834
19334.041223	16904.637833	318.187500	-291.598846
19334.041223	16904.637833	316.894531	-372.334229
19334.041223	16904.637833	315.601563	-176.873718
19334.041223	16904.637833	314.307617	-121.313461
19334.041223	16904.637833	313.013672	40.229191
19334.041223	16904.637833	311.719727	-177.135391
19334.041223	16904.637833	310.425781	30.650539
19334.041223	16904.637833	309.130859	57.957840
19334.041223	16904.637833	307.835938	43.340458
19334.041223	16904.637833	306.541016	-202.989655
19334.041223	16904.637833	305.245117	-23.011976
19334.041223	16904.637833	303.949219	-83.926743
19334.041223	16904.637833	302.653320	26.876091
19334.041223	16904.637833	301.356445	39.141781
19334.041223	16904.637833	300.060547	29.003250
19334.041223	16904.637833	298.763672	408.227966
