#X		#Y		#Wave		#Intensity
19334.764255	16915.655333	2000.043945	-510.100861
19334.764255	16915.655333	1999.080078	-185.631180
19334.764255	16915.655333	1998.116211	25.819094
19334.764255	16915.655333	1997.151367	-38.050835
19334.764255	16915.655333	1996.186523	-52.515106
19334.764255	16915.655333	1995.222656	324.258118
19334.764255	16915.655333	1994.256836	-94.287170
19334.764255	16915.655333	1993.291992	-223.108093
19334.764255	16915.655333	1992.327148	41.637928
19334.764255	16915.655333	1991.361328	61.097343
19334.764255	16915.655333	1990.395508	21.019432
19334.764255	16915.655333	1989.429688	594.508240
19334.764255	16915.655333	1988.463867	34.562065
19334.764255	16915.655333	1987.497070	-75.083817
19334.764255	16915.655333	1986.531250	-21.585102
19334.764255	16915.655333	1985.564453	187.584641
19334.764255	16915.655333	1984.597656	159.252609
19334.764255	16915.655333	1983.630859	-86.669533
19334.764255	16915.655333	1982.664063	166.612549
19334.764255	16915.655333	1981.696289	150.414612
19334.764255	16915.655333	1980.728516	32.864426
19334.764255	16915.655333	1979.761719	572.269592
19334.764255	16915.655333	1978.792969	49.574165
19334.764255	16915.655333	1977.825195	-23.641041
19334.764255	16915.655333	1976.857422	379.536560
19334.764255	16915.655333	1975.888672	126.023041
19334.764255	16915.655333	1974.919922	-9.003424
19334.764255	16915.655333	1973.951172	87.894760
19334.764255	16915.655333	1972.982422	256.248810
19334.764255	16915.655333	1972.013672	278.996094
19334.764255	16915.655333	1971.043945	225.274490
19334.764255	16915.655333	1970.075195	174.002472
19334.764255	16915.655333	1969.105469	322.385590
19334.764255	16915.655333	1968.135742	211.933411
19334.764255	16915.655333	1967.165039	350.369202
19334.764255	16915.655333	1966.195313	161.083832
19334.764255	16915.655333	1965.224609	540.825134
19334.764255	16915.655333	1964.253906	299.848389
19334.764255	16915.655333	1963.283203	258.386810
19334.764255	16915.655333	1962.312500	172.622574
19334.764255	16915.655333	1961.341797	234.562073
19334.764255	16915.655333	1960.370117	116.853508
19334.764255	16915.655333	1959.399414	387.906586
19334.764255	16915.655333	1958.427734	-115.969154
19334.764255	16915.655333	1957.455078	-93.342003
19334.764255	16915.655333	1956.483398	421.060699
19334.764255	16915.655333	1955.511719	659.933533
19334.764255	16915.655333	1954.539063	-47.587513
19334.764255	16915.655333	1953.566406	154.458710
19334.764255	16915.655333	1952.593750	238.499542
19334.764255	16915.655333	1951.621094	-136.858078
19334.764255	16915.655333	1950.647461	-384.326202
19334.764255	16915.655333	1949.674805	53.445122
19334.764255	16915.655333	1948.701172	-105.539993
19334.764255	16915.655333	1947.727539	307.522766
19334.764255	16915.655333	1946.753906	367.032867
19334.764255	16915.655333	1945.780273	-179.567352
19334.764255	16915.655333	1944.805664	243.169830
19334.764255	16915.655333	1943.831055	-114.264175
19334.764255	16915.655333	1942.856445	153.850082
19334.764255	16915.655333	1941.881836	-215.643036
19334.764255	16915.655333	1940.907227	103.924957
19334.764255	16915.655333	1939.932617	-142.808762
19334.764255	16915.655333	1938.957031	-75.724876
19334.764255	16915.655333	1937.981445	140.823654
19334.764255	16915.655333	1937.005859	-235.526184
19334.764255	16915.655333	1936.030273	150.034363
19334.764255	16915.655333	1935.054688	28.563992
19334.764255	16915.655333	1934.078125	-73.236176
19334.764255	16915.655333	1933.101563	79.620300
19334.764255	16915.655333	1932.125000	594.672363
19334.764255	16915.655333	1931.148438	-226.513657
19334.764255	16915.655333	1930.171875	48.698658
19334.764255	16915.655333	1929.194336	-199.622528
19334.764255	16915.655333	1928.217773	-49.192463
19334.764255	16915.655333	1927.240234	-412.273132
19334.764255	16915.655333	1926.262695	-161.554504
19334.764255	16915.655333	1925.284180	235.758011
19334.764255	16915.655333	1924.306641	-156.414566
19334.764255	16915.655333	1923.328125	-76.838120
19334.764255	16915.655333	1922.350586	-126.748085
19334.764255	16915.655333	1921.372070	-389.101776
19334.764255	16915.655333	1920.392578	-219.087357
19334.764255	16915.655333	1919.414063	275.602417
19334.764255	16915.655333	1918.434570	-3.689017
19334.764255	16915.655333	1917.456055	222.349365
19334.764255	16915.655333	1916.476563	189.674301
19334.764255	16915.655333	1915.497070	325.368469
19334.764255	16915.655333	1914.516602	387.866760
19334.764255	16915.655333	1913.537109	-83.758430
19334.764255	16915.655333	1912.556641	-99.206627
19334.764255	16915.655333	1911.576172	116.971802
19334.764255	16915.655333	1910.595703	-49.603241
19334.764255	16915.655333	1909.615234	17.852184
19334.764255	16915.655333	1908.633789	-348.402954
19334.764255	16915.655333	1907.653320	55.281494
19334.764255	16915.655333	1906.671875	188.483246
19334.764255	16915.655333	1905.690430	199.878220
19334.764255	16915.655333	1904.708984	-158.800583
19334.764255	16915.655333	1903.727539	339.519623
19334.764255	16915.655333	1902.745117	134.296875
19334.764255	16915.655333	1901.762695	-333.652435
19334.764255	16915.655333	1900.780273	-30.196978
19334.764255	16915.655333	1899.797852	319.364807
19334.764255	16915.655333	1898.815430	-97.292809
19334.764255	16915.655333	1897.832031	439.381775
19334.764255	16915.655333	1896.849609	88.487564
19334.764255	16915.655333	1895.866211	-225.815948
19334.764255	16915.655333	1894.882813	135.584335
19334.764255	16915.655333	1893.898438	18.189127
19334.764255	16915.655333	1892.915039	134.027145
19334.764255	16915.655333	1891.930664	43.363136
19334.764255	16915.655333	1890.947266	-307.125732
19334.764255	16915.655333	1889.962891	-142.776382
19334.764255	16915.655333	1888.977539	256.967957
19334.764255	16915.655333	1887.993164	93.464249
19334.764255	16915.655333	1887.007813	-125.800415
19334.764255	16915.655333	1886.023438	246.945023
19334.764255	16915.655333	1885.038086	110.152420
19334.764255	16915.655333	1884.051758	252.288605
19334.764255	16915.655333	1883.066406	-131.840073
19334.764255	16915.655333	1882.081055	-125.545792
19334.764255	16915.655333	1881.094727	164.308365
19334.764255	16915.655333	1880.108398	-229.375336
19334.764255	16915.655333	1879.122070	-237.704239
19334.764255	16915.655333	1878.135742	83.382278
19334.764255	16915.655333	1877.148438	79.767014
19334.764255	16915.655333	1876.162109	277.092743
19334.764255	16915.655333	1875.174805	297.564331
19334.764255	16915.655333	1874.187500	-267.818024
19334.764255	16915.655333	1873.199219	-24.683470
19334.764255	16915.655333	1872.211914	63.435307
19334.764255	16915.655333	1871.223633	323.246735
19334.764255	16915.655333	1870.236328	604.663696
19334.764255	16915.655333	1869.248047	-306.336151
19334.764255	16915.655333	1868.258789	-138.649338
19334.764255	16915.655333	1867.270508	-145.151764
19334.764255	16915.655333	1866.282227	133.492035
19334.764255	16915.655333	1865.292969	112.316528
19334.764255	16915.655333	1864.303711	37.931740
19334.764255	16915.655333	1863.314453	16.648264
19334.764255	16915.655333	1862.324219	-36.089508
19334.764255	16915.655333	1861.334961	147.757446
19334.764255	16915.655333	1860.344727	-62.064766
19334.764255	16915.655333	1859.354492	389.511261
19334.764255	16915.655333	1858.364258	389.530548
19334.764255	16915.655333	1857.374023	145.764618
19334.764255	16915.655333	1856.383789	160.141312
19334.764255	16915.655333	1855.392578	381.870117
19334.764255	16915.655333	1854.401367	584.136047
19334.764255	16915.655333	1853.410156	29.140461
19334.764255	16915.655333	1852.418945	-77.349022
19334.764255	16915.655333	1851.426758	560.876770
19334.764255	16915.655333	1850.435547	630.050232
19334.764255	16915.655333	1849.443359	537.685120
19334.764255	16915.655333	1848.451172	257.365570
19334.764255	16915.655333	1847.458984	434.652252
19334.764255	16915.655333	1846.466797	-618.702637
19334.764255	16915.655333	1845.473633	466.110992
19334.764255	16915.655333	1844.480469	219.306671
19334.764255	16915.655333	1843.487305	692.062317
19334.764255	16915.655333	1842.494141	250.196457
19334.764255	16915.655333	1841.500977	-3.972252
19334.764255	16915.655333	1840.506836	52.123722
19334.764255	16915.655333	1839.513672	281.223022
19334.764255	16915.655333	1838.519531	224.009186
19334.764255	16915.655333	1837.525391	380.645752
19334.764255	16915.655333	1836.530273	-263.233795
19334.764255	16915.655333	1835.536133	229.606308
19334.764255	16915.655333	1834.541016	441.051880
19334.764255	16915.655333	1833.545898	236.731750
19334.764255	16915.655333	1832.550781	-164.570465
19334.764255	16915.655333	1831.555664	589.112427
19334.764255	16915.655333	1830.560547	617.364868
19334.764255	16915.655333	1829.564453	333.444550
19334.764255	16915.655333	1828.568359	327.875702
19334.764255	16915.655333	1827.572266	446.941925
19334.764255	16915.655333	1826.576172	561.024597
19334.764255	16915.655333	1825.580078	336.747314
19334.764255	16915.655333	1824.583008	42.878975
19334.764255	16915.655333	1823.585938	36.686649
19334.764255	16915.655333	1822.588867	-187.784164
19334.764255	16915.655333	1821.591797	146.105789
19334.764255	16915.655333	1820.594727	31.632561
19334.764255	16915.655333	1819.596680	147.052750
19334.764255	16915.655333	1818.599609	425.157684
19334.764255	16915.655333	1817.601563	243.203964
19334.764255	16915.655333	1816.603516	681.311340
19334.764255	16915.655333	1815.604492	791.138306
19334.764255	16915.655333	1814.606445	367.016510
19334.764255	16915.655333	1813.607422	361.685822
19334.764255	16915.655333	1812.608398	717.481506
19334.764255	16915.655333	1811.609375	329.031403
19334.764255	16915.655333	1810.610352	96.025764
19334.764255	16915.655333	1809.610352	192.942612
19334.764255	16915.655333	1808.611328	308.787415
19334.764255	16915.655333	1807.611328	622.821838
19334.764255	16915.655333	1806.611328	-279.867737
19334.764255	16915.655333	1805.610352	57.727341
19334.764255	16915.655333	1804.610352	-185.487640
19334.764255	16915.655333	1803.609375	543.345459
19334.764255	16915.655333	1802.608398	132.630173
19334.764255	16915.655333	1801.607422	115.857742
19334.764255	16915.655333	1800.606445	-72.949226
19334.764255	16915.655333	1799.605469	-56.604053
19334.764255	16915.655333	1798.603516	570.447876
19334.764255	16915.655333	1797.601563	340.587616
19334.764255	16915.655333	1796.599609	-8.631008
19334.764255	16915.655333	1795.597656	188.256195
19334.764255	16915.655333	1794.595703	196.518036
19334.764255	16915.655333	1793.592773	693.321777
19334.764255	16915.655333	1792.589844	388.889099
19334.764255	16915.655333	1791.587891	329.856628
19334.764255	16915.655333	1790.583984	399.327942
19334.764255	16915.655333	1789.581055	363.776398
19334.764255	16915.655333	1788.577148	632.922729
19334.764255	16915.655333	1787.574219	544.596375
19334.764255	16915.655333	1786.570313	394.216553
19334.764255	16915.655333	1785.566406	331.791656
19334.764255	16915.655333	1784.561523	-118.727257
19334.764255	16915.655333	1783.557617	323.053101
19334.764255	16915.655333	1782.552734	-101.488220
19334.764255	16915.655333	1781.547852	92.380516
19334.764255	16915.655333	1780.542969	57.690254
19334.764255	16915.655333	1779.538086	270.108704
19334.764255	16915.655333	1778.532227	330.117249
19334.764255	16915.655333	1777.527344	23.896709
19334.764255	16915.655333	1776.521484	33.656139
19334.764255	16915.655333	1775.515625	71.737907
19334.764255	16915.655333	1774.508789	161.872864
19334.764255	16915.655333	1773.502930	68.919044
19334.764255	16915.655333	1772.496094	42.295200
19334.764255	16915.655333	1771.489258	-167.303940
19334.764255	16915.655333	1770.482422	-153.894012
19334.764255	16915.655333	1769.475586	4.087453
19334.764255	16915.655333	1768.467773	365.874329
19334.764255	16915.655333	1767.460938	34.635551
19334.764255	16915.655333	1766.453125	142.119934
19334.764255	16915.655333	1765.445313	109.464836
19334.764255	16915.655333	1764.437500	254.451660
19334.764255	16915.655333	1763.428711	107.626007
19334.764255	16915.655333	1762.420898	-157.825653
19334.764255	16915.655333	1761.412109	249.586075
19334.764255	16915.655333	1760.403320	398.421417
19334.764255	16915.655333	1759.393555	279.350433
19334.764255	16915.655333	1758.384766	176.721252
19334.764255	16915.655333	1757.375000	189.955551
19334.764255	16915.655333	1756.366211	153.296738
19334.764255	16915.655333	1755.356445	168.529144
19334.764255	16915.655333	1754.345703	138.597961
19334.764255	16915.655333	1753.335938	4.400097
19334.764255	16915.655333	1752.325195	250.906403
19334.764255	16915.655333	1751.315430	-250.212051
19334.764255	16915.655333	1750.304688	-346.988953
19334.764255	16915.655333	1749.292969	156.579651
19334.764255	16915.655333	1748.282227	-210.068436
19334.764255	16915.655333	1747.270508	151.118088
19334.764255	16915.655333	1746.259766	-92.883156
19334.764255	16915.655333	1745.248047	622.130859
19334.764255	16915.655333	1744.235352	361.214966
19334.764255	16915.655333	1743.223633	-29.652109
19334.764255	16915.655333	1742.211914	-80.564003
19334.764255	16915.655333	1741.199219	229.517776
19334.764255	16915.655333	1740.186523	-76.686241
19334.764255	16915.655333	1739.173828	164.488815
19334.764255	16915.655333	1738.160156	-257.547882
19334.764255	16915.655333	1737.147461	77.563477
19334.764255	16915.655333	1736.133789	-33.355801
19334.764255	16915.655333	1735.120117	-78.388916
19334.764255	16915.655333	1734.106445	-599.773193
19334.764255	16915.655333	1733.091797	-378.701752
19334.764255	16915.655333	1732.078125	68.343269
19334.764255	16915.655333	1731.063477	-81.040985
19334.764255	16915.655333	1730.048828	-159.874298
19334.764255	16915.655333	1729.034180	-149.354797
19334.764255	16915.655333	1728.019531	-37.750957
19334.764255	16915.655333	1727.003906	52.438705
19334.764255	16915.655333	1725.988281	-410.715027
19334.764255	16915.655333	1724.972656	-14.882852
19334.764255	16915.655333	1723.957031	-101.715942
19334.764255	16915.655333	1722.941406	25.396286
19334.764255	16915.655333	1721.924805	-80.564865
19334.764255	16915.655333	1720.909180	-468.820129
19334.764255	16915.655333	1719.892578	64.533119
19334.764255	16915.655333	1718.875977	47.469288
19334.764255	16915.655333	1717.858398	70.191826
19334.764255	16915.655333	1716.841797	-156.307816
19334.764255	16915.655333	1715.824219	117.508682
19334.764255	16915.655333	1714.806641	-92.793808
19334.764255	16915.655333	1713.789063	-87.120110
19334.764255	16915.655333	1712.770508	-149.700958
19334.764255	16915.655333	1711.752930	-261.695709
19334.764255	16915.655333	1710.734375	508.682648
19334.764255	16915.655333	1709.715820	229.687332
19334.764255	16915.655333	1708.697266	260.343262
19334.764255	16915.655333	1707.678711	-220.519852
19334.764255	16915.655333	1706.659180	-18.887350
19334.764255	16915.655333	1705.640625	227.090942
19334.764255	16915.655333	1704.621094	428.278748
19334.764255	16915.655333	1703.600586	-235.666458
19334.764255	16915.655333	1702.581055	309.743042
19334.764255	16915.655333	1701.561523	-12.103243
19334.764255	16915.655333	1700.541016	31.461159
19334.764255	16915.655333	1699.520508	318.456543
19334.764255	16915.655333	1698.500000	101.755699
19334.764255	16915.655333	1697.478516	-243.772095
19334.764255	16915.655333	1696.458008	9.948348
19334.764255	16915.655333	1695.436523	176.841232
19334.764255	16915.655333	1694.415039	497.978333
19334.764255	16915.655333	1693.393555	315.892700
19334.764255	16915.655333	1692.372070	12.133015
19334.764255	16915.655333	1691.349609	218.150055
19334.764255	16915.655333	1690.327148	367.855957
19334.764255	16915.655333	1689.304688	515.049438
19334.764255	16915.655333	1688.282227	325.525330
19334.764255	16915.655333	1687.259766	505.160614
19334.764255	16915.655333	1686.236328	490.690765
19334.764255	16915.655333	1685.213867	314.962952
19334.764255	16915.655333	1684.190430	477.805603
19334.764255	16915.655333	1683.166016	159.474274
19334.764255	16915.655333	1682.142578	599.879333
19334.764255	16915.655333	1681.119141	703.916260
19334.764255	16915.655333	1680.094727	457.761505
19334.764255	16915.655333	1679.070313	1014.195679
19334.764255	16915.655333	1678.045898	1085.127075
19334.764255	16915.655333	1677.020508	437.602936
19334.764255	16915.655333	1675.996094	230.952759
19334.764255	16915.655333	1674.970703	786.616760
19334.764255	16915.655333	1673.945313	668.364258
19334.764255	16915.655333	1672.919922	344.990265
19334.764255	16915.655333	1671.893555	410.748962
19334.764255	16915.655333	1670.868164	886.411865
19334.764255	16915.655333	1669.841797	409.207672
19334.764255	16915.655333	1668.815430	148.671738
19334.764255	16915.655333	1667.789063	491.157776
19334.764255	16915.655333	1666.761719	849.716553
19334.764255	16915.655333	1665.735352	1347.717896
19334.764255	16915.655333	1664.708008	919.370422
19334.764255	16915.655333	1663.680664	1119.237305
19334.764255	16915.655333	1662.653320	835.176025
19334.764255	16915.655333	1661.625000	1151.116211
19334.764255	16915.655333	1660.597656	1159.990723
19334.764255	16915.655333	1659.569336	934.003845
19334.764255	16915.655333	1658.541016	1200.761963
19334.764255	16915.655333	1657.512695	1244.294556
19334.764255	16915.655333	1656.483398	1557.234131
19334.764255	16915.655333	1655.455078	1660.971069
19334.764255	16915.655333	1654.425781	1750.674194
19334.764255	16915.655333	1653.396484	1055.500732
19334.764255	16915.655333	1652.366211	1412.145752
19334.764255	16915.655333	1651.336914	1861.468384
19334.764255	16915.655333	1650.306641	1853.422607
19334.764255	16915.655333	1649.276367	2081.989990
19334.764255	16915.655333	1648.246094	2045.997314
19334.764255	16915.655333	1647.215820	2381.063965
19334.764255	16915.655333	1646.185547	1976.293701
19334.764255	16915.655333	1645.154297	1884.604004
19334.764255	16915.655333	1644.123047	2342.254150
19334.764255	16915.655333	1643.091797	2496.129395
19334.764255	16915.655333	1642.060547	2344.091309
19334.764255	16915.655333	1641.028320	2805.947998
19334.764255	16915.655333	1639.997070	2563.551514
19334.764255	16915.655333	1638.964844	2585.202881
19334.764255	16915.655333	1637.931641	2891.576660
19334.764255	16915.655333	1636.899414	2714.075439
19334.764255	16915.655333	1635.867188	2615.319824
19334.764255	16915.655333	1634.833984	2595.254639
19334.764255	16915.655333	1633.800781	2676.986572
19334.764255	16915.655333	1632.767578	2723.995117
19334.764255	16915.655333	1631.734375	2780.239258
19334.764255	16915.655333	1630.700195	3100.019287
19334.764255	16915.655333	1629.666016	2802.504883
19334.764255	16915.655333	1628.631836	2840.229492
19334.764255	16915.655333	1627.597656	3164.473145
19334.764255	16915.655333	1626.563477	2987.292725
19334.764255	16915.655333	1625.528320	3126.625488
19334.764255	16915.655333	1624.493164	3131.984375
19334.764255	16915.655333	1623.458008	3019.614014
19334.764255	16915.655333	1622.422852	2974.259277
19334.764255	16915.655333	1621.387695	3406.699463
19334.764255	16915.655333	1620.351563	2999.052002
19334.764255	16915.655333	1619.315430	3350.618652
19334.764255	16915.655333	1618.279297	3554.468262
19334.764255	16915.655333	1617.243164	3539.189453
19334.764255	16915.655333	1616.207031	2970.588867
19334.764255	16915.655333	1615.169922	3614.807373
19334.764255	16915.655333	1614.132813	3373.768066
19334.764255	16915.655333	1613.095703	4172.148438
19334.764255	16915.655333	1612.058594	3786.049561
19334.764255	16915.655333	1611.020508	3764.088379
19334.764255	16915.655333	1609.983398	3613.243896
19334.764255	16915.655333	1608.945313	4169.390137
19334.764255	16915.655333	1607.907227	4048.554199
19334.764255	16915.655333	1606.868164	3895.588623
19334.764255	16915.655333	1605.830078	3682.933350
19334.764255	16915.655333	1604.791016	3997.293701
19334.764255	16915.655333	1603.751953	3759.525879
19334.764255	16915.655333	1602.712891	3588.620361
19334.764255	16915.655333	1601.673828	4730.833496
19334.764255	16915.655333	1600.633789	4297.857422
19334.764255	16915.655333	1599.594727	4131.779297
19334.764255	16915.655333	1598.554688	4066.947266
19334.764255	16915.655333	1597.513672	3749.472656
19334.764255	16915.655333	1596.473633	3960.578857
19334.764255	16915.655333	1595.433594	4091.310059
19334.764255	16915.655333	1594.392578	4185.324219
19334.764255	16915.655333	1593.351563	3912.065430
19334.764255	16915.655333	1592.310547	3836.411865
19334.764255	16915.655333	1591.268555	3981.188965
19334.764255	16915.655333	1590.227539	3570.759766
19334.764255	16915.655333	1589.185547	3970.379395
19334.764255	16915.655333	1588.143555	3560.308594
19334.764255	16915.655333	1587.100586	3783.405029
19334.764255	16915.655333	1586.058594	3985.905518
19334.764255	16915.655333	1585.015625	3237.140381
19334.764255	16915.655333	1583.972656	3162.576660
19334.764255	16915.655333	1582.929688	3466.236572
19334.764255	16915.655333	1581.886719	3556.844482
19334.764255	16915.655333	1580.843750	3404.750732
19334.764255	16915.655333	1579.799805	3264.278076
19334.764255	16915.655333	1578.755859	2993.487305
19334.764255	16915.655333	1577.711914	2997.622559
19334.764255	16915.655333	1576.666992	3370.355225
19334.764255	16915.655333	1575.623047	2978.821777
19334.764255	16915.655333	1574.578125	3257.886230
19334.764255	16915.655333	1573.533203	3475.221680
19334.764255	16915.655333	1572.488281	3495.943604
19334.764255	16915.655333	1571.443359	3116.678711
19334.764255	16915.655333	1570.397461	3421.200928
19334.764255	16915.655333	1569.351563	3252.647217
19334.764255	16915.655333	1568.305664	3166.574463
19334.764255	16915.655333	1567.259766	3021.289307
19334.764255	16915.655333	1566.213867	3230.262695
19334.764255	16915.655333	1565.166992	3379.925293
19334.764255	16915.655333	1564.120117	3376.706055
19334.764255	16915.655333	1563.073242	3113.407959
19334.764255	16915.655333	1562.026367	3005.579834
19334.764255	16915.655333	1560.978516	2957.278076
19334.764255	16915.655333	1559.930664	2644.509033
19334.764255	16915.655333	1558.883789	2541.903809
19334.764255	16915.655333	1557.834961	3089.456299
19334.764255	16915.655333	1556.787109	2521.989014
19334.764255	16915.655333	1555.739258	2989.902344
19334.764255	16915.655333	1554.690430	2673.737549
19334.764255	16915.655333	1553.641602	2175.574707
19334.764255	16915.655333	1552.592773	2092.450439
19334.764255	16915.655333	1551.542969	2410.446289
19334.764255	16915.655333	1550.494141	2058.940918
19334.764255	16915.655333	1549.444336	2085.735107
19334.764255	16915.655333	1548.394531	1329.567993
19334.764255	16915.655333	1547.344727	1411.507813
19334.764255	16915.655333	1546.293945	1304.718628
19334.764255	16915.655333	1545.244141	1407.494995
19334.764255	16915.655333	1544.193359	1603.686890
19334.764255	16915.655333	1543.142578	1568.024170
19334.764255	16915.655333	1542.090820	1400.679688
19334.764255	16915.655333	1541.040039	1517.793945
19334.764255	16915.655333	1539.988281	1475.952759
19334.764255	16915.655333	1538.936523	1302.526001
19334.764255	16915.655333	1537.884766	1333.866943
19334.764255	16915.655333	1536.833008	1574.395020
19334.764255	16915.655333	1535.780273	1374.424561
19334.764255	16915.655333	1534.727539	1635.707520
19334.764255	16915.655333	1533.674805	1452.128052
19334.764255	16915.655333	1532.622070	708.187988
19334.764255	16915.655333	1531.569336	1176.619141
19334.764255	16915.655333	1530.515625	1005.236755
19334.764255	16915.655333	1529.461914	1002.014282
19334.764255	16915.655333	1528.408203	1318.812500
19334.764255	16915.655333	1527.354492	1039.332153
19334.764255	16915.655333	1526.299805	1363.252441
19334.764255	16915.655333	1525.246094	782.859985
19334.764255	16915.655333	1524.191406	819.348083
19334.764255	16915.655333	1523.136719	726.899597
19334.764255	16915.655333	1522.081055	478.409454
19334.764255	16915.655333	1521.026367	662.861633
19334.764255	16915.655333	1519.970703	111.517525
19334.764255	16915.655333	1518.915039	631.512146
19334.764255	16915.655333	1517.859375	538.116333
19334.764255	16915.655333	1516.802734	510.624451
19334.764255	16915.655333	1515.747070	736.811096
19334.764255	16915.655333	1514.690430	83.142990
19334.764255	16915.655333	1513.633789	784.789001
19334.764255	16915.655333	1512.577148	878.101990
19334.764255	16915.655333	1511.519531	354.408630
19334.764255	16915.655333	1510.461914	427.924011
19334.764255	16915.655333	1509.405273	223.686539
19334.764255	16915.655333	1508.346680	166.651978
19334.764255	16915.655333	1507.289063	439.722198
19334.764255	16915.655333	1506.231445	184.415695
19334.764255	16915.655333	1505.172852	252.388626
19334.764255	16915.655333	1504.114258	-90.313385
19334.764255	16915.655333	1503.055664	416.119232
19334.764255	16915.655333	1501.996094	-226.121552
19334.764255	16915.655333	1500.937500	48.251419
19334.764255	16915.655333	1499.877930	-69.757561
19334.764255	16915.655333	1498.818359	157.637970
19334.764255	16915.655333	1497.757813	15.376990
19334.764255	16915.655333	1496.698242	-36.376514
19334.764255	16915.655333	1495.637695	182.660995
19334.764255	16915.655333	1494.577148	41.282703
19334.764255	16915.655333	1493.516602	24.161295
19334.764255	16915.655333	1492.456055	406.063171
19334.764255	16915.655333	1491.394531	387.166962
19334.764255	16915.655333	1490.333008	-12.024276
19334.764255	16915.655333	1489.271484	134.072189
19334.764255	16915.655333	1488.209961	-275.621063
19334.764255	16915.655333	1487.148438	46.564587
19334.764255	16915.655333	1486.085938	-315.140289
19334.764255	16915.655333	1485.023438	230.203522
19334.764255	16915.655333	1483.960938	-295.036255
19334.764255	16915.655333	1482.898438	55.000385
19334.764255	16915.655333	1481.834961	-237.837875
19334.764255	16915.655333	1480.772461	40.671410
19334.764255	16915.655333	1479.708984	-204.266861
19334.764255	16915.655333	1478.644531	-280.315491
19334.764255	16915.655333	1477.581055	203.304962
19334.764255	16915.655333	1476.517578	249.103760
19334.764255	16915.655333	1475.453125	84.052109
19334.764255	16915.655333	1474.388672	280.879364
19334.764255	16915.655333	1473.323242	529.381409
19334.764255	16915.655333	1472.258789	318.292023
19334.764255	16915.655333	1471.193359	224.179443
19334.764255	16915.655333	1470.127930	659.900757
19334.764255	16915.655333	1469.062500	620.014893
19334.764255	16915.655333	1467.997070	1248.350098
19334.764255	16915.655333	1466.930664	1155.239014
19334.764255	16915.655333	1465.865234	1080.349609
19334.764255	16915.655333	1464.798828	1288.022583
19334.764255	16915.655333	1463.731445	1487.059814
19334.764255	16915.655333	1462.665039	1052.861816
19334.764255	16915.655333	1461.597656	1797.450684
19334.764255	16915.655333	1460.530273	816.587097
19334.764255	16915.655333	1459.462891	1547.216553
19334.764255	16915.655333	1458.395508	1279.171143
19334.764255	16915.655333	1457.327148	817.586304
19334.764255	16915.655333	1456.259766	920.535095
19334.764255	16915.655333	1455.191406	656.363037
19334.764255	16915.655333	1454.123047	616.250916
19334.764255	16915.655333	1453.053711	903.300049
19334.764255	16915.655333	1451.985352	779.452515
19334.764255	16915.655333	1450.916016	308.981415
19334.764255	16915.655333	1449.846680	147.640793
19334.764255	16915.655333	1448.776367	253.368820
19334.764255	16915.655333	1447.707031	-118.113464
19334.764255	16915.655333	1446.636719	217.254333
19334.764255	16915.655333	1445.566406	302.252380
19334.764255	16915.655333	1444.496094	307.368683
19334.764255	16915.655333	1443.425781	288.017090
19334.764255	16915.655333	1442.354492	96.176315
19334.764255	16915.655333	1441.283203	-261.632446
19334.764255	16915.655333	1440.211914	-208.569672
19334.764255	16915.655333	1439.140625	564.540039
19334.764255	16915.655333	1438.069336	-146.901276
19334.764255	16915.655333	1436.997070	159.355789
19334.764255	16915.655333	1435.924805	-295.614288
19334.764255	16915.655333	1434.852539	82.016182
19334.764255	16915.655333	1433.780273	-275.909515
19334.764255	16915.655333	1432.707031	-398.211273
19334.764255	16915.655333	1431.633789	-347.393890
19334.764255	16915.655333	1430.560547	-491.754791
19334.764255	16915.655333	1429.487305	-489.997589
19334.764255	16915.655333	1428.413086	-207.820190
19334.764255	16915.655333	1427.339844	-410.980682
19334.764255	16915.655333	1426.265625	-34.491192
19334.764255	16915.655333	1425.191406	-261.100372
19334.764255	16915.655333	1424.116211	161.799561
19334.764255	16915.655333	1423.041992	326.397522
19334.764255	16915.655333	1421.966797	152.601410
19334.764255	16915.655333	1420.891602	-336.487030
19334.764255	16915.655333	1419.816406	331.291595
19334.764255	16915.655333	1418.740234	296.065796
19334.764255	16915.655333	1417.665039	404.318726
19334.764255	16915.655333	1416.588867	396.999756
19334.764255	16915.655333	1415.512695	480.849884
19334.764255	16915.655333	1414.435547	419.771942
19334.764255	16915.655333	1413.359375	212.481400
19334.764255	16915.655333	1412.282227	546.589661
19334.764255	16915.655333	1411.205078	867.500793
19334.764255	16915.655333	1410.127930	567.077026
19334.764255	16915.655333	1409.049805	630.659973
19334.764255	16915.655333	1407.972656	323.263123
19334.764255	16915.655333	1406.894531	148.301208
19334.764255	16915.655333	1405.816406	615.169006
19334.764255	16915.655333	1404.737305	386.646393
19334.764255	16915.655333	1403.659180	587.967651
19334.764255	16915.655333	1402.580078	205.705460
19334.764255	16915.655333	1401.500977	412.530975
19334.764255	16915.655333	1400.421875	287.400116
19334.764255	16915.655333	1399.341797	379.246216
19334.764255	16915.655333	1398.262695	344.879120
19334.764255	16915.655333	1397.182617	383.928589
19334.764255	16915.655333	1396.102539	455.580017
19334.764255	16915.655333	1395.021484	145.716904
19334.764255	16915.655333	1393.941406	-129.790436
19334.764255	16915.655333	1392.860352	92.791145
19334.764255	16915.655333	1391.779297	-192.932083
19334.764255	16915.655333	1390.698242	214.956604
19334.764255	16915.655333	1389.616211	97.583885
19334.764255	16915.655333	1388.535156	105.341133
19334.764255	16915.655333	1387.453125	320.209808
19334.764255	16915.655333	1386.371094	275.095734
19334.764255	16915.655333	1385.288086	255.579575
19334.764255	16915.655333	1384.206055	-57.359364
19334.764255	16915.655333	1383.123047	146.316818
19334.764255	16915.655333	1382.040039	478.321564
19334.764255	16915.655333	1380.957031	509.243256
19334.764255	16915.655333	1379.873047	587.183167
19334.764255	16915.655333	1378.789063	467.092224
19334.764255	16915.655333	1377.705078	181.840088
19334.764255	16915.655333	1376.621094	789.921326
19334.764255	16915.655333	1375.537109	484.939941
19334.764255	16915.655333	1374.452148	709.576233
19334.764255	16915.655333	1373.367188	561.600403
19334.764255	16915.655333	1372.282227	636.061584
19334.764255	16915.655333	1371.197266	469.282471
19334.764255	16915.655333	1370.112305	432.542694
19334.764255	16915.655333	1369.026367	176.527512
19334.764255	16915.655333	1367.940430	422.357483
19334.764255	16915.655333	1366.854492	362.452820
19334.764255	16915.655333	1365.767578	142.464157
19334.764255	16915.655333	1364.681641	330.132385
19334.764255	16915.655333	1363.594727	140.436310
19334.764255	16915.655333	1362.507813	-2.336592
19334.764255	16915.655333	1361.419922	273.605652
19334.764255	16915.655333	1360.333008	91.049133
19334.764255	16915.655333	1359.245117	318.665649
19334.764255	16915.655333	1358.157227	236.733932
19334.764255	16915.655333	1357.069336	392.588226
19334.764255	16915.655333	1355.981445	171.636841
19334.764255	16915.655333	1354.892578	87.793976
19334.764255	16915.655333	1353.803711	-25.869463
19334.764255	16915.655333	1352.714844	179.679871
19334.764255	16915.655333	1351.625000	395.977722
19334.764255	16915.655333	1350.536133	439.861359
19334.764255	16915.655333	1349.446289	818.419861
19334.764255	16915.655333	1348.356445	556.430237
19334.764255	16915.655333	1347.266602	629.300720
19334.764255	16915.655333	1346.175781	575.153931
19334.764255	16915.655333	1345.085938	69.157181
19334.764255	16915.655333	1343.995117	541.663086
19334.764255	16915.655333	1342.903320	1033.822510
19334.764255	16915.655333	1341.812500	774.969971
19334.764255	16915.655333	1340.720703	801.204895
19334.764255	16915.655333	1339.629883	646.708740
19334.764255	16915.655333	1338.538086	1110.019165
19334.764255	16915.655333	1337.445313	1065.205078
19334.764255	16915.655333	1336.353516	1143.935059
19334.764255	16915.655333	1335.260742	1369.653931
19334.764255	16915.655333	1334.167969	1246.488037
19334.764255	16915.655333	1333.075195	1148.829834
19334.764255	16915.655333	1331.981445	1252.159180
19334.764255	16915.655333	1330.888672	1370.936279
19334.764255	16915.655333	1329.794922	1269.572144
19334.764255	16915.655333	1328.701172	1333.020508
19334.764255	16915.655333	1327.606445	1858.792847
19334.764255	16915.655333	1326.512695	1312.766235
19334.764255	16915.655333	1325.417969	1581.524658
19334.764255	16915.655333	1324.323242	1106.454590
19334.764255	16915.655333	1323.227539	1258.111572
19334.764255	16915.655333	1322.132813	1466.292725
19334.764255	16915.655333	1321.037109	1512.415527
19334.764255	16915.655333	1319.941406	1060.658936
19334.764255	16915.655333	1318.845703	1825.962158
19334.764255	16915.655333	1317.750000	1465.920776
19334.764255	16915.655333	1316.653320	1391.676636
19334.764255	16915.655333	1315.556641	1658.369141
19334.764255	16915.655333	1314.459961	1453.726440
19334.764255	16915.655333	1313.363281	972.574585
19334.764255	16915.655333	1312.265625	1451.032471
19334.764255	16915.655333	1311.167969	1161.746826
19334.764255	16915.655333	1310.070313	973.406677
19334.764255	16915.655333	1308.972656	746.377197
19334.764255	16915.655333	1307.874023	1046.562744
19334.764255	16915.655333	1306.776367	972.066101
19334.764255	16915.655333	1305.677734	743.987427
19334.764255	16915.655333	1304.579102	566.664063
19334.764255	16915.655333	1303.479492	600.211792
19334.764255	16915.655333	1302.380859	667.513611
19334.764255	16915.655333	1301.281250	735.545715
19334.764255	16915.655333	1300.181641	593.617493
19334.764255	16915.655333	1299.081055	736.688965
19334.764255	16915.655333	1297.981445	552.560242
19334.764255	16915.655333	1296.880859	745.059875
19334.764255	16915.655333	1295.780273	477.461639
19334.764255	16915.655333	1294.679688	637.575928
19334.764255	16915.655333	1293.578125	481.202972
19334.764255	16915.655333	1292.476563	540.897644
19334.764255	16915.655333	1291.375000	287.646027
19334.764255	16915.655333	1290.273438	338.313110
19334.764255	16915.655333	1289.171875	443.603668
19334.764255	16915.655333	1288.069336	68.568398
19334.764255	16915.655333	1286.966797	82.550804
19334.764255	16915.655333	1285.864258	253.904129
19334.764255	16915.655333	1284.761719	264.520691
19334.764255	16915.655333	1283.658203	-105.716507
19334.764255	16915.655333	1282.554688	373.453674
19334.764255	16915.655333	1281.451172	168.126694
19334.764255	16915.655333	1280.347656	129.190964
19334.764255	16915.655333	1279.244141	-119.719002
19334.764255	16915.655333	1278.139648	-193.130081
19334.764255	16915.655333	1277.035156	12.140452
19334.764255	16915.655333	1275.930664	-400.257263
19334.764255	16915.655333	1274.825195	-142.920242
19334.764255	16915.655333	1273.720703	132.963989
19334.764255	16915.655333	1272.615234	69.117714
19334.764255	16915.655333	1271.508789	721.324036
19334.764255	16915.655333	1270.403320	302.676392
19334.764255	16915.655333	1269.297852	214.464569
19334.764255	16915.655333	1268.191406	288.591858
19334.764255	16915.655333	1267.084961	250.990555
19334.764255	16915.655333	1265.977539	-45.885250
19334.764255	16915.655333	1264.871094	-52.223747
19334.764255	16915.655333	1263.763672	102.491013
19334.764255	16915.655333	1262.656250	186.433350
19334.764255	16915.655333	1261.548828	137.163605
19334.764255	16915.655333	1260.440430	228.804031
19334.764255	16915.655333	1259.333008	40.740337
19334.764255	16915.655333	1258.224609	-80.061974
19334.764255	16915.655333	1257.115234	10.828612
19334.764255	16915.655333	1256.006836	60.098442
19334.764255	16915.655333	1254.897461	203.381134
19334.764255	16915.655333	1253.788086	470.124237
19334.764255	16915.655333	1252.678711	-82.713417
19334.764255	16915.655333	1251.569336	6.698064
19334.764255	16915.655333	1250.458984	-5.878216
19334.764255	16915.655333	1249.349609	-16.705273
19334.764255	16915.655333	1248.239258	13.667115
19334.764255	16915.655333	1247.127930	322.869690
19334.764255	16915.655333	1246.017578	544.026062
19334.764255	16915.655333	1244.906250	511.231140
19334.764255	16915.655333	1243.794922	554.287842
19334.764255	16915.655333	1242.683594	580.881653
19334.764255	16915.655333	1241.571289	903.060791
19334.764255	16915.655333	1240.459961	753.351440
19334.764255	16915.655333	1239.347656	979.024109
19334.764255	16915.655333	1238.234375	661.053345
19334.764255	16915.655333	1237.122070	852.683960
19334.764255	16915.655333	1236.008789	639.928772
19334.764255	16915.655333	1234.896484	619.188965
19334.764255	16915.655333	1233.782227	306.883057
19334.764255	16915.655333	1232.668945	247.096313
19334.764255	16915.655333	1231.555664	109.326294
19334.764255	16915.655333	1230.441406	76.847832
19334.764255	16915.655333	1229.327148	-79.219460
19334.764255	16915.655333	1228.211914	327.309357
19334.764255	16915.655333	1227.097656	62.839756
19334.764255	16915.655333	1225.982422	-280.897064
19334.764255	16915.655333	1224.867188	29.132725
19334.764255	16915.655333	1223.751953	165.044373
19334.764255	16915.655333	1222.635742	88.651627
19334.764255	16915.655333	1221.520508	-95.729553
19334.764255	16915.655333	1220.404297	113.709930
19334.764255	16915.655333	1219.287109	260.862610
19334.764255	16915.655333	1218.170898	154.286850
19334.764255	16915.655333	1217.053711	113.045486
19334.764255	16915.655333	1215.936523	-49.893749
19334.764255	16915.655333	1214.819336	-116.142067
19334.764255	16915.655333	1213.702148	-312.630981
19334.764255	16915.655333	1212.583984	-81.375145
19334.764255	16915.655333	1211.465820	-230.164383
19334.764255	16915.655333	1210.347656	142.296356
19334.764255	16915.655333	1209.229492	-76.643120
19334.764255	16915.655333	1208.110352	-47.669495
19334.764255	16915.655333	1206.992188	-90.125679
19334.764255	16915.655333	1205.873047	-31.684095
19334.764255	16915.655333	1204.752930	214.313522
19334.764255	16915.655333	1203.633789	152.325409
19334.764255	16915.655333	1202.513672	-185.864105
19334.764255	16915.655333	1201.393555	11.897113
19334.764255	16915.655333	1200.273438	10.693328
19334.764255	16915.655333	1199.152344	-28.045347
19334.764255	16915.655333	1198.032227	-58.914642
19334.764255	16915.655333	1196.911133	163.560562
19334.764255	16915.655333	1195.790039	-69.510139
19334.764255	16915.655333	1194.667969	-108.275009
19334.764255	16915.655333	1193.545898	145.149124
19334.764255	16915.655333	1192.424805	-97.033920
19334.764255	16915.655333	1191.301758	-142.637161
19334.764255	16915.655333	1190.179688	-32.440556
19334.764255	16915.655333	1189.056641	2.537910
19334.764255	16915.655333	1187.933594	236.689667
19334.764255	16915.655333	1186.810547	202.532745
19334.764255	16915.655333	1185.687500	-67.879669
19334.764255	16915.655333	1184.563477	-220.719833
19334.764255	16915.655333	1183.440430	147.946030
19334.764255	16915.655333	1182.316406	-8.447839
19334.764255	16915.655333	1181.191406	8.120301
19334.764255	16915.655333	1180.067383	-8.587077
19334.764255	16915.655333	1178.942383	-301.784668
19334.764255	16915.655333	1177.817383	107.814407
19334.764255	16915.655333	1176.692383	-164.607651
19334.764255	16915.655333	1175.566406	-256.157288
19334.764255	16915.655333	1174.440430	-279.715332
19334.764255	16915.655333	1173.314453	16.767721
19334.764255	16915.655333	1172.188477	72.278824
19334.764255	16915.655333	1171.062500	-101.167686
19334.764255	16915.655333	1169.935547	120.497108
19334.764255	16915.655333	1168.808594	33.658592
19334.764255	16915.655333	1167.681641	93.534279
19334.764255	16915.655333	1166.553711	124.415474
19334.764255	16915.655333	1165.426758	80.672836
19334.764255	16915.655333	1164.298828	-56.738773
19334.764255	16915.655333	1163.170898	-126.273224
19334.764255	16915.655333	1162.041992	-118.080956
19334.764255	16915.655333	1160.914063	-179.048233
19334.764255	16915.655333	1159.785156	224.286850
19334.764255	16915.655333	1158.656250	-355.536896
19334.764255	16915.655333	1157.526367	-42.201572
19334.764255	16915.655333	1156.397461	-372.479156
19334.764255	16915.655333	1155.267578	-275.756287
19334.764255	16915.655333	1154.137695	-17.392015
19334.764255	16915.655333	1153.006836	-352.752441
19334.764255	16915.655333	1151.876953	-115.409378
19334.764255	16915.655333	1150.746094	-58.578384
19334.764255	16915.655333	1149.615234	-68.352417
19334.764255	16915.655333	1148.484375	-234.931656
19334.764255	16915.655333	1147.352539	-118.999069
19334.764255	16915.655333	1146.220703	-334.233154
19334.764255	16915.655333	1145.088867	-514.529358
19334.764255	16915.655333	1143.957031	-270.165833
19334.764255	16915.655333	1142.825195	-372.116180
19334.764255	16915.655333	1141.692383	-191.102951
19334.764255	16915.655333	1140.559570	-267.038300
19334.764255	16915.655333	1139.426758	-295.438660
19334.764255	16915.655333	1138.292969	-617.784729
19334.764255	16915.655333	1137.159180	-221.480469
19334.764255	16915.655333	1136.025391	-252.737564
19334.764255	16915.655333	1134.891602	81.951065
19334.764255	16915.655333	1133.757813	-146.067657
19334.764255	16915.655333	1132.623047	-171.560135
19334.764255	16915.655333	1131.488281	-207.160049
19334.764255	16915.655333	1130.353516	-68.664948
19334.764255	16915.655333	1129.217773	192.736557
19334.764255	16915.655333	1128.083008	2.763362
19334.764255	16915.655333	1126.947266	-99.699478
19334.764255	16915.655333	1125.811523	-61.984127
19334.764255	16915.655333	1124.674805	55.567989
19334.764255	16915.655333	1123.539063	202.840973
19334.764255	16915.655333	1122.402344	214.164185
19334.764255	16915.655333	1121.265625	-324.360352
19334.764255	16915.655333	1120.127930	-215.730743
19334.764255	16915.655333	1118.990234	108.045937
19334.764255	16915.655333	1117.853516	-139.290710
19334.764255	16915.655333	1116.714844	-1.609801
19334.764255	16915.655333	1115.577148	-18.863426
19334.764255	16915.655333	1114.439453	31.442289
19334.764255	16915.655333	1113.300781	86.246002
19334.764255	16915.655333	1112.162109	-209.200592
19334.764255	16915.655333	1111.022461	-59.173946
19334.764255	16915.655333	1109.883789	69.920547
19334.764255	16915.655333	1108.744141	345.143585
19334.764255	16915.655333	1107.604492	124.298241
19334.764255	16915.655333	1106.463867	-155.083801
19334.764255	16915.655333	1105.324219	242.874466
19334.764255	16915.655333	1104.183594	-55.622746
19334.764255	16915.655333	1103.042969	89.739967
19334.764255	16915.655333	1101.902344	167.372528
19334.764255	16915.655333	1100.760742	-81.971321
19334.764255	16915.655333	1099.619141	160.282104
19334.764255	16915.655333	1098.477539	-97.757988
19334.764255	16915.655333	1097.335938	195.951202
19334.764255	16915.655333	1096.193359	266.143372
19334.764255	16915.655333	1095.051758	200.088867
19334.764255	16915.655333	1093.909180	211.551956
19334.764255	16915.655333	1092.765625	221.676666
19334.764255	16915.655333	1091.623047	311.777191
19334.764255	16915.655333	1090.479492	518.566223
19334.764255	16915.655333	1089.335938	308.130676
19334.764255	16915.655333	1088.192383	497.978302
19334.764255	16915.655333	1087.047852	209.634735
19334.764255	16915.655333	1085.903320	270.952942
19334.764255	16915.655333	1084.758789	138.335312
19334.764255	16915.655333	1083.614258	98.438080
19334.764255	16915.655333	1082.469727	171.062103
19334.764255	16915.655333	1081.324219	143.814438
19334.764255	16915.655333	1080.178711	-125.330070
19334.764255	16915.655333	1079.033203	159.058350
19334.764255	16915.655333	1077.886719	-18.175341
19334.764255	16915.655333	1076.740234	2.186359
19334.764255	16915.655333	1075.593750	322.495148
19334.764255	16915.655333	1074.447266	214.735580
19334.764255	16915.655333	1073.300781	263.505463
19334.764255	16915.655333	1072.153320	307.883484
19334.764255	16915.655333	1071.005859	209.103607
19334.764255	16915.655333	1069.858398	117.009750
19334.764255	16915.655333	1068.709961	171.938080
19334.764255	16915.655333	1067.561523	300.134674
19334.764255	16915.655333	1066.413086	554.545105
19334.764255	16915.655333	1065.264648	162.407928
19334.764255	16915.655333	1064.116211	215.418762
19334.764255	16915.655333	1062.966797	239.721695
19334.764255	16915.655333	1061.817383	276.313599
19334.764255	16915.655333	1060.667969	134.300293
19334.764255	16915.655333	1059.517578	352.356720
19334.764255	16915.655333	1058.368164	256.762787
19334.764255	16915.655333	1057.217773	178.762466
19334.764255	16915.655333	1056.067383	380.033112
19334.764255	16915.655333	1054.916016	110.378128
19334.764255	16915.655333	1053.764648	378.799316
19334.764255	16915.655333	1052.613281	29.758057
19334.764255	16915.655333	1051.461914	40.641499
19334.764255	16915.655333	1050.310547	62.582909
19334.764255	16915.655333	1049.158203	-65.806351
19334.764255	16915.655333	1048.005859	-63.703377
19334.764255	16915.655333	1046.853516	290.419647
19334.764255	16915.655333	1045.700195	394.138580
19334.764255	16915.655333	1044.547852	45.201557
19334.764255	16915.655333	1043.394531	532.314331
19334.764255	16915.655333	1042.240234	273.168396
19334.764255	16915.655333	1041.086914	338.879974
19334.764255	16915.655333	1039.932617	516.259521
19334.764255	16915.655333	1038.778320	523.017761
19334.764255	16915.655333	1037.624023	615.506897
19334.764255	16915.655333	1036.469727	920.360352
19334.764255	16915.655333	1035.314453	756.805115
19334.764255	16915.655333	1034.159180	961.767517
19334.764255	16915.655333	1033.003906	1222.244141
19334.764255	16915.655333	1031.847656	1361.879761
19334.764255	16915.655333	1030.692383	1491.500000
19334.764255	16915.655333	1029.536133	1439.409302
19334.764255	16915.655333	1028.378906	1055.138916
19334.764255	16915.655333	1027.222656	696.370972
19334.764255	16915.655333	1026.065430	934.334717
19334.764255	16915.655333	1024.908203	727.070740
19334.764255	16915.655333	1023.750977	453.333649
19334.764255	16915.655333	1022.593750	396.854675
19334.764255	16915.655333	1021.435547	528.043030
19334.764255	16915.655333	1020.277344	382.400787
19334.764255	16915.655333	1019.119141	73.159187
19334.764255	16915.655333	1017.959961	86.020081
19334.764255	16915.655333	1016.800781	18.579704
19334.764255	16915.655333	1015.641602	115.838806
19334.764255	16915.655333	1014.482422	-0.123733
19334.764255	16915.655333	1013.323242	259.337402
19334.764255	16915.655333	1012.163086	167.798508
19334.764255	16915.655333	1011.002930	300.864288
19334.764255	16915.655333	1009.842773	283.355804
19334.764255	16915.655333	1008.681641	97.149895
19334.764255	16915.655333	1007.520508	295.253906
19334.764255	16915.655333	1006.359375	141.715515
19334.764255	16915.655333	1005.198242	467.691803
19334.764255	16915.655333	1004.037109	349.039063
19334.764255	16915.655333	1002.875000	497.813171
19334.764255	16915.655333	1001.712891	483.404999
19334.764255	16915.655333	1000.550781	701.170776
19334.764255	16915.655333	999.387695	719.900513
19334.764255	16915.655333	998.224609	234.208069
19334.764255	16915.655333	997.061523	493.988770
19334.764255	16915.655333	995.898438	60.208309
19334.764255	16915.655333	994.734375	167.605469
19334.764255	16915.655333	993.571289	134.337997
19334.764255	16915.655333	992.407227	492.011353
19334.764255	16915.655333	991.242188	147.450272
19334.764255	16915.655333	990.078125	200.528046
19334.764255	16915.655333	988.913086	-54.904408
19334.764255	16915.655333	987.748047	-21.333815
19334.764255	16915.655333	986.583008	149.096176
19334.764255	16915.655333	985.416992	98.303185
19334.764255	16915.655333	984.250977	-141.081985
19334.764255	16915.655333	983.084961	20.371229
19334.764255	16915.655333	981.918945	-243.906601
19334.764255	16915.655333	980.751953	133.200958
19334.764255	16915.655333	979.584961	-220.831100
19334.764255	16915.655333	978.417969	-241.248016
19334.764255	16915.655333	977.250977	-438.265686
19334.764255	16915.655333	976.083008	2.022942
19334.764255	16915.655333	974.915039	-63.365726
19334.764255	16915.655333	973.747070	4.223482
19334.764255	16915.655333	972.579102	95.631302
19334.764255	16915.655333	971.410156	-146.155518
19334.764255	16915.655333	970.242188	264.638184
19334.764255	16915.655333	969.072266	102.427620
19334.764255	16915.655333	967.903320	151.127457
19334.764255	16915.655333	966.733398	332.682526
19334.764255	16915.655333	965.563477	57.154861
19334.764255	16915.655333	964.393555	13.580529
19334.764255	16915.655333	963.223633	448.308044
19334.764255	16915.655333	962.052734	448.811737
19334.764255	16915.655333	960.881836	162.431335
19334.764255	16915.655333	959.710938	482.027100
19334.764255	16915.655333	958.540039	443.377258
19334.764255	16915.655333	957.368164	680.135437
19334.764255	16915.655333	956.196289	851.489380
19334.764255	16915.655333	955.024414	730.689941
19334.764255	16915.655333	953.851563	847.777283
19334.764255	16915.655333	952.679688	286.450989
19334.764255	16915.655333	951.506836	343.946533
19334.764255	16915.655333	950.333984	232.741150
19334.764255	16915.655333	949.160156	366.062103
19334.764255	16915.655333	947.986328	371.472748
19334.764255	16915.655333	946.812500	205.413315
19334.764255	16915.655333	945.638672	146.076080
19334.764255	16915.655333	944.464844	-91.981506
19334.764255	16915.655333	943.290039	79.512276
19334.764255	16915.655333	942.115234	126.127022
19334.764255	16915.655333	940.940430	5.357668
19334.764255	16915.655333	939.764648	-190.118057
19334.764255	16915.655333	938.588867	-99.917839
19334.764255	16915.655333	937.413086	224.791122
19334.764255	16915.655333	936.237305	288.982300
19334.764255	16915.655333	935.060547	-3.272430
19334.764255	16915.655333	933.883789	59.921280
19334.764255	16915.655333	932.707031	-131.072540
19334.764255	16915.655333	931.530273	-12.801970
19334.764255	16915.655333	930.352539	269.808502
19334.764255	16915.655333	929.175781	236.322922
19334.764255	16915.655333	927.998047	147.953949
19334.764255	16915.655333	926.819336	285.538055
19334.764255	16915.655333	925.641602	194.829117
19334.764255	16915.655333	924.462891	172.191696
19334.764255	16915.655333	923.284180	9.149632
19334.764255	16915.655333	922.104492	10.477098
19334.764255	16915.655333	920.924805	40.213634
19334.764255	16915.655333	919.746094	56.682236
19334.764255	16915.655333	919.551758	293.829559
19334.764255	16915.655333	918.386719	248.668198
19334.764255	16915.655333	917.220703	-50.560696
19334.764255	16915.655333	916.054688	26.840799
19334.764255	16915.655333	914.887695	97.585861
19334.764255	16915.655333	913.721680	159.464752
19334.764255	16915.655333	912.554688	282.526154
19334.764255	16915.655333	911.387695	5.126480
19334.764255	16915.655333	910.220703	-272.231781
19334.764255	16915.655333	909.052734	-66.257652
19334.764255	16915.655333	907.885742	-157.787292
19334.764255	16915.655333	906.717773	98.217590
19334.764255	16915.655333	905.548828	-233.816879
19334.764255	16915.655333	904.380859	2.298900
19334.764255	16915.655333	903.211914	-71.940163
19334.764255	16915.655333	902.042969	-192.081573
19334.764255	16915.655333	900.874023	-72.036964
19334.764255	16915.655333	899.704102	-52.523743
19334.764255	16915.655333	898.535156	303.048615
19334.764255	16915.655333	897.365234	-249.419403
19334.764255	16915.655333	896.194336	71.035400
19334.764255	16915.655333	895.024414	-180.251999
19334.764255	16915.655333	893.853516	-102.160767
19334.764255	16915.655333	892.682617	-126.648178
19334.764255	16915.655333	891.511719	265.206085
19334.764255	16915.655333	890.340820	-38.466740
19334.764255	16915.655333	889.168945	34.935642
19334.764255	16915.655333	887.997070	-172.813416
19334.764255	16915.655333	886.825195	-66.863968
19334.764255	16915.655333	885.653320	221.921066
19334.764255	16915.655333	884.480469	18.442530
19334.764255	16915.655333	883.307617	-30.447937
19334.764255	16915.655333	882.134766	-301.384796
19334.764255	16915.655333	880.961914	-23.898985
19334.764255	16915.655333	879.788086	-120.785255
19334.764255	16915.655333	878.614258	152.091415
19334.764255	16915.655333	877.440430	285.614105
19334.764255	16915.655333	876.266602	82.003761
19334.764255	16915.655333	875.091797	174.074768
19334.764255	16915.655333	873.916992	339.944702
19334.764255	16915.655333	872.742188	38.498573
19334.764255	16915.655333	871.567383	-217.259552
19334.764255	16915.655333	870.391602	-14.652233
19334.764255	16915.655333	869.215820	107.463654
19334.764255	16915.655333	868.040039	-35.415634
19334.764255	16915.655333	866.864258	-50.219643
19334.764255	16915.655333	865.687500	-93.279030
19334.764255	16915.655333	864.510742	-184.116516
19334.764255	16915.655333	863.333984	-25.491745
19334.764255	16915.655333	862.157227	-159.801132
19334.764255	16915.655333	860.979492	22.501377
19334.764255	16915.655333	859.802734	-51.172230
19334.764255	16915.655333	858.625000	-220.239792
19334.764255	16915.655333	857.446289	-163.896729
19334.764255	16915.655333	856.268555	-436.992523
19334.764255	16915.655333	855.089844	-272.429688
19334.764255	16915.655333	853.911133	-396.050934
19334.764255	16915.655333	852.731445	-264.152466
19334.764255	16915.655333	851.552734	-225.470123
19334.764255	16915.655333	850.373047	18.778658
19334.764255	16915.655333	849.193359	-492.395142
19334.764255	16915.655333	848.013672	-120.655685
19334.764255	16915.655333	846.833008	207.618515
19334.764255	16915.655333	845.652344	-275.329041
19334.764255	16915.655333	844.471680	100.294510
19334.764255	16915.655333	843.291016	-203.118362
19334.764255	16915.655333	842.110352	-499.979889
19334.764255	16915.655333	840.928711	-154.963882
19334.764255	16915.655333	839.747070	183.370651
19334.764255	16915.655333	838.564453	-104.908020
19334.764255	16915.655333	837.382813	-177.173340
19334.764255	16915.655333	836.200195	104.644936
19334.764255	16915.655333	835.017578	-34.666382
19334.764255	16915.655333	833.834961	-292.689514
19334.764255	16915.655333	832.651367	-181.663193
19334.764255	16915.655333	831.467773	-210.978149
19334.764255	16915.655333	830.284180	-44.056553
19334.764255	16915.655333	829.100586	456.991974
19334.764255	16915.655333	827.916992	56.534374
19334.764255	16915.655333	826.732422	-117.473091
19334.764255	16915.655333	825.547852	51.205967
19334.764255	16915.655333	824.363281	-129.319382
19334.764255	16915.655333	823.177734	174.893280
19334.764255	16915.655333	821.992188	-53.085545
19334.764255	16915.655333	820.806641	-91.535507
19334.764255	16915.655333	819.621094	57.273525
19334.764255	16915.655333	818.434570	231.795425
19334.764255	16915.655333	817.249023	124.248238
19334.764255	16915.655333	816.062500	300.702118
19334.764255	16915.655333	814.875000	352.258057
19334.764255	16915.655333	813.688477	-11.379253
19334.764255	16915.655333	812.500977	274.467377
19334.764255	16915.655333	811.313477	26.960676
19334.764255	16915.655333	810.125977	-284.993561
19334.764255	16915.655333	808.937500	-143.445908
19334.764255	16915.655333	807.749023	-158.870239
19334.764255	16915.655333	806.560547	-230.208405
19334.764255	16915.655333	805.372070	59.214901
19334.764255	16915.655333	804.182617	-128.219513
19334.764255	16915.655333	802.994141	100.811172
19334.764255	16915.655333	801.803711	149.401306
19334.764255	16915.655333	800.614258	99.182129
19334.764255	16915.655333	799.424805	-79.817223
19334.764255	16915.655333	798.234375	633.502441
19334.764255	16915.655333	797.043945	126.214661
19334.764255	16915.655333	795.852539	341.625427
19334.764255	16915.655333	794.662109	-2.627079
19334.764255	16915.655333	793.470703	208.282639
19334.764255	16915.655333	792.279297	412.600159
19334.764255	16915.655333	791.087891	235.422546
19334.764255	16915.655333	789.895508	306.705963
19334.764255	16915.655333	788.703125	208.707886
19334.764255	16915.655333	787.510742	200.591766
19334.764255	16915.655333	786.318359	464.245728
19334.764255	16915.655333	785.125000	-6.333406
19334.764255	16915.655333	783.931641	-202.923065
19334.764255	16915.655333	782.738281	471.140228
19334.764255	16915.655333	781.544922	332.113678
19334.764255	16915.655333	780.350586	13.448913
19334.764255	16915.655333	779.156250	105.304314
19334.764255	16915.655333	777.961914	368.028870
19334.764255	16915.655333	776.767578	190.342667
19334.764255	16915.655333	775.572266	-280.054901
19334.764255	16915.655333	774.376953	112.637405
19334.764255	16915.655333	773.181641	293.649384
19334.764255	16915.655333	771.986328	9.021467
19334.764255	16915.655333	770.790039	-134.674210
19334.764255	16915.655333	769.593750	457.940002
19334.764255	16915.655333	768.397461	198.800964
19334.764255	16915.655333	767.201172	97.552628
19334.764255	16915.655333	766.003906	171.165253
19334.764255	16915.655333	764.806641	93.245285
19334.764255	16915.655333	763.609375	407.569458
19334.764255	16915.655333	762.412109	410.447723
19334.764255	16915.655333	761.213867	219.297318
19334.764255	16915.655333	760.015625	405.275757
19334.764255	16915.655333	758.817383	646.470337
19334.764255	16915.655333	757.618164	235.727783
19334.764255	16915.655333	756.419922	108.270729
19334.764255	16915.655333	755.220703	383.152496
19334.764255	16915.655333	754.021484	151.228302
19334.764255	16915.655333	752.821289	536.455872
19334.764255	16915.655333	751.621094	372.485504
19334.764255	16915.655333	750.420898	191.466995
19334.764255	16915.655333	749.220703	63.589230
19334.764255	16915.655333	748.020508	186.572342
19334.764255	16915.655333	746.819336	35.166607
19334.764255	16915.655333	745.618164	221.665375
19334.764255	16915.655333	744.416992	388.859070
19334.764255	16915.655333	743.214844	564.380615
19334.764255	16915.655333	742.012695	431.726685
19334.764255	16915.655333	740.810547	685.531494
19334.764255	16915.655333	739.608398	843.577820
19334.764255	16915.655333	738.406250	746.716614
19334.764255	16915.655333	737.203125	932.064697
19334.764255	16915.655333	736.000000	1278.490479
19334.764255	16915.655333	734.795898	1686.190674
19334.764255	16915.655333	733.592773	1743.639282
19334.764255	16915.655333	732.388672	1898.501831
19334.764255	16915.655333	731.184570	1879.340210
19334.764255	16915.655333	729.979492	1751.976196
19334.764255	16915.655333	728.775391	1696.602905
19334.764255	16915.655333	727.570313	876.256592
19334.764255	16915.655333	726.365234	905.603027
19334.764255	16915.655333	725.160156	674.321533
19334.764255	16915.655333	723.954102	542.545715
19334.764255	16915.655333	722.748047	251.935959
19334.764255	16915.655333	721.541992	509.527039
19334.764255	16915.655333	720.334961	204.005035
19334.764255	16915.655333	719.128906	154.492798
19334.764255	16915.655333	717.921875	339.681122
19334.764255	16915.655333	716.714844	302.619598
19334.764255	16915.655333	715.506836	172.429565
19334.764255	16915.655333	714.298828	323.326843
19334.764255	16915.655333	713.090820	182.385422
19334.764255	16915.655333	711.882813	32.931213
19334.764255	16915.655333	710.674805	79.895668
19334.764255	16915.655333	709.465820	213.321579
19334.764255	16915.655333	708.256836	44.597229
19334.764255	16915.655333	707.047852	152.402145
19334.764255	16915.655333	705.837891	74.292572
19334.764255	16915.655333	704.627930	154.375885
19334.764255	16915.655333	703.417969	274.394165
19334.764255	16915.655333	702.208008	-225.949554
19334.764255	16915.655333	700.998047	-106.141640
19334.764255	16915.655333	699.787109	207.490967
19334.764255	16915.655333	698.576172	126.644104
19334.764255	16915.655333	697.364258	-114.474159
19334.764255	16915.655333	696.153320	-81.666733
19334.764255	16915.655333	694.941406	-211.216766
19334.764255	16915.655333	693.729492	-104.918167
19334.764255	16915.655333	692.516602	-2.994798
19334.764255	16915.655333	691.304688	305.106750
19334.764255	16915.655333	690.091797	-146.973511
19334.764255	16915.655333	688.878906	249.181931
19334.764255	16915.655333	687.665039	445.155548
19334.764255	16915.655333	686.451172	41.357296
19334.764255	16915.655333	685.237305	792.324524
19334.764255	16915.655333	684.023438	760.590637
19334.764255	16915.655333	682.809570	716.136475
19334.764255	16915.655333	681.594727	877.577393
19334.764255	16915.655333	680.379883	681.567993
19334.764255	16915.655333	679.165039	662.016968
19334.764255	16915.655333	677.949219	621.347961
19334.764255	16915.655333	676.733398	662.485535
19334.764255	16915.655333	675.517578	428.420471
19334.764255	16915.655333	674.301758	662.485229
19334.764255	16915.655333	673.084961	436.679443
19334.764255	16915.655333	671.869141	561.292480
19334.764255	16915.655333	670.651367	492.718445
19334.764255	16915.655333	669.434570	319.183533
19334.764255	16915.655333	668.216797	376.285797
19334.764255	16915.655333	667.000000	642.918823
19334.764255	16915.655333	665.781250	641.007141
19334.764255	16915.655333	664.563477	494.375732
19334.764255	16915.655333	663.344727	351.883789
19334.764255	16915.655333	662.125977	655.551086
19334.764255	16915.655333	660.907227	634.341248
19334.764255	16915.655333	659.688477	372.218048
19334.764255	16915.655333	658.468750	742.352356
19334.764255	16915.655333	657.249023	930.119812
19334.764255	16915.655333	656.029297	931.451111
19334.764255	16915.655333	654.808594	679.510986
19334.764255	16915.655333	653.587891	793.638428
19334.764255	16915.655333	652.367188	729.846130
19334.764255	16915.655333	651.146484	640.885193
19334.764255	16915.655333	649.924805	614.570557
19334.764255	16915.655333	648.704102	707.300903
19334.764255	16915.655333	647.482422	1190.642578
19334.764255	16915.655333	646.259766	860.997009
19334.764255	16915.655333	645.037109	752.795654
19334.764255	16915.655333	643.815430	659.161682
19334.764255	16915.655333	642.591797	824.357422
19334.764255	16915.655333	641.369141	663.759888
19334.764255	16915.655333	640.145508	563.653564
19334.764255	16915.655333	638.921875	571.993896
19334.764255	16915.655333	637.698242	636.565552
19334.764255	16915.655333	636.474609	532.084717
19334.764255	16915.655333	635.250000	481.770203
19334.764255	16915.655333	634.025391	473.083771
19334.764255	16915.655333	632.800781	485.159760
19334.764255	16915.655333	631.575195	459.634857
19334.764255	16915.655333	630.349609	398.617493
19334.764255	16915.655333	629.124023	402.119080
19334.764255	16915.655333	627.898438	663.772095
19334.764255	16915.655333	626.671875	702.449463
19334.764255	16915.655333	625.445313	460.011932
19334.764255	16915.655333	624.218750	232.172165
19334.764255	16915.655333	622.992188	258.207306
19334.764255	16915.655333	621.764648	103.169823
19334.764255	16915.655333	620.537109	224.750916
19334.764255	16915.655333	619.309570	163.223892
19334.764255	16915.655333	618.081055	107.889175
19334.764255	16915.655333	616.852539	-49.335197
19334.764255	16915.655333	615.624023	-144.212982
19334.764255	16915.655333	614.395508	174.347595
19334.764255	16915.655333	613.166992	-34.903503
19334.764255	16915.655333	611.937500	-104.980400
19334.764255	16915.655333	610.708008	84.461052
19334.764255	16915.655333	609.477539	-60.456596
19334.764255	16915.655333	608.248047	-101.585777
19334.764255	16915.655333	607.017578	116.627190
19334.764255	16915.655333	605.787109	-100.961609
19334.764255	16915.655333	604.555664	-194.059738
19334.764255	16915.655333	603.325195	-119.185341
19334.764255	16915.655333	602.093750	1.222909
19334.764255	16915.655333	600.861328	127.756866
19334.764255	16915.655333	599.629883	61.472858
19334.764255	16915.655333	598.397461	204.443771
19334.764255	16915.655333	597.165039	-75.264999
19334.764255	16915.655333	595.932617	-31.797789
19334.764255	16915.655333	594.699219	-458.413025
19334.764255	16915.655333	593.465820	-191.363632
19334.764255	16915.655333	592.232422	-340.467712
19334.764255	16915.655333	590.999023	-206.035568
19334.764255	16915.655333	589.764648	-408.909698
19334.764255	16915.655333	588.530273	-433.829193
19334.764255	16915.655333	587.295898	153.364334
19334.764255	16915.655333	586.061523	18.727798
19334.764255	16915.655333	584.826172	169.393311
19334.764255	16915.655333	583.590820	-39.612621
19334.764255	16915.655333	582.355469	-122.496788
19334.764255	16915.655333	581.119141	-248.736465
19334.764255	16915.655333	579.882813	-129.148895
19334.764255	16915.655333	578.646484	-317.280762
19334.764255	16915.655333	577.410156	33.491165
19334.764255	16915.655333	576.172852	-233.027206
19334.764255	16915.655333	574.935547	-14.485220
19334.764255	16915.655333	573.698242	-394.333923
19334.764255	16915.655333	572.460938	-256.276306
19334.764255	16915.655333	571.222656	-128.580734
19334.764255	16915.655333	569.984375	-19.480642
19334.764255	16915.655333	568.746094	50.422424
19334.764255	16915.655333	567.506836	190.383545
19334.764255	16915.655333	566.267578	50.077335
19334.764255	16915.655333	565.028320	258.001801
19334.764255	16915.655333	563.789063	-290.013123
19334.764255	16915.655333	562.548828	125.918480
19334.764255	16915.655333	561.309570	6.434556
19334.764255	16915.655333	560.068359	86.677376
19334.764255	16915.655333	558.828125	12.582284
19334.764255	16915.655333	557.586914	31.132069
19334.764255	16915.655333	556.345703	-316.430817
19334.764255	16915.655333	555.104492	18.957647
19334.764255	16915.655333	553.863281	-133.052643
19334.764255	16915.655333	552.621094	401.625183
19334.764255	16915.655333	551.378906	52.373852
19334.764255	16915.655333	550.136719	112.212196
19334.764255	16915.655333	548.893555	110.435982
19334.764255	16915.655333	547.650391	30.656126
19334.764255	16915.655333	546.407227	22.826792
19334.764255	16915.655333	545.164063	-65.021774
19334.764255	16915.655333	543.919922	-29.633020
19334.764255	16915.655333	542.675781	-31.150438
19334.764255	16915.655333	541.431641	123.311432
19334.764255	16915.655333	540.186523	-1.219541
19334.764255	16915.655333	538.941406	50.724079
19334.764255	16915.655333	537.696289	143.703217
19334.764255	16915.655333	536.451172	125.997459
19334.764255	16915.655333	535.205078	395.275024
19334.764255	16915.655333	533.959961	152.229172
19334.764255	16915.655333	532.712891	429.678650
19334.764255	16915.655333	531.466797	-48.713203
19334.764255	16915.655333	530.219727	253.336975
19334.764255	16915.655333	528.972656	68.049210
19334.764255	16915.655333	527.725586	486.713898
19334.764255	16915.655333	526.478516	567.588135
19334.764255	16915.655333	525.230469	231.093262
19334.764255	16915.655333	523.982422	85.024811
19334.764255	16915.655333	522.734375	393.078796
19334.764255	16915.655333	521.485352	73.328598
19334.764255	16915.655333	520.236328	201.446045
19334.764255	16915.655333	518.987305	-58.771812
19334.764255	16915.655333	517.737305	98.001945
19334.764255	16915.655333	516.488281	416.138885
19334.764255	16915.655333	515.238281	644.304138
19334.764255	16915.655333	513.988281	488.500336
19334.764255	16915.655333	512.737305	459.370148
19334.764255	16915.655333	511.486328	609.900146
19334.764255	16915.655333	510.235352	715.495483
19334.764255	16915.655333	508.984375	794.541382
19334.764255	16915.655333	507.732422	777.695313
19334.764255	16915.655333	506.480469	658.899841
19334.764255	16915.655333	505.228516	784.840515
19334.764255	16915.655333	503.976563	912.770691
19334.764255	16915.655333	502.723633	1050.833252
19334.764255	16915.655333	501.470703	1223.471680
19334.764255	16915.655333	500.217773	1025.255005
19334.764255	16915.655333	498.963867	1258.901611
19334.764255	16915.655333	497.709961	1054.615601
19334.764255	16915.655333	496.456055	1251.461426
19334.764255	16915.655333	495.202148	1242.608765
19334.764255	16915.655333	493.947266	1486.059326
19334.764255	16915.655333	492.692383	1548.280273
19334.764255	16915.655333	491.437500	1665.344360
19334.764255	16915.655333	490.181641	1733.484985
19334.764255	16915.655333	488.926758	1878.794312
19334.764255	16915.655333	487.670898	1881.661865
19334.764255	16915.655333	486.414063	2213.686523
19334.764255	16915.655333	485.158203	2130.955566
19334.764255	16915.655333	483.901367	2308.187500
19334.764255	16915.655333	482.644531	2359.301514
19334.764255	16915.655333	481.386719	2459.002441
19334.764255	16915.655333	480.128906	2383.927979
19334.764255	16915.655333	478.871094	2499.535889
19334.764255	16915.655333	477.613281	2470.853760
19334.764255	16915.655333	476.355469	3079.084473
19334.764255	16915.655333	475.096680	2995.165039
19334.764255	16915.655333	473.837891	2647.445801
19334.764255	16915.655333	472.578125	2851.162842
19334.764255	16915.655333	471.319336	2936.999512
19334.764255	16915.655333	470.059570	2947.572266
19334.764255	16915.655333	468.799805	3415.820557
19334.764255	16915.655333	467.539063	3097.575439
19334.764255	16915.655333	466.278320	2953.369141
19334.764255	16915.655333	465.017578	2920.298584
19334.764255	16915.655333	463.756836	3101.523193
19334.764255	16915.655333	462.495117	3219.585205
19334.764255	16915.655333	461.233398	3280.578125
19334.764255	16915.655333	459.971680	3640.612793
19334.764255	16915.655333	458.709961	3512.611084
19334.764255	16915.655333	457.447266	3347.846680
19334.764255	16915.655333	456.184570	3845.900146
19334.764255	16915.655333	454.921875	3633.758301
19334.764255	16915.655333	453.658203	3455.582275
19334.764255	16915.655333	452.394531	3707.373535
19334.764255	16915.655333	451.130859	3647.428955
19334.764255	16915.655333	449.867188	3774.799805
19334.764255	16915.655333	448.602539	4115.580078
19334.764255	16915.655333	447.337891	4193.168457
19334.764255	16915.655333	446.073242	4146.979980
19334.764255	16915.655333	444.807617	3874.141357
19334.764255	16915.655333	443.542969	4123.296387
19334.764255	16915.655333	442.276367	4071.067383
19334.764255	16915.655333	441.010742	4080.658203
19334.764255	16915.655333	439.744141	3966.477539
19334.764255	16915.655333	438.478516	4278.909180
19334.764255	16915.655333	437.210938	4433.150879
19334.764255	16915.655333	435.944336	4076.715332
19334.764255	16915.655333	434.676758	4251.338379
19334.764255	16915.655333	433.409180	4463.228027
19334.764255	16915.655333	432.141602	4591.501953
19334.764255	16915.655333	430.873047	4295.937500
19334.764255	16915.655333	429.604492	4498.620605
19334.764255	16915.655333	428.335938	4144.744629
19334.764255	16915.655333	427.067383	4741.516602
19334.764255	16915.655333	425.797852	4630.839355
19334.764255	16915.655333	424.528320	4609.509277
19334.764255	16915.655333	423.258789	4355.730957
19334.764255	16915.655333	421.988281	4269.604004
19334.764255	16915.655333	420.717773	4310.804199
19334.764255	16915.655333	419.447266	4457.101563
19334.764255	16915.655333	418.175781	4589.829102
19334.764255	16915.655333	416.905273	4486.076660
19334.764255	16915.655333	415.633789	4762.324219
19334.764255	16915.655333	414.362305	4386.453125
19334.764255	16915.655333	413.089844	4695.504395
19334.764255	16915.655333	411.817383	4288.382813
19334.764255	16915.655333	410.544922	4517.675293
19334.764255	16915.655333	409.272461	4343.929688
19334.764255	16915.655333	407.999023	4258.617676
19334.764255	16915.655333	406.725586	4267.670898
19334.764255	16915.655333	405.452148	4623.527344
19334.764255	16915.655333	404.177734	4542.295410
19334.764255	16915.655333	402.903320	4364.840332
19334.764255	16915.655333	401.628906	4361.584473
19334.764255	16915.655333	400.354492	4522.342285
19334.764255	16915.655333	399.079102	4426.400879
19334.764255	16915.655333	397.803711	4045.892578
19334.764255	16915.655333	396.528320	4435.662598
19334.764255	16915.655333	395.251953	4578.594238
19334.764255	16915.655333	393.976563	4334.848633
19334.764255	16915.655333	392.700195	4326.518555
19334.764255	16915.655333	391.422852	4379.397949
19334.764255	16915.655333	390.145508	4093.580566
19334.764255	16915.655333	388.869141	3851.042969
19334.764255	16915.655333	387.590820	3991.195557
19334.764255	16915.655333	386.313477	3922.525391
19334.764255	16915.655333	385.035156	4036.443604
19334.764255	16915.655333	383.756836	3514.026855
19334.764255	16915.655333	382.478516	3779.188965
19334.764255	16915.655333	381.199219	3895.034180
19334.764255	16915.655333	379.919922	3869.621338
19334.764255	16915.655333	378.640625	3609.174805
19334.764255	16915.655333	377.360352	3917.597656
19334.764255	16915.655333	376.080078	3617.778564
19334.764255	16915.655333	374.799805	3549.494629
19334.764255	16915.655333	373.519531	3449.336914
19334.764255	16915.655333	372.238281	3460.629883
19334.764255	16915.655333	370.957031	3262.457275
19334.764255	16915.655333	369.675781	3289.169434
19334.764255	16915.655333	368.394531	3329.368896
19334.764255	16915.655333	367.112305	3428.623535
19334.764255	16915.655333	365.830078	3164.791016
19334.764255	16915.655333	364.546875	3146.986084
19334.764255	16915.655333	363.264648	2939.325684
19334.764255	16915.655333	361.981445	2885.783936
19334.764255	16915.655333	360.698242	2789.312256
19334.764255	16915.655333	359.414063	2846.571533
19334.764255	16915.655333	358.129883	2763.176025
19334.764255	16915.655333	356.845703	2725.957031
19334.764255	16915.655333	355.561523	2935.481201
19334.764255	16915.655333	354.276367	2675.948486
19334.764255	16915.655333	352.991211	2944.968018
19334.764255	16915.655333	351.706055	2276.219727
19334.764255	16915.655333	350.420898	2443.479004
19334.764255	16915.655333	349.134766	2351.943359
19334.764255	16915.655333	347.848633	2110.963623
19334.764255	16915.655333	346.561523	1998.131592
19334.764255	16915.655333	345.275391	1922.297852
19334.764255	16915.655333	343.988281	1872.986084
19334.764255	16915.655333	342.700195	1701.258911
19334.764255	16915.655333	341.413086	1673.114258
19334.764255	16915.655333	340.125000	1306.175171
19334.764255	16915.655333	338.836914	1700.639038
19334.764255	16915.655333	337.548828	1447.013672
19334.764255	16915.655333	336.259766	1119.814209
19334.764255	16915.655333	334.970703	1519.280884
19334.764255	16915.655333	333.681641	1080.419312
19334.764255	16915.655333	332.391602	1044.633911
19334.764255	16915.655333	331.101563	905.001038
19334.764255	16915.655333	329.811523	722.735229
19334.764255	16915.655333	328.521484	921.047485
19334.764255	16915.655333	327.230469	405.375031
19334.764255	16915.655333	325.939453	111.627220
19334.764255	16915.655333	324.648438	632.586365
19334.764255	16915.655333	323.356445	419.449493
19334.764255	16915.655333	322.064453	259.312012
19334.764255	16915.655333	320.772461	616.241882
19334.764255	16915.655333	319.480469	33.791622
19334.764255	16915.655333	318.187500	-38.349743
19334.764255	16915.655333	316.894531	-11.141832
19334.764255	16915.655333	315.601563	-179.036133
19334.764255	16915.655333	314.307617	-51.053509
19334.764255	16915.655333	313.013672	-94.965179
19334.764255	16915.655333	311.719727	-42.602222
19334.764255	16915.655333	310.425781	93.872101
19334.764255	16915.655333	309.130859	-72.741882
19334.764255	16915.655333	307.835938	-7.868599
19334.764255	16915.655333	306.541016	27.893707
19334.764255	16915.655333	305.245117	-608.572815
19334.764255	16915.655333	303.949219	-106.060219
19334.764255	16915.655333	302.653320	-29.625710
19334.764255	16915.655333	301.356445	-105.987488
19334.764255	16915.655333	300.060547	799.660461
19334.764255	16915.655333	298.763672	781.911133
