#X		#Y		#Wave		#Intensity
19475.755479	16928.876333	2000.043945	-177.870605
19475.755479	16928.876333	1999.080078	-23.851627
19475.755479	16928.876333	1998.116211	106.324249
19475.755479	16928.876333	1997.151367	-53.814796
19475.755479	16928.876333	1996.186523	-243.952957
19475.755479	16928.876333	1995.222656	11.554819
19475.755479	16928.876333	1994.256836	68.543373
19475.755479	16928.876333	1993.291992	187.109222
19475.755479	16928.876333	1992.327148	278.108978
19475.755479	16928.876333	1991.361328	94.038567
19475.755479	16928.876333	1990.395508	224.081696
19475.755479	16928.876333	1989.429688	81.624115
19475.755479	16928.876333	1988.463867	221.002533
19475.755479	16928.876333	1987.497070	164.683701
19475.755479	16928.876333	1986.531250	-131.750916
19475.755479	16928.876333	1985.564453	-138.997833
19475.755479	16928.876333	1984.597656	43.896725
19475.755479	16928.876333	1983.630859	4.051798
19475.755479	16928.876333	1982.664063	40.627254
19475.755479	16928.876333	1981.696289	131.355087
19475.755479	16928.876333	1980.728516	350.314331
19475.755479	16928.876333	1979.761719	107.129585
19475.755479	16928.876333	1978.792969	110.814461
19475.755479	16928.876333	1977.825195	-1.722889
19475.755479	16928.876333	1976.857422	226.271805
19475.755479	16928.876333	1975.888672	110.969910
19475.755479	16928.876333	1974.919922	-307.959503
19475.755479	16928.876333	1973.951172	111.950638
19475.755479	16928.876333	1972.982422	72.758995
19475.755479	16928.876333	1972.013672	289.932312
19475.755479	16928.876333	1971.043945	415.669830
19475.755479	16928.876333	1970.075195	149.246063
19475.755479	16928.876333	1969.105469	-13.671226
19475.755479	16928.876333	1968.135742	367.991394
19475.755479	16928.876333	1967.165039	-63.690941
19475.755479	16928.876333	1966.195313	-76.531197
19475.755479	16928.876333	1965.224609	233.195587
19475.755479	16928.876333	1964.253906	180.715057
19475.755479	16928.876333	1963.283203	61.686142
19475.755479	16928.876333	1962.312500	95.240234
19475.755479	16928.876333	1961.341797	30.250824
19475.755479	16928.876333	1960.370117	368.772034
19475.755479	16928.876333	1959.399414	45.276440
19475.755479	16928.876333	1958.427734	290.055267
19475.755479	16928.876333	1957.455078	123.967628
19475.755479	16928.876333	1956.483398	193.929550
19475.755479	16928.876333	1955.511719	214.638962
19475.755479	16928.876333	1954.539063	345.900879
19475.755479	16928.876333	1953.566406	37.161255
19475.755479	16928.876333	1952.593750	38.081631
19475.755479	16928.876333	1951.621094	237.942551
19475.755479	16928.876333	1950.647461	275.585541
19475.755479	16928.876333	1949.674805	40.586720
19475.755479	16928.876333	1948.701172	291.783997
19475.755479	16928.876333	1947.727539	-191.128937
19475.755479	16928.876333	1946.753906	32.954155
19475.755479	16928.876333	1945.780273	-8.091085
19475.755479	16928.876333	1944.805664	105.421791
19475.755479	16928.876333	1943.831055	106.033905
19475.755479	16928.876333	1942.856445	123.792503
19475.755479	16928.876333	1941.881836	75.320946
19475.755479	16928.876333	1940.907227	242.590134
19475.755479	16928.876333	1939.932617	-36.325592
19475.755479	16928.876333	1938.957031	27.950993
19475.755479	16928.876333	1937.981445	52.989906
19475.755479	16928.876333	1937.005859	195.599609
19475.755479	16928.876333	1936.030273	-139.466187
19475.755479	16928.876333	1935.054688	39.844978
19475.755479	16928.876333	1934.078125	255.818085
19475.755479	16928.876333	1933.101563	9.046234
19475.755479	16928.876333	1932.125000	38.931282
19475.755479	16928.876333	1931.148438	-237.072281
19475.755479	16928.876333	1930.171875	76.654045
19475.755479	16928.876333	1929.194336	184.795273
19475.755479	16928.876333	1928.217773	58.113888
19475.755479	16928.876333	1927.240234	-61.175716
19475.755479	16928.876333	1926.262695	159.405807
19475.755479	16928.876333	1925.284180	194.150665
19475.755479	16928.876333	1924.306641	-27.718016
19475.755479	16928.876333	1923.328125	75.480736
19475.755479	16928.876333	1922.350586	110.245293
19475.755479	16928.876333	1921.372070	179.205750
19475.755479	16928.876333	1920.392578	-20.465294
19475.755479	16928.876333	1919.414063	102.230263
19475.755479	16928.876333	1918.434570	88.195885
19475.755479	16928.876333	1917.456055	49.769367
19475.755479	16928.876333	1916.476563	-32.548229
19475.755479	16928.876333	1915.497070	-207.532211
19475.755479	16928.876333	1914.516602	215.193130
19475.755479	16928.876333	1913.537109	174.393021
19475.755479	16928.876333	1912.556641	-7.798782
19475.755479	16928.876333	1911.576172	-116.771095
19475.755479	16928.876333	1910.595703	-225.685867
19475.755479	16928.876333	1909.615234	48.066364
19475.755479	16928.876333	1908.633789	80.515396
19475.755479	16928.876333	1907.653320	-96.540764
19475.755479	16928.876333	1906.671875	-27.509483
19475.755479	16928.876333	1905.690430	233.889999
19475.755479	16928.876333	1904.708984	76.432976
19475.755479	16928.876333	1903.727539	-214.835785
19475.755479	16928.876333	1902.745117	-19.212807
19475.755479	16928.876333	1901.762695	-181.351151
19475.755479	16928.876333	1900.780273	179.661026
19475.755479	16928.876333	1899.797852	95.411339
19475.755479	16928.876333	1898.815430	-59.319290
19475.755479	16928.876333	1897.832031	31.611952
19475.755479	16928.876333	1896.849609	10.687892
19475.755479	16928.876333	1895.866211	167.223740
19475.755479	16928.876333	1894.882813	236.228241
19475.755479	16928.876333	1893.898438	-132.128525
19475.755479	16928.876333	1892.915039	85.114540
19475.755479	16928.876333	1891.930664	-8.598434
19475.755479	16928.876333	1890.947266	43.433811
19475.755479	16928.876333	1889.962891	165.868256
19475.755479	16928.876333	1888.977539	-70.992958
19475.755479	16928.876333	1887.993164	82.986862
19475.755479	16928.876333	1887.007813	132.577957
19475.755479	16928.876333	1886.023438	-21.637762
19475.755479	16928.876333	1885.038086	110.441971
19475.755479	16928.876333	1884.051758	21.789091
19475.755479	16928.876333	1883.066406	165.944427
19475.755479	16928.876333	1882.081055	-123.896790
19475.755479	16928.876333	1881.094727	228.693115
19475.755479	16928.876333	1880.108398	232.187271
19475.755479	16928.876333	1879.122070	0.659033
19475.755479	16928.876333	1878.135742	-298.611145
19475.755479	16928.876333	1877.148438	-212.662491
19475.755479	16928.876333	1876.162109	-88.008995
19475.755479	16928.876333	1875.174805	2.707316
19475.755479	16928.876333	1874.187500	42.551228
19475.755479	16928.876333	1873.199219	96.903404
19475.755479	16928.876333	1872.211914	-102.845901
19475.755479	16928.876333	1871.223633	169.239319
19475.755479	16928.876333	1870.236328	102.576675
19475.755479	16928.876333	1869.248047	-172.046310
19475.755479	16928.876333	1868.258789	-81.462639
19475.755479	16928.876333	1867.270508	-75.537926
19475.755479	16928.876333	1866.282227	-9.200183
19475.755479	16928.876333	1865.292969	-75.805237
19475.755479	16928.876333	1864.303711	-62.665291
19475.755479	16928.876333	1863.314453	172.695236
19475.755479	16928.876333	1862.324219	-72.665497
19475.755479	16928.876333	1861.334961	-33.015308
19475.755479	16928.876333	1860.344727	318.056122
19475.755479	16928.876333	1859.354492	116.205345
19475.755479	16928.876333	1858.364258	-49.386990
19475.755479	16928.876333	1857.374023	-159.438705
19475.755479	16928.876333	1856.383789	5.553056
19475.755479	16928.876333	1855.392578	98.107269
19475.755479	16928.876333	1854.401367	26.614973
19475.755479	16928.876333	1853.410156	70.860283
19475.755479	16928.876333	1852.418945	209.080460
19475.755479	16928.876333	1851.426758	60.411518
19475.755479	16928.876333	1850.435547	210.580215
19475.755479	16928.876333	1849.443359	105.279564
19475.755479	16928.876333	1848.451172	192.699570
19475.755479	16928.876333	1847.458984	-1.729169
19475.755479	16928.876333	1846.466797	239.726715
19475.755479	16928.876333	1845.473633	423.283142
19475.755479	16928.876333	1844.480469	447.872467
19475.755479	16928.876333	1843.487305	147.526840
19475.755479	16928.876333	1842.494141	314.051880
19475.755479	16928.876333	1841.500977	59.481762
19475.755479	16928.876333	1840.506836	153.735367
19475.755479	16928.876333	1839.513672	43.501118
19475.755479	16928.876333	1838.519531	-71.532578
19475.755479	16928.876333	1837.525391	234.115707
19475.755479	16928.876333	1836.530273	246.392075
19475.755479	16928.876333	1835.536133	282.647400
19475.755479	16928.876333	1834.541016	215.540497
19475.755479	16928.876333	1833.545898	124.394753
19475.755479	16928.876333	1832.550781	162.924057
19475.755479	16928.876333	1831.555664	184.584488
19475.755479	16928.876333	1830.560547	-24.277239
19475.755479	16928.876333	1829.564453	206.140182
19475.755479	16928.876333	1828.568359	232.439713
19475.755479	16928.876333	1827.572266	534.604797
19475.755479	16928.876333	1826.576172	-36.597885
19475.755479	16928.876333	1825.580078	109.502625
19475.755479	16928.876333	1824.583008	305.853943
19475.755479	16928.876333	1823.585938	156.830750
19475.755479	16928.876333	1822.588867	187.590439
19475.755479	16928.876333	1821.591797	103.245384
19475.755479	16928.876333	1820.594727	248.908020
19475.755479	16928.876333	1819.596680	363.316742
19475.755479	16928.876333	1818.599609	254.859360
19475.755479	16928.876333	1817.601563	98.490051
19475.755479	16928.876333	1816.603516	322.828125
19475.755479	16928.876333	1815.604492	221.445770
19475.755479	16928.876333	1814.606445	318.696167
19475.755479	16928.876333	1813.607422	284.234222
19475.755479	16928.876333	1812.608398	-80.455208
19475.755479	16928.876333	1811.609375	246.254044
19475.755479	16928.876333	1810.610352	115.964783
19475.755479	16928.876333	1809.610352	533.252808
19475.755479	16928.876333	1808.611328	359.790405
19475.755479	16928.876333	1807.611328	420.581512
19475.755479	16928.876333	1806.611328	285.312531
19475.755479	16928.876333	1805.610352	80.734818
19475.755479	16928.876333	1804.610352	308.564331
19475.755479	16928.876333	1803.609375	256.784851
19475.755479	16928.876333	1802.608398	193.012863
19475.755479	16928.876333	1801.607422	370.341522
19475.755479	16928.876333	1800.606445	170.360046
19475.755479	16928.876333	1799.605469	428.628387
19475.755479	16928.876333	1798.603516	128.342850
19475.755479	16928.876333	1797.601563	450.792175
19475.755479	16928.876333	1796.599609	202.946548
19475.755479	16928.876333	1795.597656	124.446053
19475.755479	16928.876333	1794.595703	208.042130
19475.755479	16928.876333	1793.592773	262.922943
19475.755479	16928.876333	1792.589844	253.350372
19475.755479	16928.876333	1791.587891	124.549484
19475.755479	16928.876333	1790.583984	253.044357
19475.755479	16928.876333	1789.581055	321.856903
19475.755479	16928.876333	1788.577148	285.769745
19475.755479	16928.876333	1787.574219	185.319885
19475.755479	16928.876333	1786.570313	161.016251
19475.755479	16928.876333	1785.566406	124.738518
19475.755479	16928.876333	1784.561523	52.695801
19475.755479	16928.876333	1783.557617	280.414063
19475.755479	16928.876333	1782.552734	55.948532
19475.755479	16928.876333	1781.547852	74.099205
19475.755479	16928.876333	1780.542969	-26.743599
19475.755479	16928.876333	1779.538086	162.445236
19475.755479	16928.876333	1778.532227	315.819733
19475.755479	16928.876333	1777.527344	150.567062
19475.755479	16928.876333	1776.521484	301.343170
19475.755479	16928.876333	1775.515625	219.141968
19475.755479	16928.876333	1774.508789	153.515671
19475.755479	16928.876333	1773.502930	56.954887
19475.755479	16928.876333	1772.496094	119.439186
19475.755479	16928.876333	1771.489258	184.189453
19475.755479	16928.876333	1770.482422	334.279755
19475.755479	16928.876333	1769.475586	170.967758
19475.755479	16928.876333	1768.467773	294.733063
19475.755479	16928.876333	1767.460938	107.596611
19475.755479	16928.876333	1766.453125	79.359390
19475.755479	16928.876333	1765.445313	266.838531
19475.755479	16928.876333	1764.437500	46.364098
19475.755479	16928.876333	1763.428711	-38.996811
19475.755479	16928.876333	1762.420898	169.471024
19475.755479	16928.876333	1761.412109	128.968246
19475.755479	16928.876333	1760.403320	285.029266
19475.755479	16928.876333	1759.393555	180.392853
19475.755479	16928.876333	1758.384766	250.956558
19475.755479	16928.876333	1757.375000	174.605957
19475.755479	16928.876333	1756.366211	240.237061
19475.755479	16928.876333	1755.356445	194.514435
19475.755479	16928.876333	1754.345703	262.307098
19475.755479	16928.876333	1753.335938	-176.324371
19475.755479	16928.876333	1752.325195	97.139641
19475.755479	16928.876333	1751.315430	110.260071
19475.755479	16928.876333	1750.304688	165.849213
19475.755479	16928.876333	1749.292969	-107.286354
19475.755479	16928.876333	1748.282227	11.971483
19475.755479	16928.876333	1747.270508	173.635757
19475.755479	16928.876333	1746.259766	42.168655
19475.755479	16928.876333	1745.248047	26.418869
19475.755479	16928.876333	1744.235352	-60.269833
19475.755479	16928.876333	1743.223633	-64.356590
19475.755479	16928.876333	1742.211914	18.830055
19475.755479	16928.876333	1741.199219	-134.155930
19475.755479	16928.876333	1740.186523	95.167122
19475.755479	16928.876333	1739.173828	220.496826
19475.755479	16928.876333	1738.160156	-60.091564
19475.755479	16928.876333	1737.147461	53.258305
19475.755479	16928.876333	1736.133789	246.661377
19475.755479	16928.876333	1735.120117	-31.661903
19475.755479	16928.876333	1734.106445	112.013466
19475.755479	16928.876333	1733.091797	12.781967
19475.755479	16928.876333	1732.078125	-62.923038
19475.755479	16928.876333	1731.063477	-70.358383
19475.755479	16928.876333	1730.048828	2.218293
19475.755479	16928.876333	1729.034180	-118.434723
19475.755479	16928.876333	1728.019531	255.364716
19475.755479	16928.876333	1727.003906	38.023220
19475.755479	16928.876333	1725.988281	-12.195023
19475.755479	16928.876333	1724.972656	-76.592201
19475.755479	16928.876333	1723.957031	101.304878
19475.755479	16928.876333	1722.941406	-87.923134
19475.755479	16928.876333	1721.924805	167.366409
19475.755479	16928.876333	1720.909180	159.112534
19475.755479	16928.876333	1719.892578	-164.263367
19475.755479	16928.876333	1718.875977	71.860909
19475.755479	16928.876333	1717.858398	-82.315567
19475.755479	16928.876333	1716.841797	-22.675430
19475.755479	16928.876333	1715.824219	6.323307
19475.755479	16928.876333	1714.806641	-79.856979
19475.755479	16928.876333	1713.789063	-60.397247
19475.755479	16928.876333	1712.770508	-195.987396
19475.755479	16928.876333	1711.752930	-120.315948
19475.755479	16928.876333	1710.734375	-176.183350
19475.755479	16928.876333	1709.715820	-131.195160
19475.755479	16928.876333	1708.697266	35.707920
19475.755479	16928.876333	1707.678711	-114.192108
19475.755479	16928.876333	1706.659180	45.465347
19475.755479	16928.876333	1705.640625	115.898804
19475.755479	16928.876333	1704.621094	99.492714
19475.755479	16928.876333	1703.600586	33.798462
19475.755479	16928.876333	1702.581055	5.566218
19475.755479	16928.876333	1701.561523	-95.351311
19475.755479	16928.876333	1700.541016	26.244055
19475.755479	16928.876333	1699.520508	75.124405
19475.755479	16928.876333	1698.500000	-210.932083
19475.755479	16928.876333	1697.478516	-120.012512
19475.755479	16928.876333	1696.458008	118.286369
19475.755479	16928.876333	1695.436523	302.601959
19475.755479	16928.876333	1694.415039	35.196934
19475.755479	16928.876333	1693.393555	-5.240355
19475.755479	16928.876333	1692.372070	-115.888695
19475.755479	16928.876333	1691.349609	163.975098
19475.755479	16928.876333	1690.327148	71.924446
19475.755479	16928.876333	1689.304688	33.620445
19475.755479	16928.876333	1688.282227	20.987825
19475.755479	16928.876333	1687.259766	87.754082
19475.755479	16928.876333	1686.236328	182.474243
19475.755479	16928.876333	1685.213867	188.351578
19475.755479	16928.876333	1684.190430	404.352570
19475.755479	16928.876333	1683.166016	321.347229
19475.755479	16928.876333	1682.142578	341.048859
19475.755479	16928.876333	1681.119141	472.729218
19475.755479	16928.876333	1680.094727	410.620850
19475.755479	16928.876333	1679.070313	231.834915
19475.755479	16928.876333	1678.045898	428.634125
19475.755479	16928.876333	1677.020508	445.725525
19475.755479	16928.876333	1675.996094	444.121765
19475.755479	16928.876333	1674.970703	400.507477
19475.755479	16928.876333	1673.945313	251.982300
19475.755479	16928.876333	1672.919922	487.992554
19475.755479	16928.876333	1671.893555	488.540070
19475.755479	16928.876333	1670.868164	470.421143
19475.755479	16928.876333	1669.841797	582.695007
19475.755479	16928.876333	1668.815430	343.268158
19475.755479	16928.876333	1667.789063	692.926819
19475.755479	16928.876333	1666.761719	514.018372
19475.755479	16928.876333	1665.735352	579.517151
19475.755479	16928.876333	1664.708008	686.835754
19475.755479	16928.876333	1663.680664	573.075989
19475.755479	16928.876333	1662.653320	484.918793
19475.755479	16928.876333	1661.625000	440.943787
19475.755479	16928.876333	1660.597656	310.942017
19475.755479	16928.876333	1659.569336	325.079651
19475.755479	16928.876333	1658.541016	267.140503
19475.755479	16928.876333	1657.512695	818.000610
19475.755479	16928.876333	1656.483398	467.208405
19475.755479	16928.876333	1655.455078	836.599976
19475.755479	16928.876333	1654.425781	564.857056
19475.755479	16928.876333	1653.396484	530.031067
19475.755479	16928.876333	1652.366211	845.730957
19475.755479	16928.876333	1651.336914	1035.964722
19475.755479	16928.876333	1650.306641	991.728577
19475.755479	16928.876333	1649.276367	1042.616821
19475.755479	16928.876333	1648.246094	801.199036
19475.755479	16928.876333	1647.215820	1146.616821
19475.755479	16928.876333	1646.185547	1104.658691
19475.755479	16928.876333	1645.154297	928.239868
19475.755479	16928.876333	1644.123047	1092.601440
19475.755479	16928.876333	1643.091797	1338.000488
19475.755479	16928.876333	1642.060547	1374.772095
19475.755479	16928.876333	1641.028320	1070.993774
19475.755479	16928.876333	1639.997070	1121.689453
19475.755479	16928.876333	1638.964844	1352.970459
19475.755479	16928.876333	1637.931641	1206.783081
19475.755479	16928.876333	1636.899414	1009.735229
19475.755479	16928.876333	1635.867188	1303.383057
19475.755479	16928.876333	1634.833984	1416.435059
19475.755479	16928.876333	1633.800781	1372.138062
19475.755479	16928.876333	1632.767578	1360.241455
19475.755479	16928.876333	1631.734375	1332.166016
19475.755479	16928.876333	1630.700195	1778.059937
19475.755479	16928.876333	1629.666016	1539.568359
19475.755479	16928.876333	1628.631836	1444.463989
19475.755479	16928.876333	1627.597656	1333.232300
19475.755479	16928.876333	1626.563477	1501.589233
19475.755479	16928.876333	1625.528320	1595.969971
19475.755479	16928.876333	1624.493164	1648.759888
19475.755479	16928.876333	1623.458008	1759.265015
19475.755479	16928.876333	1622.422852	1571.955078
19475.755479	16928.876333	1621.387695	1583.217773
19475.755479	16928.876333	1620.351563	1624.484741
19475.755479	16928.876333	1619.315430	1859.545410
19475.755479	16928.876333	1618.279297	1642.437988
19475.755479	16928.876333	1617.243164	1898.198975
19475.755479	16928.876333	1616.207031	2070.875977
19475.755479	16928.876333	1615.169922	2379.510254
19475.755479	16928.876333	1614.132813	2639.646973
19475.755479	16928.876333	1613.095703	2618.574219
19475.755479	16928.876333	1612.058594	3074.447510
19475.755479	16928.876333	1611.020508	3136.266846
19475.755479	16928.876333	1609.983398	3228.037598
19475.755479	16928.876333	1608.945313	3027.367676
19475.755479	16928.876333	1607.907227	2750.835938
19475.755479	16928.876333	1606.868164	2801.273926
19475.755479	16928.876333	1605.830078	2458.220459
19475.755479	16928.876333	1604.791016	2453.541504
19475.755479	16928.876333	1603.751953	2280.975342
19475.755479	16928.876333	1602.712891	2292.501953
19475.755479	16928.876333	1601.673828	2166.094482
19475.755479	16928.876333	1600.633789	2115.634766
19475.755479	16928.876333	1599.594727	1991.687256
19475.755479	16928.876333	1598.554688	1812.665894
19475.755479	16928.876333	1597.513672	1654.427246
19475.755479	16928.876333	1596.473633	1776.555786
19475.755479	16928.876333	1595.433594	1891.789917
19475.755479	16928.876333	1594.392578	1687.831543
19475.755479	16928.876333	1593.351563	2025.816895
19475.755479	16928.876333	1592.310547	1819.708008
19475.755479	16928.876333	1591.268555	1930.423462
19475.755479	16928.876333	1590.227539	1988.377075
19475.755479	16928.876333	1589.185547	1878.883667
19475.755479	16928.876333	1588.143555	1842.878174
19475.755479	16928.876333	1587.100586	1903.246094
19475.755479	16928.876333	1586.058594	2057.649170
19475.755479	16928.876333	1585.015625	1744.417847
19475.755479	16928.876333	1583.972656	2116.614014
19475.755479	16928.876333	1582.929688	1835.682007
19475.755479	16928.876333	1581.886719	1910.009277
19475.755479	16928.876333	1580.843750	1817.159424
19475.755479	16928.876333	1579.799805	1687.756714
19475.755479	16928.876333	1578.755859	1730.182617
19475.755479	16928.876333	1577.711914	1887.108154
19475.755479	16928.876333	1576.666992	1764.809814
19475.755479	16928.876333	1575.623047	1873.737305
19475.755479	16928.876333	1574.578125	1859.140137
19475.755479	16928.876333	1573.533203	1723.384155
19475.755479	16928.876333	1572.488281	1882.753540
19475.755479	16928.876333	1571.443359	1806.624023
19475.755479	16928.876333	1570.397461	2263.217773
19475.755479	16928.876333	1569.351563	1796.346069
19475.755479	16928.876333	1568.305664	2191.202637
19475.755479	16928.876333	1567.259766	1905.151855
19475.755479	16928.876333	1566.213867	1788.315552
19475.755479	16928.876333	1565.166992	1941.070801
19475.755479	16928.876333	1564.120117	1849.526611
19475.755479	16928.876333	1563.073242	1911.041260
19475.755479	16928.876333	1562.026367	1997.711426
19475.755479	16928.876333	1560.978516	2050.187500
19475.755479	16928.876333	1559.930664	2173.445801
19475.755479	16928.876333	1558.883789	2403.946533
19475.755479	16928.876333	1557.834961	2068.835449
19475.755479	16928.876333	1556.787109	1843.386108
19475.755479	16928.876333	1555.739258	1978.298096
19475.755479	16928.876333	1554.690430	1602.677734
19475.755479	16928.876333	1553.641602	1493.906494
19475.755479	16928.876333	1552.592773	1622.208130
19475.755479	16928.876333	1551.542969	1730.036255
19475.755479	16928.876333	1550.494141	1644.325317
19475.755479	16928.876333	1549.444336	1524.570313
19475.755479	16928.876333	1548.394531	1300.226807
19475.755479	16928.876333	1547.344727	1422.026123
19475.755479	16928.876333	1546.293945	1213.887451
19475.755479	16928.876333	1545.244141	1260.743774
19475.755479	16928.876333	1544.193359	1319.040649
19475.755479	16928.876333	1543.142578	1209.102051
19475.755479	16928.876333	1542.090820	1306.216797
19475.755479	16928.876333	1541.040039	928.237305
19475.755479	16928.876333	1539.988281	1082.371094
19475.755479	16928.876333	1538.936523	1093.365967
19475.755479	16928.876333	1537.884766	1097.632568
19475.755479	16928.876333	1536.833008	1263.273193
19475.755479	16928.876333	1535.780273	829.346436
19475.755479	16928.876333	1534.727539	1042.845703
19475.755479	16928.876333	1533.674805	997.541077
19475.755479	16928.876333	1532.622070	947.808167
19475.755479	16928.876333	1531.569336	768.834961
19475.755479	16928.876333	1530.515625	626.328918
19475.755479	16928.876333	1529.461914	1017.074036
19475.755479	16928.876333	1528.408203	1221.779785
19475.755479	16928.876333	1527.354492	972.981873
19475.755479	16928.876333	1526.299805	735.714233
19475.755479	16928.876333	1525.246094	861.314697
19475.755479	16928.876333	1524.191406	762.602844
19475.755479	16928.876333	1523.136719	765.990906
19475.755479	16928.876333	1522.081055	776.272949
19475.755479	16928.876333	1521.026367	684.731384
19475.755479	16928.876333	1519.970703	790.334839
19475.755479	16928.876333	1518.915039	778.270630
19475.755479	16928.876333	1517.859375	988.140625
19475.755479	16928.876333	1516.802734	668.460022
19475.755479	16928.876333	1515.747070	901.102112
19475.755479	16928.876333	1514.690430	586.296143
19475.755479	16928.876333	1513.633789	495.635040
19475.755479	16928.876333	1512.577148	823.461060
19475.755479	16928.876333	1511.519531	608.649109
19475.755479	16928.876333	1510.461914	518.352417
19475.755479	16928.876333	1509.405273	358.135925
19475.755479	16928.876333	1508.346680	525.724060
19475.755479	16928.876333	1507.289063	284.455505
19475.755479	16928.876333	1506.231445	571.912415
19475.755479	16928.876333	1505.172852	159.319885
19475.755479	16928.876333	1504.114258	327.242615
19475.755479	16928.876333	1503.055664	55.032391
19475.755479	16928.876333	1501.996094	44.832615
19475.755479	16928.876333	1500.937500	233.308517
19475.755479	16928.876333	1499.877930	288.719330
19475.755479	16928.876333	1498.818359	114.154556
19475.755479	16928.876333	1497.757813	163.019653
19475.755479	16928.876333	1496.698242	92.480972
19475.755479	16928.876333	1495.637695	89.704750
19475.755479	16928.876333	1494.577148	120.846466
19475.755479	16928.876333	1493.516602	-113.798820
19475.755479	16928.876333	1492.456055	210.458496
19475.755479	16928.876333	1491.394531	34.672874
19475.755479	16928.876333	1490.333008	102.276642
19475.755479	16928.876333	1489.271484	181.221100
19475.755479	16928.876333	1488.209961	-23.384295
19475.755479	16928.876333	1487.148438	163.806274
19475.755479	16928.876333	1486.085938	-103.492142
19475.755479	16928.876333	1485.023438	-26.369244
19475.755479	16928.876333	1483.960938	107.065659
19475.755479	16928.876333	1482.898438	-0.060442
19475.755479	16928.876333	1481.834961	99.821419
19475.755479	16928.876333	1480.772461	85.126274
19475.755479	16928.876333	1479.708984	-64.285271
19475.755479	16928.876333	1478.644531	-229.233200
19475.755479	16928.876333	1477.581055	-90.744553
19475.755479	16928.876333	1476.517578	151.157990
19475.755479	16928.876333	1475.453125	-136.877914
19475.755479	16928.876333	1474.388672	96.052956
19475.755479	16928.876333	1473.323242	111.301567
19475.755479	16928.876333	1472.258789	-81.785202
19475.755479	16928.876333	1471.193359	-77.509224
19475.755479	16928.876333	1470.127930	261.081177
19475.755479	16928.876333	1469.062500	404.548370
19475.755479	16928.876333	1467.997070	312.861053
19475.755479	16928.876333	1466.930664	472.042633
19475.755479	16928.876333	1465.865234	526.100769
19475.755479	16928.876333	1464.798828	591.664429
19475.755479	16928.876333	1463.731445	621.001404
19475.755479	16928.876333	1462.665039	742.304260
19475.755479	16928.876333	1461.597656	767.601013
19475.755479	16928.876333	1460.530273	699.016174
19475.755479	16928.876333	1459.462891	615.600342
19475.755479	16928.876333	1458.395508	524.689209
19475.755479	16928.876333	1457.327148	462.918396
19475.755479	16928.876333	1456.259766	444.240875
19475.755479	16928.876333	1455.191406	671.201477
19475.755479	16928.876333	1454.123047	740.215027
19475.755479	16928.876333	1453.053711	616.714233
19475.755479	16928.876333	1451.985352	596.239319
19475.755479	16928.876333	1450.916016	662.839600
19475.755479	16928.876333	1449.846680	782.828003
19475.755479	16928.876333	1448.776367	803.708008
19475.755479	16928.876333	1447.707031	842.579224
19475.755479	16928.876333	1446.636719	766.533081
19475.755479	16928.876333	1445.566406	776.651428
19475.755479	16928.876333	1444.496094	572.088257
19475.755479	16928.876333	1443.425781	612.001404
19475.755479	16928.876333	1442.354492	663.580505
19475.755479	16928.876333	1441.283203	703.000671
19475.755479	16928.876333	1440.211914	537.320251
19475.755479	16928.876333	1439.140625	655.193115
19475.755479	16928.876333	1438.069336	744.187317
19475.755479	16928.876333	1436.997070	306.627594
19475.755479	16928.876333	1435.924805	337.616364
19475.755479	16928.876333	1434.852539	590.846619
19475.755479	16928.876333	1433.780273	384.261230
19475.755479	16928.876333	1432.707031	156.861221
19475.755479	16928.876333	1431.633789	337.232880
19475.755479	16928.876333	1430.560547	573.332825
19475.755479	16928.876333	1429.487305	241.691849
19475.755479	16928.876333	1428.413086	351.317108
19475.755479	16928.876333	1427.339844	424.685303
19475.755479	16928.876333	1426.265625	267.957672
19475.755479	16928.876333	1425.191406	304.815674
19475.755479	16928.876333	1424.116211	82.376099
19475.755479	16928.876333	1423.041992	525.798523
19475.755479	16928.876333	1421.966797	626.059265
19475.755479	16928.876333	1420.891602	574.456665
19475.755479	16928.876333	1419.816406	306.843597
19475.755479	16928.876333	1418.740234	556.997559
19475.755479	16928.876333	1417.665039	288.231415
19475.755479	16928.876333	1416.588867	699.241150
19475.755479	16928.876333	1415.512695	668.267883
19475.755479	16928.876333	1414.435547	459.894043
19475.755479	16928.876333	1413.359375	598.343811
19475.755479	16928.876333	1412.282227	696.151855
19475.755479	16928.876333	1411.205078	397.129120
19475.755479	16928.876333	1410.127930	627.679382
19475.755479	16928.876333	1409.049805	525.520142
19475.755479	16928.876333	1407.972656	536.790833
19475.755479	16928.876333	1406.894531	539.788635
19475.755479	16928.876333	1405.816406	604.271240
19475.755479	16928.876333	1404.737305	405.288635
19475.755479	16928.876333	1403.659180	711.256775
19475.755479	16928.876333	1402.580078	645.123901
19475.755479	16928.876333	1401.500977	520.190369
19475.755479	16928.876333	1400.421875	475.381348
19475.755479	16928.876333	1399.341797	519.331177
19475.755479	16928.876333	1398.262695	687.722412
19475.755479	16928.876333	1397.182617	982.937805
19475.755479	16928.876333	1396.102539	412.187347
19475.755479	16928.876333	1395.021484	661.205322
19475.755479	16928.876333	1393.941406	458.277222
19475.755479	16928.876333	1392.860352	492.645630
19475.755479	16928.876333	1391.779297	560.698059
19475.755479	16928.876333	1390.698242	767.761902
19475.755479	16928.876333	1389.616211	547.155823
19475.755479	16928.876333	1388.535156	678.562866
19475.755479	16928.876333	1387.453125	327.224426
19475.755479	16928.876333	1386.371094	746.367493
19475.755479	16928.876333	1385.288086	671.263977
19475.755479	16928.876333	1384.206055	485.662811
19475.755479	16928.876333	1383.123047	357.823578
19475.755479	16928.876333	1382.040039	285.078308
19475.755479	16928.876333	1380.957031	443.930176
19475.755479	16928.876333	1379.873047	393.481567
19475.755479	16928.876333	1378.789063	522.911987
19475.755479	16928.876333	1377.705078	794.208923
19475.755479	16928.876333	1376.621094	433.928345
19475.755479	16928.876333	1375.537109	516.809692
19475.755479	16928.876333	1374.452148	499.391174
19475.755479	16928.876333	1373.367188	508.447662
19475.755479	16928.876333	1372.282227	611.943237
19475.755479	16928.876333	1371.197266	467.181763
19475.755479	16928.876333	1370.112305	715.387146
19475.755479	16928.876333	1369.026367	709.463135
19475.755479	16928.876333	1367.940430	460.824799
19475.755479	16928.876333	1366.854492	480.668671
19475.755479	16928.876333	1365.767578	507.668213
19475.755479	16928.876333	1364.681641	398.310089
19475.755479	16928.876333	1363.594727	480.862030
19475.755479	16928.876333	1362.507813	523.916504
19475.755479	16928.876333	1361.419922	742.743042
19475.755479	16928.876333	1360.333008	590.042542
19475.755479	16928.876333	1359.245117	609.534363
19475.755479	16928.876333	1358.157227	616.469055
19475.755479	16928.876333	1357.069336	642.937561
19475.755479	16928.876333	1355.981445	686.815979
19475.755479	16928.876333	1354.892578	792.635803
19475.755479	16928.876333	1353.803711	865.700012
19475.755479	16928.876333	1352.714844	862.187378
19475.755479	16928.876333	1351.625000	1001.149170
19475.755479	16928.876333	1350.536133	999.671997
19475.755479	16928.876333	1349.446289	1202.566040
19475.755479	16928.876333	1348.356445	1258.104614
19475.755479	16928.876333	1347.266602	1090.949219
19475.755479	16928.876333	1346.175781	1457.113892
19475.755479	16928.876333	1345.085938	1450.936890
19475.755479	16928.876333	1343.995117	1514.588257
19475.755479	16928.876333	1342.903320	1578.606323
19475.755479	16928.876333	1341.812500	1333.743042
19475.755479	16928.876333	1340.720703	1436.422485
19475.755479	16928.876333	1339.629883	1418.621216
19475.755479	16928.876333	1338.538086	1644.146240
19475.755479	16928.876333	1337.445313	1356.299805
19475.755479	16928.876333	1336.353516	1378.091064
19475.755479	16928.876333	1335.260742	1445.733643
19475.755479	16928.876333	1334.167969	1490.601929
19475.755479	16928.876333	1333.075195	1173.199097
19475.755479	16928.876333	1331.981445	1290.717529
19475.755479	16928.876333	1330.888672	1360.281494
19475.755479	16928.876333	1329.794922	1403.085327
19475.755479	16928.876333	1328.701172	1678.776855
19475.755479	16928.876333	1327.606445	1607.132568
19475.755479	16928.876333	1326.512695	1674.520386
19475.755479	16928.876333	1325.417969	1690.861938
19475.755479	16928.876333	1324.323242	1680.779053
19475.755479	16928.876333	1323.227539	1688.882568
19475.755479	16928.876333	1322.132813	1757.942505
19475.755479	16928.876333	1321.037109	1664.160034
19475.755479	16928.876333	1319.941406	1567.834473
19475.755479	16928.876333	1318.845703	1420.968994
19475.755479	16928.876333	1317.750000	1471.055054
19475.755479	16928.876333	1316.653320	1366.822632
19475.755479	16928.876333	1315.556641	1493.953979
19475.755479	16928.876333	1314.459961	1443.768799
19475.755479	16928.876333	1313.363281	1392.396851
19475.755479	16928.876333	1312.265625	1339.310669
19475.755479	16928.876333	1311.167969	1333.370239
19475.755479	16928.876333	1310.070313	1131.396851
19475.755479	16928.876333	1308.972656	869.215820
19475.755479	16928.876333	1307.874023	927.176758
19475.755479	16928.876333	1306.776367	852.589844
19475.755479	16928.876333	1305.677734	759.182312
19475.755479	16928.876333	1304.579102	739.411499
19475.755479	16928.876333	1303.479492	750.154358
19475.755479	16928.876333	1302.380859	756.215149
19475.755479	16928.876333	1301.281250	656.301697
19475.755479	16928.876333	1300.181641	868.297058
19475.755479	16928.876333	1299.081055	844.230713
19475.755479	16928.876333	1297.981445	750.898743
19475.755479	16928.876333	1296.880859	820.716309
19475.755479	16928.876333	1295.780273	921.671875
19475.755479	16928.876333	1294.679688	683.409180
19475.755479	16928.876333	1293.578125	664.465515
19475.755479	16928.876333	1292.476563	654.102722
19475.755479	16928.876333	1291.375000	683.696960
19475.755479	16928.876333	1290.273438	668.975952
19475.755479	16928.876333	1289.171875	785.354919
19475.755479	16928.876333	1288.069336	589.572388
19475.755479	16928.876333	1286.966797	536.202637
19475.755479	16928.876333	1285.864258	667.012512
19475.755479	16928.876333	1284.761719	610.616455
19475.755479	16928.876333	1283.658203	569.295959
19475.755479	16928.876333	1282.554688	520.359741
19475.755479	16928.876333	1281.451172	404.586365
19475.755479	16928.876333	1280.347656	474.191772
19475.755479	16928.876333	1279.244141	273.440857
19475.755479	16928.876333	1278.139648	327.074127
19475.755479	16928.876333	1277.035156	503.728455
19475.755479	16928.876333	1275.930664	464.524139
19475.755479	16928.876333	1274.825195	459.500549
19475.755479	16928.876333	1273.720703	535.490723
19475.755479	16928.876333	1272.615234	536.451172
19475.755479	16928.876333	1271.508789	565.135010
19475.755479	16928.876333	1270.403320	614.845947
19475.755479	16928.876333	1269.297852	722.471130
19475.755479	16928.876333	1268.191406	616.893616
19475.755479	16928.876333	1267.084961	588.277649
19475.755479	16928.876333	1265.977539	512.242737
19475.755479	16928.876333	1264.871094	447.262482
19475.755479	16928.876333	1263.763672	501.328613
19475.755479	16928.876333	1262.656250	560.269409
19475.755479	16928.876333	1261.548828	439.277466
19475.755479	16928.876333	1260.440430	339.220367
19475.755479	16928.876333	1259.333008	580.981995
19475.755479	16928.876333	1258.224609	312.001251
19475.755479	16928.876333	1257.115234	314.521545
19475.755479	16928.876333	1256.006836	351.118286
19475.755479	16928.876333	1254.897461	573.702942
19475.755479	16928.876333	1253.788086	607.601990
19475.755479	16928.876333	1252.678711	640.769775
19475.755479	16928.876333	1251.569336	477.971283
19475.755479	16928.876333	1250.458984	409.997803
19475.755479	16928.876333	1249.349609	663.778442
19475.755479	16928.876333	1248.239258	671.349548
19475.755479	16928.876333	1247.127930	467.429169
19475.755479	16928.876333	1246.017578	633.272705
19475.755479	16928.876333	1244.906250	767.564880
19475.755479	16928.876333	1243.794922	634.075623
19475.755479	16928.876333	1242.683594	740.575806
19475.755479	16928.876333	1241.571289	630.971863
19475.755479	16928.876333	1240.459961	464.249847
19475.755479	16928.876333	1239.347656	309.746674
19475.755479	16928.876333	1238.234375	253.104279
19475.755479	16928.876333	1237.122070	305.763855
19475.755479	16928.876333	1236.008789	328.634552
19475.755479	16928.876333	1234.896484	343.165405
19475.755479	16928.876333	1233.782227	258.926422
19475.755479	16928.876333	1232.668945	109.705872
19475.755479	16928.876333	1231.555664	165.904266
19475.755479	16928.876333	1230.441406	294.500214
19475.755479	16928.876333	1229.327148	166.842072
19475.755479	16928.876333	1228.211914	1.623246
19475.755479	16928.876333	1227.097656	-51.999798
19475.755479	16928.876333	1225.982422	-36.510830
19475.755479	16928.876333	1224.867188	57.788254
19475.755479	16928.876333	1223.751953	-122.382378
19475.755479	16928.876333	1222.635742	-49.964176
19475.755479	16928.876333	1221.520508	20.980837
19475.755479	16928.876333	1220.404297	7.857356
19475.755479	16928.876333	1219.287109	-50.971920
19475.755479	16928.876333	1218.170898	-40.658672
19475.755479	16928.876333	1217.053711	24.492666
19475.755479	16928.876333	1215.936523	-4.866429
19475.755479	16928.876333	1214.819336	-10.175888
19475.755479	16928.876333	1213.702148	-110.414696
19475.755479	16928.876333	1212.583984	-44.639732
19475.755479	16928.876333	1211.465820	16.302561
19475.755479	16928.876333	1210.347656	-23.232794
19475.755479	16928.876333	1209.229492	7.792821
19475.755479	16928.876333	1208.110352	32.164227
19475.755479	16928.876333	1206.992188	112.767479
19475.755479	16928.876333	1205.873047	-23.544153
19475.755479	16928.876333	1204.752930	75.412399
19475.755479	16928.876333	1203.633789	182.537094
19475.755479	16928.876333	1202.513672	202.665436
19475.755479	16928.876333	1201.393555	75.222786
19475.755479	16928.876333	1200.273438	138.847458
19475.755479	16928.876333	1199.152344	-92.125183
19475.755479	16928.876333	1198.032227	59.920036
19475.755479	16928.876333	1196.911133	98.123001
19475.755479	16928.876333	1195.790039	88.997177
19475.755479	16928.876333	1194.667969	-15.409249
19475.755479	16928.876333	1193.545898	-21.717501
19475.755479	16928.876333	1192.424805	-0.456835
19475.755479	16928.876333	1191.301758	233.168167
19475.755479	16928.876333	1190.179688	22.289143
19475.755479	16928.876333	1189.056641	-53.737644
19475.755479	16928.876333	1187.933594	88.271484
19475.755479	16928.876333	1186.810547	42.113102
19475.755479	16928.876333	1185.687500	-70.555870
19475.755479	16928.876333	1184.563477	-48.693386
19475.755479	16928.876333	1183.440430	-17.198898
19475.755479	16928.876333	1182.316406	-48.326916
19475.755479	16928.876333	1181.191406	248.152634
19475.755479	16928.876333	1180.067383	2.021229
19475.755479	16928.876333	1178.942383	40.895226
19475.755479	16928.876333	1177.817383	-32.937763
19475.755479	16928.876333	1176.692383	-22.448690
19475.755479	16928.876333	1175.566406	91.697205
19475.755479	16928.876333	1174.440430	-112.251411
19475.755479	16928.876333	1173.314453	130.736496
19475.755479	16928.876333	1172.188477	-3.008228
19475.755479	16928.876333	1171.062500	-109.671356
19475.755479	16928.876333	1169.935547	10.910801
19475.755479	16928.876333	1168.808594	103.629738
19475.755479	16928.876333	1167.681641	-188.321365
19475.755479	16928.876333	1166.553711	-127.259407
19475.755479	16928.876333	1165.426758	-138.280701
19475.755479	16928.876333	1164.298828	-83.821587
19475.755479	16928.876333	1163.170898	-84.840912
19475.755479	16928.876333	1162.041992	-19.099068
19475.755479	16928.876333	1160.914063	89.417366
19475.755479	16928.876333	1159.785156	234.648697
19475.755479	16928.876333	1158.656250	32.636261
19475.755479	16928.876333	1157.526367	-184.020111
19475.755479	16928.876333	1156.397461	0.940421
19475.755479	16928.876333	1155.267578	-131.364395
19475.755479	16928.876333	1154.137695	-119.720200
19475.755479	16928.876333	1153.006836	-201.029236
19475.755479	16928.876333	1151.876953	-14.041047
19475.755479	16928.876333	1150.746094	-126.009300
19475.755479	16928.876333	1149.615234	-14.159859
19475.755479	16928.876333	1148.484375	104.150764
19475.755479	16928.876333	1147.352539	-67.077545
19475.755479	16928.876333	1146.220703	-86.312668
19475.755479	16928.876333	1145.088867	-235.130844
19475.755479	16928.876333	1143.957031	40.042095
19475.755479	16928.876333	1142.825195	-7.716752
19475.755479	16928.876333	1141.692383	-85.502396
19475.755479	16928.876333	1140.559570	42.686272
19475.755479	16928.876333	1139.426758	39.856052
19475.755479	16928.876333	1138.292969	208.359085
19475.755479	16928.876333	1137.159180	97.555031
19475.755479	16928.876333	1136.025391	188.066910
19475.755479	16928.876333	1134.891602	132.729691
19475.755479	16928.876333	1133.757813	177.668381
19475.755479	16928.876333	1132.623047	240.268127
19475.755479	16928.876333	1131.488281	199.721832
19475.755479	16928.876333	1130.353516	280.790253
19475.755479	16928.876333	1129.217773	188.409256
19475.755479	16928.876333	1128.083008	34.960114
19475.755479	16928.876333	1126.947266	276.722656
19475.755479	16928.876333	1125.811523	242.780624
19475.755479	16928.876333	1124.674805	241.605850
19475.755479	16928.876333	1123.539063	98.000916
19475.755479	16928.876333	1122.402344	-60.875793
19475.755479	16928.876333	1121.265625	-44.313362
19475.755479	16928.876333	1120.127930	52.698940
19475.755479	16928.876333	1118.990234	108.447327
19475.755479	16928.876333	1117.853516	134.396881
19475.755479	16928.876333	1116.714844	205.084305
19475.755479	16928.876333	1115.577148	32.085400
19475.755479	16928.876333	1114.439453	66.245781
19475.755479	16928.876333	1113.300781	32.752720
19475.755479	16928.876333	1112.162109	226.804825
19475.755479	16928.876333	1111.022461	259.278717
19475.755479	16928.876333	1109.883789	306.433167
19475.755479	16928.876333	1108.744141	321.388489
19475.755479	16928.876333	1107.604492	162.239960
19475.755479	16928.876333	1106.463867	267.218567
19475.755479	16928.876333	1105.324219	298.156647
19475.755479	16928.876333	1104.183594	283.763092
19475.755479	16928.876333	1103.042969	244.420441
19475.755479	16928.876333	1101.902344	285.698212
19475.755479	16928.876333	1100.760742	296.923859
19475.755479	16928.876333	1099.619141	278.379578
19475.755479	16928.876333	1098.477539	136.696304
19475.755479	16928.876333	1097.335938	132.511978
19475.755479	16928.876333	1096.193359	115.307205
19475.755479	16928.876333	1095.051758	404.422943
19475.755479	16928.876333	1093.909180	193.001953
19475.755479	16928.876333	1092.765625	331.213226
19475.755479	16928.876333	1091.623047	347.739716
19475.755479	16928.876333	1090.479492	325.830444
19475.755479	16928.876333	1089.335938	92.243515
19475.755479	16928.876333	1088.192383	167.343369
19475.755479	16928.876333	1087.047852	243.837921
19475.755479	16928.876333	1085.903320	79.422935
19475.755479	16928.876333	1084.758789	109.209946
19475.755479	16928.876333	1083.614258	214.595657
19475.755479	16928.876333	1082.469727	198.582245
19475.755479	16928.876333	1081.324219	117.005363
19475.755479	16928.876333	1080.178711	-117.338425
19475.755479	16928.876333	1079.033203	45.228844
19475.755479	16928.876333	1077.886719	41.966541
19475.755479	16928.876333	1076.740234	359.115692
19475.755479	16928.876333	1075.593750	17.366001
19475.755479	16928.876333	1074.447266	192.373947
19475.755479	16928.876333	1073.300781	-16.794777
19475.755479	16928.876333	1072.153320	176.639526
19475.755479	16928.876333	1071.005859	-64.965691
19475.755479	16928.876333	1069.858398	181.706223
19475.755479	16928.876333	1068.709961	29.208317
19475.755479	16928.876333	1067.561523	109.399132
19475.755479	16928.876333	1066.413086	209.652939
19475.755479	16928.876333	1065.264648	-23.928411
19475.755479	16928.876333	1064.116211	164.595764
19475.755479	16928.876333	1062.966797	204.036179
19475.755479	16928.876333	1061.817383	-32.692810
19475.755479	16928.876333	1060.667969	-83.849686
19475.755479	16928.876333	1059.517578	228.945465
19475.755479	16928.876333	1058.368164	249.961914
19475.755479	16928.876333	1057.217773	34.298080
19475.755479	16928.876333	1056.067383	33.785530
19475.755479	16928.876333	1054.916016	107.814804
19475.755479	16928.876333	1053.764648	-7.449444
19475.755479	16928.876333	1052.613281	-13.087004
19475.755479	16928.876333	1051.461914	-95.629814
19475.755479	16928.876333	1050.310547	286.803284
19475.755479	16928.876333	1049.158203	-47.952995
19475.755479	16928.876333	1048.005859	-26.019957
19475.755479	16928.876333	1046.853516	232.407379
19475.755479	16928.876333	1045.700195	88.149986
19475.755479	16928.876333	1044.547852	241.314835
19475.755479	16928.876333	1043.394531	238.942947
19475.755479	16928.876333	1042.240234	229.827484
19475.755479	16928.876333	1041.086914	-7.632365
19475.755479	16928.876333	1039.932617	166.342484
19475.755479	16928.876333	1038.778320	268.287262
19475.755479	16928.876333	1037.624023	320.942474
19475.755479	16928.876333	1036.469727	431.896332
19475.755479	16928.876333	1035.314453	258.717590
19475.755479	16928.876333	1034.159180	597.112427
19475.755479	16928.876333	1033.003906	686.994263
19475.755479	16928.876333	1031.847656	746.994324
19475.755479	16928.876333	1030.692383	719.114746
19475.755479	16928.876333	1029.536133	966.246399
19475.755479	16928.876333	1028.378906	734.893555
19475.755479	16928.876333	1027.222656	546.313354
19475.755479	16928.876333	1026.065430	623.629028
19475.755479	16928.876333	1024.908203	389.674011
19475.755479	16928.876333	1023.750977	284.425079
19475.755479	16928.876333	1022.593750	297.568146
19475.755479	16928.876333	1021.435547	282.508484
19475.755479	16928.876333	1020.277344	30.481037
19475.755479	16928.876333	1019.119141	193.408920
19475.755479	16928.876333	1017.959961	147.917099
19475.755479	16928.876333	1016.800781	6.872390
19475.755479	16928.876333	1015.641602	-96.488594
19475.755479	16928.876333	1014.482422	181.243637
19475.755479	16928.876333	1013.323242	-11.481403
19475.755479	16928.876333	1012.163086	259.495300
19475.755479	16928.876333	1011.002930	184.074844
19475.755479	16928.876333	1009.842773	-76.968048
19475.755479	16928.876333	1008.681641	35.068512
19475.755479	16928.876333	1007.520508	330.012482
19475.755479	16928.876333	1006.359375	224.902191
19475.755479	16928.876333	1005.198242	149.819031
19475.755479	16928.876333	1004.037109	268.994720
19475.755479	16928.876333	1002.875000	603.247253
19475.755479	16928.876333	1001.712891	504.379242
19475.755479	16928.876333	1000.550781	322.510162
19475.755479	16928.876333	999.387695	172.689377
19475.755479	16928.876333	998.224609	-103.305801
19475.755479	16928.876333	997.061523	188.732895
19475.755479	16928.876333	995.898438	191.439545
19475.755479	16928.876333	994.734375	-25.014502
19475.755479	16928.876333	993.571289	363.807159
19475.755479	16928.876333	992.407227	182.673721
19475.755479	16928.876333	991.242188	13.865616
19475.755479	16928.876333	990.078125	228.875076
19475.755479	16928.876333	988.913086	193.785553
19475.755479	16928.876333	987.748047	-55.193794
19475.755479	16928.876333	986.583008	-78.239487
19475.755479	16928.876333	985.416992	85.221016
19475.755479	16928.876333	984.250977	9.828540
19475.755479	16928.876333	983.084961	57.055981
19475.755479	16928.876333	981.918945	108.022728
19475.755479	16928.876333	980.751953	-33.064003
19475.755479	16928.876333	979.584961	198.078278
19475.755479	16928.876333	978.417969	108.796471
19475.755479	16928.876333	977.250977	-62.166985
19475.755479	16928.876333	976.083008	-94.763168
19475.755479	16928.876333	974.915039	55.934994
19475.755479	16928.876333	973.747070	-80.584961
19475.755479	16928.876333	972.579102	196.419373
19475.755479	16928.876333	971.410156	133.582764
19475.755479	16928.876333	970.242188	23.866758
19475.755479	16928.876333	969.072266	268.863678
19475.755479	16928.876333	967.903320	204.307800
19475.755479	16928.876333	966.733398	164.435150
19475.755479	16928.876333	965.563477	71.955154
19475.755479	16928.876333	964.393555	77.796715
19475.755479	16928.876333	963.223633	-23.302673
19475.755479	16928.876333	962.052734	118.271103
19475.755479	16928.876333	960.881836	122.819313
19475.755479	16928.876333	959.710938	-16.650063
19475.755479	16928.876333	958.540039	-206.608521
19475.755479	16928.876333	957.368164	34.806026
19475.755479	16928.876333	956.196289	-17.891254
19475.755479	16928.876333	955.024414	-85.915039
19475.755479	16928.876333	953.851563	115.867210
19475.755479	16928.876333	952.679688	-50.403847
19475.755479	16928.876333	951.506836	-49.861763
19475.755479	16928.876333	950.333984	157.945221
19475.755479	16928.876333	949.160156	223.866348
19475.755479	16928.876333	947.986328	299.544800
19475.755479	16928.876333	946.812500	393.825470
19475.755479	16928.876333	945.638672	348.578583
19475.755479	16928.876333	944.464844	333.921417
19475.755479	16928.876333	943.290039	249.060608
19475.755479	16928.876333	942.115234	78.745804
19475.755479	16928.876333	940.940430	41.247631
19475.755479	16928.876333	939.764648	52.111485
19475.755479	16928.876333	938.588867	336.480621
19475.755479	16928.876333	937.413086	205.414719
19475.755479	16928.876333	936.237305	-23.792210
19475.755479	16928.876333	935.060547	-29.726654
19475.755479	16928.876333	933.883789	52.081821
19475.755479	16928.876333	932.707031	177.632324
19475.755479	16928.876333	931.530273	300.982513
19475.755479	16928.876333	930.352539	28.158161
19475.755479	16928.876333	929.175781	32.609921
19475.755479	16928.876333	927.998047	39.204594
19475.755479	16928.876333	926.819336	-66.773636
19475.755479	16928.876333	925.641602	223.275406
19475.755479	16928.876333	924.462891	146.402023
19475.755479	16928.876333	923.284180	36.227089
19475.755479	16928.876333	922.104492	-119.755028
19475.755479	16928.876333	920.924805	13.837333
19475.755479	16928.876333	919.746094	21.098768
19475.755479	16928.876333	919.551758	192.289780
19475.755479	16928.876333	918.386719	240.284409
19475.755479	16928.876333	917.220703	259.107971
19475.755479	16928.876333	916.054688	55.213482
19475.755479	16928.876333	914.887695	111.502373
19475.755479	16928.876333	913.721680	20.037914
19475.755479	16928.876333	912.554688	-94.276390
19475.755479	16928.876333	911.387695	1.480252
19475.755479	16928.876333	910.220703	95.106644
19475.755479	16928.876333	909.052734	32.781517
19475.755479	16928.876333	907.885742	113.866081
19475.755479	16928.876333	906.717773	-123.007797
19475.755479	16928.876333	905.548828	22.462551
19475.755479	16928.876333	904.380859	20.384489
19475.755479	16928.876333	903.211914	-91.762550
19475.755479	16928.876333	902.042969	95.095604
19475.755479	16928.876333	900.874023	68.059479
19475.755479	16928.876333	899.704102	155.170944
19475.755479	16928.876333	898.535156	192.428101
19475.755479	16928.876333	897.365234	221.364929
19475.755479	16928.876333	896.194336	7.613123
19475.755479	16928.876333	895.024414	32.400360
19475.755479	16928.876333	893.853516	179.490005
19475.755479	16928.876333	892.682617	-5.145281
19475.755479	16928.876333	891.511719	-50.869835
19475.755479	16928.876333	890.340820	205.918777
19475.755479	16928.876333	889.168945	263.724182
19475.755479	16928.876333	887.997070	56.388229
19475.755479	16928.876333	886.825195	45.837559
19475.755479	16928.876333	885.653320	-26.831264
19475.755479	16928.876333	884.480469	-138.807068
19475.755479	16928.876333	883.307617	-83.128838
19475.755479	16928.876333	882.134766	-64.730286
19475.755479	16928.876333	880.961914	-174.606659
19475.755479	16928.876333	879.788086	-81.769150
19475.755479	16928.876333	878.614258	-26.203947
19475.755479	16928.876333	877.440430	-123.659241
19475.755479	16928.876333	876.266602	-55.738705
19475.755479	16928.876333	875.091797	-198.637177
19475.755479	16928.876333	873.916992	44.857418
19475.755479	16928.876333	872.742188	56.886524
19475.755479	16928.876333	871.567383	194.870880
19475.755479	16928.876333	870.391602	165.539368
19475.755479	16928.876333	869.215820	6.148090
19475.755479	16928.876333	868.040039	36.687084
19475.755479	16928.876333	866.864258	63.069260
19475.755479	16928.876333	865.687500	-44.672848
19475.755479	16928.876333	864.510742	25.001059
19475.755479	16928.876333	863.333984	8.013641
19475.755479	16928.876333	862.157227	38.435993
19475.755479	16928.876333	860.979492	56.465603
19475.755479	16928.876333	859.802734	14.694174
19475.755479	16928.876333	858.625000	-140.404037
19475.755479	16928.876333	857.446289	-134.761887
19475.755479	16928.876333	856.268555	-116.788597
19475.755479	16928.876333	855.089844	-63.829327
19475.755479	16928.876333	853.911133	-146.796783
19475.755479	16928.876333	852.731445	-25.959459
19475.755479	16928.876333	851.552734	-166.566238
19475.755479	16928.876333	850.373047	-39.643127
19475.755479	16928.876333	849.193359	-233.712143
19475.755479	16928.876333	848.013672	-88.357529
19475.755479	16928.876333	846.833008	-54.122250
19475.755479	16928.876333	845.652344	-126.829079
19475.755479	16928.876333	844.471680	108.795181
19475.755479	16928.876333	843.291016	-124.254593
19475.755479	16928.876333	842.110352	6.440286
19475.755479	16928.876333	840.928711	157.606247
19475.755479	16928.876333	839.747070	-32.243431
19475.755479	16928.876333	838.564453	-6.429256
19475.755479	16928.876333	837.382813	-87.406731
19475.755479	16928.876333	836.200195	20.461710
19475.755479	16928.876333	835.017578	-9.228564
19475.755479	16928.876333	833.834961	127.254601
19475.755479	16928.876333	832.651367	-35.822483
19475.755479	16928.876333	831.467773	0.075056
19475.755479	16928.876333	830.284180	13.376640
19475.755479	16928.876333	829.100586	106.597626
19475.755479	16928.876333	827.916992	13.243597
19475.755479	16928.876333	826.732422	118.673515
19475.755479	16928.876333	825.547852	205.595215
19475.755479	16928.876333	824.363281	198.232056
19475.755479	16928.876333	823.177734	29.066946
19475.755479	16928.876333	821.992188	328.812653
19475.755479	16928.876333	820.806641	190.340988
19475.755479	16928.876333	819.621094	272.933899
19475.755479	16928.876333	818.434570	93.554649
19475.755479	16928.876333	817.249023	124.932083
19475.755479	16928.876333	816.062500	33.550621
19475.755479	16928.876333	814.875000	203.933350
19475.755479	16928.876333	813.688477	124.781898
19475.755479	16928.876333	812.500977	129.444809
19475.755479	16928.876333	811.313477	209.691727
19475.755479	16928.876333	810.125977	130.502808
19475.755479	16928.876333	808.937500	41.105808
19475.755479	16928.876333	807.749023	-60.540127
19475.755479	16928.876333	806.560547	-141.754608
19475.755479	16928.876333	805.372070	64.890808
19475.755479	16928.876333	804.182617	91.803406
19475.755479	16928.876333	802.994141	-9.894766
19475.755479	16928.876333	801.803711	110.815552
19475.755479	16928.876333	800.614258	58.050278
19475.755479	16928.876333	799.424805	139.876862
19475.755479	16928.876333	798.234375	95.221008
19475.755479	16928.876333	797.043945	164.712082
19475.755479	16928.876333	795.852539	77.204453
19475.755479	16928.876333	794.662109	146.601807
19475.755479	16928.876333	793.470703	154.820160
19475.755479	16928.876333	792.279297	189.479233
19475.755479	16928.876333	791.087891	2.112940
19475.755479	16928.876333	789.895508	146.670242
19475.755479	16928.876333	788.703125	-26.427319
19475.755479	16928.876333	787.510742	65.088562
19475.755479	16928.876333	786.318359	-85.610489
19475.755479	16928.876333	785.125000	-91.839287
19475.755479	16928.876333	783.931641	50.376568
19475.755479	16928.876333	782.738281	153.858124
19475.755479	16928.876333	781.544922	182.035812
19475.755479	16928.876333	780.350586	53.650364
19475.755479	16928.876333	779.156250	-111.301216
19475.755479	16928.876333	777.961914	152.497253
19475.755479	16928.876333	776.767578	-44.985725
19475.755479	16928.876333	775.572266	92.693611
19475.755479	16928.876333	774.376953	-58.065243
19475.755479	16928.876333	773.181641	132.264832
19475.755479	16928.876333	771.986328	34.254913
19475.755479	16928.876333	770.790039	-65.780281
19475.755479	16928.876333	769.593750	124.317696
19475.755479	16928.876333	768.397461	-129.938690
19475.755479	16928.876333	767.201172	-47.473434
19475.755479	16928.876333	766.003906	6.532940
19475.755479	16928.876333	764.806641	11.823974
19475.755479	16928.876333	763.609375	-64.000908
19475.755479	16928.876333	762.412109	-64.858864
19475.755479	16928.876333	761.213867	43.644669
19475.755479	16928.876333	760.015625	-32.259312
19475.755479	16928.876333	758.817383	-67.672523
19475.755479	16928.876333	757.618164	131.751663
19475.755479	16928.876333	756.419922	-17.122890
19475.755479	16928.876333	755.220703	161.884506
19475.755479	16928.876333	754.021484	-17.366999
19475.755479	16928.876333	752.821289	-56.998680
19475.755479	16928.876333	751.621094	79.306686
19475.755479	16928.876333	750.420898	195.290192
19475.755479	16928.876333	749.220703	-161.900803
19475.755479	16928.876333	748.020508	247.087097
19475.755479	16928.876333	746.819336	273.917633
19475.755479	16928.876333	745.618164	68.339912
19475.755479	16928.876333	744.416992	218.331345
19475.755479	16928.876333	743.214844	137.982391
19475.755479	16928.876333	742.012695	188.870346
19475.755479	16928.876333	740.810547	233.636765
19475.755479	16928.876333	739.608398	381.276703
19475.755479	16928.876333	738.406250	484.415100
19475.755479	16928.876333	737.203125	399.841492
19475.755479	16928.876333	736.000000	498.813049
19475.755479	16928.876333	734.795898	656.184692
19475.755479	16928.876333	733.592773	638.029724
19475.755479	16928.876333	732.388672	752.885071
19475.755479	16928.876333	731.184570	557.275757
19475.755479	16928.876333	729.979492	637.757629
19475.755479	16928.876333	728.775391	546.921997
19475.755479	16928.876333	727.570313	715.905090
19475.755479	16928.876333	726.365234	385.371765
19475.755479	16928.876333	725.160156	364.978241
19475.755479	16928.876333	723.954102	410.976654
19475.755479	16928.876333	722.748047	225.478180
19475.755479	16928.876333	721.541992	279.444855
19475.755479	16928.876333	720.334961	206.614960
19475.755479	16928.876333	719.128906	45.276733
19475.755479	16928.876333	717.921875	12.651824
19475.755479	16928.876333	716.714844	120.720840
19475.755479	16928.876333	715.506836	144.285492
19475.755479	16928.876333	714.298828	-7.030980
19475.755479	16928.876333	713.090820	-9.656153
19475.755479	16928.876333	711.882813	35.882759
19475.755479	16928.876333	710.674805	59.268528
19475.755479	16928.876333	709.465820	-278.804718
19475.755479	16928.876333	708.256836	37.631287
19475.755479	16928.876333	707.047852	-1.343241
19475.755479	16928.876333	705.837891	59.984337
19475.755479	16928.876333	704.627930	-3.137351
19475.755479	16928.876333	703.417969	-224.727615
19475.755479	16928.876333	702.208008	-203.627075
19475.755479	16928.876333	700.998047	-102.383339
19475.755479	16928.876333	699.787109	-73.382545
19475.755479	16928.876333	698.576172	-110.570168
19475.755479	16928.876333	697.364258	28.534805
19475.755479	16928.876333	696.153320	-76.850182
19475.755479	16928.876333	694.941406	0.019817
19475.755479	16928.876333	693.729492	-125.419640
19475.755479	16928.876333	692.516602	107.497917
19475.755479	16928.876333	691.304688	4.022469
19475.755479	16928.876333	690.091797	-1.395208
19475.755479	16928.876333	688.878906	167.206009
19475.755479	16928.876333	687.665039	231.685867
19475.755479	16928.876333	686.451172	126.113953
19475.755479	16928.876333	685.237305	238.481842
19475.755479	16928.876333	684.023438	102.889542
19475.755479	16928.876333	682.809570	289.084473
19475.755479	16928.876333	681.594727	91.521027
19475.755479	16928.876333	680.379883	167.689896
19475.755479	16928.876333	679.165039	191.860046
19475.755479	16928.876333	677.949219	247.934052
19475.755479	16928.876333	676.733398	148.223022
19475.755479	16928.876333	675.517578	-13.358521
19475.755479	16928.876333	674.301758	54.588318
19475.755479	16928.876333	673.084961	-77.048637
19475.755479	16928.876333	671.869141	110.499298
19475.755479	16928.876333	670.651367	220.155365
19475.755479	16928.876333	669.434570	128.342041
19475.755479	16928.876333	668.216797	-69.120682
19475.755479	16928.876333	667.000000	138.063507
19475.755479	16928.876333	665.781250	167.781433
19475.755479	16928.876333	664.563477	283.120941
19475.755479	16928.876333	663.344727	21.925333
19475.755479	16928.876333	662.125977	180.995453
19475.755479	16928.876333	660.907227	172.725403
19475.755479	16928.876333	659.688477	182.344284
19475.755479	16928.876333	658.468750	257.604980
19475.755479	16928.876333	657.249023	318.877777
19475.755479	16928.876333	656.029297	83.687691
19475.755479	16928.876333	654.808594	387.560028
19475.755479	16928.876333	653.587891	275.686493
19475.755479	16928.876333	652.367188	151.904602
19475.755479	16928.876333	651.146484	195.111465
19475.755479	16928.876333	649.924805	158.785477
19475.755479	16928.876333	648.704102	309.209076
19475.755479	16928.876333	647.482422	324.472168
19475.755479	16928.876333	646.259766	208.632950
19475.755479	16928.876333	645.037109	15.383329
19475.755479	16928.876333	643.815430	340.308838
19475.755479	16928.876333	642.591797	226.457336
19475.755479	16928.876333	641.369141	203.911240
19475.755479	16928.876333	640.145508	288.481934
19475.755479	16928.876333	638.921875	220.272568
19475.755479	16928.876333	637.698242	33.093410
19475.755479	16928.876333	636.474609	62.078960
19475.755479	16928.876333	635.250000	176.267044
19475.755479	16928.876333	634.025391	127.886864
19475.755479	16928.876333	632.800781	196.410812
19475.755479	16928.876333	631.575195	118.302490
19475.755479	16928.876333	630.349609	137.256958
19475.755479	16928.876333	629.124023	51.245636
19475.755479	16928.876333	627.898438	127.589592
19475.755479	16928.876333	626.671875	156.387146
19475.755479	16928.876333	625.445313	102.050217
19475.755479	16928.876333	624.218750	154.560013
19475.755479	16928.876333	622.992188	72.534477
19475.755479	16928.876333	621.764648	117.097290
19475.755479	16928.876333	620.537109	-59.805401
19475.755479	16928.876333	619.309570	-72.574226
19475.755479	16928.876333	618.081055	82.641075
19475.755479	16928.876333	616.852539	83.665550
19475.755479	16928.876333	615.624023	41.223579
19475.755479	16928.876333	614.395508	129.147934
19475.755479	16928.876333	613.166992	110.400299
19475.755479	16928.876333	611.937500	-147.219879
19475.755479	16928.876333	610.708008	118.317528
19475.755479	16928.876333	609.477539	60.109829
19475.755479	16928.876333	608.248047	-201.288300
19475.755479	16928.876333	607.017578	-85.823654
19475.755479	16928.876333	605.787109	15.787819
19475.755479	16928.876333	604.555664	-52.208172
19475.755479	16928.876333	603.325195	78.924667
19475.755479	16928.876333	602.093750	-109.274132
19475.755479	16928.876333	600.861328	-9.706220
19475.755479	16928.876333	599.629883	-50.048424
19475.755479	16928.876333	598.397461	-153.395981
19475.755479	16928.876333	597.165039	-110.974686
19475.755479	16928.876333	595.932617	-78.410828
19475.755479	16928.876333	594.699219	-221.035873
19475.755479	16928.876333	593.465820	89.027832
19475.755479	16928.876333	592.232422	-203.087219
19475.755479	16928.876333	590.999023	-129.192947
19475.755479	16928.876333	589.764648	-218.553436
19475.755479	16928.876333	588.530273	-54.221752
19475.755479	16928.876333	587.295898	-100.293045
19475.755479	16928.876333	586.061523	-134.542145
19475.755479	16928.876333	584.826172	-145.185333
19475.755479	16928.876333	583.590820	-81.158585
19475.755479	16928.876333	582.355469	-182.135223
19475.755479	16928.876333	581.119141	-67.046402
19475.755479	16928.876333	579.882813	46.043888
19475.755479	16928.876333	578.646484	7.956403
19475.755479	16928.876333	577.410156	132.784332
19475.755479	16928.876333	576.172852	188.902145
19475.755479	16928.876333	574.935547	162.621719
19475.755479	16928.876333	573.698242	144.212906
19475.755479	16928.876333	572.460938	116.022720
19475.755479	16928.876333	571.222656	172.158005
19475.755479	16928.876333	569.984375	26.408979
19475.755479	16928.876333	568.746094	123.721191
19475.755479	16928.876333	567.506836	-39.554409
19475.755479	16928.876333	566.267578	71.474800
19475.755479	16928.876333	565.028320	23.852917
19475.755479	16928.876333	563.789063	103.529266
19475.755479	16928.876333	562.548828	112.720924
19475.755479	16928.876333	561.309570	-17.022657
19475.755479	16928.876333	560.068359	197.669312
19475.755479	16928.876333	558.828125	167.762939
19475.755479	16928.876333	557.586914	12.717598
19475.755479	16928.876333	556.345703	-228.281494
19475.755479	16928.876333	555.104492	78.223518
19475.755479	16928.876333	553.863281	-53.199211
19475.755479	16928.876333	552.621094	-37.990017
19475.755479	16928.876333	551.378906	16.301685
19475.755479	16928.876333	550.136719	88.165802
19475.755479	16928.876333	548.893555	255.703888
19475.755479	16928.876333	547.650391	212.323364
19475.755479	16928.876333	546.407227	69.424149
19475.755479	16928.876333	545.164063	336.434418
19475.755479	16928.876333	543.919922	150.671402
19475.755479	16928.876333	542.675781	259.565704
19475.755479	16928.876333	541.431641	257.256256
19475.755479	16928.876333	540.186523	256.909760
19475.755479	16928.876333	538.941406	350.149933
19475.755479	16928.876333	537.696289	55.491604
19475.755479	16928.876333	536.451172	-85.086731
19475.755479	16928.876333	535.205078	53.004253
19475.755479	16928.876333	533.959961	267.008636
19475.755479	16928.876333	532.712891	262.816406
19475.755479	16928.876333	531.466797	297.570374
19475.755479	16928.876333	530.219727	170.745819
19475.755479	16928.876333	528.972656	-78.629753
19475.755479	16928.876333	527.725586	277.229309
19475.755479	16928.876333	526.478516	193.290268
19475.755479	16928.876333	525.230469	303.877197
19475.755479	16928.876333	523.982422	109.125687
19475.755479	16928.876333	522.734375	134.132584
19475.755479	16928.876333	521.485352	-23.582935
19475.755479	16928.876333	520.236328	360.924957
19475.755479	16928.876333	518.987305	420.804657
19475.755479	16928.876333	517.737305	389.350433
19475.755479	16928.876333	516.488281	421.980042
19475.755479	16928.876333	515.238281	528.357178
19475.755479	16928.876333	513.988281	463.846161
19475.755479	16928.876333	512.737305	290.658813
19475.755479	16928.876333	511.486328	422.150482
19475.755479	16928.876333	510.235352	357.626160
19475.755479	16928.876333	508.984375	475.411163
19475.755479	16928.876333	507.732422	298.372009
19475.755479	16928.876333	506.480469	303.605011
19475.755479	16928.876333	505.228516	454.164612
19475.755479	16928.876333	503.976563	463.153107
19475.755479	16928.876333	502.723633	712.329956
19475.755479	16928.876333	501.470703	688.233521
19475.755479	16928.876333	500.217773	551.772217
19475.755479	16928.876333	498.963867	785.117310
19475.755479	16928.876333	497.709961	621.473694
19475.755479	16928.876333	496.456055	606.854126
19475.755479	16928.876333	495.202148	752.768066
19475.755479	16928.876333	493.947266	765.064636
19475.755479	16928.876333	492.692383	792.750366
19475.755479	16928.876333	491.437500	1009.838196
19475.755479	16928.876333	490.181641	1029.554565
19475.755479	16928.876333	488.926758	852.021484
19475.755479	16928.876333	487.670898	927.611938
19475.755479	16928.876333	486.414063	1171.148682
19475.755479	16928.876333	485.158203	1178.821045
19475.755479	16928.876333	483.901367	1132.302979
19475.755479	16928.876333	482.644531	1383.019287
19475.755479	16928.876333	481.386719	1340.091919
19475.755479	16928.876333	480.128906	1325.999390
19475.755479	16928.876333	478.871094	1311.775513
19475.755479	16928.876333	477.613281	1278.122192
19475.755479	16928.876333	476.355469	1265.549438
19475.755479	16928.876333	475.096680	1339.593262
19475.755479	16928.876333	473.837891	1322.833008
19475.755479	16928.876333	472.578125	1250.011841
19475.755479	16928.876333	471.319336	1200.169189
19475.755479	16928.876333	470.059570	1387.129883
19475.755479	16928.876333	468.799805	1554.554077
19475.755479	16928.876333	467.539063	1663.929688
19475.755479	16928.876333	466.278320	1420.710938
19475.755479	16928.876333	465.017578	1743.306641
19475.755479	16928.876333	463.756836	1567.088257
19475.755479	16928.876333	462.495117	1623.522705
19475.755479	16928.876333	461.233398	1812.422241
19475.755479	16928.876333	459.971680	1766.348145
19475.755479	16928.876333	458.709961	1852.707275
19475.755479	16928.876333	457.447266	1665.767578
19475.755479	16928.876333	456.184570	1874.559814
19475.755479	16928.876333	454.921875	1869.672729
19475.755479	16928.876333	453.658203	1891.375854
19475.755479	16928.876333	452.394531	1722.599243
19475.755479	16928.876333	451.130859	1808.976929
19475.755479	16928.876333	449.867188	1668.428589
19475.755479	16928.876333	448.602539	1719.540894
19475.755479	16928.876333	447.337891	1733.808716
19475.755479	16928.876333	446.073242	1828.283569
19475.755479	16928.876333	444.807617	1743.927612
19475.755479	16928.876333	443.542969	1941.144531
19475.755479	16928.876333	442.276367	1969.117432
19475.755479	16928.876333	441.010742	1900.811768
19475.755479	16928.876333	439.744141	1920.256470
19475.755479	16928.876333	438.478516	1831.944824
19475.755479	16928.876333	437.210938	2157.000732
19475.755479	16928.876333	435.944336	1920.242188
19475.755479	16928.876333	434.676758	2018.203125
19475.755479	16928.876333	433.409180	1874.381348
19475.755479	16928.876333	432.141602	2036.359497
19475.755479	16928.876333	430.873047	1962.331787
19475.755479	16928.876333	429.604492	2040.844971
19475.755479	16928.876333	428.335938	2218.223877
19475.755479	16928.876333	427.067383	2010.531616
19475.755479	16928.876333	425.797852	1976.310669
19475.755479	16928.876333	424.528320	2084.855225
19475.755479	16928.876333	423.258789	2083.772949
19475.755479	16928.876333	421.988281	1952.083252
19475.755479	16928.876333	420.717773	1921.026367
19475.755479	16928.876333	419.447266	1887.377686
19475.755479	16928.876333	418.175781	2040.151001
19475.755479	16928.876333	416.905273	2220.776367
19475.755479	16928.876333	415.633789	2034.075317
19475.755479	16928.876333	414.362305	1936.371216
19475.755479	16928.876333	413.089844	2068.754150
19475.755479	16928.876333	411.817383	2028.586426
19475.755479	16928.876333	410.544922	1838.845703
19475.755479	16928.876333	409.272461	2043.006714
19475.755479	16928.876333	407.999023	2051.737305
19475.755479	16928.876333	406.725586	2002.382935
19475.755479	16928.876333	405.452148	2072.160889
19475.755479	16928.876333	404.177734	1883.755127
19475.755479	16928.876333	402.903320	2027.757813
19475.755479	16928.876333	401.628906	2039.304932
19475.755479	16928.876333	400.354492	2076.471924
19475.755479	16928.876333	399.079102	2103.026367
19475.755479	16928.876333	397.803711	1822.112305
19475.755479	16928.876333	396.528320	2012.041748
19475.755479	16928.876333	395.251953	2018.121826
19475.755479	16928.876333	393.976563	1950.799683
19475.755479	16928.876333	392.700195	1964.043701
19475.755479	16928.876333	391.422852	1839.167114
19475.755479	16928.876333	390.145508	1922.145020
19475.755479	16928.876333	388.869141	1762.533203
19475.755479	16928.876333	387.590820	1645.306396
19475.755479	16928.876333	386.313477	1682.560303
19475.755479	16928.876333	385.035156	1824.724365
19475.755479	16928.876333	383.756836	1864.806152
19475.755479	16928.876333	382.478516	1772.470337
19475.755479	16928.876333	381.199219	1597.070679
19475.755479	16928.876333	379.919922	1847.104492
19475.755479	16928.876333	378.640625	1575.778809
19475.755479	16928.876333	377.360352	1532.411621
19475.755479	16928.876333	376.080078	1682.733521
19475.755479	16928.876333	374.799805	1666.432129
19475.755479	16928.876333	373.519531	1659.825195
19475.755479	16928.876333	372.238281	1571.877808
19475.755479	16928.876333	370.957031	1385.597290
19475.755479	16928.876333	369.675781	1593.417847
19475.755479	16928.876333	368.394531	1748.188965
19475.755479	16928.876333	367.112305	1808.200806
19475.755479	16928.876333	365.830078	1572.909668
19475.755479	16928.876333	364.546875	1560.879395
19475.755479	16928.876333	363.264648	1217.728882
19475.755479	16928.876333	361.981445	1390.869629
19475.755479	16928.876333	360.698242	1213.901367
19475.755479	16928.876333	359.414063	1369.443604
19475.755479	16928.876333	358.129883	1333.721313
19475.755479	16928.876333	356.845703	1218.309082
19475.755479	16928.876333	355.561523	1163.021606
19475.755479	16928.876333	354.276367	1160.146362
19475.755479	16928.876333	352.991211	903.732178
19475.755479	16928.876333	351.706055	907.456360
19475.755479	16928.876333	350.420898	1110.692993
19475.755479	16928.876333	349.134766	788.473328
19475.755479	16928.876333	347.848633	873.271790
19475.755479	16928.876333	346.561523	757.254700
19475.755479	16928.876333	345.275391	557.588562
19475.755479	16928.876333	343.988281	521.134949
19475.755479	16928.876333	342.700195	625.102600
19475.755479	16928.876333	341.413086	398.312408
19475.755479	16928.876333	340.125000	438.103119
19475.755479	16928.876333	338.836914	687.810852
19475.755479	16928.876333	337.548828	602.887573
19475.755479	16928.876333	336.259766	298.268677
19475.755479	16928.876333	334.970703	239.169220
19475.755479	16928.876333	333.681641	109.138092
19475.755479	16928.876333	332.391602	354.071503
19475.755479	16928.876333	331.101563	106.380226
19475.755479	16928.876333	329.811523	94.311546
19475.755479	16928.876333	328.521484	86.322830
19475.755479	16928.876333	327.230469	225.132309
19475.755479	16928.876333	325.939453	-28.837236
19475.755479	16928.876333	324.648438	61.353065
19475.755479	16928.876333	323.356445	1.097854
19475.755479	16928.876333	322.064453	66.701836
19475.755479	16928.876333	320.772461	8.208332
19475.755479	16928.876333	319.480469	-11.002401
19475.755479	16928.876333	318.187500	-73.770111
19475.755479	16928.876333	316.894531	-73.023094
19475.755479	16928.876333	315.601563	-104.581459
19475.755479	16928.876333	314.307617	-78.588432
19475.755479	16928.876333	313.013672	-135.702820
19475.755479	16928.876333	311.719727	-124.044838
19475.755479	16928.876333	310.425781	-21.239618
19475.755479	16928.876333	309.130859	-329.963531
19475.755479	16928.876333	307.835938	-24.722448
19475.755479	16928.876333	306.541016	24.587559
19475.755479	16928.876333	305.245117	-80.958214
19475.755479	16928.876333	303.949219	110.188011
19475.755479	16928.876333	302.653320	129.620819
19475.755479	16928.876333	301.356445	243.021957
19475.755479	16928.876333	300.060547	255.942017
19475.755479	16928.876333	298.763672	302.724884
